PE IR       SUBTECH     SPECTRUM    ASCII       PEDS        4.00        
   -1
3S-N10-C008_1.ASC
22/02/18
11:42:10.00
22/02/18
11:50:45.00
uco
Sample 008 By uco Date Friday, February 18 2022
450.000000
#HDR
-1
-1
#GR
cm-1
A
1.0
0.0
4000.000000
-1.000000
3551
8
0.056897
-0.026063
#DATA
4000.000000	0.002892
3999.000000	0.002905
3998.000000	0.002921
3997.000000	0.002937
3996.000000	0.002948
3995.000000	0.002957
3994.000000	0.002962
3993.000000	0.002963
3992.000000	0.002956
3991.000000	0.002945
3990.000000	0.002936
3989.000000	0.002937
3988.000000	0.002946
3987.000000	0.002957
3986.000000	0.002966
3985.000000	0.002973
3984.000000	0.002978
3983.000000	0.002979
3982.000000	0.002972
3981.000000	0.002958
3980.000000	0.002943
3979.000000	0.002934
3978.000000	0.002935
3977.000000	0.002945
3976.000000	0.002963
3975.000000	0.002987
3974.000000	0.003012
3973.000000	0.003030
3972.000000	0.003038
3971.000000	0.003042
3970.000000	0.003047
3969.000000	0.003057
3968.000000	0.003064
3967.000000	0.003062
3966.000000	0.003050
3965.000000	0.003034
3964.000000	0.003026
3963.000000	0.003031
3962.000000	0.003051
3961.000000	0.003080
3960.000000	0.003113
3959.000000	0.003144
3958.000000	0.003167
3957.000000	0.003177
3956.000000	0.003168
3955.000000	0.003146
3954.000000	0.003123
3953.000000	0.003112
3952.000000	0.003117
3951.000000	0.003128
3950.000000	0.003130
3949.000000	0.003116
3948.000000	0.003097
3947.000000	0.003086
3946.000000	0.003089
3945.000000	0.003101
3944.000000	0.003115
3943.000000	0.003126
3942.000000	0.003137
3941.000000	0.003145
3940.000000	0.003146
3939.000000	0.003143
3938.000000	0.003139
3937.000000	0.003141
3936.000000	0.003150
3935.000000	0.003160
3934.000000	0.003167
3933.000000	0.003171
3932.000000	0.003180
3931.000000	0.003196
3930.000000	0.003214
3929.000000	0.003226
3928.000000	0.003227
3927.000000	0.003219
3926.000000	0.003205
3925.000000	0.003191
3924.000000	0.003186
3923.000000	0.003194
3922.000000	0.003211
3921.000000	0.003231
3920.000000	0.003249
3919.000000	0.003263
3918.000000	0.003271
3917.000000	0.003270
3916.000000	0.003262
3915.000000	0.003251
3914.000000	0.003242
3913.000000	0.003234
3912.000000	0.003221
3911.000000	0.003203
3910.000000	0.003186
3909.000000	0.003179
3908.000000	0.003183
3907.000000	0.003196
3906.000000	0.003218
3905.000000	0.003253
3904.000000	0.003299
3903.000000	0.003345
3902.000000	0.003372
3901.000000	0.003372
3900.000000	0.003354
3899.000000	0.003334
3898.000000	0.003329
3897.000000	0.003337
3896.000000	0.003347
3895.000000	0.003345
3894.000000	0.003317
3893.000000	0.003270
3892.000000	0.003228
3891.000000	0.003221
3890.000000	0.003254
3889.000000	0.003306
3888.000000	0.003352
3887.000000	0.003371
3886.000000	0.003362
3885.000000	0.003342
3884.000000	0.003329
3883.000000	0.003322
3882.000000	0.003310
3881.000000	0.003295
3880.000000	0.003293
3879.000000	0.003313
3878.000000	0.003345
3877.000000	0.003375
3876.000000	0.003393
3875.000000	0.003394
3874.000000	0.003386
3873.000000	0.003373
3872.000000	0.003356
3871.000000	0.003334
3870.000000	0.003318
3869.000000	0.003318
3868.000000	0.003331
3867.000000	0.003341
3866.000000	0.003337
3865.000000	0.003321
3864.000000	0.003313
3863.000000	0.003324
3862.000000	0.003340
3861.000000	0.003351
3860.000000	0.003351
3859.000000	0.003347
3858.000000	0.003347
3857.000000	0.003357
3856.000000	0.003379
3855.000000	0.003408
3854.000000	0.003447
3853.000000	0.003499
3852.000000	0.003544
3851.000000	0.003564
3850.000000	0.003562
3849.000000	0.003547
3848.000000	0.003527
3847.000000	0.003506
3846.000000	0.003482
3845.000000	0.003453
3844.000000	0.003419
3843.000000	0.003392
3842.000000	0.003383
3841.000000	0.003392
3840.000000	0.003405
3839.000000	0.003406
3838.000000	0.003390
3837.000000	0.003371
3836.000000	0.003367
3835.000000	0.003386
3834.000000	0.003420
3833.000000	0.003453
3832.000000	0.003470
3831.000000	0.003469
3830.000000	0.003453
3829.000000	0.003431
3828.000000	0.003408
3827.000000	0.003391
3826.000000	0.003388
3825.000000	0.003397
3824.000000	0.003410
3823.000000	0.003409
3822.000000	0.003393
3821.000000	0.003389
3820.000000	0.003415
3819.000000	0.003456
3818.000000	0.003485
3817.000000	0.003488
3816.000000	0.003479
3815.000000	0.003481
3814.000000	0.003502
3813.000000	0.003529
3812.000000	0.003552
3811.000000	0.003566
3810.000000	0.003568
3809.000000	0.003548
3808.000000	0.003501
3807.000000	0.003441
3806.000000	0.003400
3805.000000	0.003394
3804.000000	0.003417
3803.000000	0.003442
3802.000000	0.003452
3801.000000	0.003451
3800.000000	0.003451
3799.000000	0.003454
3798.000000	0.003459
3797.000000	0.003471
3796.000000	0.003488
3795.000000	0.003503
3794.000000	0.003507
3793.000000	0.003494
3792.000000	0.003468
3791.000000	0.003437
3790.000000	0.003408
3789.000000	0.003386
3788.000000	0.003372
3787.000000	0.003369
3786.000000	0.003377
3785.000000	0.003391
3784.000000	0.003406
3783.000000	0.003416
3782.000000	0.003418
3781.000000	0.003415
3780.000000	0.003417
3779.000000	0.003432
3778.000000	0.003451
3777.000000	0.003457
3776.000000	0.003441
3775.000000	0.003411
3774.000000	0.003385
3773.000000	0.003380
3772.000000	0.003398
3771.000000	0.003427
3770.000000	0.003455
3769.000000	0.003478
3768.000000	0.003493
3767.000000	0.003493
3766.000000	0.003478
3765.000000	0.003455
3764.000000	0.003437
3763.000000	0.003425
3762.000000	0.003412
3761.000000	0.003388
3760.000000	0.003359
3759.000000	0.003348
3758.000000	0.003368
3757.000000	0.003412
3756.000000	0.003466
3755.000000	0.003520
3754.000000	0.003568
3753.000000	0.003604
3752.000000	0.003634
3751.000000	0.003669
3750.000000	0.003707
3749.000000	0.003726
3748.000000	0.003724
3747.000000	0.003719
3746.000000	0.003719
3745.000000	0.003722
3744.000000	0.003721
3743.000000	0.003712
3742.000000	0.003695
3741.000000	0.003679
3740.000000	0.003666
3739.000000	0.003659
3738.000000	0.003654
3737.000000	0.003646
3736.000000	0.003626
3735.000000	0.003602
3734.000000	0.003587
3733.000000	0.003584
3732.000000	0.003585
3731.000000	0.003584
3730.000000	0.003579
3729.000000	0.003577
3728.000000	0.003585
3727.000000	0.003609
3726.000000	0.003646
3725.000000	0.003676
3724.000000	0.003675
3723.000000	0.003634
3722.000000	0.003577
3721.000000	0.003534
3720.000000	0.003518
3719.000000	0.003520
3718.000000	0.003527
3717.000000	0.003532
3716.000000	0.003536
3715.000000	0.003544
3714.000000	0.003554
3713.000000	0.003564
3712.000000	0.003570
3711.000000	0.003571
3710.000000	0.003565
3709.000000	0.003549
3708.000000	0.003527
3707.000000	0.003506
3706.000000	0.003494
3705.000000	0.003494
3704.000000	0.003501
3703.000000	0.003509
3702.000000	0.003515
3701.000000	0.003517
3700.000000	0.003516
3699.000000	0.003515
3698.000000	0.003522
3697.000000	0.003538
3696.000000	0.003563
3695.000000	0.003592
3694.000000	0.003621
3693.000000	0.003642
3692.000000	0.003651
3691.000000	0.003648
3690.000000	0.003642
3689.000000	0.003643
3688.000000	0.003652
3687.000000	0.003664
3686.000000	0.003675
3685.000000	0.003681
3684.000000	0.003681
3683.000000	0.003676
3682.000000	0.003672
3681.000000	0.003674
3680.000000	0.003687
3679.000000	0.003721
3678.000000	0.003785
3677.000000	0.003867
3676.000000	0.003933
3675.000000	0.003966
3674.000000	0.003974
3673.000000	0.003975
3672.000000	0.003981
3671.000000	0.003991
3670.000000	0.004001
3669.000000	0.004011
3668.000000	0.004017
3667.000000	0.004018
3666.000000	0.004020
3665.000000	0.004029
3664.000000	0.004042
3663.000000	0.004056
3662.000000	0.004065
3661.000000	0.004069
3660.000000	0.004068
3659.000000	0.004067
3658.000000	0.004077
3657.000000	0.004117
3656.000000	0.004193
3655.000000	0.004290
3654.000000	0.004389
3653.000000	0.004482
3652.000000	0.004565
3651.000000	0.004624
3650.000000	0.004646
3649.000000	0.004633
3648.000000	0.004605
3647.000000	0.004588
3646.000000	0.004600
3645.000000	0.004642
3644.000000	0.004701
3643.000000	0.004760
3642.000000	0.004810
3641.000000	0.004851
3640.000000	0.004891
3639.000000	0.004933
3638.000000	0.004980
3637.000000	0.005031
3636.000000	0.005082
3635.000000	0.005121
3634.000000	0.005146
3633.000000	0.005168
3632.000000	0.005201
3631.000000	0.005250
3630.000000	0.005309
3629.000000	0.005376
3628.000000	0.005448
3627.000000	0.005515
3626.000000	0.005568
3625.000000	0.005614
3624.000000	0.005659
3623.000000	0.005700
3622.000000	0.005726
3621.000000	0.005730
3620.000000	0.005720
3619.000000	0.005727
3618.000000	0.005771
3617.000000	0.005839
3616.000000	0.005909
3615.000000	0.005967
3614.000000	0.006018
3613.000000	0.006073
3612.000000	0.006142
3611.000000	0.006216
3610.000000	0.006280
3609.000000	0.006323
3608.000000	0.006348
3607.000000	0.006375
3606.000000	0.006421
3605.000000	0.006494
3604.000000	0.006589
3603.000000	0.006691
3602.000000	0.006782
3601.000000	0.006846
3600.000000	0.006881
3599.000000	0.006901
3598.000000	0.006922
3597.000000	0.006956
3596.000000	0.007005
3595.000000	0.007069
3594.000000	0.007141
3593.000000	0.007212
3592.000000	0.007275
3591.000000	0.007328
3590.000000	0.007373
3589.000000	0.007415
3588.000000	0.007470
3587.000000	0.007553
3586.000000	0.007662
3585.000000	0.007771
3584.000000	0.007854
3583.000000	0.007900
3582.000000	0.007921
3581.000000	0.007941
3580.000000	0.007977
3579.000000	0.008031
3578.000000	0.008095
3577.000000	0.008165
3576.000000	0.008239
3575.000000	0.008321
3574.000000	0.008413
3573.000000	0.008516
3572.000000	0.008630
3571.000000	0.008746
3570.000000	0.008854
3569.000000	0.008940
3568.000000	0.008996
3567.000000	0.009034
3566.000000	0.009077
3565.000000	0.009138
3564.000000	0.009212
3563.000000	0.009287
3562.000000	0.009351
3561.000000	0.009404
3560.000000	0.009454
3559.000000	0.009514
3558.000000	0.009589
3557.000000	0.009680
3556.000000	0.009780
3555.000000	0.009883
3554.000000	0.009978
3553.000000	0.010059
3552.000000	0.010123
3551.000000	0.010175
3550.000000	0.010224
3549.000000	0.010277
3548.000000	0.010339
3547.000000	0.010409
3546.000000	0.010485
3545.000000	0.010568
3544.000000	0.010657
3543.000000	0.010752
3542.000000	0.010847
3541.000000	0.010936
3540.000000	0.011020
3539.000000	0.011101
3538.000000	0.011180
3537.000000	0.011251
3536.000000	0.011311
3535.000000	0.011360
3534.000000	0.011405
3533.000000	0.011453
3532.000000	0.011514
3531.000000	0.011591
3530.000000	0.011686
3529.000000	0.011797
3528.000000	0.011920
3527.000000	0.012040
3526.000000	0.012144
3525.000000	0.012222
3524.000000	0.012279
3523.000000	0.012332
3522.000000	0.012395
3521.000000	0.012469
3520.000000	0.012548
3519.000000	0.012625
3518.000000	0.012698
3517.000000	0.012767
3516.000000	0.012830
3515.000000	0.012886
3514.000000	0.012936
3513.000000	0.012988
3512.000000	0.013051
3511.000000	0.013132
3510.000000	0.013230
3509.000000	0.013332
3508.000000	0.013420
3507.000000	0.013482
3506.000000	0.013526
3505.000000	0.013572
3504.000000	0.013633
3503.000000	0.013712
3502.000000	0.013791
3501.000000	0.013856
3500.000000	0.013903
3499.000000	0.013945
3498.000000	0.013997
3497.000000	0.014064
3496.000000	0.014145
3495.000000	0.014232
3494.000000	0.014320
3493.000000	0.014404
3492.000000	0.014476
3491.000000	0.014533
3490.000000	0.014577
3489.000000	0.014612
3488.000000	0.014644
3487.000000	0.014676
3486.000000	0.014716
3485.000000	0.014767
3484.000000	0.014829
3483.000000	0.014893
3482.000000	0.014955
3481.000000	0.015014
3480.000000	0.015067
3479.000000	0.015115
3478.000000	0.015162
3477.000000	0.015218
3476.000000	0.015290
3475.000000	0.015375
3474.000000	0.015462
3473.000000	0.015536
3472.000000	0.015597
3471.000000	0.015652
3470.000000	0.015711
3469.000000	0.015780
3468.000000	0.015854
3467.000000	0.015926
3466.000000	0.015991
3465.000000	0.016047
3464.000000	0.016100
3463.000000	0.016157
3462.000000	0.016220
3461.000000	0.016290
3460.000000	0.016364
3459.000000	0.016440
3458.000000	0.016516
3457.000000	0.016583
3456.000000	0.016642
3455.000000	0.016706
3454.000000	0.016785
3453.000000	0.016876
3452.000000	0.016965
3451.000000	0.017039
3450.000000	0.017102
3449.000000	0.017164
3448.000000	0.017237
3447.000000	0.017323
3446.000000	0.017412
3445.000000	0.017492
3444.000000	0.017548
3443.000000	0.017586
3442.000000	0.017623
3441.000000	0.017675
3440.000000	0.017745
3439.000000	0.017823
3438.000000	0.017899
3437.000000	0.017968
3436.000000	0.018029
3435.000000	0.018086
3434.000000	0.018143
3433.000000	0.018208
3432.000000	0.018278
3431.000000	0.018349
3430.000000	0.018416
3429.000000	0.018483
3428.000000	0.018553
3427.000000	0.018624
3426.000000	0.018689
3425.000000	0.018749
3424.000000	0.018810
3423.000000	0.018877
3422.000000	0.018952
3421.000000	0.019030
3420.000000	0.019108
3419.000000	0.019185
3418.000000	0.019265
3417.000000	0.019350
3416.000000	0.019437
3415.000000	0.019518
3414.000000	0.019586
3413.000000	0.019637
3412.000000	0.019676
3411.000000	0.019716
3410.000000	0.019767
3409.000000	0.019833
3408.000000	0.019910
3407.000000	0.019988
3406.000000	0.020055
3405.000000	0.020106
3404.000000	0.020145
3403.000000	0.020186
3402.000000	0.020242
3401.000000	0.020324
3400.000000	0.020427
3399.000000	0.020531
3398.000000	0.020617
3397.000000	0.020673
3396.000000	0.020708
3395.000000	0.020744
3394.000000	0.020799
3393.000000	0.020874
3392.000000	0.020954
3391.000000	0.021026
3390.000000	0.021088
3389.000000	0.021150
3388.000000	0.021218
3387.000000	0.021291
3386.000000	0.021367
3385.000000	0.021448
3384.000000	0.021533
3383.000000	0.021619
3382.000000	0.021698
3381.000000	0.021768
3380.000000	0.021832
3379.000000	0.021896
3378.000000	0.021963
3377.000000	0.022027
3376.000000	0.022086
3375.000000	0.022146
3374.000000	0.022221
3373.000000	0.022317
3372.000000	0.022428
3371.000000	0.022539
3370.000000	0.022637
3369.000000	0.022718
3368.000000	0.022789
3367.000000	0.022859
3366.000000	0.022937
3365.000000	0.023023
3364.000000	0.023115
3363.000000	0.023215
3362.000000	0.023327
3361.000000	0.023448
3360.000000	0.023569
3359.000000	0.023676
3358.000000	0.023766
3357.000000	0.023848
3356.000000	0.023934
3355.000000	0.024028
3354.000000	0.024129
3353.000000	0.024234
3352.000000	0.024345
3351.000000	0.024467
3350.000000	0.024597
3349.000000	0.024725
3348.000000	0.024840
3347.000000	0.024943
3346.000000	0.025044
3345.000000	0.025150
3344.000000	0.025257
3343.000000	0.025358
3342.000000	0.025450
3341.000000	0.025538
3340.000000	0.025634
3339.000000	0.025746
3338.000000	0.025874
3337.000000	0.026000
3336.000000	0.026106
3335.000000	0.026187
3334.000000	0.026259
3333.000000	0.026346
3332.000000	0.026458
3331.000000	0.026585
3330.000000	0.026706
3329.000000	0.026802
3328.000000	0.026873
3327.000000	0.026929
3326.000000	0.026985
3325.000000	0.027049
3324.000000	0.027120
3323.000000	0.027200
3322.000000	0.027286
3321.000000	0.027377
3320.000000	0.027469
3319.000000	0.027560
3318.000000	0.027649
3317.000000	0.027734
3316.000000	0.027814
3315.000000	0.027890
3314.000000	0.027970
3313.000000	0.028056
3312.000000	0.028136
3311.000000	0.028196
3310.000000	0.028236
3309.000000	0.028269
3308.000000	0.028313
3307.000000	0.028376
3306.000000	0.028452
3305.000000	0.028529
3304.000000	0.028596
3303.000000	0.028651
3302.000000	0.028700
3301.000000	0.028751
3300.000000	0.028808
3299.000000	0.028866
3298.000000	0.028918
3297.000000	0.028961
3296.000000	0.028994
3295.000000	0.029019
3294.000000	0.029042
3293.000000	0.029072
3292.000000	0.029114
3291.000000	0.029167
3290.000000	0.029218
3289.000000	0.029255
3288.000000	0.029268
3287.000000	0.029261
3286.000000	0.029246
3285.000000	0.029236
3284.000000	0.029239
3283.000000	0.029259
3282.000000	0.029291
3281.000000	0.029321
3280.000000	0.029333
3279.000000	0.029321
3278.000000	0.029292
3277.000000	0.029259
3276.000000	0.029234
3275.000000	0.029219
3274.000000	0.029206
3273.000000	0.029183
3272.000000	0.029145
3271.000000	0.029098
3270.000000	0.029053
3269.000000	0.029014
3268.000000	0.028981
3267.000000	0.028950
3266.000000	0.028917
3265.000000	0.028881
3264.000000	0.028839
3263.000000	0.028789
3262.000000	0.028736
3261.000000	0.028678
3260.000000	0.028614
3259.000000	0.028547
3258.000000	0.028486
3257.000000	0.028435
3256.000000	0.028387
3255.000000	0.028331
3254.000000	0.028262
3253.000000	0.028184
3252.000000	0.028108
3251.000000	0.028038
3250.000000	0.027976
3249.000000	0.027924
3248.000000	0.027876
3247.000000	0.027830
3246.000000	0.027784
3245.000000	0.027740
3244.000000	0.027701
3243.000000	0.027661
3242.000000	0.027610
3241.000000	0.027539
3240.000000	0.027453
3239.000000	0.027363
3238.000000	0.027286
3237.000000	0.027226
3236.000000	0.027179
3235.000000	0.027138
3234.000000	0.027103
3233.000000	0.027075
3232.000000	0.027053
3231.000000	0.027033
3230.000000	0.027008
3229.000000	0.026976
3228.000000	0.026941
3227.000000	0.026911
3226.000000	0.026890
3225.000000	0.026872
3224.000000	0.026850
3223.000000	0.026821
3222.000000	0.026785
3221.000000	0.026741
3220.000000	0.026685
3219.000000	0.026623
3218.000000	0.026564
3217.000000	0.026510
3216.000000	0.026458
3215.000000	0.026406
3214.000000	0.026353
3213.000000	0.026301
3212.000000	0.026247
3211.000000	0.026194
3210.000000	0.026146
3209.000000	0.026107
3208.000000	0.026074
3207.000000	0.026044
3206.000000	0.026015
3205.000000	0.025986
3204.000000	0.025952
3203.000000	0.025911
3202.000000	0.025861
3201.000000	0.025801
3200.000000	0.025732
3199.000000	0.025660
3198.000000	0.025598
3197.000000	0.025552
3196.000000	0.025513
3195.000000	0.025465
3194.000000	0.025395
3193.000000	0.025313
3192.000000	0.025235
3191.000000	0.025173
3190.000000	0.025127
3189.000000	0.025088
3188.000000	0.025040
3187.000000	0.024975
3186.000000	0.024894
3185.000000	0.024806
3184.000000	0.024723
3183.000000	0.024648
3182.000000	0.024578
3181.000000	0.024507
3180.000000	0.024433
3179.000000	0.024356
3178.000000	0.024281
3177.000000	0.024210
3176.000000	0.024142
3175.000000	0.024072
3174.000000	0.023995
3173.000000	0.023910
3172.000000	0.023822
3171.000000	0.023740
3170.000000	0.023661
3169.000000	0.023581
3168.000000	0.023500
3167.000000	0.023431
3166.000000	0.023383
3165.000000	0.023351
3164.000000	0.023315
3163.000000	0.023259
3162.000000	0.023183
3161.000000	0.023106
3160.000000	0.023041
3159.000000	0.022989
3158.000000	0.022938
3157.000000	0.022878
3156.000000	0.022810
3155.000000	0.022738
3154.000000	0.022665
3153.000000	0.022587
3152.000000	0.022502
3151.000000	0.022416
3150.000000	0.022339
3149.000000	0.022278
3148.000000	0.022229
3147.000000	0.022183
3146.000000	0.022134
3145.000000	0.022084
3144.000000	0.022040
3143.000000	0.022006
3142.000000	0.021972
3141.000000	0.021926
3140.000000	0.021866
3139.000000	0.021805
3138.000000	0.021753
3137.000000	0.021707
3136.000000	0.021658
3135.000000	0.021603
3134.000000	0.021549
3133.000000	0.021502
3132.000000	0.021465
3131.000000	0.021433
3130.000000	0.021402
3129.000000	0.021370
3128.000000	0.021337
3127.000000	0.021308
3126.000000	0.021284
3125.000000	0.021263
3124.000000	0.021243
3123.000000	0.021218
3122.000000	0.021181
3121.000000	0.021129
3120.000000	0.021074
3119.000000	0.021036
3118.000000	0.021027
3117.000000	0.021039
3116.000000	0.021050
3115.000000	0.021047
3114.000000	0.021033
3113.000000	0.021019
3112.000000	0.021013
3111.000000	0.021018
3110.000000	0.021030
3109.000000	0.021036
3108.000000	0.021032
3107.000000	0.021029
3106.000000	0.021041
3105.000000	0.021066
3104.000000	0.021087
3103.000000	0.021093
3102.000000	0.021093
3101.000000	0.021100
3100.000000	0.021122
3099.000000	0.021155
3098.000000	0.021197
3097.000000	0.021246
3096.000000	0.021292
3095.000000	0.021323
3094.000000	0.021335
3093.000000	0.021327
3092.000000	0.021307
3091.000000	0.021283
3090.000000	0.021266
3089.000000	0.021262
3088.000000	0.021273
3087.000000	0.021297
3086.000000	0.021330
3085.000000	0.021372
3084.000000	0.021413
3083.000000	0.021441
3082.000000	0.021450
3081.000000	0.021448
3080.000000	0.021446
3079.000000	0.021456
3078.000000	0.021474
3077.000000	0.021497
3076.000000	0.021519
3075.000000	0.021540
3074.000000	0.021557
3073.000000	0.021564
3072.000000	0.021553
3071.000000	0.021526
3070.000000	0.021488
3069.000000	0.021447
3068.000000	0.021413
3067.000000	0.021392
3066.000000	0.021387
3065.000000	0.021391
3064.000000	0.021392
3063.000000	0.021372
3062.000000	0.021326
3061.000000	0.021263
3060.000000	0.021198
3059.000000	0.021139
3058.000000	0.021083
3057.000000	0.021023
3056.000000	0.020955
3055.000000	0.020882
3054.000000	0.020810
3053.000000	0.020741
3052.000000	0.020678
3051.000000	0.020620
3050.000000	0.020563
3049.000000	0.020497
3048.000000	0.020417
3047.000000	0.020328
3046.000000	0.020239
3045.000000	0.020153
3044.000000	0.020068
3043.000000	0.019985
3042.000000	0.019914
3041.000000	0.019860
3040.000000	0.019819
3039.000000	0.019772
3038.000000	0.019701
3037.000000	0.019594
3036.000000	0.019461
3035.000000	0.019330
3034.000000	0.019225
3033.000000	0.019151
3032.000000	0.019093
3031.000000	0.019032
3030.000000	0.018959
3029.000000	0.018873
3028.000000	0.018774
3027.000000	0.018664
3026.000000	0.018546
3025.000000	0.018428
3024.000000	0.018311
3023.000000	0.018190
3022.000000	0.018060
3021.000000	0.017914
3020.000000	0.017747
3019.000000	0.017564
3018.000000	0.017374
3017.000000	0.017188
3016.000000	0.017008
3015.000000	0.016834
3014.000000	0.016666
3013.000000	0.016503
3012.000000	0.016340
3011.000000	0.016166
3010.000000	0.015981
3009.000000	0.015800
3008.000000	0.015644
3007.000000	0.015531
3006.000000	0.015459
3005.000000	0.015419
3004.000000	0.015406
3003.000000	0.015419
3002.000000	0.015460
3001.000000	0.015525
3000.000000	0.015607
2999.000000	0.015705
2998.000000	0.015817
2997.000000	0.015933
2996.000000	0.016041
2995.000000	0.016130
2994.000000	0.016200
2993.000000	0.016255
2992.000000	0.016295
2991.000000	0.016318
2990.000000	0.016328
2989.000000	0.016336
2988.000000	0.016346
2987.000000	0.016357
2986.000000	0.016357
2985.000000	0.016334
2984.000000	0.016284
2983.000000	0.016213
2982.000000	0.016129
2981.000000	0.016036
2980.000000	0.015925
2979.000000	0.015789
2978.000000	0.015631
2977.000000	0.015458
2976.000000	0.015273
2975.000000	0.015060
2974.000000	0.014802
2973.000000	0.014492
2972.000000	0.014139
2971.000000	0.013753
2970.000000	0.013336
2969.000000	0.012885
2968.000000	0.012398
2967.000000	0.011884
2966.000000	0.011358
2965.000000	0.010828
2964.000000	0.010294
2963.000000	0.009755
2962.000000	0.009222
2961.000000	0.008712
2960.000000	0.008237
2959.000000	0.007801
2958.000000	0.007409
2957.000000	0.007067
2956.000000	0.006784
2955.000000	0.006564
2954.000000	0.006400
2953.000000	0.006277
2952.000000	0.006174
2951.000000	0.006069
2950.000000	0.005937
2949.000000	0.005750
2948.000000	0.005479
2947.000000	0.005098
2946.000000	0.004597
2945.000000	0.003979
2944.000000	0.003263
2943.000000	0.002463
2942.000000	0.001581
2941.000000	0.000606
2940.000000	-0.000476
2939.000000	-0.001668
2938.000000	-0.002955
2937.000000	-0.004316
2936.000000	-0.005736
2935.000000	-0.007206
2934.000000	-0.008717
2933.000000	-0.010246
2932.000000	-0.011764
2931.000000	-0.013241
2930.000000	-0.014647
2929.000000	-0.015952
2928.000000	-0.017125
2927.000000	-0.018131
2926.000000	-0.018917
2925.000000	-0.019415
2924.000000	-0.019558
2923.000000	-0.019298
2922.000000	-0.018628
2921.000000	-0.017581
2920.000000	-0.016225
2919.000000	-0.014648
2918.000000	-0.012944
2917.000000	-0.011210
2916.000000	-0.009541
2915.000000	-0.008013
2914.000000	-0.006659
2913.000000	-0.005464
2912.000000	-0.004388
2911.000000	-0.003400
2910.000000	-0.002485
2909.000000	-0.001635
2908.000000	-0.000844
2907.000000	-0.000104
2906.000000	0.000589
2905.000000	0.001238
2904.000000	0.001849
2903.000000	0.002426
2902.000000	0.002975
2901.000000	0.003508
2900.000000	0.004032
2899.000000	0.004547
2898.000000	0.005041
2897.000000	0.005507
2896.000000	0.005950
2895.000000	0.006386
2894.000000	0.006826
2893.000000	0.007266
2892.000000	0.007692
2891.000000	0.008097
2890.000000	0.008485
2889.000000	0.008862
2888.000000	0.009226
2887.000000	0.009565
2886.000000	0.009863
2885.000000	0.010115
2884.000000	0.010323
2883.000000	0.010489
2882.000000	0.010610
2881.000000	0.010672
2880.000000	0.010659
2879.000000	0.010565
2878.000000	0.010391
2877.000000	0.010147
2876.000000	0.009839
2875.000000	0.009483
2874.000000	0.009103
2873.000000	0.008734
2872.000000	0.008405
2871.000000	0.008115
2870.000000	0.007832
2869.000000	0.007508
2868.000000	0.007088
2867.000000	0.006534
2866.000000	0.005821
2865.000000	0.004937
2864.000000	0.003875
2863.000000	0.002635
2862.000000	0.001237
2861.000000	-0.000287
2860.000000	-0.001895
2859.000000	-0.003534
2858.000000	-0.005133
2857.000000	-0.006588
2856.000000	-0.007771
2855.000000	-0.008547
2854.000000	-0.008798
2853.000000	-0.008455
2852.000000	-0.007534
2851.000000	-0.006149
2850.000000	-0.004471
2849.000000	-0.002673
2848.000000	-0.000873
2847.000000	0.000868
2846.000000	0.002526
2845.000000	0.004082
2844.000000	0.005511
2843.000000	0.006786
2842.000000	0.007888
2841.000000	0.008817
2840.000000	0.009588
2839.000000	0.010223
2838.000000	0.010747
2837.000000	0.011186
2836.000000	0.011565
2835.000000	0.011901
2834.000000	0.012200
2833.000000	0.012466
2832.000000	0.012705
2831.000000	0.012928
2830.000000	0.013137
2829.000000	0.013324
2828.000000	0.013481
2827.000000	0.013611
2826.000000	0.013723
2825.000000	0.013824
2824.000000	0.013911
2823.000000	0.013990
2822.000000	0.014064
2821.000000	0.014136
2820.000000	0.014203
2819.000000	0.014260
2818.000000	0.014308
2817.000000	0.014352
2816.000000	0.014400
2815.000000	0.014453
2814.000000	0.014503
2813.000000	0.014541
2812.000000	0.014561
2811.000000	0.014572
2810.000000	0.014585
2809.000000	0.014603
2808.000000	0.014616
2807.000000	0.014617
2806.000000	0.014611
2805.000000	0.014610
2804.000000	0.014618
2803.000000	0.014636
2802.000000	0.014661
2801.000000	0.014686
2800.000000	0.014704
2799.000000	0.014707
2798.000000	0.014700
2797.000000	0.014692
2796.000000	0.014690
2795.000000	0.014692
2794.000000	0.014689
2793.000000	0.014678
2792.000000	0.014661
2791.000000	0.014645
2790.000000	0.014638
2789.000000	0.014644
2788.000000	0.014657
2787.000000	0.014669
2786.000000	0.014669
2785.000000	0.014657
2784.000000	0.014640
2783.000000	0.014624
2782.000000	0.014612
2781.000000	0.014600
2780.000000	0.014583
2779.000000	0.014567
2778.000000	0.014552
2777.000000	0.014535
2776.000000	0.014510
2775.000000	0.014476
2774.000000	0.014446
2773.000000	0.014432
2772.000000	0.014429
2771.000000	0.014428
2770.000000	0.014422
2769.000000	0.014414
2768.000000	0.014409
2767.000000	0.014407
2766.000000	0.014398
2765.000000	0.014379
2764.000000	0.014353
2763.000000	0.014332
2762.000000	0.014322
2761.000000	0.014316
2760.000000	0.014307
2759.000000	0.014288
2758.000000	0.014269
2757.000000	0.014253
2756.000000	0.014241
2755.000000	0.014225
2754.000000	0.014201
2753.000000	0.014172
2752.000000	0.014142
2751.000000	0.014119
2750.000000	0.014105
2749.000000	0.014103
2748.000000	0.014107
2747.000000	0.014106
2746.000000	0.014097
2745.000000	0.014083
2744.000000	0.014064
2743.000000	0.014037
2742.000000	0.014002
2741.000000	0.013962
2740.000000	0.013924
2739.000000	0.013892
2738.000000	0.013866
2737.000000	0.013845
2736.000000	0.013830
2735.000000	0.013819
2734.000000	0.013809
2733.000000	0.013797
2732.000000	0.013786
2731.000000	0.013772
2730.000000	0.013751
2729.000000	0.013720
2728.000000	0.013688
2727.000000	0.013663
2726.000000	0.013649
2725.000000	0.013636
2724.000000	0.013614
2723.000000	0.013583
2722.000000	0.013553
2721.000000	0.013537
2720.000000	0.013528
2719.000000	0.013512
2718.000000	0.013486
2717.000000	0.013458
2716.000000	0.013440
2715.000000	0.013434
2714.000000	0.013430
2713.000000	0.013418
2712.000000	0.013399
2711.000000	0.013378
2710.000000	0.013357
2709.000000	0.013341
2708.000000	0.013327
2707.000000	0.013314
2706.000000	0.013297
2705.000000	0.013272
2704.000000	0.013245
2703.000000	0.013223
2702.000000	0.013209
2701.000000	0.013202
2700.000000	0.013197
2699.000000	0.013186
2698.000000	0.013164
2697.000000	0.013130
2696.000000	0.013092
2695.000000	0.013061
2694.000000	0.013046
2693.000000	0.013046
2692.000000	0.013045
2691.000000	0.013033
2690.000000	0.013009
2689.000000	0.012988
2688.000000	0.012981
2687.000000	0.012985
2686.000000	0.012983
2685.000000	0.012963
2684.000000	0.012928
2683.000000	0.012892
2682.000000	0.012868
2681.000000	0.012859
2680.000000	0.012859
2679.000000	0.012860
2678.000000	0.012856
2677.000000	0.012849
2676.000000	0.012842
2675.000000	0.012839
2674.000000	0.012834
2673.000000	0.012823
2672.000000	0.012807
2671.000000	0.012790
2670.000000	0.012775
2669.000000	0.012761
2668.000000	0.012750
2667.000000	0.012746
2666.000000	0.012751
2665.000000	0.012761
2664.000000	0.012767
2663.000000	0.012765
2662.000000	0.012764
2661.000000	0.012769
2660.000000	0.012780
2659.000000	0.012786
2658.000000	0.012778
2657.000000	0.012755
2656.000000	0.012726
2655.000000	0.012705
2654.000000	0.012693
2653.000000	0.012681
2652.000000	0.012656
2651.000000	0.012615
2650.000000	0.012565
2649.000000	0.012517
2648.000000	0.012478
2647.000000	0.012452
2646.000000	0.012438
2645.000000	0.012426
2644.000000	0.012404
2643.000000	0.012370
2642.000000	0.012333
2641.000000	0.012304
2640.000000	0.012283
2639.000000	0.012268
2638.000000	0.012260
2637.000000	0.012264
2636.000000	0.012272
2635.000000	0.012269
2634.000000	0.012243
2633.000000	0.012194
2632.000000	0.012134
2631.000000	0.012080
2630.000000	0.012046
2629.000000	0.012040
2628.000000	0.012053
2627.000000	0.012061
2626.000000	0.012047
2625.000000	0.012012
2624.000000	0.011975
2623.000000	0.011957
2622.000000	0.011964
2621.000000	0.011979
2620.000000	0.011986
2619.000000	0.011975
2618.000000	0.011950
2617.000000	0.011921
2616.000000	0.011898
2615.000000	0.011881
2614.000000	0.011864
2613.000000	0.011843
2612.000000	0.011819
2611.000000	0.011802
2610.000000	0.011794
2609.000000	0.011788
2608.000000	0.011775
2607.000000	0.011757
2606.000000	0.011748
2605.000000	0.011752
2604.000000	0.011758
2603.000000	0.011750
2602.000000	0.011723
2601.000000	0.011689
2600.000000	0.011658
2599.000000	0.011634
2598.000000	0.011617
2597.000000	0.011603
2596.000000	0.011591
2595.000000	0.011577
2594.000000	0.011554
2593.000000	0.011521
2592.000000	0.011485
2591.000000	0.011457
2590.000000	0.011442
2589.000000	0.011438
2588.000000	0.011437
2587.000000	0.011432
2586.000000	0.011422
2585.000000	0.011408
2584.000000	0.011392
2583.000000	0.011380
2582.000000	0.011378
2581.000000	0.011385
2580.000000	0.011389
2579.000000	0.011376
2578.000000	0.011343
2577.000000	0.011299
2576.000000	0.011260
2575.000000	0.011238
2574.000000	0.011240
2573.000000	0.011270
2572.000000	0.011317
2571.000000	0.011358
2570.000000	0.011369
2569.000000	0.011350
2568.000000	0.011325
2567.000000	0.011323
2566.000000	0.011344
2565.000000	0.011359
2564.000000	0.011344
2563.000000	0.011300
2562.000000	0.011247
2561.000000	0.011202
2560.000000	0.011166
2559.000000	0.011134
2558.000000	0.011104
2557.000000	0.011079
2556.000000	0.011064
2555.000000	0.011069
2554.000000	0.011098
2553.000000	0.011141
2552.000000	0.011170
2551.000000	0.011164
2550.000000	0.011125
2549.000000	0.011072
2548.000000	0.011025
2547.000000	0.010995
2546.000000	0.010983
2545.000000	0.010985
2544.000000	0.010988
2543.000000	0.010982
2542.000000	0.010962
2541.000000	0.010936
2540.000000	0.010915
2539.000000	0.010910
2538.000000	0.010915
2537.000000	0.010920
2536.000000	0.010916
2535.000000	0.010903
2534.000000	0.010886
2533.000000	0.010871
2532.000000	0.010863
2531.000000	0.010868
2530.000000	0.010880
2529.000000	0.010885
2528.000000	0.010873
2527.000000	0.010854
2526.000000	0.010849
2525.000000	0.010862
2524.000000	0.010878
2523.000000	0.010878
2522.000000	0.010857
2521.000000	0.010818
2520.000000	0.010767
2519.000000	0.010716
2518.000000	0.010681
2517.000000	0.010675
2516.000000	0.010697
2515.000000	0.010734
2514.000000	0.010778
2513.000000	0.010812
2512.000000	0.010814
2511.000000	0.010776
2510.000000	0.010721
2509.000000	0.010687
2508.000000	0.010693
2507.000000	0.010720
2506.000000	0.010739
2505.000000	0.010731
2504.000000	0.010701
2503.000000	0.010660
2502.000000	0.010617
2501.000000	0.010584
2500.000000	0.010567
2499.000000	0.010569
2498.000000	0.010578
2497.000000	0.010581
2496.000000	0.010570
2495.000000	0.010550
2494.000000	0.010529
2493.000000	0.010510
2492.000000	0.010495
2491.000000	0.010493
2490.000000	0.010511
2489.000000	0.010538
2488.000000	0.010548
2487.000000	0.010527
2486.000000	0.010487
2485.000000	0.010452
2484.000000	0.010433
2483.000000	0.010428
2482.000000	0.010431
2481.000000	0.010434
2480.000000	0.010425
2479.000000	0.010396
2478.000000	0.010356
2477.000000	0.010328
2476.000000	0.010327
2475.000000	0.010344
2474.000000	0.010360
2473.000000	0.010364
2472.000000	0.010361
2471.000000	0.010362
2470.000000	0.010371
2469.000000	0.010377
2468.000000	0.010372
2467.000000	0.010357
2466.000000	0.010342
2465.000000	0.010331
2464.000000	0.010316
2463.000000	0.010294
2462.000000	0.010279
2461.000000	0.010283
2460.000000	0.010301
2459.000000	0.010312
2458.000000	0.010310
2457.000000	0.010302
2456.000000	0.010294
2455.000000	0.010281
2454.000000	0.010265
2453.000000	0.010253
2452.000000	0.010253
2451.000000	0.010257
2450.000000	0.010253
2449.000000	0.010242
2448.000000	0.010236
2447.000000	0.010239
2446.000000	0.010243
2445.000000	0.010233
2444.000000	0.010207
2443.000000	0.010171
2442.000000	0.010135
2441.000000	0.010100
2440.000000	0.010071
2439.000000	0.010064
2438.000000	0.010086
2437.000000	0.010123
2436.000000	0.010141
2435.000000	0.010117
2434.000000	0.010065
2433.000000	0.010021
2432.000000	0.010007
2431.000000	0.010021
2430.000000	0.010045
2429.000000	0.010066
2428.000000	0.010077
2427.000000	0.010075
2426.000000	0.010060
2425.000000	0.010036
2424.000000	0.010011
2423.000000	0.009993
2422.000000	0.009990
2421.000000	0.010003
2420.000000	0.010023
2419.000000	0.010040
2418.000000	0.010051
2417.000000	0.010057
2416.000000	0.010054
2415.000000	0.010035
2414.000000	0.009996
2413.000000	0.009950
2412.000000	0.009910
2411.000000	0.009882
2410.000000	0.009857
2409.000000	0.009830
2408.000000	0.009810
2407.000000	0.009816
2406.000000	0.009853
2405.000000	0.009894
2404.000000	0.009909
2403.000000	0.009890
2402.000000	0.009858
2401.000000	0.009836
2400.000000	0.009827
2399.000000	0.009819
2398.000000	0.009806
2397.000000	0.009791
2396.000000	0.009785
2395.000000	0.009792
2394.000000	0.009819
2393.000000	0.009860
2392.000000	0.009901
2391.000000	0.009925
2390.000000	0.009926
2389.000000	0.009915
2388.000000	0.009910
2387.000000	0.009923
2386.000000	0.009949
2385.000000	0.009973
2384.000000	0.009983
2383.000000	0.009979
2382.000000	0.009972
2381.000000	0.009967
2380.000000	0.009956
2379.000000	0.009931
2378.000000	0.009906
2377.000000	0.009895
2376.000000	0.009899
2375.000000	0.009906
2374.000000	0.009913
2373.000000	0.009928
2372.000000	0.009955
2371.000000	0.009992
2370.000000	0.010037
2369.000000	0.010085
2368.000000	0.010124
2367.000000	0.010145
2366.000000	0.010155
2365.000000	0.010164
2364.000000	0.010160
2363.000000	0.010117
2362.000000	0.010043
2361.000000	0.009980
2360.000000	0.009969
2359.000000	0.010002
2358.000000	0.010038
2357.000000	0.010053
2356.000000	0.010060
2355.000000	0.010081
2354.000000	0.010092
2353.000000	0.010057
2352.000000	0.009995
2351.000000	0.009969
2350.000000	0.010002
2349.000000	0.010075
2348.000000	0.010144
2347.000000	0.010175
2346.000000	0.010160
2345.000000	0.010131
2344.000000	0.010119
2343.000000	0.010118
2342.000000	0.010105
2341.000000	0.010072
2340.000000	0.010043
2339.000000	0.010040
2338.000000	0.010055
2337.000000	0.010064
2336.000000	0.010058
2335.000000	0.010046
2334.000000	0.010036
2333.000000	0.010027
2332.000000	0.010020
2331.000000	0.010020
2330.000000	0.010017
2329.000000	0.010007
2328.000000	0.010008
2327.000000	0.010042
2326.000000	0.010105
2325.000000	0.010157
2324.000000	0.010156
2323.000000	0.010099
2322.000000	0.010021
2321.000000	0.009972
2320.000000	0.009966
2319.000000	0.009973
2318.000000	0.009959
2317.000000	0.009915
2316.000000	0.009865
2315.000000	0.009837
2314.000000	0.009838
2313.000000	0.009856
2312.000000	0.009870
2311.000000	0.009867
2310.000000	0.009849
2309.000000	0.009823
2308.000000	0.009795
2307.000000	0.009758
2306.000000	0.009704
2305.000000	0.009649
2304.000000	0.009623
2303.000000	0.009637
2302.000000	0.009667
2301.000000	0.009676
2300.000000	0.009653
2299.000000	0.009617
2298.000000	0.009594
2297.000000	0.009588
2296.000000	0.009590
2295.000000	0.009598
2294.000000	0.009612
2293.000000	0.009632
2292.000000	0.009656
2291.000000	0.009678
2290.000000	0.009692
2289.000000	0.009695
2288.000000	0.009693
2287.000000	0.009702
2286.000000	0.009717
2285.000000	0.009717
2284.000000	0.009690
2283.000000	0.009656
2282.000000	0.009645
2281.000000	0.009658
2280.000000	0.009670
2279.000000	0.009662
2278.000000	0.009638
2277.000000	0.009603
2276.000000	0.009557
2275.000000	0.009502
2274.000000	0.009458
2273.000000	0.009441
2272.000000	0.009448
2271.000000	0.009449
2270.000000	0.009419
2269.000000	0.009354
2268.000000	0.009280
2267.000000	0.009240
2266.000000	0.009248
2265.000000	0.009280
2264.000000	0.009295
2263.000000	0.009276
2262.000000	0.009228
2261.000000	0.009149
2260.000000	0.009039
2259.000000	0.008921
2258.000000	0.008845
2257.000000	0.008843
2256.000000	0.008899
2255.000000	0.008971
2254.000000	0.009021
2253.000000	0.009034
2252.000000	0.009028
2251.000000	0.009051
2250.000000	0.009133
2249.000000	0.009244
2248.000000	0.009309
2247.000000	0.009296
2246.000000	0.009256
2245.000000	0.009256
2244.000000	0.009299
2243.000000	0.009331
2242.000000	0.009320
2241.000000	0.009289
2240.000000	0.009284
2239.000000	0.009343
2238.000000	0.009464
2237.000000	0.009604
2236.000000	0.009700
2235.000000	0.009715
2234.000000	0.009665
2233.000000	0.009590
2232.000000	0.009516
2231.000000	0.009451
2230.000000	0.009395
2229.000000	0.009340
2228.000000	0.009277
2227.000000	0.009203
2226.000000	0.009132
2225.000000	0.009064
2224.000000	0.008980
2223.000000	0.008879
2222.000000	0.008797
2221.000000	0.008767
2220.000000	0.008783
2219.000000	0.008816
2218.000000	0.008861
2217.000000	0.008926
2216.000000	0.008985
2215.000000	0.008992
2214.000000	0.008933
2213.000000	0.008843
2212.000000	0.008764
2211.000000	0.008707
2210.000000	0.008662
2209.000000	0.008627
2208.000000	0.008606
2207.000000	0.008607
2206.000000	0.008622
2205.000000	0.008627
2204.000000	0.008597
2203.000000	0.008547
2202.000000	0.008529
2201.000000	0.008571
2200.000000	0.008634
2199.000000	0.008654
2198.000000	0.008619
2197.000000	0.008577
2196.000000	0.008575
2195.000000	0.008632
2194.000000	0.008733
2193.000000	0.008830
2192.000000	0.008844
2191.000000	0.008739
2190.000000	0.008589
2189.000000	0.008525
2188.000000	0.008599
2187.000000	0.008728
2186.000000	0.008788
2185.000000	0.008738
2184.000000	0.008642
2183.000000	0.008587
2182.000000	0.008607
2181.000000	0.008663
2180.000000	0.008698
2179.000000	0.008690
2178.000000	0.008676
2177.000000	0.008694
2176.000000	0.008734
2175.000000	0.008748
2174.000000	0.008713
2173.000000	0.008664
2172.000000	0.008647
2171.000000	0.008666
2170.000000	0.008677
2169.000000	0.008638
2168.000000	0.008562
2167.000000	0.008518
2166.000000	0.008566
2165.000000	0.008684
2164.000000	0.008779
2163.000000	0.008778
2162.000000	0.008676
2161.000000	0.008495
2160.000000	0.008239
2159.000000	0.007928
2158.000000	0.007644
2157.000000	0.007462
2156.000000	0.007388
2155.000000	0.007407
2154.000000	0.007537
2153.000000	0.007784
2152.000000	0.008071
2151.000000	0.008269
2150.000000	0.008284
2149.000000	0.008126
2148.000000	0.007901
2147.000000	0.007749
2146.000000	0.007757
2145.000000	0.007892
2144.000000	0.008019
2143.000000	0.008026
2142.000000	0.007935
2141.000000	0.007855
2140.000000	0.007870
2139.000000	0.007975
2138.000000	0.008107
2137.000000	0.008210
2136.000000	0.008255
2135.000000	0.008234
2134.000000	0.008159
2133.000000	0.008063
2132.000000	0.007993
2131.000000	0.007987
2130.000000	0.008050
2129.000000	0.008145
2128.000000	0.008219
2127.000000	0.008246
2126.000000	0.008237
2125.000000	0.008207
2124.000000	0.008162
2123.000000	0.008115
2122.000000	0.008099
2121.000000	0.008141
2120.000000	0.008222
2119.000000	0.008300
2118.000000	0.008346
2117.000000	0.008367
2116.000000	0.008379
2115.000000	0.008382
2114.000000	0.008377
2113.000000	0.008374
2112.000000	0.008393
2111.000000	0.008437
2110.000000	0.008483
2109.000000	0.008495
2108.000000	0.008461
2107.000000	0.008406
2106.000000	0.008362
2105.000000	0.008328
2104.000000	0.008271
2103.000000	0.008185
2102.000000	0.008113
2101.000000	0.008104
2100.000000	0.008157
2099.000000	0.008217
2098.000000	0.008241
2097.000000	0.008226
2096.000000	0.008203
2095.000000	0.008189
2094.000000	0.008174
2093.000000	0.008145
2092.000000	0.008107
2091.000000	0.008089
2090.000000	0.008107
2089.000000	0.008140
2088.000000	0.008154
2087.000000	0.008139
2086.000000	0.008116
2085.000000	0.008098
2084.000000	0.008073
2083.000000	0.008030
2082.000000	0.007983
2081.000000	0.007963
2080.000000	0.007990
2079.000000	0.008050
2078.000000	0.008105
2077.000000	0.008104
2076.000000	0.008025
2075.000000	0.007895
2074.000000	0.007781
2073.000000	0.007731
2072.000000	0.007748
2071.000000	0.007810
2070.000000	0.007893
2069.000000	0.007966
2068.000000	0.007996
2067.000000	0.007972
2066.000000	0.007923
2065.000000	0.007887
2064.000000	0.007881
2063.000000	0.007884
2062.000000	0.007844
2061.000000	0.007712
2060.000000	0.007513
2059.000000	0.007364
2058.000000	0.007363
2057.000000	0.007468
2056.000000	0.007533
2055.000000	0.007485
2054.000000	0.007410
2053.000000	0.007420
2052.000000	0.007516
2051.000000	0.007622
2050.000000	0.007677
2049.000000	0.007663
2048.000000	0.007572
2047.000000	0.007431
2046.000000	0.007313
2045.000000	0.007270
2044.000000	0.007261
2043.000000	0.007224
2042.000000	0.007161
2041.000000	0.007104
2040.000000	0.007033
2039.000000	0.006922
2038.000000	0.006826
2037.000000	0.006835
2036.000000	0.006910
2035.000000	0.006881
2034.000000	0.006649
2033.000000	0.006338
2032.000000	0.006186
2031.000000	0.006317
2030.000000	0.006629
2029.000000	0.006900
2028.000000	0.006988
2027.000000	0.006937
2026.000000	0.006877
2025.000000	0.006840
2024.000000	0.006768
2023.000000	0.006665
2022.000000	0.006635
2021.000000	0.006713
2020.000000	0.006785
2019.000000	0.006746
2018.000000	0.006644
2017.000000	0.006587
2016.000000	0.006579
2015.000000	0.006556
2014.000000	0.006515
2013.000000	0.006490
2012.000000	0.006446
2011.000000	0.006308
2010.000000	0.006094
2009.000000	0.005913
2008.000000	0.005840
2007.000000	0.005864
2006.000000	0.005960
2005.000000	0.006127
2004.000000	0.006344
2003.000000	0.006556
2002.000000	0.006708
2001.000000	0.006775
2000.000000	0.006759
1999.000000	0.006709
1998.000000	0.006707
1997.000000	0.006776
1996.000000	0.006844
1995.000000	0.006821
1994.000000	0.006700
1993.000000	0.006544
1992.000000	0.006419
1991.000000	0.006363
1990.000000	0.006385
1989.000000	0.006452
1988.000000	0.006503
1987.000000	0.006517
1986.000000	0.006549
1985.000000	0.006663
1984.000000	0.006857
1983.000000	0.007108
1982.000000	0.007415
1981.000000	0.007732
1980.000000	0.007891
1979.000000	0.007707
1978.000000	0.007195
1977.000000	0.006606
1976.000000	0.006212
1975.000000	0.006111
1974.000000	0.006248
1973.000000	0.006498
1972.000000	0.006721
1971.000000	0.006849
1970.000000	0.006915
1969.000000	0.006976
1968.000000	0.007024
1967.000000	0.007020
1966.000000	0.006976
1965.000000	0.006917
1964.000000	0.006811
1963.000000	0.006615
1962.000000	0.006368
1961.000000	0.006193
1960.000000	0.006186
1959.000000	0.006351
1958.000000	0.006615
1957.000000	0.006858
1956.000000	0.006971
1955.000000	0.006937
1954.000000	0.006848
1953.000000	0.006798
1952.000000	0.006790
1951.000000	0.006774
1950.000000	0.006747
1949.000000	0.006763
1948.000000	0.006826
1947.000000	0.006864
1946.000000	0.006836
1945.000000	0.006791
1944.000000	0.006792
1943.000000	0.006814
1942.000000	0.006777
1941.000000	0.006661
1940.000000	0.006544
1939.000000	0.006523
1938.000000	0.006616
1937.000000	0.006752
1936.000000	0.006849
1935.000000	0.006895
1934.000000	0.006928
1933.000000	0.006972
1932.000000	0.007009
1931.000000	0.007008
1930.000000	0.006948
1929.000000	0.006841
1928.000000	0.006715
1927.000000	0.006619
1926.000000	0.006573
1925.000000	0.006561
1924.000000	0.006554
1923.000000	0.006530
1922.000000	0.006502
1921.000000	0.006491
1920.000000	0.006513
1919.000000	0.006572
1918.000000	0.006633
1917.000000	0.006656
1916.000000	0.006643
1915.000000	0.006635
1914.000000	0.006666
1913.000000	0.006714
1912.000000	0.006736
1911.000000	0.006730
1910.000000	0.006725
1909.000000	0.006737
1908.000000	0.006739
1907.000000	0.006718
1906.000000	0.006681
1905.000000	0.006648
1904.000000	0.006642
1903.000000	0.006676
1902.000000	0.006748
1901.000000	0.006829
1900.000000	0.006870
1899.000000	0.006859
1898.000000	0.006814
1897.000000	0.006760
1896.000000	0.006710
1895.000000	0.006666
1894.000000	0.006629
1893.000000	0.006589
1892.000000	0.006545
1891.000000	0.006521
1890.000000	0.006538
1889.000000	0.006593
1888.000000	0.006663
1887.000000	0.006723
1886.000000	0.006767
1885.000000	0.006778
1884.000000	0.006738
1883.000000	0.006664
1882.000000	0.006612
1881.000000	0.006616
1880.000000	0.006651
1879.000000	0.006675
1878.000000	0.006665
1877.000000	0.006609
1876.000000	0.006525
1875.000000	0.006444
1874.000000	0.006374
1873.000000	0.006292
1872.000000	0.006204
1871.000000	0.006175
1870.000000	0.006246
1869.000000	0.006344
1868.000000	0.006370
1867.000000	0.006336
1866.000000	0.006315
1865.000000	0.006337
1864.000000	0.006359
1863.000000	0.006337
1862.000000	0.006298
1861.000000	0.006298
1860.000000	0.006337
1859.000000	0.006370
1858.000000	0.006372
1857.000000	0.006348
1856.000000	0.006322
1855.000000	0.006324
1854.000000	0.006368
1853.000000	0.006430
1852.000000	0.006433
1851.000000	0.006351
1850.000000	0.006234
1849.000000	0.006100
1848.000000	0.005928
1847.000000	0.005758
1846.000000	0.005726
1845.000000	0.005897
1844.000000	0.006120
1843.000000	0.006208
1842.000000	0.006169
1841.000000	0.006136
1840.000000	0.006159
1839.000000	0.006183
1838.000000	0.006156
1837.000000	0.006116
1836.000000	0.006117
1835.000000	0.006132
1834.000000	0.006105
1833.000000	0.006051
1832.000000	0.006027
1831.000000	0.006054
1830.000000	0.006056
1829.000000	0.005955
1828.000000	0.005797
1827.000000	0.005709
1826.000000	0.005781
1825.000000	0.005932
1824.000000	0.006011
1823.000000	0.005998
1822.000000	0.005983
1821.000000	0.006014
1820.000000	0.006044
1819.000000	0.006039
1818.000000	0.006014
1817.000000	0.005987
1816.000000	0.005945
1815.000000	0.005873
1814.000000	0.005805
1813.000000	0.005772
1812.000000	0.005774
1811.000000	0.005797
1810.000000	0.005824
1809.000000	0.005848
1808.000000	0.005865
1807.000000	0.005878
1806.000000	0.005893
1805.000000	0.005893
1804.000000	0.005858
1803.000000	0.005793
1802.000000	0.005744
1801.000000	0.005718
1800.000000	0.005692
1799.000000	0.005657
1798.000000	0.005606
1797.000000	0.005518
1796.000000	0.005377
1795.000000	0.005236
1794.000000	0.005215
1793.000000	0.005321
1792.000000	0.005411
1791.000000	0.005407
1790.000000	0.005367
1789.000000	0.005355
1788.000000	0.005383
1787.000000	0.005427
1786.000000	0.005461
1785.000000	0.005449
1784.000000	0.005370
1783.000000	0.005243
1782.000000	0.005173
1781.000000	0.005175
1780.000000	0.005173
1779.000000	0.005131
1778.000000	0.005078
1777.000000	0.005016
1776.000000	0.004856
1775.000000	0.004605
1774.000000	0.004453
1773.000000	0.004498
1772.000000	0.004543
1771.000000	0.004435
1770.000000	0.004253
1769.000000	0.004111
1768.000000	0.003990
1767.000000	0.003737
1766.000000	0.003293
1765.000000	0.002726
1764.000000	0.002117
1763.000000	0.001428
1762.000000	0.000550
1761.000000	-0.000567
1760.000000	-0.001861
1759.000000	-0.003272
1758.000000	-0.004798
1757.000000	-0.006507
1756.000000	-0.008448
1755.000000	-0.010530
1754.000000	-0.012638
1753.000000	-0.014759
1752.000000	-0.016974
1751.000000	-0.019278
1750.000000	-0.021474
1749.000000	-0.023294
1748.000000	-0.024632
1747.000000	-0.025529
1746.000000	-0.026009
1745.000000	-0.026063
1744.000000	-0.025672
1743.000000	-0.024882
1742.000000	-0.023695
1741.000000	-0.021984
1740.000000	-0.019765
1739.000000	-0.017558
1738.000000	-0.015908
1737.000000	-0.014685
1736.000000	-0.013245
1735.000000	-0.011098
1734.000000	-0.008669
1733.000000	-0.006793
1732.000000	-0.005488
1731.000000	-0.004331
1730.000000	-0.003139
1729.000000	-0.001976
1728.000000	-0.000958
1727.000000	-0.000128
1726.000000	0.000584
1725.000000	0.001251
1724.000000	0.001893
1723.000000	0.002424
1722.000000	0.002749
1721.000000	0.002932
1720.000000	0.003144
1719.000000	0.003496
1718.000000	0.003892
1717.000000	0.004264
1716.000000	0.004733
1715.000000	0.005319
1714.000000	0.005875
1713.000000	0.006312
1712.000000	0.006657
1711.000000	0.006958
1710.000000	0.007226
1709.000000	0.007462
1708.000000	0.007699
1707.000000	0.008030
1706.000000	0.008448
1705.000000	0.008775
1704.000000	0.008853
1703.000000	0.008842
1702.000000	0.009277
1701.000000	0.010514
1700.000000	0.011786
1699.000000	0.012183
1698.000000	0.012143
1697.000000	0.012575
1696.000000	0.013764
1695.000000	0.015132
1694.000000	0.016090
1693.000000	0.016765
1692.000000	0.017486
1691.000000	0.018304
1690.000000	0.019086
1689.000000	0.019681
1688.000000	0.020001
1687.000000	0.020191
1686.000000	0.020690
1685.000000	0.021887
1684.000000	0.023425
1683.000000	0.024661
1682.000000	0.025554
1681.000000	0.026421
1680.000000	0.027401
1679.000000	0.028330
1678.000000	0.029184
1677.000000	0.030233
1676.000000	0.031666
1675.000000	0.033115
1674.000000	0.034112
1673.000000	0.034763
1672.000000	0.035510
1671.000000	0.036582
1670.000000	0.037892
1669.000000	0.039228
1668.000000	0.040378
1667.000000	0.041249
1666.000000	0.041970
1665.000000	0.042799
1664.000000	0.043882
1663.000000	0.045040
1662.000000	0.046030
1661.000000	0.046868
1660.000000	0.047670
1659.000000	0.048438
1658.000000	0.049041
1657.000000	0.049361
1656.000000	0.049460
1655.000000	0.049709
1654.000000	0.050416
1653.000000	0.051370
1652.000000	0.052188
1651.000000	0.052663
1650.000000	0.053049
1649.000000	0.053561
1648.000000	0.054106
1647.000000	0.054560
1646.000000	0.054908
1645.000000	0.055251
1644.000000	0.055604
1643.000000	0.055949
1642.000000	0.056262
1641.000000	0.056516
1640.000000	0.056656
1639.000000	0.056657
1638.000000	0.056580
1637.000000	0.056586
1636.000000	0.056695
1635.000000	0.056837
1634.000000	0.056897
1633.000000	0.056856
1632.000000	0.056813
1631.000000	0.056761
1630.000000	0.056628
1629.000000	0.056362
1628.000000	0.055938
1627.000000	0.055377
1626.000000	0.054769
1625.000000	0.054184
1624.000000	0.053578
1623.000000	0.052820
1622.000000	0.051927
1621.000000	0.051020
1620.000000	0.050144
1619.000000	0.049287
1618.000000	0.048394
1617.000000	0.047410
1616.000000	0.046401
1615.000000	0.045508
1614.000000	0.044740
1613.000000	0.044023
1612.000000	0.043278
1611.000000	0.042440
1610.000000	0.041526
1609.000000	0.040616
1608.000000	0.039781
1607.000000	0.039027
1606.000000	0.038344
1605.000000	0.037710
1604.000000	0.037105
1603.000000	0.036541
1602.000000	0.036032
1601.000000	0.035576
1600.000000	0.035163
1599.000000	0.034795
1598.000000	0.034477
1597.000000	0.034204
1596.000000	0.033971
1595.000000	0.033785
1594.000000	0.033642
1593.000000	0.033522
1592.000000	0.033412
1591.000000	0.033313
1590.000000	0.033225
1589.000000	0.033143
1588.000000	0.033081
1587.000000	0.033062
1586.000000	0.033086
1585.000000	0.033144
1584.000000	0.033220
1583.000000	0.033354
1582.000000	0.033582
1581.000000	0.033824
1580.000000	0.033941
1579.000000	0.033928
1578.000000	0.033960
1577.000000	0.034232
1576.000000	0.034752
1575.000000	0.035322
1574.000000	0.035778
1573.000000	0.036120
1572.000000	0.036467
1571.000000	0.036943
1570.000000	0.037510
1569.000000	0.038045
1568.000000	0.038497
1567.000000	0.038950
1566.000000	0.039511
1565.000000	0.040134
1564.000000	0.040579
1563.000000	0.040705
1562.000000	0.040676
1561.000000	0.040942
1560.000000	0.041809
1559.000000	0.042704
1558.000000	0.043403
1557.000000	0.044020
1556.000000	0.044541
1555.000000	0.045186
1554.000000	0.045908
1553.000000	0.046530
1552.000000	0.047003
1551.000000	0.047446
1550.000000	0.047883
1549.000000	0.048266
1548.000000	0.048571
1547.000000	0.048847
1546.000000	0.049126
1545.000000	0.049308
1544.000000	0.049319
1543.000000	0.049292
1542.000000	0.049358
1541.000000	0.049486
1540.000000	0.049618
1539.000000	0.049843
1538.000000	0.050032
1537.000000	0.050083
1536.000000	0.050119
1535.000000	0.050174
1534.000000	0.050145
1533.000000	0.049896
1532.000000	0.049553
1531.000000	0.049286
1530.000000	0.049092
1529.000000	0.048890
1528.000000	0.048593
1527.000000	0.048194
1526.000000	0.047748
1525.000000	0.047258
1524.000000	0.046725
1523.000000	0.046233
1522.000000	0.045833
1521.000000	0.045530
1520.000000	0.045348
1519.000000	0.045277
1518.000000	0.045269
1517.000000	0.045195
1516.000000	0.044978
1515.000000	0.044664
1514.000000	0.044321
1513.000000	0.043935
1512.000000	0.043410
1511.000000	0.042649
1510.000000	0.041700
1509.000000	0.040727
1508.000000	0.039912
1507.000000	0.039380
1506.000000	0.039317
1505.000000	0.039356
1504.000000	0.039103
1503.000000	0.038690
1502.000000	0.038177
1501.000000	0.037536
1500.000000	0.036744
1499.000000	0.035808
1498.000000	0.034787
1497.000000	0.033789
1496.000000	0.032946
1495.000000	0.032255
1494.000000	0.031640
1493.000000	0.031078
1492.000000	0.030579
1491.000000	0.030068
1490.000000	0.029464
1489.000000	0.028898
1488.000000	0.028568
1487.000000	0.028426
1486.000000	0.028305
1485.000000	0.028163
1484.000000	0.028034
1483.000000	0.027985
1482.000000	0.028024
1481.000000	0.028103
1480.000000	0.028190
1479.000000	0.028288
1478.000000	0.028384
1477.000000	0.028381
1476.000000	0.028192
1475.000000	0.027840
1474.000000	0.027418
1473.000000	0.026888
1472.000000	0.026182
1471.000000	0.025345
1470.000000	0.024450
1469.000000	0.023591
1468.000000	0.022903
1467.000000	0.022495
1466.000000	0.022438
1465.000000	0.022679
1464.000000	0.023026
1463.000000	0.023316
1462.000000	0.023504
1461.000000	0.023628
1460.000000	0.023694
1459.000000	0.023766
1458.000000	0.024034
1457.000000	0.024699
1456.000000	0.025634
1455.000000	0.026493
1454.000000	0.027268
1453.000000	0.028055
1452.000000	0.028790
1451.000000	0.029371
1450.000000	0.029788
1449.000000	0.030109
1448.000000	0.030352
1447.000000	0.030477
1446.000000	0.030547
1445.000000	0.030619
1444.000000	0.030693
1443.000000	0.030740
1442.000000	0.030720
1441.000000	0.030610
1440.000000	0.030415
1439.000000	0.030231
1438.000000	0.030170
1437.000000	0.030216
1436.000000	0.030208
1435.000000	0.030094
1434.000000	0.029971
1433.000000	0.029931
1432.000000	0.029967
1431.000000	0.030011
1430.000000	0.030030
1429.000000	0.030060
1428.000000	0.030112
1427.000000	0.030135
1426.000000	0.030149
1425.000000	0.030169
1424.000000	0.030122
1423.000000	0.029954
1422.000000	0.029715
1421.000000	0.029536
1420.000000	0.029469
1419.000000	0.029414
1418.000000	0.029370
1417.000000	0.029460
1416.000000	0.029696
1415.000000	0.030016
1414.000000	0.030360
1413.000000	0.030694
1412.000000	0.031002
1411.000000	0.031282
1410.000000	0.031527
1409.000000	0.031737
1408.000000	0.031913
1407.000000	0.032038
1406.000000	0.032131
1405.000000	0.032225
1404.000000	0.032302
1403.000000	0.032322
1402.000000	0.032299
1401.000000	0.032294
1400.000000	0.032283
1399.000000	0.032161
1398.000000	0.031922
1397.000000	0.031681
1396.000000	0.031523
1395.000000	0.031414
1394.000000	0.031306
1393.000000	0.031174
1392.000000	0.030991
1391.000000	0.030740
1390.000000	0.030419
1389.000000	0.030045
1388.000000	0.029633
1387.000000	0.029188
1386.000000	0.028736
1385.000000	0.028287
1384.000000	0.027811
1383.000000	0.027275
1382.000000	0.026668
1381.000000	0.026024
1380.000000	0.025397
1379.000000	0.024831
1378.000000	0.024367
1377.000000	0.024033
1376.000000	0.023823
1375.000000	0.023692
1374.000000	0.023610
1373.000000	0.023567
1372.000000	0.023538
1371.000000	0.023480
1370.000000	0.023390
1369.000000	0.023278
1368.000000	0.023149
1367.000000	0.022995
1366.000000	0.022803
1365.000000	0.022567
1364.000000	0.022292
1363.000000	0.022010
1362.000000	0.021788
1361.000000	0.021658
1360.000000	0.021574
1359.000000	0.021474
1358.000000	0.021342
1357.000000	0.021195
1356.000000	0.021058
1355.000000	0.020947
1354.000000	0.020876
1353.000000	0.020854
1352.000000	0.020884
1351.000000	0.020942
1350.000000	0.021012
1349.000000	0.021103
1348.000000	0.021229
1347.000000	0.021392
1346.000000	0.021576
1345.000000	0.021767
1344.000000	0.021954
1343.000000	0.022115
1342.000000	0.022232
1341.000000	0.022314
1340.000000	0.022400
1339.000000	0.022539
1338.000000	0.022735
1337.000000	0.022943
1336.000000	0.023109
1335.000000	0.023198
1334.000000	0.023196
1333.000000	0.023109
1332.000000	0.022957
1331.000000	0.022760
1330.000000	0.022535
1329.000000	0.022301
1328.000000	0.022074
1327.000000	0.021862
1326.000000	0.021676
1325.000000	0.021526
1324.000000	0.021416
1323.000000	0.021342
1322.000000	0.021299
1321.000000	0.021284
1320.000000	0.021288
1319.000000	0.021299
1318.000000	0.021315
1317.000000	0.021346
1316.000000	0.021393
1315.000000	0.021436
1314.000000	0.021455
1313.000000	0.021448
1312.000000	0.021421
1311.000000	0.021362
1310.000000	0.021262
1309.000000	0.021127
1308.000000	0.020975
1307.000000	0.020809
1306.000000	0.020622
1305.000000	0.020416
1304.000000	0.020203
1303.000000	0.019996
1302.000000	0.019802
1301.000000	0.019639
1300.000000	0.019524
1299.000000	0.019448
1298.000000	0.019384
1297.000000	0.019324
1296.000000	0.019292
1295.000000	0.019320
1294.000000	0.019412
1293.000000	0.019551
1292.000000	0.019717
1291.000000	0.019896
1290.000000	0.020079
1289.000000	0.020253
1288.000000	0.020403
1287.000000	0.020517
1286.000000	0.020604
1285.000000	0.020695
1284.000000	0.020822
1283.000000	0.020991
1282.000000	0.021178
1281.000000	0.021355
1280.000000	0.021501
1279.000000	0.021607
1278.000000	0.021672
1277.000000	0.021708
1276.000000	0.021729
1275.000000	0.021737
1274.000000	0.021725
1273.000000	0.021691
1272.000000	0.021642
1271.000000	0.021592
1270.000000	0.021551
1269.000000	0.021516
1268.000000	0.021480
1267.000000	0.021434
1266.000000	0.021386
1265.000000	0.021356
1264.000000	0.021357
1263.000000	0.021386
1262.000000	0.021436
1261.000000	0.021510
1260.000000	0.021626
1259.000000	0.021802
1258.000000	0.022043
1257.000000	0.022337
1256.000000	0.022656
1255.000000	0.022968
1254.000000	0.023254
1253.000000	0.023512
1252.000000	0.023743
1251.000000	0.023949
1250.000000	0.024142
1249.000000	0.024341
1248.000000	0.024555
1247.000000	0.024773
1246.000000	0.024991
1245.000000	0.025227
1244.000000	0.025503
1243.000000	0.025814
1242.000000	0.026143
1241.000000	0.026476
1240.000000	0.026803
1239.000000	0.027110
1238.000000	0.027392
1237.000000	0.027654
1236.000000	0.027886
1235.000000	0.028052
1234.000000	0.028119
1233.000000	0.028089
1232.000000	0.027986
1231.000000	0.027824
1230.000000	0.027595
1229.000000	0.027280
1228.000000	0.026861
1227.000000	0.026341
1226.000000	0.025747
1225.000000	0.025112
1224.000000	0.024454
1223.000000	0.023772
1222.000000	0.023069
1221.000000	0.022368
1220.000000	0.021698
1219.000000	0.021084
1218.000000	0.020540
1217.000000	0.020076
1216.000000	0.019692
1215.000000	0.019382
1214.000000	0.019134
1213.000000	0.018935
1212.000000	0.018769
1211.000000	0.018623
1210.000000	0.018488
1209.000000	0.018369
1208.000000	0.018259
1207.000000	0.018136
1206.000000	0.017976
1205.000000	0.017773
1204.000000	0.017530
1203.000000	0.017244
1202.000000	0.016902
1201.000000	0.016497
1200.000000	0.016029
1199.000000	0.015507
1198.000000	0.014937
1197.000000	0.014329
1196.000000	0.013696
1195.000000	0.013060
1194.000000	0.012440
1193.000000	0.011848
1192.000000	0.011287
1191.000000	0.010760
1190.000000	0.010260
1189.000000	0.009775
1188.000000	0.009300
1187.000000	0.008858
1186.000000	0.008484
1185.000000	0.008202
1184.000000	0.007999
1183.000000	0.007832
1182.000000	0.007664
1181.000000	0.007479
1180.000000	0.007282
1179.000000	0.007069
1178.000000	0.006833
1177.000000	0.006569
1176.000000	0.006280
1175.000000	0.005976
1174.000000	0.005666
1173.000000	0.005360
1172.000000	0.005067
1171.000000	0.004782
1170.000000	0.004499
1169.000000	0.004220
1168.000000	0.003957
1167.000000	0.003717
1166.000000	0.003502
1165.000000	0.003317
1164.000000	0.003168
1163.000000	0.003054
1162.000000	0.002963
1161.000000	0.002890
1160.000000	0.002847
1159.000000	0.002837
1158.000000	0.002849
1157.000000	0.002873
1156.000000	0.002909
1155.000000	0.002953
1154.000000	0.002980
1153.000000	0.002974
1152.000000	0.002950
1151.000000	0.002935
1150.000000	0.002931
1149.000000	0.002914
1148.000000	0.002872
1147.000000	0.002819
1146.000000	0.002781
1145.000000	0.002777
1144.000000	0.002823
1143.000000	0.002933
1142.000000	0.003114
1141.000000	0.003371
1140.000000	0.003705
1139.000000	0.004111
1138.000000	0.004579
1137.000000	0.005094
1136.000000	0.005636
1135.000000	0.006175
1134.000000	0.006683
1133.000000	0.007143
1132.000000	0.007550
1131.000000	0.007885
1130.000000	0.008122
1129.000000	0.008253
1128.000000	0.008299
1127.000000	0.008283
1126.000000	0.008209
1125.000000	0.008060
1124.000000	0.007834
1123.000000	0.007565
1122.000000	0.007310
1121.000000	0.007119
1120.000000	0.007007
1119.000000	0.006956
1118.000000	0.006952
1117.000000	0.007008
1116.000000	0.007149
1115.000000	0.007378
1114.000000	0.007664
1113.000000	0.007965
1112.000000	0.008253
1111.000000	0.008511
1110.000000	0.008728
1109.000000	0.008900
1108.000000	0.009033
1107.000000	0.009134
1106.000000	0.009209
1105.000000	0.009269
1104.000000	0.009327
1103.000000	0.009385
1102.000000	0.009432
1101.000000	0.009463
1100.000000	0.009485
1099.000000	0.009516
1098.000000	0.009571
1097.000000	0.009664
1096.000000	0.009807
1095.000000	0.010001
1094.000000	0.010237
1093.000000	0.010509
1092.000000	0.010828
1091.000000	0.011203
1090.000000	0.011635
1089.000000	0.012115
1088.000000	0.012630
1087.000000	0.013177
1086.000000	0.013749
1085.000000	0.014333
1084.000000	0.014892
1083.000000	0.015373
1082.000000	0.015725
1081.000000	0.015932
1080.000000	0.016002
1079.000000	0.015956
1078.000000	0.015817
1077.000000	0.015610
1076.000000	0.015361
1075.000000	0.015090
1074.000000	0.014825
1073.000000	0.014603
1072.000000	0.014444
1071.000000	0.014334
1070.000000	0.014251
1069.000000	0.014189
1068.000000	0.014168
1067.000000	0.014197
1066.000000	0.014270
1065.000000	0.014377
1064.000000	0.014515
1063.000000	0.014671
1062.000000	0.014821
1061.000000	0.014952
1060.000000	0.015071
1059.000000	0.015198
1058.000000	0.015344
1057.000000	0.015499
1056.000000	0.015652
1055.000000	0.015798
1054.000000	0.015943
1053.000000	0.016091
1052.000000	0.016231
1051.000000	0.016349
1050.000000	0.016445
1049.000000	0.016532
1048.000000	0.016618
1047.000000	0.016691
1046.000000	0.016733
1045.000000	0.016742
1044.000000	0.016730
1043.000000	0.016712
1042.000000	0.016705
1041.000000	0.016724
1040.000000	0.016782
1039.000000	0.016881
1038.000000	0.017023
1037.000000	0.017209
1036.000000	0.017434
1035.000000	0.017678
1034.000000	0.017911
1033.000000	0.018110
1032.000000	0.018255
1031.000000	0.018347
1030.000000	0.018403
1029.000000	0.018456
1028.000000	0.018514
1027.000000	0.018558
1026.000000	0.018560
1025.000000	0.018526
1024.000000	0.018490
1023.000000	0.018490
1022.000000	0.018550
1021.000000	0.018675
1020.000000	0.018853
1019.000000	0.019055
1018.000000	0.019248
1017.000000	0.019395
1016.000000	0.019455
1015.000000	0.019385
1014.000000	0.019162
1013.000000	0.018789
1012.000000	0.018290
1011.000000	0.017703
1010.000000	0.017080
1009.000000	0.016478
1008.000000	0.015939
1007.000000	0.015478
1006.000000	0.015083
1005.000000	0.014735
1004.000000	0.014410
1003.000000	0.014083
1002.000000	0.013744
1001.000000	0.013403
1000.000000	0.013084
999.000000	0.012800
998.000000	0.012542
997.000000	0.012287
996.000000	0.012019
995.000000	0.011736
994.000000	0.011450
993.000000	0.011168
992.000000	0.010891
991.000000	0.010614
990.000000	0.010338
989.000000	0.010078
988.000000	0.009844
987.000000	0.009630
986.000000	0.009425
985.000000	0.009226
984.000000	0.009044
983.000000	0.008887
982.000000	0.008746
981.000000	0.008602
980.000000	0.008447
979.000000	0.008290
978.000000	0.008144
977.000000	0.008008
976.000000	0.007866
975.000000	0.007706
974.000000	0.007535
973.000000	0.007362
972.000000	0.007183
971.000000	0.006979
970.000000	0.006741
969.000000	0.006490
968.000000	0.006265
967.000000	0.006093
966.000000	0.005984
965.000000	0.005930
964.000000	0.005914
963.000000	0.005909
962.000000	0.005893
961.000000	0.005870
960.000000	0.005859
959.000000	0.005878
958.000000	0.005923
957.000000	0.005988
956.000000	0.006065
955.000000	0.006134
954.000000	0.006166
953.000000	0.006134
952.000000	0.006049
951.000000	0.005951
950.000000	0.005880
949.000000	0.005843
948.000000	0.005816
947.000000	0.005778
946.000000	0.005727
945.000000	0.005673
944.000000	0.005619
943.000000	0.005572
942.000000	0.005549
941.000000	0.005566
940.000000	0.005613
939.000000	0.005662
938.000000	0.005695
937.000000	0.005727
936.000000	0.005776
935.000000	0.005832
934.000000	0.005859
933.000000	0.005836
932.000000	0.005774
931.000000	0.005705
930.000000	0.005652
929.000000	0.005610
928.000000	0.005558
927.000000	0.005480
926.000000	0.005377
925.000000	0.005266
924.000000	0.005159
923.000000	0.005054
922.000000	0.004933
921.000000	0.004781
920.000000	0.004601
919.000000	0.004413
918.000000	0.004243
917.000000	0.004105
916.000000	0.004000
915.000000	0.003923
914.000000	0.003861
913.000000	0.003789
912.000000	0.003685
911.000000	0.003557
910.000000	0.003451
909.000000	0.003398
908.000000	0.003382
907.000000	0.003354
906.000000	0.003302
905.000000	0.003261
904.000000	0.003264
903.000000	0.003293
902.000000	0.003307
901.000000	0.003285
900.000000	0.003240
899.000000	0.003192
898.000000	0.003148
897.000000	0.003104
896.000000	0.003047
895.000000	0.002966
894.000000	0.002870
893.000000	0.002792
892.000000	0.002766
891.000000	0.002795
890.000000	0.002845
889.000000	0.002881
888.000000	0.002889
887.000000	0.002882
886.000000	0.002881
885.000000	0.002905
884.000000	0.002976
883.000000	0.003109
882.000000	0.003312
881.000000	0.003583
880.000000	0.003903
879.000000	0.004235
878.000000	0.004549
877.000000	0.004815
876.000000	0.004998
875.000000	0.005065
874.000000	0.004997
873.000000	0.004801
872.000000	0.004488
871.000000	0.004083
870.000000	0.003647
869.000000	0.003272
868.000000	0.003026
867.000000	0.002897
866.000000	0.002825
865.000000	0.002766
864.000000	0.002732
863.000000	0.002752
862.000000	0.002833
861.000000	0.002956
860.000000	0.003097
859.000000	0.003239
858.000000	0.003371
857.000000	0.003474
856.000000	0.003530
855.000000	0.003539
854.000000	0.003534
853.000000	0.003561
852.000000	0.003638
851.000000	0.003732
850.000000	0.003804
849.000000	0.003843
848.000000	0.003867
847.000000	0.003900
846.000000	0.003957
845.000000	0.004038
844.000000	0.004131
843.000000	0.004224
842.000000	0.004327
841.000000	0.004477
840.000000	0.004695
839.000000	0.004963
838.000000	0.005233
837.000000	0.005464
836.000000	0.005627
835.000000	0.005701
834.000000	0.005688
833.000000	0.005621
832.000000	0.005536
831.000000	0.005442
830.000000	0.005335
829.000000	0.005219
828.000000	0.005106
827.000000	0.004985
826.000000	0.004827
825.000000	0.004626
824.000000	0.004422
823.000000	0.004269
822.000000	0.004180
821.000000	0.004121
820.000000	0.004049
819.000000	0.003946
818.000000	0.003824
817.000000	0.003699
816.000000	0.003578
815.000000	0.003467
814.000000	0.003383
813.000000	0.003341
812.000000	0.003326
811.000000	0.003301
810.000000	0.003239
809.000000	0.003138
808.000000	0.003019
807.000000	0.002908
806.000000	0.002829
805.000000	0.002794
804.000000	0.002791
803.000000	0.002800
802.000000	0.002818
801.000000	0.002854
800.000000	0.002913
799.000000	0.002983
798.000000	0.003055
797.000000	0.003131
796.000000	0.003200
795.000000	0.003249
794.000000	0.003281
793.000000	0.003320
792.000000	0.003369
791.000000	0.003407
790.000000	0.003432
789.000000	0.003478
788.000000	0.003568
787.000000	0.003672
786.000000	0.003749
785.000000	0.003794
784.000000	0.003839
783.000000	0.003898
782.000000	0.003963
781.000000	0.004024
780.000000	0.004075
779.000000	0.004103
778.000000	0.004113
777.000000	0.004136
776.000000	0.004207
775.000000	0.004307
774.000000	0.004380
773.000000	0.004388
772.000000	0.004351
771.000000	0.004316
770.000000	0.004306
769.000000	0.004298
768.000000	0.004263
767.000000	0.004200
766.000000	0.004149
765.000000	0.004157
764.000000	0.004240
763.000000	0.004373
762.000000	0.004519
761.000000	0.004653
760.000000	0.004751
759.000000	0.004799
758.000000	0.004816
757.000000	0.004853
756.000000	0.004945
755.000000	0.005075
754.000000	0.005201
753.000000	0.005308
752.000000	0.005408
751.000000	0.005504
750.000000	0.005579
749.000000	0.005614
748.000000	0.005606
747.000000	0.005556
746.000000	0.005470
745.000000	0.005358
744.000000	0.005228
743.000000	0.005072
742.000000	0.004888
741.000000	0.004703
740.000000	0.004569
739.000000	0.004514
738.000000	0.004507
737.000000	0.004490
736.000000	0.004429
735.000000	0.004342
734.000000	0.004267
733.000000	0.004225
732.000000	0.004195
731.000000	0.004146
730.000000	0.004075
729.000000	0.003997
728.000000	0.003917
727.000000	0.003827
726.000000	0.003728
725.000000	0.003638
724.000000	0.003571
723.000000	0.003538
722.000000	0.003576
721.000000	0.003737
720.000000	0.004024
719.000000	0.004370
718.000000	0.004699
717.000000	0.004995
716.000000	0.005291
715.000000	0.005614
714.000000	0.005956
713.000000	0.006288
712.000000	0.006574
711.000000	0.006801
710.000000	0.006993
709.000000	0.007191
708.000000	0.007405
707.000000	0.007598
706.000000	0.007748
705.000000	0.007881
704.000000	0.008032
703.000000	0.008192
702.000000	0.008322
701.000000	0.008417
700.000000	0.008513
699.000000	0.008638
698.000000	0.008771
697.000000	0.008862
696.000000	0.008879
695.000000	0.008843
694.000000	0.008815
693.000000	0.008846
692.000000	0.008941
691.000000	0.009052
690.000000	0.009120
689.000000	0.009130
688.000000	0.009110
687.000000	0.009112
686.000000	0.009168
685.000000	0.009276
684.000000	0.009422
683.000000	0.009592
682.000000	0.009776
681.000000	0.009960
680.000000	0.010138
679.000000	0.010324
678.000000	0.010532
677.000000	0.010750
676.000000	0.010936
675.000000	0.011065
674.000000	0.011168
673.000000	0.011304
672.000000	0.011477
671.000000	0.011631
670.000000	0.011698
669.000000	0.011632
668.000000	0.011491
667.000000	0.011509
666.000000	0.011663
665.000000	0.011819
664.000000	0.011907
663.000000	0.011903
662.000000	0.011875
661.000000	0.011919
660.000000	0.012046
659.000000	0.012177
658.000000	0.012265
657.000000	0.012344
656.000000	0.012433
655.000000	0.012493
654.000000	0.012507
653.000000	0.012520
652.000000	0.012553
651.000000	0.012581
650.000000	0.012595
649.000000	0.012626
648.000000	0.012667
647.000000	0.012665
646.000000	0.012625
645.000000	0.012619
644.000000	0.012667
643.000000	0.012705
642.000000	0.012681
641.000000	0.012629
640.000000	0.012579
639.000000	0.012502
638.000000	0.012386
637.000000	0.012287
636.000000	0.012251
635.000000	0.012254
634.000000	0.012259
633.000000	0.012273
632.000000	0.012299
631.000000	0.012324
630.000000	0.012372
629.000000	0.012490
628.000000	0.012654
627.000000	0.012758
626.000000	0.012758
625.000000	0.012730
624.000000	0.012739
623.000000	0.012739
622.000000	0.012687
621.000000	0.012638
620.000000	0.012652
619.000000	0.012697
618.000000	0.012713
617.000000	0.012720
616.000000	0.012754
615.000000	0.012761
614.000000	0.012678
613.000000	0.012553
612.000000	0.012492
611.000000	0.012527
610.000000	0.012599
609.000000	0.012660
608.000000	0.012684
607.000000	0.012647
606.000000	0.012562
605.000000	0.012506
604.000000	0.012534
603.000000	0.012592
602.000000	0.012611
601.000000	0.012624
600.000000	0.012715
599.000000	0.012866
598.000000	0.012964
597.000000	0.012947
596.000000	0.012851
595.000000	0.012716
594.000000	0.012565
593.000000	0.012450
592.000000	0.012444
591.000000	0.012543
590.000000	0.012642
589.000000	0.012640
588.000000	0.012505
587.000000	0.012277
586.000000	0.012049
585.000000	0.011927
584.000000	0.011949
583.000000	0.012051
582.000000	0.012164
581.000000	0.012312
580.000000	0.012553
579.000000	0.012843
578.000000	0.013051
577.000000	0.013100
576.000000	0.013022
575.000000	0.012916
574.000000	0.012885
573.000000	0.012987
572.000000	0.013198
571.000000	0.013420
570.000000	0.013581
569.000000	0.013709
568.000000	0.013871
567.000000	0.014066
566.000000	0.014255
565.000000	0.014420
564.000000	0.014548
563.000000	0.014606
562.000000	0.014607
561.000000	0.014632
560.000000	0.014726
559.000000	0.014823
558.000000	0.014852
557.000000	0.014846
556.000000	0.014874
555.000000	0.014914
554.000000	0.014866
553.000000	0.014675
552.000000	0.014383
551.000000	0.014071
550.000000	0.013817
549.000000	0.013651
548.000000	0.013537
547.000000	0.013422
546.000000	0.013311
545.000000	0.013234
544.000000	0.013164
543.000000	0.013061
542.000000	0.013001
541.000000	0.013105
540.000000	0.013305
539.000000	0.013339
538.000000	0.013074
537.000000	0.012702
536.000000	0.012496
535.000000	0.012500
534.000000	0.012569
533.000000	0.012625
532.000000	0.012714
531.000000	0.012874
530.000000	0.013067
529.000000	0.013230
528.000000	0.013295
527.000000	0.013200
526.000000	0.012972
525.000000	0.012768
524.000000	0.012675
523.000000	0.012585
522.000000	0.012350
521.000000	0.011963
520.000000	0.011539
519.000000	0.011165
518.000000	0.010858
517.000000	0.010614
516.000000	0.010411
515.000000	0.010211
514.000000	0.010040
513.000000	0.009961
512.000000	0.009944
511.000000	0.009830
510.000000	0.009527
509.000000	0.009160
508.000000	0.008939
507.000000	0.008916
506.000000	0.008978
505.000000	0.009015
504.000000	0.008975
503.000000	0.008823
502.000000	0.008568
501.000000	0.008342
500.000000	0.008271
499.000000	0.008318
498.000000	0.008344
497.000000	0.008285
496.000000	0.008177
495.000000	0.008032
494.000000	0.007791
493.000000	0.007415
492.000000	0.006986
491.000000	0.006642
490.000000	0.006475
489.000000	0.006482
488.000000	0.006582
487.000000	0.006677
486.000000	0.006713
485.000000	0.006668
484.000000	0.006486
483.000000	0.006113
482.000000	0.005638
481.000000	0.005307
480.000000	0.005295
479.000000	0.005532
478.000000	0.005823
477.000000	0.006018
476.000000	0.006004
475.000000	0.005701
474.000000	0.005193
473.000000	0.004801
472.000000	0.004801
471.000000	0.005057
470.000000	0.005234
469.000000	0.005245
468.000000	0.005218
467.000000	0.005223
466.000000	0.005215
465.000000	0.005132
464.000000	0.004912
463.000000	0.004485
462.000000	0.003903
461.000000	0.003409
460.000000	0.003199
459.000000	0.003248
458.000000	0.003446
457.000000	0.003755
456.000000	0.004087
455.000000	0.004227
454.000000	0.004045
453.000000	0.003649
452.000000	0.003234
451.000000	0.003136
450.000000	0.002624
