PE UV       SUBTECH     SPECTRUM    ASCII       PEDS        4.00        
   -1
TTgVeauAl 32.Sample.asc
18/03/08
10:38:59.00
18/03/08
10:38:59.00
Administrator

200.000000
1
Lambda 750
750N8071901
PerkinElmer UV WinLab 6.0.4.0738 / 1.61.00 Lambda 900

0
0
3350/servo 860.8/2
0
0
UV/VIS
1
1
1
CommonBeamDepol,150mm sphere / downward view
0
0
0
0
Program
Program
3350/servo 860.8/2
3350/0.2 860.8/0.2
3350/0.2 860.8/0.2
0
1
 
 
 
0
 
860.8
319.2
860.8
Front
100
on
 
 
0
0
0
 
0
 
 
 
0
 
 
0
0
0
0
0
 
 
 
 
0
0


0
0
#HDR
-1
-1
#GR
nm
%T
1.0
0.0
2350.000000
-1.000000
2151
8
40.797015
0.146059
#DATA
2350.000000	12.551604
2349.000000	12.518599
2348.000000	12.704862
2347.000000	13.140880
2346.000000	13.299033
2345.000000	12.959217
2344.000000	12.649340
2343.000000	12.556800
2342.000000	12.585191
2341.000000	12.814960
2340.000000	12.605644
2339.000000	12.979807
2338.000000	12.849621
2337.000000	13.084654
2336.000000	13.231907
2335.000000	13.489548
2334.000000	13.467098
2333.000000	13.340215
2332.000000	13.585997
2331.000000	13.616289
2330.000000	13.517036
2329.000000	13.434627
2328.000000	13.166336
2327.000000	13.085043
2326.000000	13.300949
2325.000000	13.509612
2324.000000	13.317853
2323.000000	13.102025
2322.000000	13.205415
2321.000000	13.186521
2320.000000	12.992943
2319.000000	13.206505
2318.000000	13.171186
2317.000000	13.007204
2316.000000	12.805980
2315.000000	12.743605
2314.000000	12.555785
2313.000000	12.532142
2312.000000	12.385537
2311.000000	12.562261
2310.000000	12.638406
2309.000000	12.506242
2308.000000	12.522115
2307.000000	12.699232
2306.000000	12.523141
2305.000000	12.243314
2304.000000	12.237447
2303.000000	12.218718
2302.000000	12.211661
2301.000000	12.133559
2300.000000	11.985830
2299.000000	11.941482
2298.000000	11.818064
2297.000000	11.723650
2296.000000	11.957291
2295.000000	11.905627
2294.000000	11.592065
2293.000000	11.646942
2292.000000	11.620805
2291.000000	11.436832
2290.000000	11.401547
2289.000000	11.492080
2288.000000	11.564125
2287.000000	11.543627
2286.000000	11.284135
2285.000000	11.261551
2284.000000	11.221385
2283.000000	11.222904
2282.000000	11.275864
2281.000000	11.278854
2280.000000	11.268088
2279.000000	11.530284
2278.000000	11.372648
2277.000000	11.432938
2276.000000	11.584802
2275.000000	11.425482
2274.000000	11.493866
2273.000000	11.664894
2272.000000	11.600197
2271.000000	11.574155
2270.000000	11.583660
2269.000000	11.625045
2268.000000	11.696048
2267.000000	11.761734
2266.000000	11.782053
2265.000000	11.846963
2264.000000	11.934938
2263.000000	11.980952
2262.000000	12.142799
2261.000000	12.377354
2260.000000	12.516021
2259.000000	12.490767
2258.000000	12.496236
2257.000000	12.706377
2256.000000	12.840833
2255.000000	13.038378
2254.000000	13.151672
2253.000000	13.256507
2252.000000	13.402127
2251.000000	13.524860
2250.000000	13.737651
2249.000000	13.913567
2248.000000	13.973722
2247.000000	14.125296
2246.000000	14.333225
2245.000000	14.481695
2244.000000	14.521335
2243.000000	14.731532
2242.000000	14.961665
2241.000000	14.979074
2240.000000	15.105084
2239.000000	15.342119
2238.000000	15.356761
2237.000000	15.342364
2236.000000	15.433362
2235.000000	15.544049
2234.000000	15.579323
2233.000000	15.629074
2232.000000	15.740901
2231.000000	15.831506
2230.000000	15.893850
2229.000000	15.874332
2228.000000	15.920950
2227.000000	15.905574
2226.000000	15.778494
2225.000000	15.763008
2224.000000	15.871521
2223.000000	15.811083
2222.000000	15.903404
2221.000000	15.906773
2220.000000	15.714073
2219.000000	15.606612
2218.000000	15.577436
2217.000000	15.597178
2216.000000	15.542405
2215.000000	15.491962
2214.000000	15.496808
2213.000000	15.477889
2212.000000	15.386198
2211.000000	15.381327
2210.000000	15.299597
2209.000000	15.301790
2208.000000	15.189870
2207.000000	15.299645
2206.000000	15.267983
2205.000000	15.171168
2204.000000	15.058868
2203.000000	14.899919
2202.000000	14.846107
2201.000000	14.789299
2200.000000	14.709746
2199.000000	14.654805
2198.000000	14.593192
2197.000000	14.575718
2196.000000	14.508802
2195.000000	14.416873
2194.000000	14.411577
2193.000000	14.288767
2192.000000	14.287914
2191.000000	14.203247
2190.000000	14.216239
2189.000000	14.146954
2188.000000	13.984177
2187.000000	13.953867
2186.000000	13.978510
2185.000000	13.867556
2184.000000	13.863760
2183.000000	13.866943
2182.000000	13.775727
2181.000000	13.794928
2180.000000	13.859930
2179.000000	13.604498
2178.000000	13.635362
2177.000000	13.753457
2176.000000	13.790791
2175.000000	13.691111
2174.000000	13.772295
2173.000000	13.664027
2172.000000	13.776851
2171.000000	13.944761
2170.000000	13.781321
2169.000000	13.750107
2168.000000	13.930552
2167.000000	13.992914
2166.000000	14.017863
2165.000000	14.101575
2164.000000	14.225739
2163.000000	14.236403
2162.000000	14.416155
2161.000000	14.566250
2160.000000	14.561785
2159.000000	14.648380
2158.000000	14.632224
2157.000000	14.610870
2156.000000	14.945906
2155.000000	14.920187
2154.000000	15.168395
2153.000000	15.343638
2152.000000	15.259665
2151.000000	15.467924
2150.000000	15.591466
2149.000000	15.498072
2148.000000	15.571934
2147.000000	15.789330
2146.000000	15.984325
2145.000000	15.869251
2144.000000	16.202259
2143.000000	16.223687
2142.000000	16.444638
2141.000000	16.559564
2140.000000	16.483689
2139.000000	16.611728
2138.000000	16.752895
2137.000000	16.791438
2136.000000	16.876041
2135.000000	16.910477
2134.000000	17.031396
2133.000000	16.835685
2132.000000	17.182375
2131.000000	17.296782
2130.000000	17.421552
2129.000000	17.460871
2128.000000	17.214675
2127.000000	17.327903
2126.000000	17.405420
2125.000000	17.507049
2124.000000	17.597765
2123.000000	17.432279
2122.000000	17.510377
2121.000000	17.570634
2120.000000	17.709051
2119.000000	17.700808
2118.000000	17.682309
2117.000000	17.959410
2116.000000	17.753825
2115.000000	17.998956
2114.000000	17.943643
2113.000000	17.881270
2112.000000	17.905387
2111.000000	17.796835
2110.000000	17.869193
2109.000000	17.960110
2108.000000	17.859389
2107.000000	17.987533
2106.000000	17.941064
2105.000000	17.879359
2104.000000	17.910507
2103.000000	18.021235
2102.000000	18.024066
2101.000000	18.059098
2100.000000	18.106321
2099.000000	18.125336
2098.000000	18.031275
2097.000000	18.064876
2096.000000	18.078016
2095.000000	18.033072
2094.000000	18.029567
2093.000000	18.072881
2092.000000	18.100595
2091.000000	17.988297
2090.000000	17.954159
2089.000000	17.956216
2088.000000	17.951502
2087.000000	17.975520
2086.000000	17.909097
2085.000000	17.959468
2084.000000	17.867993
2083.000000	17.794039
2082.000000	17.720765
2081.000000	17.705303
2080.000000	17.691543
2079.000000	17.529836
2078.000000	17.440184
2077.000000	17.434415
2076.000000	17.459911
2075.000000	17.256647
2074.000000	17.154415
2073.000000	17.128925
2072.000000	17.084706
2071.000000	16.959079
2070.000000	16.789420
2069.000000	16.760812
2068.000000	16.646904
2067.000000	16.486941
2066.000000	16.324598
2065.000000	16.210688
2064.000000	16.038576
2063.000000	15.980989
2062.000000	15.909899
2061.000000	15.723683
2060.000000	15.598344
2059.000000	15.554071
2058.000000	15.441692
2057.000000	15.283700
2056.000000	15.205394
2055.000000	15.106910
2054.000000	14.932929
2053.000000	14.891810
2052.000000	14.773142
2051.000000	14.595884
2050.000000	14.544867
2049.000000	14.481986
2048.000000	14.457020
2047.000000	14.444340
2046.000000	14.349957
2045.000000	14.292239
2044.000000	14.263889
2043.000000	14.253421
2042.000000	14.265542
2041.000000	14.338844
2040.000000	14.327239
2039.000000	14.326979
2038.000000	14.359409
2037.000000	14.353775
2036.000000	14.452200
2035.000000	14.553913
2034.000000	14.643648
2033.000000	14.736396
2032.000000	14.809600
2031.000000	14.885679
2030.000000	15.004586
2029.000000	15.101378
2028.000000	15.208736
2027.000000	15.324803
2026.000000	15.407403
2025.000000	15.493256
2024.000000	15.546815
2023.000000	15.637123
2022.000000	15.697076
2021.000000	15.727318
2020.000000	15.792277
2019.000000	15.812576
2018.000000	15.836326
2017.000000	15.858960
2016.000000	15.878484
2015.000000	15.908309
2014.000000	15.879077
2013.000000	15.830079
2012.000000	15.824533
2011.000000	15.815001
2010.000000	15.758379
2009.000000	15.714560
2008.000000	15.672893
2007.000000	15.629221
2006.000000	15.581564
2005.000000	15.545222
2004.000000	15.469206
2003.000000	15.386186
2002.000000	15.320758
2001.000000	15.249234
2000.000000	15.189149
1999.000000	15.090962
1998.000000	15.004962
1997.000000	14.950420
1996.000000	14.886528
1995.000000	14.752466
1994.000000	14.656786
1993.000000	14.568491
1992.000000	14.514729
1991.000000	14.447437
1990.000000	14.396388
1989.000000	14.319879
1988.000000	14.217561
1987.000000	14.140820
1986.000000	14.040819
1985.000000	13.936028
1984.000000	13.890682
1983.000000	13.828801
1982.000000	13.750683
1981.000000	13.677865
1980.000000	13.618643
1979.000000	13.528008
1978.000000	13.412226
1977.000000	13.328881
1976.000000	13.281980
1975.000000	13.197431
1974.000000	13.083841
1973.000000	13.024959
1972.000000	12.930336
1971.000000	12.876148
1970.000000	12.843615
1969.000000	12.755493
1968.000000	12.670132
1967.000000	12.636717
1966.000000	12.570142
1965.000000	12.455399
1964.000000	12.409159
1963.000000	12.362106
1962.000000	12.291404
1961.000000	12.229996
1960.000000	12.165051
1959.000000	12.059607
1958.000000	12.000866
1957.000000	11.957210
1956.000000	11.938929
1955.000000	11.855341
1954.000000	11.863136
1953.000000	11.803643
1952.000000	11.770785
1951.000000	11.739170
1950.000000	11.656568
1949.000000	11.639164
1948.000000	11.561722
1947.000000	11.583854
1946.000000	11.568468
1945.000000	11.590031
1944.000000	11.593654
1943.000000	11.582342
1942.000000	11.612796
1941.000000	11.623214
1940.000000	11.651368
1939.000000	11.691452
1938.000000	11.749116
1937.000000	11.851689
1936.000000	11.946356
1935.000000	11.952294
1934.000000	11.993962
1933.000000	12.150541
1932.000000	12.258511
1931.000000	12.328562
1930.000000	12.465260
1929.000000	12.571811
1928.000000	12.801745
1927.000000	12.887753
1926.000000	12.992011
1925.000000	13.209539
1924.000000	13.345039
1923.000000	13.557927
1922.000000	13.769103
1921.000000	13.981242
1920.000000	14.226467
1919.000000	14.431182
1918.000000	14.702059
1917.000000	14.971787
1916.000000	15.063179
1915.000000	15.441183
1914.000000	15.786003
1913.000000	16.119970
1912.000000	16.352433
1911.000000	16.666160
1910.000000	16.996671
1909.000000	17.263577
1908.000000	17.657341
1907.000000	18.013152
1906.000000	18.399609
1905.000000	18.803961
1904.000000	19.105137
1903.000000	19.506784
1902.000000	19.959347
1901.000000	20.339736
1900.000000	20.750728
1899.000000	21.139287
1898.000000	21.600603
1897.000000	21.997762
1896.000000	22.395523
1895.000000	22.820483
1894.000000	23.217050
1893.000000	23.618471
1892.000000	24.065771
1891.000000	24.425396
1890.000000	24.779237
1889.000000	25.175857
1888.000000	25.533701
1887.000000	25.855657
1886.000000	26.229691
1885.000000	26.587627
1884.000000	26.906900
1883.000000	27.166981
1882.000000	27.499377
1881.000000	27.843455
1880.000000	28.114757
1879.000000	28.350975
1878.000000	28.628980
1877.000000	28.910625
1876.000000	29.107355
1875.000000	29.354743
1874.000000	29.536633
1873.000000	29.704133
1872.000000	29.898943
1871.000000	30.107366
1870.000000	30.197331
1869.000000	30.340603
1868.000000	30.466612
1867.000000	30.544991
1866.000000	30.636744
1865.000000	30.717751
1864.000000	30.797176
1863.000000	30.904586
1862.000000	30.952675
1861.000000	30.982684
1860.000000	31.031027
1859.000000	31.068436
1858.000000	31.135041
1857.000000	31.148574
1856.000000	31.227259
1855.000000	31.254333
1854.000000	31.251235
1853.000000	31.291615
1852.000000	31.296591
1851.000000	31.306141
1850.000000	31.293538
1849.000000	31.310382
1848.000000	31.289580
1847.000000	31.316721
1846.000000	31.313173
1845.000000	31.305231
1844.000000	31.273880
1843.000000	31.266794
1842.000000	31.247460
1841.000000	31.218378
1840.000000	31.181731
1839.000000	31.151590
1838.000000	31.107488
1837.000000	31.058917
1836.000000	31.022119
1835.000000	30.994721
1834.000000	30.952668
1833.000000	30.897119
1832.000000	30.858906
1831.000000	30.796903
1830.000000	30.759749
1829.000000	30.735146
1828.000000	30.697291
1827.000000	30.669317
1826.000000	30.611779
1825.000000	30.565266
1824.000000	30.546335
1823.000000	30.531136
1822.000000	30.504252
1821.000000	30.472166
1820.000000	30.437361
1819.000000	30.387168
1818.000000	30.362920
1817.000000	30.326236
1816.000000	30.283508
1815.000000	30.277730
1814.000000	30.255863
1813.000000	30.213205
1812.000000	30.174049
1811.000000	30.154322
1810.000000	30.132573
1809.000000	30.103079
1808.000000	30.072849
1807.000000	30.027574
1806.000000	29.996197
1805.000000	29.963326
1804.000000	29.923293
1803.000000	29.902758
1802.000000	29.872105
1801.000000	29.843961
1800.000000	29.800597
1799.000000	29.782727
1798.000000	29.782234
1797.000000	29.768704
1796.000000	29.736719
1795.000000	29.703815
1794.000000	29.700510
1793.000000	29.688125
1792.000000	29.655675
1791.000000	29.646638
1790.000000	29.613011
1789.000000	29.584706
1788.000000	29.577707
1787.000000	29.542276
1786.000000	29.529937
1785.000000	29.525610
1784.000000	29.487116
1783.000000	29.443731
1782.000000	29.417497
1781.000000	29.396277
1780.000000	29.356956
1779.000000	29.329183
1778.000000	29.270270
1777.000000	29.222136
1776.000000	29.188827
1775.000000	29.136401
1774.000000	29.084948
1773.000000	29.047732
1772.000000	28.993021
1771.000000	28.932873
1770.000000	28.885862
1769.000000	28.833168
1768.000000	28.772017
1767.000000	28.735062
1766.000000	28.685075
1765.000000	28.634670
1764.000000	28.595606
1763.000000	28.557639
1762.000000	28.513337
1761.000000	28.459681
1760.000000	28.399352
1759.000000	28.354059
1758.000000	28.306712
1757.000000	28.255558
1756.000000	28.204108
1755.000000	28.172152
1754.000000	28.112015
1753.000000	28.066132
1752.000000	28.030196
1751.000000	27.975918
1750.000000	27.934201
1749.000000	27.911789
1748.000000	27.839180
1747.000000	27.777004
1746.000000	27.741549
1745.000000	27.651940
1744.000000	27.612038
1743.000000	27.551802
1742.000000	27.500201
1741.000000	27.455393
1740.000000	27.403034
1739.000000	27.380125
1738.000000	27.329841
1737.000000	27.258733
1736.000000	27.260776
1735.000000	27.253700
1734.000000	27.242801
1733.000000	27.207896
1732.000000	27.192873
1731.000000	27.206747
1730.000000	27.224055
1729.000000	27.234391
1728.000000	27.285292
1727.000000	27.325833
1726.000000	27.359501
1725.000000	27.414218
1724.000000	27.477498
1723.000000	27.543552
1722.000000	27.617430
1721.000000	27.678120
1720.000000	27.761411
1719.000000	27.866847
1718.000000	27.947037
1717.000000	28.019967
1716.000000	28.124752
1715.000000	28.174748
1714.000000	28.259226
1713.000000	28.308765
1712.000000	28.390841
1711.000000	28.468825
1710.000000	28.524676
1709.000000	28.571690
1708.000000	28.606121
1707.000000	28.655013
1706.000000	28.685249
1705.000000	28.721880
1704.000000	28.764870
1703.000000	28.748511
1702.000000	28.784212
1701.000000	28.790158
1700.000000	28.815812
1699.000000	28.801668
1698.000000	28.859872
1697.000000	28.889445
1696.000000	28.898234
1695.000000	28.933639
1694.000000	28.955909
1693.000000	29.015316
1692.000000	29.038487
1691.000000	29.104588
1690.000000	29.189611
1689.000000	29.264729
1688.000000	29.370924
1687.000000	29.422700
1686.000000	29.550729
1685.000000	29.630462
1684.000000	29.727318
1683.000000	29.884688
1682.000000	30.031059
1681.000000	30.161662
1680.000000	30.316904
1679.000000	30.465149
1678.000000	30.606037
1677.000000	30.742970
1676.000000	30.905388
1675.000000	31.064021
1674.000000	31.205912
1673.000000	31.335270
1672.000000	31.483846
1671.000000	31.632090
1670.000000	31.794429
1669.000000	31.934782
1668.000000	32.041115
1667.000000	32.157899
1666.000000	32.233209
1665.000000	32.308160
1664.000000	32.408253
1663.000000	32.472234
1662.000000	32.548686
1661.000000	32.616977
1660.000000	32.663586
1659.000000	32.730686
1658.000000	32.780247
1657.000000	32.801097
1656.000000	32.832686
1655.000000	32.863226
1654.000000	32.894209
1653.000000	32.914150
1652.000000	32.922503
1651.000000	32.891622
1650.000000	32.904636
1649.000000	32.899711
1648.000000	32.895729
1647.000000	32.895992
1646.000000	32.866892
1645.000000	32.842938
1644.000000	32.836235
1643.000000	32.825899
1642.000000	32.800778
1641.000000	32.770816
1640.000000	32.747329
1639.000000	32.716773
1638.000000	32.708638
1637.000000	32.690346
1636.000000	32.659048
1635.000000	32.619299
1634.000000	32.585042
1633.000000	32.540622
1632.000000	32.509507
1631.000000	32.472599
1630.000000	32.430711
1629.000000	32.388292
1628.000000	32.341437
1627.000000	32.294221
1626.000000	32.262875
1625.000000	32.223429
1624.000000	32.187651
1623.000000	32.156455
1622.000000	32.100116
1621.000000	32.042705
1620.000000	31.999655
1619.000000	31.955235
1618.000000	31.905788
1617.000000	31.857379
1616.000000	31.810423
1615.000000	31.757650
1614.000000	31.695113
1613.000000	31.632115
1612.000000	31.581017
1611.000000	31.535248
1610.000000	31.483752
1609.000000	31.437262
1608.000000	31.386719
1607.000000	31.328110
1606.000000	31.266502
1605.000000	31.211266
1604.000000	31.157921
1603.000000	31.094587
1602.000000	31.046485
1601.000000	30.990872
1600.000000	30.928848
1599.000000	30.879763
1598.000000	30.821355
1597.000000	30.761089
1596.000000	30.717275
1595.000000	30.676752
1594.000000	30.614469
1593.000000	30.563117
1592.000000	30.531730
1591.000000	30.480414
1590.000000	30.429093
1589.000000	30.381125
1588.000000	30.327019
1587.000000	30.291683
1586.000000	30.256998
1585.000000	30.216346
1584.000000	30.171231
1583.000000	30.119790
1582.000000	30.073794
1581.000000	30.032514
1580.000000	29.996475
1579.000000	29.961350
1578.000000	29.927419
1577.000000	29.883913
1576.000000	29.826735
1575.000000	29.785432
1574.000000	29.749163
1573.000000	29.709752
1572.000000	29.677797
1571.000000	29.622061
1570.000000	29.577860
1569.000000	29.548940
1568.000000	29.518041
1567.000000	29.484919
1566.000000	29.437750
1565.000000	29.405385
1564.000000	29.375441
1563.000000	29.364552
1562.000000	29.331758
1561.000000	29.314052
1560.000000	29.298991
1559.000000	29.272727
1558.000000	29.244242
1557.000000	29.234124
1556.000000	29.200688
1555.000000	29.177702
1554.000000	29.144929
1553.000000	29.110904
1552.000000	29.088153
1551.000000	29.051054
1550.000000	29.021596
1549.000000	28.995095
1548.000000	28.964447
1547.000000	28.906885
1546.000000	28.843317
1545.000000	28.796654
1544.000000	28.731716
1543.000000	28.666943
1542.000000	28.599118
1541.000000	28.536585
1540.000000	28.458567
1539.000000	28.383027
1538.000000	28.294181
1537.000000	28.220442
1536.000000	28.141818
1535.000000	28.077810
1534.000000	28.053411
1533.000000	28.008664
1532.000000	27.958673
1531.000000	27.892240
1530.000000	27.808155
1529.000000	27.719719
1528.000000	27.625213
1527.000000	27.576412
1526.000000	27.526085
1525.000000	27.448169
1524.000000	27.401911
1523.000000	27.364074
1522.000000	27.304686
1521.000000	27.251211
1520.000000	27.238546
1519.000000	27.185531
1518.000000	27.125573
1517.000000	27.118274
1516.000000	27.085314
1515.000000	27.044266
1514.000000	27.009679
1513.000000	26.975352
1512.000000	26.973706
1511.000000	26.947178
1510.000000	26.917088
1509.000000	26.903009
1508.000000	26.854680
1507.000000	26.821953
1506.000000	26.808803
1505.000000	26.803802
1504.000000	26.817339
1503.000000	26.828295
1502.000000	26.791836
1501.000000	26.787026
1500.000000	26.779181
1499.000000	26.766079
1498.000000	26.769494
1497.000000	26.771899
1496.000000	26.773531
1495.000000	26.781622
1494.000000	26.787305
1493.000000	26.795149
1492.000000	26.821737
1491.000000	26.837408
1490.000000	26.867011
1489.000000	26.901831
1488.000000	26.933970
1487.000000	26.966273
1486.000000	27.005335
1485.000000	27.040598
1484.000000	27.057152
1483.000000	27.097537
1482.000000	27.119264
1481.000000	27.192188
1480.000000	27.231134
1479.000000	27.278902
1478.000000	27.312287
1477.000000	27.367938
1476.000000	27.420322
1475.000000	27.468888
1474.000000	27.489156
1473.000000	27.537169
1472.000000	27.572584
1471.000000	27.654668
1470.000000	27.692887
1469.000000	27.729779
1468.000000	27.769663
1467.000000	27.786439
1466.000000	27.817356
1465.000000	27.854996
1464.000000	27.908414
1463.000000	27.965754
1462.000000	27.988191
1461.000000	28.047562
1460.000000	28.095013
1459.000000	28.140900
1458.000000	28.181818
1457.000000	28.217860
1456.000000	28.265719
1455.000000	28.321698
1454.000000	28.385740
1453.000000	28.427705
1452.000000	28.464209
1451.000000	28.516781
1450.000000	28.564296
1449.000000	28.648487
1448.000000	28.724200
1447.000000	28.776986
1446.000000	28.827013
1445.000000	28.907761
1444.000000	28.954591
1443.000000	29.022103
1442.000000	29.134565
1441.000000	29.219496
1440.000000	29.289201
1439.000000	29.363197
1438.000000	29.431098
1437.000000	29.514728
1436.000000	29.607622
1435.000000	29.707118
1434.000000	29.804404
1433.000000	29.895210
1432.000000	29.994582
1431.000000	30.088973
1430.000000	30.187850
1429.000000	30.307326
1428.000000	30.429238
1427.000000	30.552019
1426.000000	30.686248
1425.000000	30.811995
1424.000000	30.936864
1423.000000	31.074083
1422.000000	31.212017
1421.000000	31.359492
1420.000000	31.519531
1419.000000	31.642147
1418.000000	31.797093
1417.000000	31.971008
1416.000000	32.113784
1415.000000	32.275743
1414.000000	32.459751
1413.000000	32.634297
1412.000000	32.789988
1411.000000	32.958141
1410.000000	33.131533
1409.000000	33.292365
1408.000000	33.448429
1407.000000	33.618855
1406.000000	33.774182
1405.000000	33.944067
1404.000000	34.124523
1403.000000	34.279614
1402.000000	34.414290
1401.000000	34.561493
1400.000000	34.717073
1399.000000	34.869685
1398.000000	35.011530
1397.000000	35.155732
1396.000000	35.299645
1395.000000	35.435550
1394.000000	35.558695
1393.000000	35.672667
1392.000000	35.806437
1391.000000	35.933150
1390.000000	36.047873
1389.000000	36.161292
1388.000000	36.260405
1387.000000	36.356120
1386.000000	36.474930
1385.000000	36.580940
1384.000000	36.653620
1383.000000	36.733588
1382.000000	36.844361
1381.000000	36.912629
1380.000000	36.954399
1379.000000	37.012814
1378.000000	37.109266
1377.000000	37.191891
1376.000000	37.215837
1375.000000	37.260434
1374.000000	37.298480
1373.000000	37.331374
1372.000000	37.366994
1371.000000	37.396407
1370.000000	37.448389
1369.000000	37.514857
1368.000000	37.563938
1367.000000	37.604633
1366.000000	37.638192
1365.000000	37.675140
1364.000000	37.713345
1363.000000	37.746952
1362.000000	37.775891
1361.000000	37.818698
1360.000000	37.855088
1359.000000	37.882457
1358.000000	37.925477
1357.000000	37.996567
1356.000000	38.064678
1355.000000	38.095436
1354.000000	38.130073
1353.000000	38.171670
1352.000000	38.216234
1351.000000	38.252311
1350.000000	38.294283
1349.000000	38.346795
1348.000000	38.384092
1347.000000	38.425589
1346.000000	38.477092
1345.000000	38.506362
1344.000000	38.541063
1343.000000	38.596184
1342.000000	38.640658
1341.000000	38.670989
1340.000000	38.688724
1339.000000	38.739503
1338.000000	38.793479
1337.000000	38.830649
1336.000000	38.860623
1335.000000	38.888264
1334.000000	38.910987
1333.000000	38.929271
1332.000000	38.961138
1331.000000	39.006769
1330.000000	39.039951
1329.000000	39.050797
1328.000000	39.055484
1327.000000	39.079192
1326.000000	39.116351
1325.000000	39.121743
1324.000000	39.138632
1323.000000	39.175049
1322.000000	39.170149
1321.000000	39.180527
1320.000000	39.209445
1319.000000	39.216135
1318.000000	39.239777
1317.000000	39.245815
1316.000000	39.264667
1315.000000	39.284528
1314.000000	39.297692
1313.000000	39.280766
1312.000000	39.301718
1311.000000	39.338107
1310.000000	39.353036
1309.000000	39.368848
1308.000000	39.359330
1307.000000	39.356057
1306.000000	39.357488
1305.000000	39.369150
1304.000000	39.398615
1303.000000	39.400918
1302.000000	39.394992
1301.000000	39.400376
1300.000000	39.386076
1299.000000	39.397188
1298.000000	39.408919
1297.000000	39.399749
1296.000000	39.402414
1295.000000	39.396546
1294.000000	39.404548
1293.000000	39.394971
1292.000000	39.400906
1291.000000	39.403915
1290.000000	39.390900
1289.000000	39.387767
1288.000000	39.370188
1287.000000	39.365136
1286.000000	39.367647
1285.000000	39.358183
1284.000000	39.318475
1283.000000	39.319667
1282.000000	39.317802
1281.000000	39.314318
1280.000000	39.316200
1279.000000	39.322240
1278.000000	39.321208
1277.000000	39.320403
1276.000000	39.312975
1275.000000	39.301291
1274.000000	39.330097
1273.000000	39.327441
1272.000000	39.315557
1271.000000	39.325340
1270.000000	39.313110
1269.000000	39.330728
1268.000000	39.314449
1267.000000	39.325290
1266.000000	39.334496
1265.000000	39.346360
1264.000000	39.369795
1263.000000	39.365828
1262.000000	39.379455
1261.000000	39.361462
1260.000000	39.368157
1259.000000	39.392621
1258.000000	39.398672
1257.000000	39.391543
1256.000000	39.392395
1255.000000	39.416137
1254.000000	39.404388
1253.000000	39.410319
1252.000000	39.414249
1251.000000	39.402520
1250.000000	39.405563
1249.000000	39.395448
1248.000000	39.393256
1247.000000	39.386033
1246.000000	39.383454
1245.000000	39.387690
1244.000000	39.365757
1243.000000	39.344871
1242.000000	39.357613
1241.000000	39.340147
1240.000000	39.283287
1239.000000	39.265149
1238.000000	39.260292
1237.000000	39.245916
1236.000000	39.200352
1235.000000	39.182237
1234.000000	39.171649
1233.000000	39.130444
1232.000000	39.119959
1231.000000	39.102224
1230.000000	39.092096
1229.000000	39.079535
1228.000000	39.060404
1227.000000	39.007130
1226.000000	39.007677
1225.000000	39.012921
1224.000000	38.984091
1223.000000	38.977236
1222.000000	38.953145
1221.000000	38.936152
1220.000000	38.917601
1219.000000	38.883424
1218.000000	38.862613
1217.000000	38.853300
1216.000000	38.832185
1215.000000	38.808584
1214.000000	38.802031
1213.000000	38.792913
1212.000000	38.768539
1211.000000	38.728869
1210.000000	38.706147
1209.000000	38.694030
1208.000000	38.649039
1207.000000	38.627337
1206.000000	38.620365
1205.000000	38.571662
1204.000000	38.520107
1203.000000	38.504024
1202.000000	38.500293
1201.000000	38.457659
1200.000000	38.427431
1199.000000	38.406336
1198.000000	38.375419
1197.000000	38.343206
1196.000000	38.318511
1195.000000	38.287053
1194.000000	38.266321
1193.000000	38.250182
1192.000000	38.221392
1191.000000	38.209101
1190.000000	38.189670
1189.000000	38.161997
1188.000000	38.150062
1187.000000	38.150091
1186.000000	38.137468
1185.000000	38.135799
1184.000000	38.146946
1183.000000	38.157588
1182.000000	38.172297
1181.000000	38.184885
1180.000000	38.211237
1179.000000	38.252720
1178.000000	38.292761
1177.000000	38.307231
1176.000000	38.307662
1175.000000	38.328176
1174.000000	38.368060
1173.000000	38.423929
1172.000000	38.479223
1171.000000	38.528620
1170.000000	38.581307
1169.000000	38.621574
1168.000000	38.674370
1167.000000	38.753202
1166.000000	38.811837
1165.000000	38.859918
1164.000000	38.924367
1163.000000	38.981155
1162.000000	39.039274
1161.000000	39.107252
1160.000000	39.173386
1159.000000	39.217537
1158.000000	39.267494
1157.000000	39.332273
1156.000000	39.376094
1155.000000	39.413312
1154.000000	39.454290
1153.000000	39.508695
1152.000000	39.567657
1151.000000	39.588779
1150.000000	39.607931
1149.000000	39.646797
1148.000000	39.684782
1147.000000	39.728392
1146.000000	39.771935
1145.000000	39.809213
1144.000000	39.846607
1143.000000	39.876709
1142.000000	39.915725
1141.000000	39.951958
1140.000000	39.985781
1139.000000	40.013954
1138.000000	40.031254
1137.000000	40.060310
1136.000000	40.096948
1135.000000	40.119104
1134.000000	40.133329
1133.000000	40.153771
1132.000000	40.177005
1131.000000	40.213489
1130.000000	40.242600
1129.000000	40.267987
1128.000000	40.298350
1127.000000	40.320026
1126.000000	40.326803
1125.000000	40.341064
1124.000000	40.359832
1123.000000	40.365332
1122.000000	40.374321
1121.000000	40.386390
1120.000000	40.383543
1119.000000	40.377796
1118.000000	40.387736
1117.000000	40.401082
1116.000000	40.405566
1115.000000	40.399176
1114.000000	40.397560
1113.000000	40.407078
1112.000000	40.417443
1111.000000	40.402507
1110.000000	40.368708
1109.000000	40.371655
1108.000000	40.386443
1107.000000	40.390272
1106.000000	40.406168
1105.000000	40.413702
1104.000000	40.407857
1103.000000	40.419729
1102.000000	40.418830
1101.000000	40.417707
1100.000000	40.427822
1099.000000	40.429346
1098.000000	40.431811
1097.000000	40.392825
1096.000000	40.389437
1095.000000	40.386608
1094.000000	40.390168
1093.000000	40.411999
1092.000000	40.424649
1091.000000	40.427530
1090.000000	40.387016
1089.000000	40.375261
1088.000000	40.381611
1087.000000	40.378036
1086.000000	40.390140
1085.000000	40.397319
1084.000000	40.403295
1083.000000	40.352021
1082.000000	40.373976
1081.000000	40.378101
1080.000000	40.363247
1079.000000	40.375039
1078.000000	40.375305
1077.000000	40.367128
1076.000000	40.327105
1075.000000	40.330397
1074.000000	40.334340
1073.000000	40.329888
1072.000000	40.329726
1071.000000	40.325259
1070.000000	40.347129
1069.000000	40.296766
1068.000000	40.290043
1067.000000	40.277734
1066.000000	40.279743
1065.000000	40.294793
1064.000000	40.292334
1063.000000	40.296260
1062.000000	40.293330
1061.000000	40.244825
1060.000000	40.235517
1059.000000	40.246186
1058.000000	40.237467
1057.000000	40.243184
1056.000000	40.241810
1055.000000	40.209782
1054.000000	40.202567
1053.000000	40.207786
1052.000000	40.189544
1051.000000	40.200297
1050.000000	40.179667
1049.000000	40.168929
1048.000000	40.176832
1047.000000	40.169499
1046.000000	40.174564
1045.000000	40.149769
1044.000000	40.131243
1043.000000	40.140806
1042.000000	40.157667
1041.000000	40.153812
1040.000000	40.114454
1039.000000	40.120512
1038.000000	40.123576
1037.000000	40.121463
1036.000000	40.096467
1035.000000	40.080189
1034.000000	40.111540
1033.000000	40.116807
1032.000000	40.087065
1031.000000	40.084782
1030.000000	40.106182
1029.000000	40.101585
1028.000000	40.087177
1027.000000	40.088029
1026.000000	40.094643
1025.000000	40.091614
1024.000000	40.069722
1023.000000	40.066911
1022.000000	40.073133
1021.000000	40.079240
1020.000000	40.059112
1019.000000	40.068866
1018.000000	40.081902
1017.000000	40.053231
1016.000000	40.076742
1015.000000	40.093735
1014.000000	40.073749
1013.000000	40.103602
1012.000000	40.088578
1011.000000	40.100839
1010.000000	40.088480
1009.000000	40.095563
1008.000000	40.112075
1007.000000	40.097012
1006.000000	40.092964
1005.000000	40.087312
1004.000000	40.097295
1003.000000	40.113336
1002.000000	40.130398
1001.000000	40.109390
1000.000000	40.093609
999.000000	40.110743
998.000000	40.127000
997.000000	40.143555
996.000000	40.129720
995.000000	40.138131
994.000000	40.135580
993.000000	40.143661
992.000000	40.142715
991.000000	40.141315
990.000000	40.118057
989.000000	40.129463
988.000000	40.162681
987.000000	40.182412
986.000000	40.171853
985.000000	40.168702
984.000000	40.174499
983.000000	40.194942
982.000000	40.203892
981.000000	40.214467
980.000000	40.239305
979.000000	40.266356
978.000000	40.281283
977.000000	40.293137
976.000000	40.302295
975.000000	40.309753
974.000000	40.317639
973.000000	40.337551
972.000000	40.340589
971.000000	40.354196
970.000000	40.360102
969.000000	40.360110
968.000000	40.371216
967.000000	40.385156
966.000000	40.404701
965.000000	40.412949
964.000000	40.417131
963.000000	40.424703
962.000000	40.424711
961.000000	40.439171
960.000000	40.452236
959.000000	40.448319
958.000000	40.440897
957.000000	40.453339
956.000000	40.474323
955.000000	40.476386
954.000000	40.482564
953.000000	40.498452
952.000000	40.485426
951.000000	40.491304
950.000000	40.512082
949.000000	40.533688
948.000000	40.536261
947.000000	40.528624
946.000000	40.529789
945.000000	40.533105
944.000000	40.522009
943.000000	40.526040
942.000000	40.545992
941.000000	40.551130
940.000000	40.553368
939.000000	40.556437
938.000000	40.546963
937.000000	40.543870
936.000000	40.556949
935.000000	40.560359
934.000000	40.559308
933.000000	40.565395
932.000000	40.556576
931.000000	40.536949
930.000000	40.534167
929.000000	40.530894
928.000000	40.536000
927.000000	40.531170
926.000000	40.536203
925.000000	40.526575
924.000000	40.536529
923.000000	40.527525
922.000000	40.517131
921.000000	40.511699
920.000000	40.501829
919.000000	40.499244
918.000000	40.488600
917.000000	40.509493
916.000000	40.512905
915.000000	40.505440
914.000000	40.514429
913.000000	40.528789
912.000000	40.534824
911.000000	40.524938
910.000000	40.510034
909.000000	40.506868
908.000000	40.542045
907.000000	40.547425
906.000000	40.542796
905.000000	40.541274
904.000000	40.568434
903.000000	40.564191
902.000000	40.559320
901.000000	40.537268
900.000000	40.539116
899.000000	40.568613
898.000000	40.575259
897.000000	40.559829
896.000000	40.563310
895.000000	40.618343
894.000000	40.633656
893.000000	40.596790
892.000000	40.583796
891.000000	40.599257
890.000000	40.627483
889.000000	40.627556
888.000000	40.624620
887.000000	40.615787
886.000000	40.694228
885.000000	40.606812
884.000000	40.605102
883.000000	40.635944
882.000000	40.681659
881.000000	40.656338
880.000000	40.690655
879.000000	40.658409
878.000000	40.615296
877.000000	40.665804
876.000000	40.678380
875.000000	40.708331
874.000000	40.797015
873.000000	40.694301
872.000000	40.586467
871.000000	40.656984
870.000000	40.581833
869.000000	40.648661
868.000000	40.769636
867.000000	40.582844
866.000000	40.665861
865.000000	40.650239
864.000000	40.578862
863.000000	40.598204
862.000000	40.512999
861.000000	40.604494
860.000000	40.688223
859.000000	40.458355
858.000000	40.304556
857.000000	40.245988
856.000000	40.231960
855.000000	40.054926
854.000000	40.500917
853.000000	40.353345
852.000000	40.265854
851.000000	40.171352
850.000000	40.387819
849.000000	40.352431
848.000000	40.373346
847.000000	40.459862
846.000000	40.298651
845.000000	40.084797
844.000000	40.265262
843.000000	40.285241
842.000000	40.172822
841.000000	40.277174
840.000000	40.248568
839.000000	40.395207
838.000000	40.360142
837.000000	40.178869
836.000000	40.189530
835.000000	40.347022
834.000000	40.395045
833.000000	40.255789
832.000000	40.375475
831.000000	40.393100
830.000000	40.330082
829.000000	40.396323
828.000000	40.347836
827.000000	40.319656
826.000000	40.195972
825.000000	40.271017
824.000000	40.316848
823.000000	40.279039
822.000000	40.335835
821.000000	40.181583
820.000000	40.255691
819.000000	40.301079
818.000000	40.237800
817.000000	40.222741
816.000000	40.206278
815.000000	40.264287
814.000000	40.220593
813.000000	40.259409
812.000000	40.332145
811.000000	40.285513
810.000000	40.331356
809.000000	40.228870
808.000000	40.279651
807.000000	40.371630
806.000000	40.277565
805.000000	40.224677
804.000000	40.314080
803.000000	40.203795
802.000000	40.229196
801.000000	40.198733
800.000000	40.224443
799.000000	40.197278
798.000000	40.227737
797.000000	40.201783
796.000000	40.115563
795.000000	40.221283
794.000000	40.279150
793.000000	40.279407
792.000000	40.229226
791.000000	40.179620
790.000000	40.152030
789.000000	40.260483
788.000000	40.305959
787.000000	40.223655
786.000000	40.181050
785.000000	40.128118
784.000000	40.195448
783.000000	40.157325
782.000000	40.143405
781.000000	40.238290
780.000000	40.248769
779.000000	40.177946
778.000000	40.189110
777.000000	40.217596
776.000000	40.116000
775.000000	40.117247
774.000000	40.223675
773.000000	40.199043
772.000000	40.168373
771.000000	40.171661
770.000000	40.131015
769.000000	40.153936
768.000000	40.133579
767.000000	40.187847
766.000000	40.188011
765.000000	40.125333
764.000000	40.089727
763.000000	40.236946
762.000000	40.279090
761.000000	40.162173
760.000000	40.124448
759.000000	40.107712
758.000000	40.184319
757.000000	40.172559
756.000000	40.137612
755.000000	40.173027
754.000000	40.081622
753.000000	40.099053
752.000000	40.092701
751.000000	40.148328
750.000000	40.158429
749.000000	40.197648
748.000000	40.147534
747.000000	40.139927
746.000000	40.085589
745.000000	40.120943
744.000000	40.166264
743.000000	40.115567
742.000000	40.120033
741.000000	40.115275
740.000000	40.079378
739.000000	40.104454
738.000000	40.112259
737.000000	40.090772
736.000000	40.080247
735.000000	40.127345
734.000000	40.101241
733.000000	40.103699
732.000000	40.099662
731.000000	40.070573
730.000000	40.102900
729.000000	40.143464
728.000000	40.091140
727.000000	40.106754
726.000000	40.156890
725.000000	40.098545
724.000000	40.071957
723.000000	40.096903
722.000000	40.142655
721.000000	40.155718
720.000000	40.128105
719.000000	40.110490
718.000000	40.134470
717.000000	40.115916
716.000000	40.069702
715.000000	40.069447
714.000000	40.125136
713.000000	40.135119
712.000000	40.102907
711.000000	40.098103
710.000000	40.033093
709.000000	40.047139
708.000000	40.079353
707.000000	40.080430
706.000000	40.073020
705.000000	40.035348
704.000000	40.037290
703.000000	40.052546
702.000000	40.017867
701.000000	39.987083
700.000000	39.990557
699.000000	40.015458
698.000000	40.033714
697.000000	40.029591
696.000000	40.022488
695.000000	40.034883
694.000000	40.031525
693.000000	40.003833
692.000000	39.983505
691.000000	40.004663
690.000000	40.036108
689.000000	39.984736
688.000000	39.949706
687.000000	39.952827
686.000000	39.976453
685.000000	39.985894
684.000000	39.929176
683.000000	39.886226
682.000000	39.890438
681.000000	39.887190
680.000000	39.897711
679.000000	39.885955
678.000000	39.897949
677.000000	39.897251
676.000000	39.866354
675.000000	39.879117
674.000000	39.901906
673.000000	39.899186
672.000000	39.889226
671.000000	39.881889
670.000000	39.850691
669.000000	39.843533
668.000000	39.851411
667.000000	39.871801
666.000000	39.871433
665.000000	39.861269
664.000000	39.836965
663.000000	39.832265
662.000000	39.855769
661.000000	39.887247
660.000000	39.850722
659.000000	39.800284
658.000000	39.768614
657.000000	39.819364
656.000000	39.827313
655.000000	39.765285
654.000000	39.763999
653.000000	39.777830
652.000000	39.757841
651.000000	39.738667
650.000000	39.732414
649.000000	39.726239
648.000000	39.737479
647.000000	39.748635
646.000000	39.759076
645.000000	39.711235
644.000000	39.712282
643.000000	39.663447
642.000000	39.704291
641.000000	39.708787
640.000000	39.705764
639.000000	39.672703
638.000000	39.650687
637.000000	39.635481
636.000000	39.622504
635.000000	39.600270
634.000000	39.606211
633.000000	39.614133
632.000000	39.607340
631.000000	39.597861
630.000000	39.622951
629.000000	39.575939
628.000000	39.568369
627.000000	39.584507
626.000000	39.542175
625.000000	39.530522
624.000000	39.508754
623.000000	39.519670
622.000000	39.502000
621.000000	39.499027
620.000000	39.449502
619.000000	39.467077
618.000000	39.441141
617.000000	39.484840
616.000000	39.410849
615.000000	39.439069
614.000000	39.431807
613.000000	39.405955
612.000000	39.384929
611.000000	39.385191
610.000000	39.415184
609.000000	39.332364
608.000000	39.331765
607.000000	39.293778
606.000000	39.318596
605.000000	39.320494
604.000000	39.255280
603.000000	39.279955
602.000000	39.247297
601.000000	39.239695
600.000000	39.256472
599.000000	39.198709
598.000000	39.188076
597.000000	39.226750
596.000000	39.216299
595.000000	39.167399
594.000000	39.174056
593.000000	39.116416
592.000000	39.105179
591.000000	39.086093
590.000000	39.096396
589.000000	39.077786
588.000000	39.093199
587.000000	39.068153
586.000000	39.000025
585.000000	39.027261
584.000000	38.976535
583.000000	38.941508
582.000000	38.946601
581.000000	38.942373
580.000000	38.915936
579.000000	38.895763
578.000000	38.850166
577.000000	38.871782
576.000000	38.841166
575.000000	38.831369
574.000000	38.770856
573.000000	38.798451
572.000000	38.764501
571.000000	38.729049
570.000000	38.706987
569.000000	38.732903
568.000000	38.686707
567.000000	38.688344
566.000000	38.655723
565.000000	38.627216
564.000000	38.608034
563.000000	38.590837
562.000000	38.547553
561.000000	38.527214
560.000000	38.502732
559.000000	38.473590
558.000000	38.423661
557.000000	38.423489
556.000000	38.431546
555.000000	38.383019
554.000000	38.360895
553.000000	38.364276
552.000000	38.312907
551.000000	38.293369
550.000000	38.286828
549.000000	38.226965
548.000000	38.221616
547.000000	38.190566
546.000000	38.159673
545.000000	38.146432
544.000000	38.132463
543.000000	38.084559
542.000000	38.058394
541.000000	38.050721
540.000000	38.008267
539.000000	37.961038
538.000000	37.958863
537.000000	37.925644
536.000000	37.897200
535.000000	37.875391
534.000000	37.838052
533.000000	37.798935
532.000000	37.760714
531.000000	37.759056
530.000000	37.703301
529.000000	37.678128
528.000000	37.629632
527.000000	37.599753
526.000000	37.582583
525.000000	37.553423
524.000000	37.506541
523.000000	37.461077
522.000000	37.426635
521.000000	37.424722
520.000000	37.383146
519.000000	37.328408
518.000000	37.272156
517.000000	37.247433
516.000000	37.201640
515.000000	37.180707
514.000000	37.144193
513.000000	37.079849
512.000000	37.051786
511.000000	37.028207
510.000000	36.952167
509.000000	36.937147
508.000000	36.859796
507.000000	36.842912
506.000000	36.785931
505.000000	36.736438
504.000000	36.711381
503.000000	36.676050
502.000000	36.628104
501.000000	36.585085
500.000000	36.553990
499.000000	36.485069
498.000000	36.418616
497.000000	36.356322
496.000000	36.296335
495.000000	36.254738
494.000000	36.192135
493.000000	36.147339
492.000000	36.072705
491.000000	36.038221
490.000000	35.994422
489.000000	35.929130
488.000000	35.871907
487.000000	35.807194
486.000000	35.793760
485.000000	35.761172
484.000000	35.706285
483.000000	35.628392
482.000000	35.550325
481.000000	35.493220
480.000000	35.444963
479.000000	35.385890
478.000000	35.326919
477.000000	35.267207
476.000000	35.194802
475.000000	35.115335
474.000000	35.023569
473.000000	34.966440
472.000000	34.918471
471.000000	34.835325
470.000000	34.772903
469.000000	34.703364
468.000000	34.613886
467.000000	34.548619
466.000000	34.467717
465.000000	34.393008
464.000000	34.321280
463.000000	34.229563
462.000000	34.133354
461.000000	34.066759
460.000000	33.974402
459.000000	33.863015
458.000000	33.766041
457.000000	33.683962
456.000000	33.601399
455.000000	33.506775
454.000000	33.403081
453.000000	33.270724
452.000000	33.165606
451.000000	33.061567
450.000000	32.972960
449.000000	32.866679
448.000000	32.733284
447.000000	32.620738
446.000000	32.511209
445.000000	32.383207
444.000000	32.253617
443.000000	32.140672
442.000000	32.031360
441.000000	31.896033
440.000000	31.791120
439.000000	31.660690
438.000000	31.523736
437.000000	31.418543
436.000000	31.308805
435.000000	31.187187
434.000000	31.026142
433.000000	30.900241
432.000000	30.760204
431.000000	30.638899
430.000000	30.525988
429.000000	30.358506
428.000000	30.219058
427.000000	30.089119
426.000000	29.950859
425.000000	29.806478
424.000000	29.664228
423.000000	29.488885
422.000000	29.364527
421.000000	29.220896
420.000000	29.059773
419.000000	28.900224
418.000000	28.735274
417.000000	28.546462
416.000000	28.403341
415.000000	28.215018
414.000000	28.046552
413.000000	27.877113
412.000000	27.703416
411.000000	27.517667
410.000000	27.365768
409.000000	27.223245
408.000000	26.965479
407.000000	26.814190
406.000000	26.646582
405.000000	26.456941
404.000000	26.263894
403.000000	26.094012
402.000000	25.894179
401.000000	25.739863
400.000000	25.558811
399.000000	25.304802
398.000000	25.105324
397.000000	24.901747
396.000000	24.720734
395.000000	24.531224
394.000000	24.330430
393.000000	24.153256
392.000000	23.960729
391.000000	23.755278
390.000000	23.539026
389.000000	23.348726
388.000000	23.122524
387.000000	22.913953
386.000000	22.659310
385.000000	22.461215
384.000000	22.248807
383.000000	22.038702
382.000000	21.799542
381.000000	21.547649
380.000000	21.338482
379.000000	21.134894
378.000000	20.837592
377.000000	20.645568
376.000000	20.450617
375.000000	20.170537
374.000000	19.917384
373.000000	19.746988
372.000000	19.572393
371.000000	19.280648
370.000000	18.950760
369.000000	18.822139
368.000000	18.579376
367.000000	18.325245
366.000000	18.036100
365.000000	17.805126
364.000000	17.624622
363.000000	17.298463
362.000000	17.049659
361.000000	16.771196
360.000000	16.533974
359.000000	16.331538
358.000000	16.023797
357.000000	15.801119
356.000000	15.567182
355.000000	15.300760
354.000000	15.096849
353.000000	14.865943
352.000000	14.601614
351.000000	14.387118
350.000000	14.165352
349.000000	13.900051
348.000000	13.673862
347.000000	13.476669
346.000000	13.273400
345.000000	12.948183
344.000000	12.772221
343.000000	12.607577
342.000000	12.303797
341.000000	12.129422
340.000000	11.960044
339.000000	11.624136
338.000000	11.425895
337.000000	11.209430
336.000000	10.983246
335.000000	10.720650
334.000000	10.557711
333.000000	10.312160
332.000000	10.113047
331.000000	9.794288
330.000000	9.547279
329.000000	9.316911
328.000000	9.104770
327.000000	8.895935
326.000000	8.664539
325.000000	8.382135
324.000000	8.112485
323.000000	7.912093
322.000000	7.670289
321.000000	7.450676
320.000000	7.171147
319.000000	6.919924
318.000000	6.749597
317.000000	6.489545
316.000000	6.258511
315.000000	6.087842
314.000000	5.832881
313.000000	5.619083
312.000000	5.426779
311.000000	5.255732
310.000000	5.044652
309.000000	4.885959
308.000000	4.666062
307.000000	4.444940
306.000000	4.318044
305.000000	4.124591
304.000000	3.911421
303.000000	3.789555
302.000000	3.620477
301.000000	3.405819
300.000000	3.237808
299.000000	3.051997
298.000000	2.861504
297.000000	2.659595
296.000000	2.434273
295.000000	2.209196
294.000000	1.995564
293.000000	1.742941
292.000000	1.519000
291.000000	1.335182
290.000000	1.187562
289.000000	1.056021
288.000000	0.971061
287.000000	0.904232
286.000000	0.865934
285.000000	0.855195
284.000000	0.838308
283.000000	0.821605
282.000000	0.802718
281.000000	0.810280
280.000000	0.816935
279.000000	0.807905
278.000000	0.809468
277.000000	0.806762
276.000000	0.826399
275.000000	0.836255
274.000000	0.847696
273.000000	0.863641
272.000000	0.873988
271.000000	0.879837
270.000000	0.882224
269.000000	0.894517
268.000000	0.914135
267.000000	0.928481
266.000000	0.939950
265.000000	0.960853
264.000000	0.977694
263.000000	1.006610
262.000000	1.022616
261.000000	1.032749
260.000000	1.059863
259.000000	1.065432
258.000000	1.090206
257.000000	1.111701
256.000000	1.139625
255.000000	1.147011
254.000000	1.151569
253.000000	1.149540
252.000000	1.167883
251.000000	1.146793
250.000000	1.134875
249.000000	1.113370
248.000000	1.088235
247.000000	1.089334
246.000000	1.077393
245.000000	1.037035
244.000000	1.001819
243.000000	0.975602
242.000000	0.967590
241.000000	0.929927
240.000000	0.886128
239.000000	0.848424
238.000000	0.815234
237.000000	0.768516
236.000000	0.726780
235.000000	0.687217
234.000000	0.646544
233.000000	0.613920
232.000000	0.574640
231.000000	0.526746
230.000000	0.486759
229.000000	0.450348
228.000000	0.406225
227.000000	0.366956
226.000000	0.330657
225.000000	0.318157
224.000000	0.306944
223.000000	0.274552
222.000000	0.261605
221.000000	0.245972
220.000000	0.228560
219.000000	0.212024
218.000000	0.188919
217.000000	0.186537
216.000000	0.202650
215.000000	0.188731
214.000000	0.170945
213.000000	0.169332
212.000000	0.178014
211.000000	0.180378
210.000000	0.157534
209.000000	0.173186
208.000000	0.179980
207.000000	0.178984
206.000000	0.196355
205.000000	0.186727
204.000000	0.192919
203.000000	0.146059
202.000000	0.161664
201.000000	0.205112
200.000000	0.233545
