PE UV       SUBTECH     SPECTRUM    ASCII       PEDS        4.00        
   -1
GFRAD10_1.Sample.asc
23/09/07
15:06:03.00
23/09/07
15:06:03.00
Administrator

250.000000
1
Lambda 750
750N8071901
PerkinElmer UV WinLab 6.0.4.0738 / 1.61.00 Lambda 900

0
0
3350/servo 860.8/2
0
0
UV/VIS
1
1
1
CommonBeamDepol,150mm sphere / downward view
0
0
0
0
Program
Program
3350/servo 860.8/2
3350/0.2 860.8/0.2
3350/0.2 860.8/0.2
0
1
 
 
 
0
 
860.8
319.2
860.8
Front
100
on
 
 
0
0
0
 
0
 
 
 
0
 
 
0
0
0
0
0
 
 
 
 
0
0


0
0
#HDR
-1
-1
#GR
nm
%R
1.0
0.0
2500.000000
-10.000000
226
8
77.434275
22.263970
#DATA
2500.000000	41.026719
2490.000000	39.824218
2480.000000	41.946516
2470.000000	42.660904
2460.000000	41.433430
2450.000000	43.751797
2440.000000	43.337465
2430.000000	42.753704
2420.000000	44.366910
2410.000000	44.113747
2400.000000	44.897039
2390.000000	45.371101
2380.000000	45.435725
2370.000000	45.633128
2360.000000	46.144974
2350.000000	47.314196
2340.000000	45.725715
2330.000000	45.799827
2320.000000	45.384932
2310.000000	44.299676
2300.000000	44.753511
2290.000000	44.358228
2280.000000	46.490159
2270.000000	46.579930
2260.000000	47.813370
2250.000000	48.837604
2240.000000	49.481640
2230.000000	48.881441
2220.000000	48.397869
2210.000000	48.238730
2200.000000	48.036246
2190.000000	48.399861
2180.000000	49.106046
2170.000000	50.198256
2160.000000	51.320811
2150.000000	52.107980
2140.000000	52.622087
2130.000000	52.454803
2120.000000	52.507117
2110.000000	52.364371
2100.000000	52.370022
2090.000000	51.382583
2080.000000	50.136808
2070.000000	49.264260
2060.000000	48.535643
2050.000000	48.600146
2040.000000	49.248689
2030.000000	49.141205
2020.000000	48.588959
2010.000000	47.525173
2000.000000	46.419670
1990.000000	45.352500
1980.000000	44.496909
1970.000000	43.835432
1960.000000	43.387710
1950.000000	44.129772
1940.000000	45.364214
1930.000000	48.217388
1920.000000	51.654808
1910.000000	55.594520
1900.000000	58.943715
1890.000000	61.649172
1880.000000	63.494887
1870.000000	64.034333
1860.000000	64.001583
1850.000000	63.946170
1840.000000	63.829688
1830.000000	63.661048
1820.000000	63.352427
1810.000000	63.303994
1800.000000	63.093788
1790.000000	62.881615
1780.000000	62.644731
1770.000000	62.607314
1760.000000	62.372862
1750.000000	62.253345
1740.000000	62.515603
1730.000000	63.148849
1720.000000	63.666430
1710.000000	63.881967
1700.000000	64.434493
1690.000000	65.488737
1680.000000	66.190119
1670.000000	66.634225
1660.000000	66.655959
1650.000000	66.517818
1640.000000	66.219502
1630.000000	65.939256
1620.000000	65.498063
1610.000000	65.136519
1600.000000	64.724365
1590.000000	64.408089
1580.000000	64.130488
1570.000000	63.994013
1560.000000	63.715677
1550.000000	63.166458
1540.000000	62.669523
1530.000000	62.387075
1520.000000	62.197694
1510.000000	62.057816
1500.000000	62.048318
1490.000000	62.221837
1480.000000	62.400780
1470.000000	62.648110
1460.000000	63.142124
1450.000000	63.833696
1440.000000	64.765977
1430.000000	66.025942
1420.000000	67.666157
1410.000000	69.354788
1400.000000	70.635926
1390.000000	71.458302
1380.000000	71.905365
1370.000000	72.313099
1360.000000	72.719644
1350.000000	73.113415
1340.000000	73.278458
1330.000000	73.573973
1320.000000	73.980826
1310.000000	74.107557
1300.000000	74.116415
1290.000000	74.040805
1280.000000	74.178888
1270.000000	74.132816
1260.000000	74.116051
1250.000000	74.144446
1240.000000	74.084261
1230.000000	74.030275
1220.000000	73.807567
1210.000000	73.665965
1200.000000	73.641278
1190.000000	73.786518
1180.000000	74.296240
1170.000000	74.761963
1160.000000	75.004001
1150.000000	75.370105
1140.000000	75.622325
1130.000000	75.722238
1120.000000	75.812946
1110.000000	75.897213
1100.000000	76.058514
1090.000000	75.959502
1080.000000	75.973692
1070.000000	75.871067
1060.000000	75.986315
1050.000000	75.979134
1040.000000	75.947812
1030.000000	75.853024
1020.000000	75.967315
1010.000000	76.189971
1000.000000	76.280623
990.000000	76.343948
980.000000	76.479037
970.000000	76.556792
960.000000	76.687601
950.000000	76.727246
940.000000	76.807228
930.000000	76.820008
920.000000	76.970294
910.000000	77.010721
900.000000	77.104928
890.000000	76.893274
880.000000	77.338926
870.000000	77.113205
860.000000	77.434275
850.000000	75.864924
840.000000	75.959241
830.000000	76.061776
820.000000	75.971098
810.000000	76.244887
800.000000	76.007979
790.000000	75.824654
780.000000	76.021032
770.000000	75.812631
760.000000	75.791196
750.000000	75.541006
740.000000	75.604534
730.000000	75.546240
720.000000	75.350745
710.000000	75.296843
700.000000	75.154279
690.000000	75.103090
680.000000	74.742494
670.000000	74.615424
660.000000	74.401807
650.000000	74.264988
640.000000	73.966938
630.000000	73.710950
620.000000	73.474891
610.000000	73.201900
600.000000	72.901554
590.000000	72.650057
580.000000	72.494737
570.000000	72.056238
560.000000	71.808325
550.000000	71.464590
540.000000	71.036162
530.000000	70.626601
520.000000	70.241784
510.000000	69.774358
500.000000	69.321611
490.000000	68.686163
480.000000	67.996346
470.000000	67.512321
460.000000	66.647495
450.000000	65.639874
440.000000	64.476942
430.000000	63.143845
420.000000	61.918848
410.000000	60.257703
400.000000	58.681271
390.000000	56.932374
380.000000	54.837413
370.000000	52.880149
360.000000	50.325350
350.000000	47.471006
340.000000	45.141372
330.000000	41.626765
320.000000	39.239208
310.000000	35.935284
300.000000	32.227973
290.000000	29.020012
280.000000	25.645296
270.000000	24.101183
260.000000	23.224608
250.000000	22.263970
