PE UV       SUBTECH     SPECTRUM    ASCII       PEDS        4.00        
   -1
GGRAD10_1.Sample.asc
23/09/07
15:13:54.00
23/09/07
15:13:54.00
Administrator

250.000000
1
Lambda 750
750N8071901
PerkinElmer UV WinLab 6.0.4.0738 / 1.61.00 Lambda 900

0
0
3350/servo 860.8/2
0
0
UV/VIS
1
1
1
CommonBeamDepol,150mm sphere / downward view
0
0
0
0
Program
Program
3350/servo 860.8/2
3350/0.2 860.8/0.2
3350/0.2 860.8/0.2
0
1
 
 
 
0
 
860.8
319.2
860.8
Front
100
on
 
 
0
0
0
 
0
 
 
 
0
 
 
0
0
0
0
0
 
 
 
 
0
0


0
0
#HDR
-1
-1
#GR
nm
%R
1.0
0.0
2500.000000
-10.000000
226
8
79.726809
18.689079
#DATA
2500.000000	23.503052
2490.000000	21.880410
2480.000000	24.044544
2470.000000	26.252207
2460.000000	24.539792
2450.000000	24.942846
2440.000000	28.479009
2430.000000	25.759032
2420.000000	28.655024
2410.000000	26.827149
2400.000000	27.304088
2390.000000	26.769119
2380.000000	28.739714
2370.000000	28.714291
2360.000000	27.767673
2350.000000	28.598888
2340.000000	28.092849
2330.000000	27.968379
2320.000000	27.234046
2310.000000	27.487175
2300.000000	27.617638
2290.000000	28.115966
2280.000000	28.786352
2270.000000	29.571430
2260.000000	30.991626
2250.000000	32.772991
2240.000000	32.473240
2230.000000	31.914368
2220.000000	32.267448
2210.000000	31.143351
2200.000000	31.108282
2190.000000	31.033970
2180.000000	32.446970
2170.000000	33.001290
2160.000000	34.181186
2150.000000	34.865702
2140.000000	35.652823
2130.000000	35.700047
2120.000000	36.059818
2110.000000	35.940315
2100.000000	35.417447
2090.000000	34.713782
2080.000000	32.979174
2070.000000	31.724672
2060.000000	31.046385
2050.000000	31.553270
2040.000000	31.970016
2030.000000	31.849874
2020.000000	31.087607
2010.000000	30.204347
2000.000000	28.893375
1990.000000	27.965992
1980.000000	26.863709
1970.000000	26.074022
1960.000000	26.006732
1950.000000	26.664682
1940.000000	27.558044
1930.000000	31.040456
1920.000000	35.208333
1910.000000	40.848853
1900.000000	46.351502
1890.000000	50.929137
1880.000000	53.964357
1870.000000	54.977372
1860.000000	55.209494
1850.000000	54.817595
1840.000000	54.320042
1830.000000	54.026698
1820.000000	53.603180
1810.000000	53.181331
1800.000000	52.947619
1790.000000	52.357371
1780.000000	51.888144
1770.000000	51.483807
1760.000000	50.887902
1750.000000	50.430878
1740.000000	50.725097
1730.000000	52.056452
1720.000000	52.963789
1710.000000	53.530366
1700.000000	54.814935
1690.000000	56.920886
1680.000000	58.636513
1670.000000	59.403499
1660.000000	59.520458
1650.000000	59.206994
1640.000000	58.635805
1630.000000	57.874309
1620.000000	56.994859
1610.000000	56.139018
1600.000000	55.434823
1590.000000	54.730923
1580.000000	54.051709
1570.000000	53.711103
1560.000000	53.065524
1550.000000	52.024314
1540.000000	51.055895
1530.000000	50.475872
1520.000000	50.148724
1510.000000	49.881139
1500.000000	49.818533
1490.000000	49.937711
1480.000000	50.262840
1470.000000	50.675053
1460.000000	51.549144
1450.000000	52.862211
1440.000000	54.739663
1430.000000	57.284209
1420.000000	60.628024
1410.000000	64.025757
1400.000000	66.790043
1390.000000	68.517997
1380.000000	69.590422
1370.000000	70.567451
1360.000000	71.622395
1350.000000	72.505234
1340.000000	73.079840
1330.000000	73.641746
1320.000000	74.213159
1310.000000	74.558137
1300.000000	74.579514
1290.000000	74.515694
1280.000000	74.551813
1270.000000	74.600774
1260.000000	74.509965
1250.000000	74.293280
1240.000000	74.015380
1230.000000	73.611044
1220.000000	73.083254
1210.000000	72.768441
1200.000000	72.748473
1190.000000	73.279304
1180.000000	74.379599
1170.000000	75.484266
1160.000000	76.274891
1150.000000	77.004340
1140.000000	77.582489
1130.000000	77.783939
1120.000000	77.967261
1110.000000	78.056225
1100.000000	78.253853
1090.000000	78.112942
1080.000000	78.099059
1070.000000	77.920916
1060.000000	77.916737
1050.000000	77.870752
1040.000000	77.841080
1030.000000	77.758688
1020.000000	77.900885
1010.000000	78.114480
1000.000000	78.333286
990.000000	78.384687
980.000000	78.545748
970.000000	78.784731
960.000000	78.959024
950.000000	79.093245
940.000000	79.099349
930.000000	79.055132
920.000000	79.039578
910.000000	79.222643
900.000000	79.446386
890.000000	79.126082
880.000000	79.726809
870.000000	79.376298
860.000000	79.348223
850.000000	78.873347
840.000000	79.124128
830.000000	79.085904
820.000000	78.805590
810.000000	78.717826
800.000000	78.485858
790.000000	78.311365
780.000000	78.235902
770.000000	77.759808
760.000000	77.472689
750.000000	77.112114
740.000000	76.989003
730.000000	76.450068
720.000000	76.104883
710.000000	75.521105
700.000000	74.937534
690.000000	74.370629
680.000000	73.586447
670.000000	72.956988
660.000000	72.213896
650.000000	71.335766
640.000000	70.505494
630.000000	69.641064
620.000000	68.663122
610.000000	67.808557
600.000000	67.008659
590.000000	66.254694
580.000000	65.508160
570.000000	64.779710
560.000000	64.089099
550.000000	63.319416
540.000000	62.440519
530.000000	61.605812
520.000000	60.733051
510.000000	59.722528
500.000000	58.791203
490.000000	57.733511
480.000000	56.518533
470.000000	55.604403
460.000000	54.276406
450.000000	52.943594
440.000000	51.709080
430.000000	50.077830
420.000000	48.700814
410.000000	47.145029
400.000000	45.943111
390.000000	44.700220
380.000000	43.253442
370.000000	41.731863
360.000000	40.017883
350.000000	37.787960
340.000000	36.289495
330.000000	34.256820
320.000000	33.318967
310.000000	31.080418
300.000000	29.800461
290.000000	25.466035
280.000000	22.091228
270.000000	20.308892
260.000000	19.115644
250.000000	18.689079
