PE UV       SUBTECH     SPECTRUM    ASCII       PEDS        4.00        
   -1
TDms159331.Sample.asc
18/03/13
14:01:36.00
18/03/13
14:01:36.00
Administrator

200.000000
1
Lambda 750
750N8071901
PerkinElmer UV WinLab 6.0.4.0738 / 1.61.00 Lambda 900

0
0
3350/servo 860.8/2
0
0
UV/VIS
1
1
1
CommonBeamDepol,150mm sphere / downward view
0
0
0
0
Program
Program
3350/servo 860.8/2
3350/0.2 860.8/0.2
3350/0.2 860.8/0.2
0
1
 
 
 
0
 
860.8
319.2
860.8
Front
100
on
 
 
0
0
0
 
0
 
 
 
0
 
 
0
0
0
0
0
 
 
 
 
0
0


0
0
#HDR
-1
-1
#GR
nm
%T
1.0
0.0
2350.000000
-1.000000
2151
8
4.062427
-0.044586
#DATA
2350.000000	0.602884
2349.000000	0.810054
2348.000000	0.644734
2347.000000	1.459538
2346.000000	1.037054
2345.000000	0.710200
2344.000000	1.086064
2343.000000	0.896274
2342.000000	0.607958
2341.000000	1.220715
2340.000000	0.973532
2339.000000	1.364102
2338.000000	1.282090
2337.000000	1.623683
2336.000000	1.818366
2335.000000	1.412453
2334.000000	1.572120
2333.000000	1.945512
2332.000000	2.349821
2331.000000	1.926985
2330.000000	1.961034
2329.000000	1.742256
2328.000000	1.692497
2327.000000	1.885638
2326.000000	1.752111
2325.000000	1.534340
2324.000000	1.488173
2323.000000	1.509821
2322.000000	1.673351
2321.000000	1.162765
2320.000000	1.274008
2319.000000	1.291364
2318.000000	1.640015
2317.000000	1.773823
2316.000000	1.558245
2315.000000	1.338562
2314.000000	1.540989
2313.000000	1.135391
2312.000000	1.189412
2311.000000	1.161214
2310.000000	1.294993
2309.000000	1.359923
2308.000000	1.416846
2307.000000	1.303085
2306.000000	1.279260
2305.000000	1.278360
2304.000000	1.446950
2303.000000	1.522432
2302.000000	1.582056
2301.000000	1.408799
2300.000000	1.176263
2299.000000	1.087322
2298.000000	1.136492
2297.000000	1.171289
2296.000000	1.393935
2295.000000	1.427607
2294.000000	1.447273
2293.000000	1.541108
2292.000000	1.292707
2291.000000	1.111931
2290.000000	1.294617
2289.000000	1.245666
2288.000000	1.319923
2287.000000	1.295680
2286.000000	1.259181
2285.000000	1.264953
2284.000000	1.241947
2283.000000	1.184648
2282.000000	1.204164
2281.000000	1.198505
2280.000000	1.045116
2279.000000	1.158735
2278.000000	1.173837
2277.000000	1.330488
2276.000000	1.361366
2275.000000	1.050217
2274.000000	1.142646
2273.000000	1.238139
2272.000000	1.340873
2271.000000	1.393260
2270.000000	1.213178
2269.000000	1.232251
2268.000000	1.304574
2267.000000	1.158013
2266.000000	1.247486
2265.000000	1.268834
2264.000000	1.228219
2263.000000	1.262732
2262.000000	1.280780
2261.000000	1.270436
2260.000000	1.246425
2259.000000	1.327520
2258.000000	1.466026
2257.000000	1.449728
2256.000000	1.420005
2255.000000	1.397802
2254.000000	1.443355
2253.000000	1.468409
2252.000000	1.486236
2251.000000	1.612015
2250.000000	1.608108
2249.000000	1.556522
2248.000000	1.604470
2247.000000	1.692303
2246.000000	1.633393
2245.000000	1.551298
2244.000000	1.632597
2243.000000	1.625685
2242.000000	1.587698
2241.000000	1.709273
2240.000000	1.662389
2239.000000	1.624493
2238.000000	1.726449
2237.000000	1.781682
2236.000000	1.744000
2235.000000	1.787146
2234.000000	1.846266
2233.000000	1.805919
2232.000000	1.710091
2231.000000	1.712351
2230.000000	1.679161
2229.000000	1.638589
2228.000000	1.866068
2227.000000	1.972325
2226.000000	1.910476
2225.000000	1.848487
2224.000000	1.863173
2223.000000	1.709136
2222.000000	1.641633
2221.000000	1.720971
2220.000000	1.813110
2219.000000	1.827123
2218.000000	1.817086
2217.000000	1.862418
2216.000000	1.804629
2215.000000	1.804997
2214.000000	1.901013
2213.000000	1.891464
2212.000000	1.853527
2211.000000	1.776497
2210.000000	1.724991
2209.000000	1.742775
2208.000000	1.792712
2207.000000	1.810883
2206.000000	1.719386
2205.000000	1.652835
2204.000000	1.723219
2203.000000	1.809864
2202.000000	1.790410
2201.000000	1.833366
2200.000000	1.651930
2199.000000	1.700745
2198.000000	1.766750
2197.000000	1.671064
2196.000000	1.568485
2195.000000	1.523872
2194.000000	1.436203
2193.000000	1.378204
2192.000000	1.590459
2191.000000	1.635033
2190.000000	1.553999
2189.000000	1.479570
2188.000000	1.423429
2187.000000	1.461312
2186.000000	1.578874
2185.000000	1.592303
2184.000000	1.418928
2183.000000	1.487303
2182.000000	1.632991
2181.000000	1.658062
2180.000000	1.540733
2179.000000	1.681730
2178.000000	1.537131
2177.000000	1.640407
2176.000000	1.454859
2175.000000	1.598193
2174.000000	1.607582
2173.000000	1.606481
2172.000000	1.618051
2171.000000	1.790492
2170.000000	1.745627
2169.000000	1.751895
2168.000000	1.609689
2167.000000	1.754068
2166.000000	1.597591
2165.000000	1.652595
2164.000000	1.715492
2163.000000	1.682618
2162.000000	1.768215
2161.000000	1.570152
2160.000000	1.668507
2159.000000	1.706435
2158.000000	1.645860
2157.000000	1.665393
2156.000000	1.680553
2155.000000	2.027039
2154.000000	1.827307
2153.000000	1.729507
2152.000000	1.800184
2151.000000	1.915767
2150.000000	1.855728
2149.000000	1.839076
2148.000000	1.788361
2147.000000	1.819969
2146.000000	1.866716
2145.000000	1.858462
2144.000000	1.789736
2143.000000	1.744093
2142.000000	1.803160
2141.000000	1.876207
2140.000000	2.121261
2139.000000	1.921044
2138.000000	1.917058
2137.000000	1.897343
2136.000000	1.808415
2135.000000	1.842161
2134.000000	1.878699
2133.000000	1.689138
2132.000000	1.887021
2131.000000	1.934843
2130.000000	2.032678
2129.000000	2.027597
2128.000000	1.687795
2127.000000	1.833269
2126.000000	1.925695
2125.000000	1.888675
2124.000000	1.891852
2123.000000	1.898420
2122.000000	1.833010
2121.000000	1.839581
2120.000000	1.984353
2119.000000	1.973372
2118.000000	1.912182
2117.000000	1.945485
2116.000000	1.950062
2115.000000	1.867134
2114.000000	1.985892
2113.000000	1.889999
2112.000000	1.917887
2111.000000	1.872254
2110.000000	1.819943
2109.000000	2.008703
2108.000000	1.869129
2107.000000	1.892759
2106.000000	1.895509
2105.000000	1.867833
2104.000000	1.875967
2103.000000	1.837667
2102.000000	1.788493
2101.000000	1.942408
2100.000000	2.088429
2099.000000	2.024019
2098.000000	1.859838
2097.000000	1.869991
2096.000000	1.837345
2095.000000	1.850163
2094.000000	1.953875
2093.000000	1.832222
2092.000000	1.882593
2091.000000	1.952252
2090.000000	1.952651
2089.000000	1.963032
2088.000000	1.882224
2087.000000	2.094571
2086.000000	2.007704
2085.000000	2.047484
2084.000000	1.976771
2083.000000	1.927097
2082.000000	1.811901
2081.000000	1.868828
2080.000000	1.878495
2079.000000	1.878927
2078.000000	1.916910
2077.000000	1.866724
2076.000000	1.789370
2075.000000	1.760897
2074.000000	1.778645
2073.000000	1.805049
2072.000000	1.822148
2071.000000	1.799562
2070.000000	1.733737
2069.000000	1.760278
2068.000000	1.750349
2067.000000	1.754727
2066.000000	1.679345
2065.000000	1.615385
2064.000000	1.588202
2063.000000	1.592534
2062.000000	1.644709
2061.000000	1.632588
2060.000000	1.581047
2059.000000	1.551226
2058.000000	1.507487
2057.000000	1.511386
2056.000000	1.605258
2055.000000	1.493396
2054.000000	1.462320
2053.000000	1.479285
2052.000000	1.376324
2051.000000	1.381452
2050.000000	1.401294
2049.000000	1.439048
2048.000000	1.404611
2047.000000	1.394465
2046.000000	1.371327
2045.000000	1.403517
2044.000000	1.411212
2043.000000	1.375337
2042.000000	1.287900
2041.000000	1.298235
2040.000000	1.346565
2039.000000	1.337121
2038.000000	1.370419
2037.000000	1.368919
2036.000000	1.371943
2035.000000	1.406807
2034.000000	1.401859
2033.000000	1.353565
2032.000000	1.330468
2031.000000	1.357251
2030.000000	1.398604
2029.000000	1.401855
2028.000000	1.363714
2027.000000	1.388911
2026.000000	1.422516
2025.000000	1.430469
2024.000000	1.459704
2023.000000	1.460235
2022.000000	1.408471
2021.000000	1.393457
2020.000000	1.421046
2019.000000	1.431868
2018.000000	1.415771
2017.000000	1.395328
2016.000000	1.404221
2015.000000	1.422542
2014.000000	1.407268
2013.000000	1.415630
2012.000000	1.430028
2011.000000	1.462128
2010.000000	1.440900
2009.000000	1.368318
2008.000000	1.399738
2007.000000	1.379057
2006.000000	1.381443
2005.000000	1.373433
2004.000000	1.341391
2003.000000	1.357779
2002.000000	1.337296
2001.000000	1.327392
2000.000000	1.358581
1999.000000	1.347803
1998.000000	1.329882
1997.000000	1.331579
1996.000000	1.343477
1995.000000	1.326202
1994.000000	1.304747
1993.000000	1.257696
1992.000000	1.233506
1991.000000	1.274125
1990.000000	1.284004
1989.000000	1.223927
1988.000000	1.244205
1987.000000	1.221560
1986.000000	1.222527
1985.000000	1.267372
1984.000000	1.248706
1983.000000	1.207711
1982.000000	1.174058
1981.000000	1.172435
1980.000000	1.136919
1979.000000	1.129139
1978.000000	1.130777
1977.000000	1.132759
1976.000000	1.119523
1975.000000	1.146393
1974.000000	1.179493
1973.000000	1.177787
1972.000000	1.152407
1971.000000	1.174012
1970.000000	1.150237
1969.000000	1.108571
1968.000000	1.135249
1967.000000	1.139308
1966.000000	1.162933
1965.000000	1.202201
1964.000000	1.144211
1963.000000	1.114179
1962.000000	1.190927
1961.000000	1.133695
1960.000000	1.072375
1959.000000	1.123111
1958.000000	1.116816
1957.000000	1.097385
1956.000000	1.118802
1955.000000	1.145054
1954.000000	1.116215
1953.000000	1.113083
1952.000000	1.116289
1951.000000	1.132010
1950.000000	1.167281
1949.000000	1.148840
1948.000000	1.145042
1947.000000	1.120007
1946.000000	1.186842
1945.000000	1.189375
1944.000000	1.155680
1943.000000	1.153169
1942.000000	1.166245
1941.000000	1.115406
1940.000000	1.186970
1939.000000	1.207233
1938.000000	1.107870
1937.000000	1.198264
1936.000000	1.211577
1935.000000	1.150593
1934.000000	1.215099
1933.000000	1.166707
1932.000000	1.207323
1931.000000	1.146596
1930.000000	1.192611
1929.000000	1.222806
1928.000000	1.266661
1927.000000	1.268122
1926.000000	1.363980
1925.000000	1.285158
1924.000000	1.239309
1923.000000	1.311195
1922.000000	1.349080
1921.000000	1.362845
1920.000000	1.372878
1919.000000	1.352730
1918.000000	1.415081
1917.000000	1.372539
1916.000000	1.336815
1915.000000	1.423867
1914.000000	1.569391
1913.000000	1.569482
1912.000000	1.477765
1911.000000	1.548286
1910.000000	1.510305
1909.000000	1.463290
1908.000000	1.628721
1907.000000	1.656504
1906.000000	1.696235
1905.000000	1.698865
1904.000000	1.719568
1903.000000	1.812536
1902.000000	1.836646
1901.000000	1.846867
1900.000000	1.951851
1899.000000	2.012749
1898.000000	2.025795
1897.000000	2.102051
1896.000000	2.183805
1895.000000	2.254205
1894.000000	2.274515
1893.000000	2.347276
1892.000000	2.370805
1891.000000	2.383654
1890.000000	2.502507
1889.000000	2.551180
1888.000000	2.640334
1887.000000	2.684203
1886.000000	2.678808
1885.000000	2.819997
1884.000000	2.868131
1883.000000	2.951334
1882.000000	3.033154
1881.000000	3.100476
1880.000000	3.136220
1879.000000	3.196219
1878.000000	3.246416
1877.000000	3.277171
1876.000000	3.327927
1875.000000	3.389892
1874.000000	3.402415
1873.000000	3.415699
1872.000000	3.479846
1871.000000	3.462616
1870.000000	3.568430
1869.000000	3.563048
1868.000000	3.506615
1867.000000	3.494922
1866.000000	3.505724
1865.000000	3.484912
1864.000000	3.487452
1863.000000	3.548915
1862.000000	3.539235
1861.000000	3.505371
1860.000000	3.514088
1859.000000	3.514042
1858.000000	3.538018
1857.000000	3.572134
1856.000000	3.512816
1855.000000	3.541328
1854.000000	3.599356
1853.000000	3.599524
1852.000000	3.633070
1851.000000	3.617874
1850.000000	3.622330
1849.000000	3.617798
1848.000000	3.644891
1847.000000	3.621477
1846.000000	3.629026
1845.000000	3.632505
1844.000000	3.606969
1843.000000	3.621607
1842.000000	3.611668
1841.000000	3.619448
1840.000000	3.595301
1839.000000	3.576321
1838.000000	3.569779
1837.000000	3.572134
1836.000000	3.578461
1835.000000	3.507924
1834.000000	3.469731
1833.000000	3.489799
1832.000000	3.461733
1831.000000	3.434822
1830.000000	3.439620
1829.000000	3.440624
1828.000000	3.412889
1827.000000	3.404676
1826.000000	3.379315
1825.000000	3.359758
1824.000000	3.368147
1823.000000	3.384323
1822.000000	3.372218
1821.000000	3.370298
1820.000000	3.352575
1819.000000	3.325606
1818.000000	3.329319
1817.000000	3.322515
1816.000000	3.321595
1815.000000	3.339439
1814.000000	3.346055
1813.000000	3.323861
1812.000000	3.306072
1811.000000	3.318389
1810.000000	3.308277
1809.000000	3.305772
1808.000000	3.304369
1807.000000	3.290215
1806.000000	3.288598
1805.000000	3.294536
1804.000000	3.291872
1803.000000	3.299382
1802.000000	3.307372
1801.000000	3.323546
1800.000000	3.318009
1799.000000	3.309041
1798.000000	3.303149
1797.000000	3.302178
1796.000000	3.321936
1795.000000	3.334862
1794.000000	3.360305
1793.000000	3.369591
1792.000000	3.366373
1791.000000	3.368983
1790.000000	3.385691
1789.000000	3.402138
1788.000000	3.401881
1787.000000	3.395098
1786.000000	3.382462
1785.000000	3.380087
1784.000000	3.402174
1783.000000	3.431877
1782.000000	3.437582
1781.000000	3.435493
1780.000000	3.425961
1779.000000	3.448318
1778.000000	3.465973
1777.000000	3.444917
1776.000000	3.445049
1775.000000	3.427722
1774.000000	3.421296
1773.000000	3.398380
1772.000000	3.387254
1771.000000	3.380587
1770.000000	3.380021
1769.000000	3.371137
1768.000000	3.336479
1767.000000	3.312422
1766.000000	3.302823
1765.000000	3.293284
1764.000000	3.329712
1763.000000	3.306123
1762.000000	3.279670
1761.000000	3.283808
1760.000000	3.261713
1759.000000	3.261017
1758.000000	3.262171
1757.000000	3.230191
1756.000000	3.227809
1755.000000	3.216894
1754.000000	3.219416
1753.000000	3.234301
1752.000000	3.208690
1751.000000	3.212922
1750.000000	3.220128
1749.000000	3.213718
1748.000000	3.179320
1747.000000	3.151434
1746.000000	3.160838
1745.000000	3.138611
1744.000000	3.158564
1743.000000	3.142163
1742.000000	3.133211
1741.000000	3.118370
1740.000000	3.106381
1739.000000	3.083758
1738.000000	3.098401
1737.000000	3.078164
1736.000000	3.095472
1735.000000	3.103636
1734.000000	3.116563
1733.000000	3.090746
1732.000000	3.080461
1731.000000	3.062552
1730.000000	3.065095
1729.000000	3.047132
1728.000000	3.053905
1727.000000	3.073770
1726.000000	3.066492
1725.000000	3.082501
1724.000000	3.073211
1723.000000	3.085964
1722.000000	3.080397
1721.000000	3.065597
1720.000000	3.115739
1719.000000	3.138843
1718.000000	3.125073
1717.000000	3.084504
1716.000000	3.118079
1715.000000	3.132213
1714.000000	3.120156
1713.000000	3.164089
1712.000000	3.180172
1711.000000	3.175553
1710.000000	3.140994
1709.000000	3.193146
1708.000000	3.189693
1707.000000	3.185311
1706.000000	3.199242
1705.000000	3.186403
1704.000000	3.243021
1703.000000	3.215818
1702.000000	3.180705
1701.000000	3.232654
1700.000000	3.233855
1699.000000	3.168305
1698.000000	3.211229
1697.000000	3.224386
1696.000000	3.223593
1695.000000	3.230109
1694.000000	3.212433
1693.000000	3.235720
1692.000000	3.239445
1691.000000	3.227533
1690.000000	3.252992
1689.000000	3.251884
1688.000000	3.277414
1687.000000	3.293769
1686.000000	3.288346
1685.000000	3.332763
1684.000000	3.296181
1683.000000	3.326732
1682.000000	3.361572
1681.000000	3.392196
1680.000000	3.418946
1679.000000	3.440308
1678.000000	3.455347
1677.000000	3.454929
1676.000000	3.474727
1675.000000	3.483742
1674.000000	3.507365
1673.000000	3.525900
1672.000000	3.561441
1671.000000	3.552853
1670.000000	3.584532
1669.000000	3.592757
1668.000000	3.592863
1667.000000	3.650119
1666.000000	3.646952
1665.000000	3.637337
1664.000000	3.621002
1663.000000	3.621037
1662.000000	3.646693
1661.000000	3.676757
1660.000000	3.673278
1659.000000	3.717430
1658.000000	3.719245
1657.000000	3.703737
1656.000000	3.725952
1655.000000	3.736018
1654.000000	3.744628
1653.000000	3.758369
1652.000000	3.768134
1651.000000	3.760192
1650.000000	3.758452
1649.000000	3.747524
1648.000000	3.742689
1647.000000	3.733837
1646.000000	3.730633
1645.000000	3.739268
1644.000000	3.733353
1643.000000	3.728314
1642.000000	3.710616
1641.000000	3.715060
1640.000000	3.696306
1639.000000	3.687626
1638.000000	3.672553
1637.000000	3.659335
1636.000000	3.650065
1635.000000	3.647010
1634.000000	3.644145
1633.000000	3.659763
1632.000000	3.660869
1631.000000	3.629091
1630.000000	3.608098
1629.000000	3.616332
1628.000000	3.591874
1627.000000	3.588174
1626.000000	3.582146
1625.000000	3.564959
1624.000000	3.571233
1623.000000	3.583913
1622.000000	3.568286
1621.000000	3.546954
1620.000000	3.538782
1619.000000	3.530959
1618.000000	3.517445
1617.000000	3.510550
1616.000000	3.506880
1615.000000	3.505812
1614.000000	3.498934
1613.000000	3.484279
1612.000000	3.478793
1611.000000	3.483339
1610.000000	3.469384
1609.000000	3.459029
1608.000000	3.468447
1607.000000	3.468230
1606.000000	3.459954
1605.000000	3.446127
1604.000000	3.429741
1603.000000	3.425222
1602.000000	3.419196
1601.000000	3.411001
1600.000000	3.400874
1599.000000	3.400414
1598.000000	3.404124
1597.000000	3.411942
1596.000000	3.405196
1595.000000	3.393024
1594.000000	3.394730
1593.000000	3.396041
1592.000000	3.397749
1591.000000	3.382207
1590.000000	3.359277
1589.000000	3.349956
1588.000000	3.348618
1587.000000	3.353137
1586.000000	3.360380
1585.000000	3.364809
1584.000000	3.362551
1583.000000	3.356272
1582.000000	3.341692
1581.000000	3.329885
1580.000000	3.318520
1579.000000	3.313801
1578.000000	3.321188
1577.000000	3.315504
1576.000000	3.293512
1575.000000	3.290975
1574.000000	3.296227
1573.000000	3.299384
1572.000000	3.280756
1571.000000	3.263379
1570.000000	3.254510
1569.000000	3.245869
1568.000000	3.241188
1567.000000	3.232610
1566.000000	3.220435
1565.000000	3.210970
1564.000000	3.200688
1563.000000	3.206837
1562.000000	3.210021
1561.000000	3.195155
1560.000000	3.196017
1559.000000	3.180303
1558.000000	3.170846
1557.000000	3.159058
1556.000000	3.151299
1555.000000	3.134184
1554.000000	3.133122
1553.000000	3.130096
1552.000000	3.127432
1551.000000	3.121232
1550.000000	3.092757
1549.000000	3.072520
1548.000000	3.069839
1547.000000	3.053026
1546.000000	3.037272
1545.000000	3.049088
1544.000000	3.016414
1543.000000	3.001424
1542.000000	2.983988
1541.000000	2.977329
1540.000000	2.958397
1539.000000	2.946055
1538.000000	2.920089
1537.000000	2.927918
1536.000000	2.907588
1535.000000	2.890336
1534.000000	2.879323
1533.000000	2.876215
1532.000000	2.865649
1531.000000	2.852107
1530.000000	2.835407
1529.000000	2.827370
1528.000000	2.813235
1527.000000	2.816602
1526.000000	2.797273
1525.000000	2.782228
1524.000000	2.786250
1523.000000	2.779898
1522.000000	2.773121
1521.000000	2.763556
1520.000000	2.772677
1519.000000	2.750241
1518.000000	2.746839
1517.000000	2.757745
1516.000000	2.757008
1515.000000	2.743229
1514.000000	2.729415
1513.000000	2.750079
1512.000000	2.734208
1511.000000	2.726371
1510.000000	2.734155
1509.000000	2.739571
1508.000000	2.744152
1507.000000	2.738633
1506.000000	2.752117
1505.000000	2.749449
1504.000000	2.747652
1503.000000	2.736259
1502.000000	2.749882
1501.000000	2.739198
1500.000000	2.754034
1499.000000	2.760039
1498.000000	2.767157
1497.000000	2.759954
1496.000000	2.746847
1495.000000	2.764007
1494.000000	2.769639
1493.000000	2.768167
1492.000000	2.772994
1491.000000	2.764854
1490.000000	2.783031
1489.000000	2.788577
1488.000000	2.799388
1487.000000	2.790150
1486.000000	2.792878
1485.000000	2.792038
1484.000000	2.788241
1483.000000	2.806393
1482.000000	2.775886
1481.000000	2.800138
1480.000000	2.820283
1479.000000	2.809418
1478.000000	2.790638
1477.000000	2.798911
1476.000000	2.778575
1475.000000	2.788096
1474.000000	2.772292
1473.000000	2.781055
1472.000000	2.792183
1471.000000	2.764254
1470.000000	2.779551
1469.000000	2.776776
1468.000000	2.765045
1467.000000	2.760240
1466.000000	2.786016
1465.000000	2.775575
1464.000000	2.768696
1463.000000	2.795442
1462.000000	2.839590
1461.000000	2.877118
1460.000000	2.892130
1459.000000	2.869201
1458.000000	2.831013
1457.000000	2.811593
1456.000000	2.799851
1455.000000	2.799639
1454.000000	2.840843
1453.000000	2.852092
1452.000000	2.859076
1451.000000	2.850991
1450.000000	2.841180
1449.000000	2.875726
1448.000000	2.892565
1447.000000	2.891952
1446.000000	2.875077
1445.000000	2.883573
1444.000000	2.883915
1443.000000	2.883068
1442.000000	2.879377
1441.000000	2.920590
1440.000000	2.953572
1439.000000	2.952918
1438.000000	2.955043
1437.000000	2.960463
1436.000000	2.971453
1435.000000	2.972805
1434.000000	2.972345
1433.000000	3.001679
1432.000000	3.010540
1431.000000	3.028615
1430.000000	3.038161
1429.000000	3.054869
1428.000000	3.078585
1427.000000	3.095459
1426.000000	3.111532
1425.000000	3.134839
1424.000000	3.153052
1423.000000	3.186921
1422.000000	3.203648
1421.000000	3.205464
1420.000000	3.230921
1419.000000	3.246664
1418.000000	3.245636
1417.000000	3.257098
1416.000000	3.300032
1415.000000	3.329459
1414.000000	3.341178
1413.000000	3.380748
1412.000000	3.404823
1411.000000	3.412309
1410.000000	3.442374
1409.000000	3.482368
1408.000000	3.507441
1407.000000	3.505424
1406.000000	3.538710
1405.000000	3.559417
1404.000000	3.570922
1403.000000	3.603019
1402.000000	3.636878
1401.000000	3.657299
1400.000000	3.659949
1399.000000	3.670079
1398.000000	3.690657
1397.000000	3.716441
1396.000000	3.730592
1395.000000	3.744444
1394.000000	3.757612
1393.000000	3.779680
1392.000000	3.799386
1391.000000	3.800050
1390.000000	3.805039
1389.000000	3.822310
1388.000000	3.830196
1387.000000	3.837620
1386.000000	3.853566
1385.000000	3.852218
1384.000000	3.846030
1383.000000	3.861615
1382.000000	3.890482
1381.000000	3.920049
1380.000000	3.939618
1379.000000	3.931748
1378.000000	3.913450
1377.000000	3.929368
1376.000000	3.953165
1375.000000	3.956015
1374.000000	3.960500
1373.000000	3.955052
1372.000000	3.970896
1371.000000	4.003868
1370.000000	4.010662
1369.000000	4.009931
1368.000000	4.007317
1367.000000	4.004993
1366.000000	4.001117
1365.000000	3.998055
1364.000000	3.997315
1363.000000	3.999775
1362.000000	4.003445
1361.000000	4.015172
1360.000000	4.030872
1359.000000	4.029426
1358.000000	4.006737
1357.000000	4.005174
1356.000000	4.024930
1355.000000	4.031465
1354.000000	4.021807
1353.000000	4.023705
1352.000000	4.015765
1351.000000	4.022440
1350.000000	4.022481
1349.000000	4.024743
1348.000000	4.029807
1347.000000	4.014041
1346.000000	4.015467
1345.000000	4.027321
1344.000000	4.051767
1343.000000	4.062427
1342.000000	4.050172
1341.000000	4.031395
1340.000000	4.029970
1339.000000	4.042702
1338.000000	4.060193
1337.000000	4.052861
1336.000000	4.048604
1335.000000	4.035005
1334.000000	4.028388
1333.000000	4.036839
1332.000000	4.048162
1331.000000	4.045532
1330.000000	4.036681
1329.000000	4.046629
1328.000000	4.046302
1327.000000	4.043999
1326.000000	4.027907
1325.000000	4.036804
1324.000000	4.033291
1323.000000	4.006035
1322.000000	4.011233
1321.000000	4.015272
1320.000000	4.008515
1319.000000	4.019650
1318.000000	4.011773
1317.000000	3.990914
1316.000000	4.006276
1315.000000	4.016395
1314.000000	4.004163
1313.000000	4.018036
1312.000000	4.026779
1311.000000	4.011779
1310.000000	4.023610
1309.000000	4.026269
1308.000000	4.004309
1307.000000	3.987120
1306.000000	4.011080
1305.000000	4.022661
1304.000000	4.016579
1303.000000	4.002077
1302.000000	4.011716
1301.000000	3.990357
1300.000000	3.991749
1299.000000	3.997677
1298.000000	4.027929
1297.000000	4.061101
1296.000000	4.052856
1295.000000	4.044189
1294.000000	4.045731
1293.000000	4.023947
1292.000000	4.033583
1291.000000	4.019005
1290.000000	3.997601
1289.000000	3.969939
1288.000000	3.978438
1287.000000	3.984482
1286.000000	4.007626
1285.000000	4.009521
1284.000000	4.001507
1283.000000	4.014624
1282.000000	3.999730
1281.000000	4.004821
1280.000000	3.961075
1279.000000	3.943761
1278.000000	3.963188
1277.000000	3.968172
1276.000000	3.965911
1275.000000	3.951149
1274.000000	3.955844
1273.000000	3.958332
1272.000000	3.942726
1271.000000	3.945071
1270.000000	3.933865
1269.000000	3.918976
1268.000000	3.913837
1267.000000	3.954937
1266.000000	3.963712
1265.000000	3.929740
1264.000000	3.935667
1263.000000	3.938908
1262.000000	3.904248
1261.000000	3.911949
1260.000000	3.938217
1259.000000	3.945901
1258.000000	3.928068
1257.000000	3.940731
1256.000000	3.914873
1255.000000	3.909265
1254.000000	3.899306
1253.000000	3.915931
1252.000000	3.937093
1251.000000	3.956187
1250.000000	3.955809
1249.000000	3.948972
1248.000000	3.948147
1247.000000	3.956013
1246.000000	3.958087
1245.000000	3.938301
1244.000000	3.924629
1243.000000	3.934579
1242.000000	3.913155
1241.000000	3.925556
1240.000000	3.942973
1239.000000	3.913092
1238.000000	3.902056
1237.000000	3.914499
1236.000000	3.925669
1235.000000	3.912960
1234.000000	3.890866
1233.000000	3.922669
1232.000000	3.928328
1231.000000	3.933688
1230.000000	3.879692
1229.000000	3.881103
1228.000000	3.874940
1227.000000	3.894323
1226.000000	3.877416
1225.000000	3.864146
1224.000000	3.848893
1223.000000	3.824735
1222.000000	3.817501
1221.000000	3.821939
1220.000000	3.802073
1219.000000	3.801484
1218.000000	3.792572
1217.000000	3.799672
1216.000000	3.790459
1215.000000	3.797317
1214.000000	3.795227
1213.000000	3.774897
1212.000000	3.769306
1211.000000	3.778085
1210.000000	3.786360
1209.000000	3.760004
1208.000000	3.746184
1207.000000	3.755657
1206.000000	3.741069
1205.000000	3.720084
1204.000000	3.735457
1203.000000	3.743985
1202.000000	3.719626
1201.000000	3.711660
1200.000000	3.725753
1199.000000	3.719427
1198.000000	3.698093
1197.000000	3.682226
1196.000000	3.683769
1195.000000	3.703540
1194.000000	3.724871
1193.000000	3.727182
1192.000000	3.720294
1191.000000	3.712710
1190.000000	3.684993
1189.000000	3.638628
1188.000000	3.645846
1187.000000	3.655074
1186.000000	3.646639
1185.000000	3.644531
1184.000000	3.641302
1183.000000	3.635919
1182.000000	3.644724
1181.000000	3.644834
1180.000000	3.666154
1179.000000	3.682185
1178.000000	3.685352
1177.000000	3.689093
1176.000000	3.686137
1175.000000	3.694681
1174.000000	3.694681
1173.000000	3.700664
1172.000000	3.707141
1171.000000	3.712522
1170.000000	3.720619
1169.000000	3.707329
1168.000000	3.686680
1167.000000	3.690335
1166.000000	3.693184
1165.000000	3.697220
1164.000000	3.723140
1163.000000	3.745714
1162.000000	3.741523
1161.000000	3.739481
1160.000000	3.749348
1159.000000	3.748292
1158.000000	3.743739
1157.000000	3.757295
1156.000000	3.770805
1155.000000	3.770130
1154.000000	3.772006
1153.000000	3.772625
1152.000000	3.773506
1151.000000	3.785441
1150.000000	3.780775
1149.000000	3.769507
1148.000000	3.769806
1147.000000	3.777888
1146.000000	3.794418
1145.000000	3.795784
1144.000000	3.797515
1143.000000	3.803436
1142.000000	3.798893
1141.000000	3.805515
1140.000000	3.818316
1139.000000	3.820843
1138.000000	3.830862
1137.000000	3.840845
1136.000000	3.845739
1135.000000	3.831002
1134.000000	3.808645
1133.000000	3.795578
1132.000000	3.794224
1131.000000	3.802757
1130.000000	3.816981
1129.000000	3.836026
1128.000000	3.836431
1127.000000	3.833725
1126.000000	3.837874
1125.000000	3.843022
1124.000000	3.837290
1123.000000	3.846016
1122.000000	3.858440
1121.000000	3.822334
1120.000000	3.807969
1119.000000	3.800267
1118.000000	3.806260
1117.000000	3.822207
1116.000000	3.806798
1115.000000	3.812365
1114.000000	3.813300
1113.000000	3.818880
1112.000000	3.815961
1111.000000	3.827081
1110.000000	3.830675
1109.000000	3.830119
1108.000000	3.831740
1107.000000	3.826202
1106.000000	3.825748
1105.000000	3.826894
1104.000000	3.826789
1103.000000	3.829743
1102.000000	3.849798
1101.000000	3.846628
1100.000000	3.839796
1099.000000	3.816946
1098.000000	3.799652
1097.000000	3.783984
1096.000000	3.788190
1095.000000	3.812141
1094.000000	3.814909
1093.000000	3.824904
1092.000000	3.806303
1091.000000	3.786983
1090.000000	3.796975
1089.000000	3.805317
1088.000000	3.803425
1087.000000	3.816406
1086.000000	3.839612
1085.000000	3.825986
1084.000000	3.805754
1083.000000	3.794355
1082.000000	3.783426
1081.000000	3.794718
1080.000000	3.800716
1079.000000	3.811364
1078.000000	3.782792
1077.000000	3.770880
1076.000000	3.759879
1075.000000	3.775122
1074.000000	3.796694
1073.000000	3.800118
1072.000000	3.802069
1071.000000	3.766796
1070.000000	3.764880
1069.000000	3.756191
1068.000000	3.770157
1067.000000	3.785945
1066.000000	3.788776
1065.000000	3.786054
1064.000000	3.757701
1063.000000	3.744034
1062.000000	3.753239
1061.000000	3.759962
1060.000000	3.759707
1059.000000	3.774635
1058.000000	3.743567
1057.000000	3.729743
1056.000000	3.756880
1055.000000	3.764967
1054.000000	3.775630
1053.000000	3.743958
1052.000000	3.747285
1051.000000	3.750085
1050.000000	3.777989
1049.000000	3.790408
1048.000000	3.723250
1047.000000	3.750113
1046.000000	3.763135
1045.000000	3.776162
1044.000000	3.765949
1043.000000	3.721659
1042.000000	3.720897
1041.000000	3.742151
1040.000000	3.741066
1039.000000	3.731582
1038.000000	3.740574
1037.000000	3.741647
1036.000000	3.751104
1035.000000	3.730890
1034.000000	3.733900
1033.000000	3.752848
1032.000000	3.763819
1031.000000	3.726383
1030.000000	3.735469
1029.000000	3.737414
1028.000000	3.726035
1027.000000	3.721520
1026.000000	3.737906
1025.000000	3.745376
1024.000000	3.728110
1023.000000	3.722943
1022.000000	3.740645
1021.000000	3.748050
1020.000000	3.732195
1019.000000	3.749930
1018.000000	3.732695
1017.000000	3.722467
1016.000000	3.744811
1015.000000	3.756567
1014.000000	3.738897
1013.000000	3.722796
1012.000000	3.745836
1011.000000	3.759582
1010.000000	3.764714
1009.000000	3.777413
1008.000000	3.769707
1007.000000	3.777270
1006.000000	3.795245
1005.000000	3.795407
1004.000000	3.811647
1003.000000	3.811298
1002.000000	3.808446
1001.000000	3.796906
1000.000000	3.810179
999.000000	3.813545
998.000000	3.814597
997.000000	3.826881
996.000000	3.828958
995.000000	3.818409
994.000000	3.829981
993.000000	3.826948
992.000000	3.825880
991.000000	3.826403
990.000000	3.845058
989.000000	3.833155
988.000000	3.824293
987.000000	3.827596
986.000000	3.826824
985.000000	3.830675
984.000000	3.835956
983.000000	3.845416
982.000000	3.849735
981.000000	3.850248
980.000000	3.845584
979.000000	3.838578
978.000000	3.846653
977.000000	3.842340
976.000000	3.837606
975.000000	3.837749
974.000000	3.834853
973.000000	3.830710
972.000000	3.826279
971.000000	3.828548
970.000000	3.819313
969.000000	3.836201
968.000000	3.854751
967.000000	3.840912
966.000000	3.849131
965.000000	3.838916
964.000000	3.819121
963.000000	3.849942
962.000000	3.860408
961.000000	3.852451
960.000000	3.853795
959.000000	3.841586
958.000000	3.816160
957.000000	3.824013
956.000000	3.847189
955.000000	3.855595
954.000000	3.858230
953.000000	3.872529
952.000000	3.868757
951.000000	3.855157
950.000000	3.854606
949.000000	3.845895
948.000000	3.845229
947.000000	3.849421
946.000000	3.856070
945.000000	3.872254
944.000000	3.874249
943.000000	3.869766
942.000000	3.846110
941.000000	3.835093
940.000000	3.857911
939.000000	3.867002
938.000000	3.860212
937.000000	3.850743
936.000000	3.857464
935.000000	3.855776
934.000000	3.844924
933.000000	3.851406
932.000000	3.852447
931.000000	3.857863
930.000000	3.861709
929.000000	3.856880
928.000000	3.836059
927.000000	3.848692
926.000000	3.865908
925.000000	3.853127
924.000000	3.844524
923.000000	3.846630
922.000000	3.814518
921.000000	3.827783
920.000000	3.835838
919.000000	3.825526
918.000000	3.840636
917.000000	3.833578
916.000000	3.847855
915.000000	3.891532
914.000000	3.863690
913.000000	3.845742
912.000000	3.875938
911.000000	3.885201
910.000000	3.880540
909.000000	3.873695
908.000000	3.887658
907.000000	3.879183
906.000000	3.854782
905.000000	3.871320
904.000000	3.891107
903.000000	3.893039
902.000000	3.883652
901.000000	3.873546
900.000000	3.908884
899.000000	3.933996
898.000000	3.901179
897.000000	3.842371
896.000000	3.869609
895.000000	3.912842
894.000000	3.885840
893.000000	3.910462
892.000000	3.884695
891.000000	3.903569
890.000000	3.883854
889.000000	3.857792
888.000000	3.847001
887.000000	3.873151
886.000000	3.923124
885.000000	3.888272
884.000000	3.897789
883.000000	3.868572
882.000000	3.892341
881.000000	3.859673
880.000000	3.900542
879.000000	3.856059
878.000000	3.870498
877.000000	3.923258
876.000000	3.899909
875.000000	3.869378
874.000000	3.934528
873.000000	3.852995
872.000000	3.871415
871.000000	3.836664
870.000000	3.881288
869.000000	3.965200
868.000000	3.891001
867.000000	3.862436
866.000000	3.756945
865.000000	3.857123
864.000000	3.895789
863.000000	3.880848
862.000000	3.885728
861.000000	3.895076
860.000000	3.831390
859.000000	3.539454
858.000000	3.561784
857.000000	3.510326
856.000000	3.517136
855.000000	3.526447
854.000000	3.534478
853.000000	3.496575
852.000000	3.496797
851.000000	3.493177
850.000000	3.455477
849.000000	3.457193
848.000000	3.417366
847.000000	3.453994
846.000000	3.454032
845.000000	3.457583
844.000000	3.440571
843.000000	3.448279
842.000000	3.445846
841.000000	3.403978
840.000000	3.442395
839.000000	3.443792
838.000000	3.432780
837.000000	3.399607
836.000000	3.406071
835.000000	3.414933
834.000000	3.420315
833.000000	3.381855
832.000000	3.395117
831.000000	3.397657
830.000000	3.374802
829.000000	3.390172
828.000000	3.375623
827.000000	3.343769
826.000000	3.386638
825.000000	3.348111
824.000000	3.358663
823.000000	3.353146
822.000000	3.364426
821.000000	3.344747
820.000000	3.329762
819.000000	3.319923
818.000000	3.347851
817.000000	3.329438
816.000000	3.332569
815.000000	3.313895
814.000000	3.316901
813.000000	3.304425
812.000000	3.310202
811.000000	3.308997
810.000000	3.293739
809.000000	3.315639
808.000000	3.304406
807.000000	3.309423
806.000000	3.294176
805.000000	3.291457
804.000000	3.296774
803.000000	3.272696
802.000000	3.281850
801.000000	3.291604
800.000000	3.268007
799.000000	3.289265
798.000000	3.278528
797.000000	3.258022
796.000000	3.240745
795.000000	3.248857
794.000000	3.250330
793.000000	3.251166
792.000000	3.235366
791.000000	3.230935
790.000000	3.219578
789.000000	3.216825
788.000000	3.220362
787.000000	3.222015
786.000000	3.217528
785.000000	3.209167
784.000000	3.203335
783.000000	3.192437
782.000000	3.180274
781.000000	3.187984
780.000000	3.178037
779.000000	3.181089
778.000000	3.184142
777.000000	3.181880
776.000000	3.171130
775.000000	3.172856
774.000000	3.153420
773.000000	3.144704
772.000000	3.139851
771.000000	3.141481
770.000000	3.135493
769.000000	3.133146
768.000000	3.128179
767.000000	3.127997
766.000000	3.121894
765.000000	3.116617
764.000000	3.106633
763.000000	3.096832
762.000000	3.100239
761.000000	3.101557
760.000000	3.085999
759.000000	3.079912
758.000000	3.089556
757.000000	3.079485
756.000000	3.066589
755.000000	3.067795
754.000000	3.063443
753.000000	3.055657
752.000000	3.047033
751.000000	3.037319
750.000000	3.048653
749.000000	3.037550
748.000000	3.030537
747.000000	3.020037
746.000000	3.005366
745.000000	3.003917
744.000000	2.995713
743.000000	2.993123
742.000000	2.984780
741.000000	2.993328
740.000000	2.994798
739.000000	2.985008
738.000000	2.983326
737.000000	2.974590
736.000000	2.959285
735.000000	2.951101
734.000000	2.947572
733.000000	2.940366
732.000000	2.942566
731.000000	2.929327
730.000000	2.921030
729.000000	2.913948
728.000000	2.913878
727.000000	2.914482
726.000000	2.905619
725.000000	2.900966
724.000000	2.897025
723.000000	2.894133
722.000000	2.887800
721.000000	2.878506
720.000000	2.865023
719.000000	2.857993
718.000000	2.851718
717.000000	2.844430
716.000000	2.843543
715.000000	2.841269
714.000000	2.822032
713.000000	2.820268
712.000000	2.821083
711.000000	2.805286
710.000000	2.800805
709.000000	2.800567
708.000000	2.793874
707.000000	2.781234
706.000000	2.767696
705.000000	2.765215
704.000000	2.765043
703.000000	2.759025
702.000000	2.750829
701.000000	2.748188
700.000000	2.739920
699.000000	2.734245
698.000000	2.725589
697.000000	2.717548
696.000000	2.713572
695.000000	2.701528
694.000000	2.694487
693.000000	2.690570
692.000000	2.689273
691.000000	2.684704
690.000000	2.672207
689.000000	2.665414
688.000000	2.656116
687.000000	2.645277
686.000000	2.642168
685.000000	2.640721
684.000000	2.633334
683.000000	2.616935
682.000000	2.609090
681.000000	2.604637
680.000000	2.602640
679.000000	2.597586
678.000000	2.593949
677.000000	2.581062
676.000000	2.569015
675.000000	2.556978
674.000000	2.554512
673.000000	2.551891
672.000000	2.541510
671.000000	2.539565
670.000000	2.527013
669.000000	2.513943
668.000000	2.507175
667.000000	2.499950
666.000000	2.492550
665.000000	2.483179
664.000000	2.475114
663.000000	2.468865
662.000000	2.463495
661.000000	2.457959
660.000000	2.445808
659.000000	2.438113
658.000000	2.430602
657.000000	2.426620
656.000000	2.413752
655.000000	2.408562
654.000000	2.397112
653.000000	2.388862
652.000000	2.383376
651.000000	2.369897
650.000000	2.367154
649.000000	2.355552
648.000000	2.346690
647.000000	2.341481
646.000000	2.329547
645.000000	2.326064
644.000000	2.318186
643.000000	2.310466
642.000000	2.301875
641.000000	2.290050
640.000000	2.281683
639.000000	2.267722
638.000000	2.258770
637.000000	2.253870
636.000000	2.244565
635.000000	2.236354
634.000000	2.230633
633.000000	2.217694
632.000000	2.212957
631.000000	2.204739
630.000000	2.194308
629.000000	2.185469
628.000000	2.174580
627.000000	2.160914
626.000000	2.158351
625.000000	2.156593
624.000000	2.139028
623.000000	2.129128
622.000000	2.121972
621.000000	2.111030
620.000000	2.107425
619.000000	2.102965
618.000000	2.086518
617.000000	2.081855
616.000000	2.071398
615.000000	2.056201
614.000000	2.043402
613.000000	2.037922
612.000000	2.024561
611.000000	2.018543
610.000000	2.011905
609.000000	1.997064
608.000000	1.993228
607.000000	1.985156
606.000000	1.971766
605.000000	1.962423
604.000000	1.951743
603.000000	1.942216
602.000000	1.936651
601.000000	1.924571
600.000000	1.911946
599.000000	1.902265
598.000000	1.890082
597.000000	1.880346
596.000000	1.866867
595.000000	1.861238
594.000000	1.851107
593.000000	1.841619
592.000000	1.830554
591.000000	1.820916
590.000000	1.811556
589.000000	1.804772
588.000000	1.791676
587.000000	1.781044
586.000000	1.763807
585.000000	1.755395
584.000000	1.746806
583.000000	1.739570
582.000000	1.726279
581.000000	1.709419
580.000000	1.705219
579.000000	1.690661
578.000000	1.682874
577.000000	1.673702
576.000000	1.661934
575.000000	1.651158
574.000000	1.641782
573.000000	1.628483
572.000000	1.620982
571.000000	1.609368
570.000000	1.596692
569.000000	1.586960
568.000000	1.572194
567.000000	1.560679
566.000000	1.550699
565.000000	1.544097
564.000000	1.524129
563.000000	1.512257
562.000000	1.502244
561.000000	1.497443
560.000000	1.486326
559.000000	1.477555
558.000000	1.465765
557.000000	1.462370
556.000000	1.450532
555.000000	1.432945
554.000000	1.417024
553.000000	1.410149
552.000000	1.398136
551.000000	1.388348
550.000000	1.376529
549.000000	1.366143
548.000000	1.349242
547.000000	1.334323
546.000000	1.329004
545.000000	1.314940
544.000000	1.297992
543.000000	1.288974
542.000000	1.281946
541.000000	1.270702
540.000000	1.261722
539.000000	1.251676
538.000000	1.238099
537.000000	1.225728
536.000000	1.208271
535.000000	1.198018
534.000000	1.187955
533.000000	1.179729
532.000000	1.160134
531.000000	1.147268
530.000000	1.139246
529.000000	1.125194
528.000000	1.114286
527.000000	1.099161
526.000000	1.094080
525.000000	1.072991
524.000000	1.062475
523.000000	1.048643
522.000000	1.034438
521.000000	1.029180
520.000000	1.011384
519.000000	0.996596
518.000000	0.987482
517.000000	0.974124
516.000000	0.964507
515.000000	0.957176
514.000000	0.938080
513.000000	0.928073
512.000000	0.917399
511.000000	0.905637
510.000000	0.893872
509.000000	0.893686
508.000000	0.869732
507.000000	0.858163
506.000000	0.845458
505.000000	0.833145
504.000000	0.822024
503.000000	0.813743
502.000000	0.798729
501.000000	0.787914
500.000000	0.778388
499.000000	0.769383
498.000000	0.759483
497.000000	0.749580
496.000000	0.736118
495.000000	0.726115
494.000000	0.715595
493.000000	0.708204
492.000000	0.702826
491.000000	0.694426
490.000000	0.682321
489.000000	0.671813
488.000000	0.663938
487.000000	0.657475
486.000000	0.651248
485.000000	0.642970
484.000000	0.635101
483.000000	0.630945
482.000000	0.624020
481.000000	0.615523
480.000000	0.605464
479.000000	0.594188
478.000000	0.581859
477.000000	0.570319
476.000000	0.559235
475.000000	0.550244
474.000000	0.541856
473.000000	0.535407
472.000000	0.524941
471.000000	0.514766
470.000000	0.506497
469.000000	0.496799
468.000000	0.488659
467.000000	0.479769
466.000000	0.467507
465.000000	0.457148
464.000000	0.449323
463.000000	0.441564
462.000000	0.433990
461.000000	0.425754
460.000000	0.413675
459.000000	0.402980
458.000000	0.395222
457.000000	0.385612
456.000000	0.378899
455.000000	0.374975
454.000000	0.366479
453.000000	0.358591
452.000000	0.349730
451.000000	0.344625
450.000000	0.342012
449.000000	0.333234
448.000000	0.321672
447.000000	0.315989
446.000000	0.308936
445.000000	0.303683
444.000000	0.301330
443.000000	0.295937
442.000000	0.289933
441.000000	0.282882
440.000000	0.275367
439.000000	0.269771
438.000000	0.268256
437.000000	0.261128
436.000000	0.252428
435.000000	0.245657
434.000000	0.240013
433.000000	0.235474
432.000000	0.231812
431.000000	0.225508
430.000000	0.219481
429.000000	0.214926
428.000000	0.207639
427.000000	0.200641
426.000000	0.199987
425.000000	0.195233
424.000000	0.188112
423.000000	0.182019
422.000000	0.176059
421.000000	0.174933
420.000000	0.174102
419.000000	0.165754
418.000000	0.161297
417.000000	0.155524
416.000000	0.149346
415.000000	0.145244
414.000000	0.144441
413.000000	0.139733
412.000000	0.132648
411.000000	0.128200
410.000000	0.123335
409.000000	0.116718
408.000000	0.115309
407.000000	0.114181
406.000000	0.110640
405.000000	0.102149
404.000000	0.100335
403.000000	0.096599
402.000000	0.093336
401.000000	0.091177
400.000000	0.085463
399.000000	0.081216
398.000000	0.081244
397.000000	0.078470
396.000000	0.079568
395.000000	0.075708
394.000000	0.067831
393.000000	0.066828
392.000000	0.062656
391.000000	0.061773
390.000000	0.061453
389.000000	0.058147
388.000000	0.056064
387.000000	0.051583
386.000000	0.049490
385.000000	0.046003
384.000000	0.050080
383.000000	0.043892
382.000000	0.042558
381.000000	0.041924
380.000000	0.038867
379.000000	0.038090
378.000000	0.037865
377.000000	0.059085
376.000000	0.057055
375.000000	0.062521
374.000000	0.053850
373.000000	0.042223
372.000000	0.040896
371.000000	0.031284
370.000000	0.030777
369.000000	0.034336
368.000000	0.036074
367.000000	0.034856
366.000000	0.033839
365.000000	0.024870
364.000000	0.025394
363.000000	0.023714
362.000000	0.021590
361.000000	0.016906
360.000000	0.017526
359.000000	0.015514
358.000000	0.014943
357.000000	0.016264
356.000000	0.018222
355.000000	0.013070
354.000000	0.009476
353.000000	-0.001657
352.000000	0.003414
351.000000	0.011312
350.000000	0.007932
349.000000	0.003313
348.000000	0.010963
347.000000	0.012958
346.000000	0.004681
345.000000	0.002485
344.000000	0.009391
343.000000	0.002113
342.000000	-0.002946
341.000000	0.000736
340.000000	0.000367
339.000000	0.002941
338.000000	0.005330
337.000000	0.004683
336.000000	-0.001557
335.000000	-0.007994
334.000000	-0.004956
333.000000	0.004860
332.000000	-0.007997
331.000000	0.000184
330.000000	0.006039
329.000000	0.003119
328.000000	0.000000
327.000000	-0.001826
326.000000	0.007031
325.000000	-0.000822
324.000000	0.007738
323.000000	-0.000731
322.000000	-0.002558
321.000000	-0.003009
320.000000	-0.006395
319.000000	0.013101
318.000000	0.001542
317.000000	0.000181
316.000000	0.000908
315.000000	0.004794
314.000000	0.008521
313.000000	0.008806
312.000000	0.006530
311.000000	0.005876
310.000000	0.003898
309.000000	0.011240
308.000000	0.008173
307.000000	0.004072
306.000000	0.002176
305.000000	0.000997
304.000000	0.003078
303.000000	0.005796
302.000000	0.006537
301.000000	0.004807
300.000000	0.001360
299.000000	-0.000091
298.000000	0.003997
297.000000	0.006352
296.000000	0.005071
295.000000	0.004615
294.000000	0.001543
293.000000	0.001812
292.000000	0.003618
291.000000	0.007958
290.000000	0.004602
289.000000	-0.001354
288.000000	0.002164
287.000000	0.001899
286.000000	-0.003253
285.000000	0.002796
284.000000	0.005240
283.000000	0.003616
282.000000	0.003436
281.000000	0.001632
280.000000	0.006895
279.000000	0.002814
278.000000	0.007012
277.000000	0.006014
276.000000	0.005761
275.000000	0.003026
274.000000	0.007984
273.000000	0.008007
272.000000	0.007374
271.000000	0.004990
270.000000	0.007956
269.000000	0.006034
268.000000	0.005297
267.000000	0.009697
266.000000	0.009267
265.000000	0.007418
264.000000	0.007140
263.000000	0.006047
262.000000	0.008420
261.000000	0.008523
260.000000	0.006457
259.000000	0.008581
258.000000	0.009377
257.000000	0.005367
256.000000	0.004136
255.000000	0.008500
254.000000	0.008891
253.000000	0.007773
252.000000	0.005559
251.000000	0.007441
250.000000	0.001670
249.000000	0.003540
248.000000	0.004142
247.000000	0.002676
246.000000	0.001389
245.000000	0.000298
244.000000	-0.001194
243.000000	-0.000497
242.000000	0.005666
241.000000	0.005371
240.000000	-0.002489
239.000000	-0.006146
238.000000	-0.000296
237.000000	0.006501
236.000000	-0.000591
235.000000	-0.003541
234.000000	-0.000392
233.000000	0.002151
232.000000	0.002343
231.000000	0.002927
230.000000	0.004392
229.000000	0.002146
228.000000	0.000487
227.000000	-0.000782
226.000000	-0.006847
225.000000	-0.008485
224.000000	-0.015567
223.000000	-0.014334
222.000000	-0.007078
221.000000	-0.009861
220.000000	-0.015222
219.000000	-0.009391
218.000000	-0.011991
217.000000	-0.018810
216.000000	-0.013867
215.000000	-0.018279
214.000000	-0.018248
213.000000	-0.003415
212.000000	-0.004017
211.000000	-0.011573
210.000000	-0.025485
209.000000	-0.028755
208.000000	-0.000102
207.000000	0.001743
206.000000	-0.027735
205.000000	-0.033053
204.000000	-0.030693
203.000000	-0.044586
202.000000	-0.039227
201.000000	-0.011881
200.000000	-0.028542
