PE UV       SUBTECH     SPECTRUM    ASCII       PEDS        4.00        
   -1
TTms148361.Sample.Cycle1.asc
18/03/13
18:23:38.00
18/03/13
18:23:38.00
Administrator

200.000000
1
Lambda 750
750N8071901
PerkinElmer UV WinLab 6.0.4.0738 / 1.61.00 Lambda 900

0
0
3350/servo 860.8/2
0
0
UV/VIS
1
1
1
CommonBeamDepol,150mm sphere / downward view
0
0
0
0
Program
Program
3350/servo 860.8/2
3350/0.2 860.8/0.2
3350/0.2 860.8/0.2
0
1
 
 
 
0
 
860.8
319.2
860.8
Front
100
on
 
 
0
0
0
 
0
 
 
 
0
 
 
0
0
0
0
0
 
 
 
 
0
0


0
0
#HDR
-1
-1
#GR
nm
%T
1.0
0.0
2350.000000
-1.000000
2151
8
12.512603
0.006281
#DATA
2350.000000	8.540465
2349.000000	8.634300
2348.000000	8.422517
2347.000000	8.969130
2346.000000	8.742262
2345.000000	8.026372
2344.000000	8.453699
2343.000000	8.227095
2342.000000	8.271427
2341.000000	8.610376
2340.000000	8.832579
2339.000000	9.039835
2338.000000	9.262375
2337.000000	9.318740
2336.000000	9.570566
2335.000000	9.259606
2334.000000	9.135148
2333.000000	9.408555
2332.000000	9.574715
2331.000000	9.486594
2330.000000	8.957044
2329.000000	8.940808
2328.000000	9.112075
2327.000000	9.038783
2326.000000	9.227522
2325.000000	9.091560
2324.000000	8.986083
2323.000000	8.809461
2322.000000	9.108073
2321.000000	9.016017
2320.000000	8.779776
2319.000000	8.741561
2318.000000	9.008037
2317.000000	9.069366
2316.000000	8.886870
2315.000000	8.727775
2314.000000	8.808249
2313.000000	8.878714
2312.000000	8.701895
2311.000000	8.711736
2310.000000	8.707615
2309.000000	8.747681
2308.000000	8.722311
2307.000000	8.606945
2306.000000	8.527425
2305.000000	8.437258
2304.000000	8.528432
2303.000000	8.637241
2302.000000	8.676436
2301.000000	8.535802
2300.000000	8.593904
2299.000000	8.512840
2298.000000	8.185082
2297.000000	8.245863
2296.000000	8.528440
2295.000000	8.473993
2294.000000	8.548296
2293.000000	8.501640
2292.000000	8.493291
2291.000000	8.385277
2290.000000	8.565559
2289.000000	8.494020
2288.000000	8.393162
2287.000000	8.224915
2286.000000	8.239163
2285.000000	8.242676
2284.000000	8.183104
2283.000000	8.194965
2282.000000	8.351408
2281.000000	8.287912
2280.000000	8.267919
2279.000000	8.408787
2278.000000	8.180013
2277.000000	8.063639
2276.000000	8.206384
2275.000000	8.329982
2274.000000	8.319804
2273.000000	8.381652
2272.000000	8.404272
2271.000000	8.475857
2270.000000	8.572757
2269.000000	8.366449
2268.000000	8.308106
2267.000000	8.474373
2266.000000	8.337786
2265.000000	8.342122
2264.000000	8.605011
2263.000000	8.593129
2262.000000	8.534223
2261.000000	8.617292
2260.000000	8.757168
2259.000000	8.736923
2258.000000	8.772125
2257.000000	8.907708
2256.000000	8.777737
2255.000000	8.764449
2254.000000	8.908599
2253.000000	8.928039
2252.000000	9.035032
2251.000000	9.213191
2250.000000	9.209696
2249.000000	9.271817
2248.000000	9.381567
2247.000000	9.385736
2246.000000	9.391127
2245.000000	9.432157
2244.000000	9.501933
2243.000000	9.599998
2242.000000	9.639846
2241.000000	9.609143
2240.000000	9.588259
2239.000000	9.599917
2238.000000	9.630525
2237.000000	9.595981
2236.000000	9.538364
2235.000000	9.675275
2234.000000	9.759267
2233.000000	9.726735
2232.000000	9.748417
2231.000000	9.715627
2230.000000	9.744477
2229.000000	9.915131
2228.000000	9.925818
2227.000000	9.877376
2226.000000	9.809992
2225.000000	9.795146
2224.000000	9.772777
2223.000000	9.837274
2222.000000	9.921254
2221.000000	9.912725
2220.000000	9.856382
2219.000000	9.743074
2218.000000	9.789240
2217.000000	9.740616
2216.000000	9.708284
2215.000000	9.793337
2214.000000	9.830470
2213.000000	9.842519
2212.000000	9.778761
2211.000000	9.714180
2210.000000	9.648542
2209.000000	9.687053
2208.000000	9.669884
2207.000000	9.671782
2206.000000	9.609067
2205.000000	9.570814
2204.000000	9.482348
2203.000000	9.436809
2202.000000	9.445784
2201.000000	9.441555
2200.000000	9.380166
2199.000000	9.570822
2198.000000	9.463278
2197.000000	9.315170
2196.000000	9.298482
2195.000000	9.393326
2194.000000	9.349488
2193.000000	9.262019
2192.000000	9.319423
2191.000000	9.305621
2190.000000	9.299374
2189.000000	9.234359
2188.000000	9.251330
2187.000000	9.278079
2186.000000	9.262205
2185.000000	9.151943
2184.000000	9.189420
2183.000000	9.149339
2182.000000	9.252407
2181.000000	9.271752
2180.000000	9.079025
2179.000000	9.094689
2178.000000	9.090854
2177.000000	9.155192
2176.000000	9.102636
2175.000000	9.226074
2174.000000	9.255949
2173.000000	9.195138
2172.000000	9.193611
2171.000000	9.271512
2170.000000	9.276163
2169.000000	9.217872
2168.000000	9.337906
2167.000000	9.238268
2166.000000	9.220283
2165.000000	9.377419
2164.000000	9.352495
2163.000000	9.424710
2162.000000	9.544259
2161.000000	9.326810
2160.000000	9.369530
2159.000000	9.470188
2158.000000	9.512892
2157.000000	9.511457
2156.000000	9.524368
2155.000000	9.528760
2154.000000	9.632813
2153.000000	9.782792
2152.000000	9.716212
2151.000000	9.502328
2150.000000	9.632969
2149.000000	9.746569
2148.000000	9.674110
2147.000000	9.779167
2146.000000	9.761717
2145.000000	9.850382
2144.000000	9.900433
2143.000000	9.946987
2142.000000	10.060216
2141.000000	10.007839
2140.000000	9.959451
2139.000000	10.052703
2138.000000	10.122492
2137.000000	10.211952
2136.000000	10.059091
2135.000000	10.121191
2134.000000	10.122570
2133.000000	9.893867
2132.000000	10.001863
2131.000000	10.234180
2130.000000	10.267299
2129.000000	10.145208
2128.000000	10.192848
2127.000000	10.234719
2126.000000	9.963131
2125.000000	10.181522
2124.000000	10.147552
2123.000000	10.151058
2122.000000	10.204240
2121.000000	9.999920
2120.000000	10.181410
2119.000000	10.031101
2118.000000	10.187822
2117.000000	10.231172
2116.000000	10.200812
2115.000000	10.330505
2114.000000	10.209443
2113.000000	10.138193
2112.000000	10.161289
2111.000000	10.151940
2110.000000	10.046876
2109.000000	10.131286
2108.000000	10.098747
2107.000000	10.256800
2106.000000	10.258296
2105.000000	10.145778
2104.000000	10.183518
2103.000000	10.137762
2102.000000	10.111238
2101.000000	10.280560
2100.000000	10.310834
2099.000000	10.180791
2098.000000	10.095902
2097.000000	10.183905
2096.000000	10.104342
2095.000000	10.118961
2094.000000	10.091130
2093.000000	9.968522
2092.000000	9.989532
2091.000000	10.016959
2090.000000	10.041873
2089.000000	10.086800
2088.000000	10.089671
2087.000000	10.064296
2086.000000	10.101312
2085.000000	10.108632
2084.000000	10.054855
2083.000000	10.061325
2082.000000	9.982366
2081.000000	9.920533
2080.000000	9.915684
2079.000000	9.958225
2078.000000	9.901081
2077.000000	9.929023
2076.000000	9.843649
2075.000000	9.805500
2074.000000	9.809285
2073.000000	9.748134
2072.000000	9.780431
2071.000000	9.708083
2070.000000	9.646995
2069.000000	9.653147
2068.000000	9.561224
2067.000000	9.602887
2066.000000	9.562356
2065.000000	9.397165
2064.000000	9.349913
2063.000000	9.359566
2062.000000	9.318607
2061.000000	9.250058
2060.000000	9.226689
2059.000000	9.168251
2058.000000	9.217304
2057.000000	9.184152
2056.000000	9.137382
2055.000000	9.090927
2054.000000	9.044454
2053.000000	9.023206
2052.000000	8.976257
2051.000000	8.955948
2050.000000	8.931208
2049.000000	8.896235
2048.000000	8.871821
2047.000000	8.854311
2046.000000	8.807716
2045.000000	8.782113
2044.000000	8.761411
2043.000000	8.770519
2042.000000	8.765062
2041.000000	8.808665
2040.000000	8.859443
2039.000000	8.820657
2038.000000	8.777572
2037.000000	8.779791
2036.000000	8.807201
2035.000000	8.833887
2034.000000	8.855734
2033.000000	8.870475
2032.000000	8.900976
2031.000000	8.901907
2030.000000	8.906438
2029.000000	8.940822
2028.000000	8.961274
2027.000000	8.938909
2026.000000	8.973826
2025.000000	8.970032
2024.000000	8.967660
2023.000000	9.022987
2022.000000	9.014757
2021.000000	9.027882
2020.000000	9.024576
2019.000000	8.952406
2018.000000	8.952032
2017.000000	8.991775
2016.000000	8.994409
2015.000000	8.998494
2014.000000	9.016600
2013.000000	8.965624
2012.000000	8.952253
2011.000000	8.977137
2010.000000	8.947430
2009.000000	8.882743
2008.000000	8.898671
2007.000000	8.871029
2006.000000	8.800812
2005.000000	8.762131
2004.000000	8.768344
2003.000000	8.763427
2002.000000	8.706279
2001.000000	8.693217
2000.000000	8.664705
1999.000000	8.635039
1998.000000	8.620731
1997.000000	8.572460
1996.000000	8.553125
1995.000000	8.540095
1994.000000	8.485711
1993.000000	8.425012
1992.000000	8.406335
1991.000000	8.391480
1990.000000	8.346277
1989.000000	8.302831
1988.000000	8.282659
1987.000000	8.272675
1986.000000	8.229618
1985.000000	8.191007
1984.000000	8.165572
1983.000000	8.154351
1982.000000	8.138450
1981.000000	8.101509
1980.000000	8.017857
1979.000000	7.986469
1978.000000	7.987202
1977.000000	7.936701
1976.000000	7.937065
1975.000000	7.932040
1974.000000	7.862542
1973.000000	7.842437
1972.000000	7.778089
1971.000000	7.747162
1970.000000	7.744119
1969.000000	7.738443
1968.000000	7.724506
1967.000000	7.697839
1966.000000	7.654416
1965.000000	7.652117
1964.000000	7.651888
1963.000000	7.635850
1962.000000	7.595508
1961.000000	7.563194
1960.000000	7.563287
1959.000000	7.468011
1958.000000	7.478501
1957.000000	7.439898
1956.000000	7.429293
1955.000000	7.447502
1954.000000	7.442244
1953.000000	7.441616
1952.000000	7.384083
1951.000000	7.451566
1950.000000	7.419265
1949.000000	7.419631
1948.000000	7.389292
1947.000000	7.381183
1946.000000	7.391678
1945.000000	7.402207
1944.000000	7.365818
1943.000000	7.333553
1942.000000	7.398109
1941.000000	7.387997
1940.000000	7.386162
1939.000000	7.432857
1938.000000	7.465775
1937.000000	7.460226
1936.000000	7.559887
1935.000000	7.511054
1934.000000	7.542915
1933.000000	7.547501
1932.000000	7.559978
1931.000000	7.582046
1930.000000	7.626006
1929.000000	7.664869
1928.000000	7.797871
1927.000000	7.801552
1926.000000	7.876202
1925.000000	7.869422
1924.000000	7.960919
1923.000000	8.006022
1922.000000	8.031771
1921.000000	8.158398
1920.000000	8.210740
1919.000000	8.261302
1918.000000	8.356108
1917.000000	8.398191
1916.000000	8.471304
1915.000000	8.543199
1914.000000	8.636189
1913.000000	8.682051
1912.000000	8.768196
1911.000000	8.818102
1910.000000	8.951847
1909.000000	9.050189
1908.000000	9.081798
1907.000000	9.208357
1906.000000	9.313788
1905.000000	9.382516
1904.000000	9.523305
1903.000000	9.597916
1902.000000	9.698281
1901.000000	9.855543
1900.000000	9.949102
1899.000000	10.073436
1898.000000	10.185260
1897.000000	10.331616
1896.000000	10.346635
1895.000000	10.463099
1894.000000	10.529276
1893.000000	10.653201
1892.000000	10.792444
1891.000000	10.861307
1890.000000	10.993923
1889.000000	11.004457
1888.000000	11.086796
1887.000000	11.231787
1886.000000	11.351382
1885.000000	11.412380
1884.000000	11.522198
1883.000000	11.608938
1882.000000	11.636050
1881.000000	11.669377
1880.000000	11.775554
1879.000000	11.874306
1878.000000	11.935985
1877.000000	12.006881
1876.000000	12.097209
1875.000000	12.162811
1874.000000	12.236757
1873.000000	12.236439
1872.000000	12.324212
1871.000000	12.348507
1870.000000	12.402474
1869.000000	12.427945
1868.000000	12.462532
1867.000000	12.451303
1866.000000	12.439459
1865.000000	12.439125
1864.000000	12.423304
1863.000000	12.428108
1862.000000	12.404116
1861.000000	12.427959
1860.000000	12.403019
1859.000000	12.436318
1858.000000	12.466678
1857.000000	12.432507
1856.000000	12.438955
1855.000000	12.434887
1854.000000	12.455547
1853.000000	12.471745
1852.000000	12.468510
1851.000000	12.482857
1850.000000	12.495751
1849.000000	12.486667
1848.000000	12.483000
1847.000000	12.504222
1846.000000	12.512603
1845.000000	12.498765
1844.000000	12.498941
1843.000000	12.494745
1842.000000	12.464630
1841.000000	12.477826
1840.000000	12.478415
1839.000000	12.457849
1838.000000	12.429652
1837.000000	12.412819
1836.000000	12.416172
1835.000000	12.380712
1834.000000	12.358539
1833.000000	12.337906
1832.000000	12.313712
1831.000000	12.298855
1830.000000	12.279237
1829.000000	12.264382
1828.000000	12.253331
1827.000000	12.229055
1826.000000	12.214767
1825.000000	12.202549
1824.000000	12.209708
1823.000000	12.205071
1822.000000	12.165206
1821.000000	12.166568
1820.000000	12.173381
1819.000000	12.152468
1818.000000	12.131352
1817.000000	12.145636
1816.000000	12.156963
1815.000000	12.133217
1814.000000	12.099508
1813.000000	12.082621
1812.000000	12.075035
1811.000000	12.057068
1810.000000	12.053560
1809.000000	12.061736
1808.000000	12.052170
1807.000000	12.037238
1806.000000	12.026815
1805.000000	12.019068
1804.000000	12.018993
1803.000000	12.017124
1802.000000	12.006220
1801.000000	11.999927
1800.000000	12.003721
1799.000000	12.011472
1798.000000	11.993489
1797.000000	11.984980
1796.000000	11.991522
1795.000000	11.995279
1794.000000	11.992080
1793.000000	11.995153
1792.000000	11.996942
1791.000000	11.993268
1790.000000	11.996237
1789.000000	11.992798
1788.000000	12.001139
1787.000000	11.989097
1786.000000	11.980531
1785.000000	11.995770
1784.000000	12.000697
1783.000000	11.999874
1782.000000	12.007489
1781.000000	12.012277
1780.000000	12.016938
1779.000000	12.011090
1778.000000	11.993944
1777.000000	11.953821
1776.000000	11.950567
1775.000000	11.940327
1774.000000	11.923912
1773.000000	11.939443
1772.000000	11.928555
1771.000000	11.917175
1770.000000	11.894331
1769.000000	11.883286
1768.000000	11.871309
1767.000000	11.869176
1766.000000	11.847513
1765.000000	11.822283
1764.000000	11.823880
1763.000000	11.810186
1762.000000	11.763449
1761.000000	11.741326
1760.000000	11.740282
1759.000000	11.728361
1758.000000	11.718131
1757.000000	11.690211
1756.000000	11.696946
1755.000000	11.692751
1754.000000	11.673612
1753.000000	11.656016
1752.000000	11.656981
1751.000000	11.641565
1750.000000	11.666132
1749.000000	11.667826
1748.000000	11.638067
1747.000000	11.602459
1746.000000	11.583193
1745.000000	11.588259
1744.000000	11.570433
1743.000000	11.537663
1742.000000	11.537281
1741.000000	11.515243
1740.000000	11.520135
1739.000000	11.506279
1738.000000	11.499914
1737.000000	11.474409
1736.000000	11.478398
1735.000000	11.453699
1734.000000	11.464246
1733.000000	11.437958
1732.000000	11.451675
1731.000000	11.432651
1730.000000	11.408340
1729.000000	11.436440
1728.000000	11.449916
1727.000000	11.443113
1726.000000	11.434880
1725.000000	11.448088
1724.000000	11.446607
1723.000000	11.486142
1722.000000	11.499131
1721.000000	11.507954
1720.000000	11.527110
1719.000000	11.569826
1718.000000	11.562051
1717.000000	11.584759
1716.000000	11.588000
1715.000000	11.582131
1714.000000	11.588904
1713.000000	11.590565
1712.000000	11.619938
1711.000000	11.655844
1710.000000	11.656672
1709.000000	11.628905
1708.000000	11.673681
1707.000000	11.677449
1706.000000	11.654743
1705.000000	11.666103
1704.000000	11.678984
1703.000000	11.681672
1702.000000	11.667613
1701.000000	11.700618
1700.000000	11.702644
1699.000000	11.681107
1698.000000	11.708655
1697.000000	11.715563
1696.000000	11.744043
1695.000000	11.712574
1694.000000	11.738467
1693.000000	11.733182
1692.000000	11.735917
1691.000000	11.728766
1690.000000	11.759937
1689.000000	11.768040
1688.000000	11.793650
1687.000000	11.799643
1686.000000	11.801430
1685.000000	11.826022
1684.000000	11.854065
1683.000000	11.876358
1682.000000	11.914576
1681.000000	11.925365
1680.000000	11.956240
1679.000000	11.988098
1678.000000	12.014259
1677.000000	12.032023
1676.000000	12.057209
1675.000000	12.089253
1674.000000	12.122206
1673.000000	12.137008
1672.000000	12.158979
1671.000000	12.174270
1670.000000	12.194596
1669.000000	12.179379
1668.000000	12.199971
1667.000000	12.224354
1666.000000	12.227422
1665.000000	12.222309
1664.000000	12.218796
1663.000000	12.237472
1662.000000	12.256225
1661.000000	12.264152
1660.000000	12.257984
1659.000000	12.283877
1658.000000	12.296896
1657.000000	12.303715
1656.000000	12.303894
1655.000000	12.334816
1654.000000	12.333491
1653.000000	12.337758
1652.000000	12.342080
1651.000000	12.329658
1650.000000	12.323230
1649.000000	12.319695
1648.000000	12.311525
1647.000000	12.296397
1646.000000	12.305394
1645.000000	12.288725
1644.000000	12.263871
1643.000000	12.257834
1642.000000	12.268580
1641.000000	12.256887
1640.000000	12.244019
1639.000000	12.236930
1638.000000	12.234561
1637.000000	12.229775
1636.000000	12.208993
1635.000000	12.192879
1634.000000	12.183159
1633.000000	12.160336
1632.000000	12.165540
1631.000000	12.152135
1630.000000	12.143098
1629.000000	12.137762
1628.000000	12.126951
1627.000000	12.120948
1626.000000	12.108618
1625.000000	12.096685
1624.000000	12.096939
1623.000000	12.077929
1622.000000	12.068718
1621.000000	12.054444
1620.000000	12.057184
1619.000000	12.043129
1618.000000	12.005530
1617.000000	12.006598
1616.000000	12.007885
1615.000000	11.995622
1614.000000	11.981158
1613.000000	11.966141
1612.000000	11.965349
1611.000000	11.951790
1610.000000	11.931602
1609.000000	11.924730
1608.000000	11.920417
1607.000000	11.910814
1606.000000	11.892510
1605.000000	11.872354
1604.000000	11.866455
1603.000000	11.853473
1602.000000	11.844501
1601.000000	11.837104
1600.000000	11.837821
1599.000000	11.822562
1598.000000	11.810159
1597.000000	11.793742
1596.000000	11.785700
1595.000000	11.789260
1594.000000	11.766865
1593.000000	11.759667
1592.000000	11.766045
1591.000000	11.756959
1590.000000	11.732083
1589.000000	11.707502
1588.000000	11.703780
1587.000000	11.714587
1586.000000	11.708487
1585.000000	11.686066
1584.000000	11.666075
1583.000000	11.661450
1582.000000	11.658814
1581.000000	11.649947
1580.000000	11.641362
1579.000000	11.631267
1578.000000	11.627444
1577.000000	11.632531
1576.000000	11.622505
1575.000000	11.604529
1574.000000	11.578959
1573.000000	11.566651
1572.000000	11.574522
1571.000000	11.566990
1570.000000	11.548286
1569.000000	11.525410
1568.000000	11.524178
1567.000000	11.535518
1566.000000	11.523738
1565.000000	11.499801
1564.000000	11.490086
1563.000000	11.495051
1562.000000	11.476464
1561.000000	11.458378
1560.000000	11.445285
1559.000000	11.437283
1558.000000	11.434047
1557.000000	11.416784
1556.000000	11.407054
1555.000000	11.396204
1554.000000	11.383384
1553.000000	11.373803
1552.000000	11.370781
1551.000000	11.364865
1550.000000	11.348163
1549.000000	11.332203
1548.000000	11.330631
1547.000000	11.311724
1546.000000	11.287189
1545.000000	11.272052
1544.000000	11.253158
1543.000000	11.224693
1542.000000	11.209616
1541.000000	11.198543
1540.000000	11.183207
1539.000000	11.171842
1538.000000	11.143470
1537.000000	11.128998
1536.000000	11.105429
1535.000000	11.088497
1534.000000	11.069206
1533.000000	11.057243
1532.000000	11.030654
1531.000000	11.013068
1530.000000	10.999222
1529.000000	10.987780
1528.000000	11.016206
1527.000000	11.055533
1526.000000	11.068076
1525.000000	11.040566
1524.000000	10.995284
1523.000000	10.956953
1522.000000	10.908161
1521.000000	10.881197
1520.000000	10.866127
1519.000000	10.875543
1518.000000	10.860376
1517.000000	10.829739
1516.000000	10.817682
1515.000000	10.820796
1514.000000	10.815782
1513.000000	10.798581
1512.000000	10.776674
1511.000000	10.755486
1510.000000	10.760740
1509.000000	10.776434
1508.000000	10.754905
1507.000000	10.755588
1506.000000	10.743711
1505.000000	10.731366
1504.000000	10.704306
1503.000000	10.699289
1502.000000	10.676809
1501.000000	10.666850
1500.000000	10.701327
1499.000000	10.731633
1498.000000	10.707101
1497.000000	10.685622
1496.000000	10.676771
1495.000000	10.673790
1494.000000	10.669623
1493.000000	10.674445
1492.000000	10.674752
1491.000000	10.676926
1490.000000	10.660975
1489.000000	10.654435
1488.000000	10.666619
1487.000000	10.635642
1486.000000	10.612147
1485.000000	10.631551
1484.000000	10.657448
1483.000000	10.658715
1482.000000	10.661189
1481.000000	10.667177
1480.000000	10.666031
1479.000000	10.685020
1478.000000	10.689381
1477.000000	10.679523
1476.000000	10.688830
1475.000000	10.689417
1474.000000	10.680961
1473.000000	10.700360
1472.000000	10.675198
1471.000000	10.687063
1470.000000	10.682656
1469.000000	10.676652
1468.000000	10.725245
1467.000000	10.711450
1466.000000	10.716796
1465.000000	10.710811
1464.000000	10.699340
1463.000000	10.696684
1462.000000	10.717958
1461.000000	10.723188
1460.000000	10.732716
1459.000000	10.724174
1458.000000	10.743950
1457.000000	10.740874
1456.000000	10.747327
1455.000000	10.727993
1454.000000	10.728930
1453.000000	10.735245
1452.000000	10.764033
1451.000000	10.776077
1450.000000	10.769958
1449.000000	10.772812
1448.000000	10.775420
1447.000000	10.787034
1446.000000	10.817183
1445.000000	10.839401
1444.000000	10.818394
1443.000000	10.820723
1442.000000	10.823409
1441.000000	10.829123
1440.000000	10.839190
1439.000000	10.871053
1438.000000	10.869280
1437.000000	10.869098
1436.000000	10.912759
1435.000000	10.938614
1434.000000	10.940092
1433.000000	10.959849
1432.000000	10.980674
1431.000000	10.976028
1430.000000	11.001966
1429.000000	11.013982
1428.000000	11.029088
1427.000000	11.043083
1426.000000	11.065479
1425.000000	11.089201
1424.000000	11.092746
1423.000000	11.109979
1422.000000	11.145417
1421.000000	11.184823
1420.000000	11.215736
1419.000000	11.240936
1418.000000	11.251879
1417.000000	11.271795
1416.000000	11.306000
1415.000000	11.320928
1414.000000	11.376375
1413.000000	11.418957
1412.000000	11.442851
1411.000000	11.463726
1410.000000	11.507487
1409.000000	11.530145
1408.000000	11.550032
1407.000000	11.573569
1406.000000	11.621452
1405.000000	11.659259
1404.000000	11.677017
1403.000000	11.702840
1402.000000	11.740056
1401.000000	11.756216
1400.000000	11.785845
1399.000000	11.820388
1398.000000	11.847954
1397.000000	11.872066
1396.000000	11.884875
1395.000000	11.911926
1394.000000	11.939599
1393.000000	11.958796
1392.000000	11.970036
1391.000000	11.989599
1390.000000	12.007127
1389.000000	12.018001
1388.000000	12.034685
1387.000000	12.054227
1386.000000	12.065480
1385.000000	12.086329
1384.000000	12.107645
1383.000000	12.112695
1382.000000	12.123716
1381.000000	12.138387
1380.000000	12.155292
1379.000000	12.144285
1378.000000	12.138721
1377.000000	12.146893
1376.000000	12.141282
1375.000000	12.135840
1374.000000	12.138831
1373.000000	12.152766
1372.000000	12.153278
1371.000000	12.146299
1370.000000	12.149877
1369.000000	12.150205
1368.000000	12.150611
1367.000000	12.153466
1366.000000	12.159611
1365.000000	12.172920
1364.000000	12.175930
1363.000000	12.178397
1362.000000	12.176651
1361.000000	12.181596
1360.000000	12.200391
1359.000000	12.209744
1358.000000	12.203424
1357.000000	12.195181
1356.000000	12.190201
1355.000000	12.181865
1354.000000	12.170809
1353.000000	12.185289
1352.000000	12.191624
1351.000000	12.177705
1350.000000	12.174408
1349.000000	12.161284
1348.000000	12.143747
1347.000000	12.157518
1346.000000	12.165613
1345.000000	12.159166
1344.000000	12.138968
1343.000000	12.117024
1342.000000	12.113121
1341.000000	12.138446
1340.000000	12.135378
1339.000000	12.122260
1338.000000	12.139556
1337.000000	12.156063
1336.000000	12.147829
1335.000000	12.139391
1334.000000	12.132445
1333.000000	12.118378
1332.000000	12.100245
1331.000000	12.125509
1330.000000	12.148946
1329.000000	12.126987
1328.000000	12.102426
1327.000000	12.122827
1326.000000	12.130174
1325.000000	12.108798
1324.000000	12.090603
1323.000000	12.099139
1322.000000	12.105545
1321.000000	12.108378
1320.000000	12.108460
1319.000000	12.086767
1318.000000	12.078155
1317.000000	12.081578
1316.000000	12.065989
1315.000000	12.073267
1314.000000	12.079995
1313.000000	12.054813
1312.000000	12.039403
1311.000000	12.026368
1310.000000	12.038274
1309.000000	12.050481
1308.000000	12.052937
1307.000000	12.026889
1306.000000	12.011770
1305.000000	11.994912
1304.000000	12.019095
1303.000000	12.042421
1302.000000	12.022848
1301.000000	11.998899
1300.000000	12.004888
1299.000000	11.998274
1298.000000	11.988936
1297.000000	11.985091
1296.000000	11.986865
1295.000000	11.975916
1294.000000	11.978520
1293.000000	11.976682
1292.000000	11.969893
1291.000000	11.966707
1290.000000	11.964382
1289.000000	11.982792
1288.000000	11.985913
1287.000000	11.964130
1286.000000	11.971990
1285.000000	11.941396
1284.000000	11.907391
1283.000000	11.928386
1282.000000	11.929963
1281.000000	11.949763
1280.000000	11.932396
1279.000000	11.931105
1278.000000	11.933886
1277.000000	11.933125
1276.000000	11.911934
1275.000000	11.899264
1274.000000	11.891089
1273.000000	11.904702
1272.000000	11.901276
1271.000000	11.889579
1270.000000	11.870750
1269.000000	11.871420
1268.000000	11.872574
1267.000000	11.869241
1266.000000	11.843525
1265.000000	11.842863
1264.000000	11.860639
1263.000000	11.866634
1262.000000	11.867773
1261.000000	11.849765
1260.000000	11.839613
1259.000000	11.840219
1258.000000	11.828382
1257.000000	11.840104
1256.000000	11.840756
1255.000000	11.837394
1254.000000	11.822910
1253.000000	11.794890
1252.000000	11.796689
1251.000000	11.810898
1250.000000	11.807343
1249.000000	11.803141
1248.000000	11.791300
1247.000000	11.787440
1246.000000	11.788018
1245.000000	11.801319
1244.000000	11.800253
1243.000000	11.795283
1242.000000	11.798635
1241.000000	11.791561
1240.000000	11.745428
1239.000000	11.755977
1238.000000	11.777099
1237.000000	11.768540
1236.000000	11.727119
1235.000000	11.735361
1234.000000	11.740376
1233.000000	11.730205
1232.000000	11.709383
1231.000000	11.708485
1230.000000	11.723511
1229.000000	11.714872
1228.000000	11.675969
1227.000000	11.669304
1226.000000	11.668720
1225.000000	11.685754
1224.000000	11.687520
1223.000000	11.693644
1222.000000	11.665308
1221.000000	11.665137
1220.000000	11.662247
1219.000000	11.643100
1218.000000	11.633393
1217.000000	11.610007
1216.000000	11.605829
1215.000000	11.594293
1214.000000	11.570710
1213.000000	11.580070
1212.000000	11.599517
1211.000000	11.587097
1210.000000	11.584311
1209.000000	11.582551
1208.000000	11.555652
1207.000000	11.534471
1206.000000	11.547452
1205.000000	11.540187
1204.000000	11.516798
1203.000000	11.500644
1202.000000	11.506385
1201.000000	11.511121
1200.000000	11.502109
1199.000000	11.496549
1198.000000	11.491246
1197.000000	11.475249
1196.000000	11.452710
1195.000000	11.440257
1194.000000	11.439157
1193.000000	11.439770
1192.000000	11.428637
1191.000000	11.414602
1190.000000	11.412071
1189.000000	11.386377
1188.000000	11.386347
1187.000000	11.394528
1186.000000	11.398492
1185.000000	11.393924
1184.000000	11.382104
1183.000000	11.390706
1182.000000	11.401007
1181.000000	11.403065
1180.000000	11.397502
1179.000000	11.401478
1178.000000	11.416893
1177.000000	11.424871
1176.000000	11.423056
1175.000000	11.432294
1174.000000	11.436668
1173.000000	11.435784
1172.000000	11.436798
1171.000000	11.452202
1170.000000	11.462957
1169.000000	11.461722
1168.000000	11.450573
1167.000000	11.462713
1166.000000	11.476653
1165.000000	11.466310
1164.000000	11.474364
1163.000000	11.480763
1162.000000	11.466209
1161.000000	11.476685
1160.000000	11.496286
1159.000000	11.500128
1158.000000	11.494504
1157.000000	11.496756
1156.000000	11.505261
1155.000000	11.485018
1154.000000	11.463721
1153.000000	11.472163
1152.000000	11.488995
1151.000000	11.493791
1150.000000	11.505772
1149.000000	11.520748
1148.000000	11.524614
1147.000000	11.530132
1146.000000	11.534734
1145.000000	11.531721
1144.000000	11.532502
1143.000000	11.536468
1142.000000	11.530902
1141.000000	11.536576
1140.000000	11.546806
1139.000000	11.549581
1138.000000	11.527324
1137.000000	11.508660
1136.000000	11.516859
1135.000000	11.522741
1134.000000	11.530901
1133.000000	11.538584
1132.000000	11.538788
1131.000000	11.543414
1130.000000	11.553259
1129.000000	11.547462
1128.000000	11.548468
1127.000000	11.561480
1126.000000	11.535449
1125.000000	11.514019
1124.000000	11.520538
1123.000000	11.533863
1122.000000	11.530981
1121.000000	11.541428
1120.000000	11.531795
1119.000000	11.517826
1118.000000	11.526836
1117.000000	11.525477
1116.000000	11.522371
1115.000000	11.521042
1114.000000	11.510188
1113.000000	11.512490
1112.000000	11.503429
1111.000000	11.509108
1110.000000	11.507252
1109.000000	11.503495
1108.000000	11.508355
1107.000000	11.501295
1106.000000	11.492366
1105.000000	11.499882
1104.000000	11.502145
1103.000000	11.488534
1102.000000	11.490933
1101.000000	11.456884
1100.000000	11.439469
1099.000000	11.442590
1098.000000	11.468814
1097.000000	11.471683
1096.000000	11.461319
1095.000000	11.468106
1094.000000	11.469253
1093.000000	11.442944
1092.000000	11.433401
1091.000000	11.440050
1090.000000	11.457219
1089.000000	11.450678
1088.000000	11.454621
1087.000000	11.447037
1086.000000	11.435823
1085.000000	11.421226
1084.000000	11.432231
1083.000000	11.434910
1082.000000	11.446704
1081.000000	11.434293
1080.000000	11.422851
1079.000000	11.408142
1078.000000	11.397503
1077.000000	11.391653
1076.000000	11.398134
1075.000000	11.408314
1074.000000	11.422934
1073.000000	11.400255
1072.000000	11.380685
1071.000000	11.376546
1070.000000	11.377299
1069.000000	11.387195
1068.000000	11.375319
1067.000000	11.372761
1066.000000	11.390634
1065.000000	11.387499
1064.000000	11.361100
1063.000000	11.355715
1062.000000	11.359022
1061.000000	11.356084
1060.000000	11.365363
1059.000000	11.371751
1058.000000	11.372822
1057.000000	11.344932
1056.000000	11.319827
1055.000000	11.346843
1054.000000	11.355269
1053.000000	11.370305
1052.000000	11.316130
1051.000000	11.326295
1050.000000	11.325599
1049.000000	11.359511
1048.000000	11.323632
1047.000000	11.319702
1046.000000	11.329633
1045.000000	11.333798
1044.000000	11.327246
1043.000000	11.317308
1042.000000	11.316779
1041.000000	11.290907
1040.000000	11.302164
1039.000000	11.311199
1038.000000	11.283761
1037.000000	11.284112
1036.000000	11.298738
1035.000000	11.315778
1034.000000	11.316126
1033.000000	11.291973
1032.000000	11.292926
1031.000000	11.307125
1030.000000	11.287915
1029.000000	11.268745
1028.000000	11.291687
1027.000000	11.305492
1026.000000	11.290430
1025.000000	11.282882
1024.000000	11.293639
1023.000000	11.293172
1022.000000	11.270989
1021.000000	11.267401
1020.000000	11.269729
1019.000000	11.272050
1018.000000	11.270301
1017.000000	11.279104
1016.000000	11.284263
1015.000000	11.268140
1014.000000	11.271670
1013.000000	11.281424
1012.000000	11.271503
1011.000000	11.268813
1010.000000	11.265914
1009.000000	11.251477
1008.000000	11.257279
1007.000000	11.269682
1006.000000	11.261722
1005.000000	11.251948
1004.000000	11.273631
1003.000000	11.247790
1002.000000	11.258200
1001.000000	11.266156
1000.000000	11.252315
999.000000	11.234906
998.000000	11.259384
997.000000	11.270729
996.000000	11.280512
995.000000	11.262207
994.000000	11.254342
993.000000	11.252975
992.000000	11.261492
991.000000	11.279952
990.000000	11.270304
989.000000	11.257293
988.000000	11.264209
987.000000	11.279599
986.000000	11.282142
985.000000	11.294562
984.000000	11.314035
983.000000	11.324767
982.000000	11.322808
981.000000	11.328794
980.000000	11.330084
979.000000	11.325984
978.000000	11.333081
977.000000	11.337065
976.000000	11.341092
975.000000	11.343985
974.000000	11.343729
973.000000	11.337440
972.000000	11.322207
971.000000	11.322941
970.000000	11.329212
969.000000	11.327664
968.000000	11.327332
967.000000	11.334531
966.000000	11.340975
965.000000	11.331060
964.000000	11.326361
963.000000	11.325087
962.000000	11.323564
961.000000	11.312206
960.000000	11.305349
959.000000	11.297998
958.000000	11.295136
957.000000	11.295661
956.000000	11.289321
955.000000	11.302123
954.000000	11.305545
953.000000	11.282348
952.000000	11.283075
951.000000	11.287312
950.000000	11.273260
949.000000	11.268682
948.000000	11.274524
947.000000	11.269953
946.000000	11.264737
945.000000	11.259843
944.000000	11.255525
943.000000	11.258143
942.000000	11.258504
941.000000	11.258299
940.000000	11.252602
939.000000	11.233334
938.000000	11.223391
937.000000	11.218870
936.000000	11.202841
935.000000	11.213834
934.000000	11.221629
933.000000	11.212711
932.000000	11.198528
931.000000	11.201547
930.000000	11.193409
929.000000	11.180613
928.000000	11.175111
927.000000	11.175951
926.000000	11.171257
925.000000	11.152759
924.000000	11.162326
923.000000	11.152090
922.000000	11.132117
921.000000	11.134008
920.000000	11.130225
919.000000	11.120605
918.000000	11.105674
917.000000	11.101069
916.000000	11.111296
915.000000	11.116033
914.000000	11.110916
913.000000	11.106238
912.000000	11.114504
911.000000	11.102774
910.000000	11.110415
909.000000	11.121285
908.000000	11.123882
907.000000	11.092538
906.000000	11.058069
905.000000	11.096202
904.000000	11.106703
903.000000	11.103075
902.000000	11.051966
901.000000	11.050412
900.000000	11.062043
899.000000	11.065105
898.000000	11.061470
897.000000	11.080501
896.000000	11.053490
895.000000	11.085326
894.000000	11.061506
893.000000	11.060727
892.000000	11.041222
891.000000	11.080140
890.000000	11.079714
889.000000	11.034948
888.000000	11.050512
887.000000	11.007247
886.000000	10.973968
885.000000	10.986743
884.000000	10.982680
883.000000	10.973943
882.000000	10.976404
881.000000	11.081401
880.000000	11.038306
879.000000	11.003914
878.000000	10.986068
877.000000	10.981530
876.000000	11.012027
875.000000	11.027304
874.000000	10.959262
873.000000	10.954507
872.000000	10.909576
871.000000	10.989133
870.000000	10.923502
869.000000	10.904875
868.000000	10.934514
867.000000	10.909605
866.000000	10.918049
865.000000	10.879833
864.000000	10.904623
863.000000	10.993370
862.000000	10.977347
861.000000	10.875336
860.000000	10.904130
859.000000	10.696463
858.000000	10.707480
857.000000	10.795995
856.000000	10.693796
855.000000	10.698339
854.000000	10.670811
853.000000	10.788192
852.000000	10.702491
851.000000	10.770043
850.000000	10.622731
849.000000	10.733934
848.000000	10.668264
847.000000	10.631206
846.000000	10.670823
845.000000	10.652839
844.000000	10.640132
843.000000	10.628157
842.000000	10.661423
841.000000	10.599555
840.000000	10.587864
839.000000	10.583299
838.000000	10.515714
837.000000	10.509254
836.000000	10.536742
835.000000	10.549638
834.000000	10.529893
833.000000	10.469891
832.000000	10.540933
831.000000	10.507637
830.000000	10.493196
829.000000	10.433185
828.000000	10.489056
827.000000	10.422916
826.000000	10.413586
825.000000	10.424591
824.000000	10.457759
823.000000	10.447040
822.000000	10.445303
821.000000	10.451788
820.000000	10.398050
819.000000	10.372547
818.000000	10.386462
817.000000	10.394438
816.000000	10.368137
815.000000	10.382087
814.000000	10.341394
813.000000	10.301778
812.000000	10.308447
811.000000	10.257933
810.000000	10.310117
809.000000	10.296445
808.000000	10.319836
807.000000	10.309018
806.000000	10.287988
805.000000	10.295902
804.000000	10.252529
803.000000	10.240345
802.000000	10.228416
801.000000	10.256869
800.000000	10.204051
799.000000	10.198089
798.000000	10.214953
797.000000	10.201630
796.000000	10.222817
795.000000	10.166773
794.000000	10.127820
793.000000	10.143418
792.000000	10.138873
791.000000	10.166163
790.000000	10.116665
789.000000	10.108400
788.000000	10.096976
787.000000	10.085831
786.000000	10.092181
785.000000	10.077463
784.000000	10.063619
783.000000	10.019876
782.000000	10.014441
781.000000	9.988834
780.000000	10.016485
779.000000	10.005996
778.000000	10.007442
777.000000	9.971630
776.000000	9.956133
775.000000	9.953739
774.000000	9.954403
773.000000	9.947250
772.000000	9.924201
771.000000	9.947386
770.000000	9.894428
769.000000	9.884393
768.000000	9.888961
767.000000	9.872309
766.000000	9.870488
765.000000	9.858361
764.000000	9.850960
763.000000	9.830236
762.000000	9.821593
761.000000	9.793562
760.000000	9.773249
759.000000	9.772829
758.000000	9.760249
757.000000	9.751434
756.000000	9.728587
755.000000	9.709610
754.000000	9.707260
753.000000	9.704204
752.000000	9.678192
751.000000	9.666369
750.000000	9.659826
749.000000	9.632161
748.000000	9.622931
747.000000	9.621093
746.000000	9.582555
745.000000	9.574052
744.000000	9.568136
743.000000	9.555333
742.000000	9.522195
741.000000	9.530551
740.000000	9.524841
739.000000	9.510486
738.000000	9.499668
737.000000	9.474841
736.000000	9.449662
735.000000	9.450974
734.000000	9.436749
733.000000	9.407948
732.000000	9.398390
731.000000	9.380835
730.000000	9.368839
729.000000	9.351322
728.000000	9.324210
727.000000	9.317825
726.000000	9.294119
725.000000	9.284841
724.000000	9.266921
723.000000	9.248359
722.000000	9.248424
721.000000	9.231573
720.000000	9.210417
719.000000	9.181762
718.000000	9.175921
717.000000	9.168430
716.000000	9.149144
715.000000	9.120361
714.000000	9.107014
713.000000	9.094663
712.000000	9.074004
711.000000	9.050102
710.000000	9.032030
709.000000	9.026347
708.000000	9.013315
707.000000	8.986619
706.000000	8.962944
705.000000	8.941572
704.000000	8.928921
703.000000	8.903945
702.000000	8.893192
701.000000	8.885645
700.000000	8.863202
699.000000	8.846408
698.000000	8.828431
697.000000	8.815574
696.000000	8.786429
695.000000	8.764435
694.000000	8.752942
693.000000	8.728585
692.000000	8.700719
691.000000	8.696935
690.000000	8.686836
689.000000	8.642795
688.000000	8.618563
687.000000	8.604192
686.000000	8.578227
685.000000	8.568559
684.000000	8.543095
683.000000	8.521881
682.000000	8.494291
681.000000	8.468924
680.000000	8.454585
679.000000	8.443823
678.000000	8.421614
677.000000	8.402790
676.000000	8.379459
675.000000	8.354318
674.000000	8.329618
673.000000	8.316801
672.000000	8.304777
671.000000	8.268448
670.000000	8.242832
669.000000	8.222247
668.000000	8.197382
667.000000	8.177998
666.000000	8.157163
665.000000	8.128497
664.000000	8.115188
663.000000	8.099480
662.000000	8.072673
661.000000	8.059537
660.000000	8.028641
659.000000	8.003395
658.000000	7.973036
657.000000	7.954634
656.000000	7.931881
655.000000	7.910170
654.000000	7.884052
653.000000	7.856263
652.000000	7.826302
651.000000	7.806616
650.000000	7.782478
649.000000	7.760095
648.000000	7.743941
647.000000	7.717214
646.000000	7.691256
645.000000	7.669193
644.000000	7.640247
643.000000	7.627136
642.000000	7.607954
641.000000	7.576463
640.000000	7.545904
639.000000	7.518369
638.000000	7.497635
637.000000	7.470879
636.000000	7.449465
635.000000	7.417149
634.000000	7.392297
633.000000	7.362729
632.000000	7.348707
631.000000	7.316506
630.000000	7.288876
629.000000	7.265930
628.000000	7.237021
627.000000	7.209634
626.000000	7.181632
625.000000	7.170059
624.000000	7.139755
623.000000	7.113314
622.000000	7.069896
621.000000	7.048726
620.000000	7.026897
619.000000	7.003075
618.000000	6.979693
617.000000	6.948414
616.000000	6.928823
615.000000	6.902771
614.000000	6.858454
613.000000	6.837894
612.000000	6.824583
611.000000	6.785702
610.000000	6.758935
609.000000	6.739504
608.000000	6.713874
607.000000	6.685209
606.000000	6.654422
605.000000	6.622637
604.000000	6.590268
603.000000	6.559691
602.000000	6.538915
601.000000	6.515189
600.000000	6.487996
599.000000	6.459420
598.000000	6.431761
597.000000	6.395448
596.000000	6.364408
595.000000	6.337527
594.000000	6.301990
593.000000	6.283821
592.000000	6.257106
591.000000	6.227036
590.000000	6.197633
589.000000	6.165697
588.000000	6.132593
587.000000	6.103484
586.000000	6.077346
585.000000	6.055793
584.000000	6.013187
583.000000	5.997586
582.000000	5.962620
581.000000	5.925131
580.000000	5.895279
579.000000	5.870758
578.000000	5.846302
577.000000	5.812679
576.000000	5.785744
575.000000	5.755285
574.000000	5.722914
573.000000	5.689534
572.000000	5.654875
571.000000	5.629510
570.000000	5.597195
569.000000	5.567528
568.000000	5.535245
567.000000	5.504025
566.000000	5.470144
565.000000	5.440689
564.000000	5.406508
563.000000	5.379007
562.000000	5.347378
561.000000	5.334112
560.000000	5.304131
559.000000	5.270681
558.000000	5.239128
557.000000	5.214122
556.000000	5.189883
555.000000	5.138894
554.000000	5.101453
553.000000	5.080355
552.000000	5.039856
551.000000	5.020711
550.000000	4.983919
549.000000	4.946869
548.000000	4.917112
547.000000	4.883933
546.000000	4.855634
545.000000	4.830364
544.000000	4.786426
543.000000	4.753609
542.000000	4.718004
541.000000	4.693683
540.000000	4.655771
539.000000	4.631562
538.000000	4.599841
537.000000	4.569730
536.000000	4.525199
535.000000	4.487769
534.000000	4.456424
533.000000	4.430680
532.000000	4.396191
531.000000	4.362683
530.000000	4.321357
529.000000	4.285396
528.000000	4.253842
527.000000	4.220453
526.000000	4.192263
525.000000	4.157690
524.000000	4.120761
523.000000	4.088028
522.000000	4.051248
521.000000	4.020774
520.000000	3.987794
519.000000	3.953501
518.000000	3.915021
517.000000	3.881808
516.000000	3.849899
515.000000	3.812812
514.000000	3.782995
513.000000	3.754719
512.000000	3.699163
511.000000	3.667633
510.000000	3.640267
509.000000	3.611802
508.000000	3.572138
507.000000	3.543895
506.000000	3.506281
505.000000	3.474335
504.000000	3.446275
503.000000	3.415687
502.000000	3.380462
501.000000	3.352699
500.000000	3.322520
499.000000	3.294635
498.000000	3.262348
497.000000	3.231178
496.000000	3.200377
495.000000	3.171996
494.000000	3.147417
493.000000	3.114805
492.000000	3.089442
491.000000	3.062362
490.000000	3.028065
489.000000	2.996574
488.000000	2.971562
487.000000	2.948706
486.000000	2.918795
485.000000	2.901727
484.000000	2.882092
483.000000	2.852795
482.000000	2.825378
481.000000	2.793153
480.000000	2.763806
479.000000	2.731618
478.000000	2.695226
477.000000	2.663925
476.000000	2.634449
475.000000	2.602229
474.000000	2.573679
473.000000	2.547672
472.000000	2.515366
471.000000	2.479318
470.000000	2.451649
469.000000	2.425286
468.000000	2.399487
467.000000	2.370683
466.000000	2.339851
465.000000	2.313160
464.000000	2.287107
463.000000	2.257666
462.000000	2.231378
461.000000	2.205118
460.000000	2.174829
459.000000	2.143078
458.000000	2.110199
457.000000	2.082693
456.000000	2.062533
455.000000	2.036782
454.000000	2.002386
453.000000	1.975773
452.000000	1.953647
451.000000	1.930715
450.000000	1.908741
449.000000	1.880666
448.000000	1.849588
447.000000	1.822128
446.000000	1.794552
445.000000	1.775577
444.000000	1.751718
443.000000	1.721478
442.000000	1.692776
441.000000	1.664004
440.000000	1.633471
439.000000	1.605831
438.000000	1.584955
437.000000	1.563613
436.000000	1.538959
435.000000	1.512552
434.000000	1.485650
433.000000	1.458025
432.000000	1.435139
431.000000	1.412905
430.000000	1.383888
429.000000	1.355817
428.000000	1.332344
427.000000	1.310759
426.000000	1.287895
425.000000	1.264047
424.000000	1.238456
423.000000	1.217392
422.000000	1.194598
421.000000	1.174828
420.000000	1.158112
419.000000	1.134383
418.000000	1.112166
417.000000	1.090901
416.000000	1.063525
415.000000	1.041672
414.000000	1.028263
413.000000	1.004421
412.000000	0.981295
411.000000	0.962335
410.000000	0.939688
409.000000	0.914985
408.000000	0.897216
407.000000	0.879011
406.000000	0.857552
405.000000	0.841804
404.000000	0.822823
403.000000	0.802702
402.000000	0.786437
401.000000	0.772124
400.000000	0.749586
399.000000	0.723892
398.000000	0.710214
397.000000	0.702141
396.000000	0.680462
395.000000	0.664484
394.000000	0.641380
393.000000	0.629478
392.000000	0.620437
391.000000	0.599271
390.000000	0.588444
389.000000	0.572662
388.000000	0.549240
387.000000	0.533271
386.000000	0.528044
385.000000	0.512250
384.000000	0.496817
383.000000	0.480581
382.000000	0.467857
381.000000	0.448920
380.000000	0.438389
379.000000	0.423348
378.000000	0.408460
377.000000	0.419260
376.000000	0.407631
375.000000	0.395194
374.000000	0.383333
373.000000	0.362271
372.000000	0.353350
371.000000	0.343288
370.000000	0.329487
369.000000	0.314858
368.000000	0.310660
367.000000	0.293967
366.000000	0.282635
365.000000	0.279953
364.000000	0.262897
363.000000	0.266671
362.000000	0.254740
361.000000	0.238903
360.000000	0.232364
359.000000	0.224399
358.000000	0.216677
357.000000	0.208941
356.000000	0.210564
355.000000	0.196238
354.000000	0.186578
353.000000	0.178918
352.000000	0.176493
351.000000	0.179062
350.000000	0.174402
349.000000	0.164823
348.000000	0.159284
347.000000	0.156686
346.000000	0.145014
345.000000	0.143851
344.000000	0.137183
343.000000	0.135349
342.000000	0.131463
341.000000	0.124080
340.000000	0.122478
339.000000	0.118297
338.000000	0.111844
337.000000	0.103484
336.000000	0.112225
335.000000	0.098593
334.000000	0.103434
333.000000	0.099681
332.000000	0.101389
331.000000	0.096654
330.000000	0.093509
329.000000	0.094394
328.000000	0.079175
327.000000	0.077340
326.000000	0.078983
325.000000	0.081351
324.000000	0.076472
323.000000	0.069236
322.000000	0.080951
321.000000	0.071311
320.000000	0.081496
319.000000	0.076878
318.000000	0.080354
317.000000	0.078132
316.000000	0.082731
315.000000	0.082129
314.000000	0.089197
313.000000	0.088057
312.000000	0.085711
311.000000	0.081181
310.000000	0.079679
309.000000	0.074963
308.000000	0.078003
307.000000	0.070217
306.000000	0.073334
305.000000	0.078568
304.000000	0.071879
303.000000	0.077340
302.000000	0.081530
301.000000	0.075003
300.000000	0.077149
299.000000	0.079092
298.000000	0.077754
297.000000	0.079486
296.000000	0.079141
295.000000	0.072392
294.000000	0.076793
293.000000	0.082171
292.000000	0.082041
291.000000	0.083380
290.000000	0.081388
289.000000	0.075297
288.000000	0.079090
287.000000	0.084723
286.000000	0.082866
285.000000	0.087487
284.000000	0.090889
283.000000	0.094662
282.000000	0.098750
281.000000	0.087578
280.000000	0.089359
279.000000	0.096679
278.000000	0.097437
277.000000	0.093944
276.000000	0.096658
275.000000	0.101315
274.000000	0.105356
273.000000	0.111448
272.000000	0.112268
271.000000	0.109974
270.000000	0.110644
269.000000	0.107126
268.000000	0.112818
267.000000	0.116644
266.000000	0.126183
265.000000	0.118775
264.000000	0.122505
263.000000	0.122838
262.000000	0.121192
261.000000	0.129270
260.000000	0.133126
259.000000	0.134727
258.000000	0.138267
257.000000	0.138671
256.000000	0.147341
255.000000	0.146135
254.000000	0.144955
253.000000	0.140686
252.000000	0.138394
251.000000	0.136879
250.000000	0.140483
249.000000	0.148591
248.000000	0.151473
247.000000	0.150748
246.000000	0.148238
245.000000	0.138437
244.000000	0.146056
243.000000	0.151183
242.000000	0.141751
241.000000	0.134570
240.000000	0.135079
239.000000	0.130552
238.000000	0.129034
237.000000	0.129239
236.000000	0.126994
235.000000	0.122369
234.000000	0.116820
233.000000	0.099141
232.000000	0.102997
231.000000	0.099892
230.000000	0.085992
229.000000	0.083684
228.000000	0.085365
227.000000	0.078528
226.000000	0.074439
225.000000	0.081831
224.000000	0.081359
223.000000	0.068036
222.000000	0.057213
221.000000	0.054925
220.000000	0.059505
219.000000	0.057332
218.000000	0.069471
217.000000	0.060909
216.000000	0.046689
215.000000	0.054937
214.000000	0.060460
213.000000	0.066284
212.000000	0.056138
211.000000	0.035625
210.000000	0.044903
209.000000	0.056697
208.000000	0.039703
207.000000	0.031895
206.000000	0.017874
205.000000	0.006281
204.000000	0.013065
203.000000	0.020634
202.000000	0.018368
201.000000	0.028766
200.000000	0.086458
