PE UV       SUBTECH     SPECTRUM    ASCII       PEDS        4.00        
   -1
Ams499181.Sample.asc
18/03/19
09:24:29.00
18/03/19
09:24:29.00
Administrator

200.000000
1
Lambda 750
750N8071901
PerkinElmer UV WinLab 6.0.4.0738 / 1.61.00 Lambda 900

0
0
3350/servo 860.8/2
0
0
UV/VIS
1
1
1
CommonBeamDepol,150mm sphere / downward view
0
0
0
0
Program
Program
3350/servo 860.8/2
3350/0.2 860.8/0.2
3350/0.2 860.8/0.2
0
1
 
 
 
0
 
860.8
319.2
860.8
Front
100
on
 
 
0
0
0
 
0
 
 
 
0
 
 
0
0
0
0
0
 
 
 
 
0
0


0
0
#HDR
-1
-1
#GR
nm
A
1.0
0.0
2350.000000
-1.000000
2151
8
1.162859
0.118184
#DATA
2350.000000	0.580389
2349.000000	0.577007
2348.000000	0.587051
2347.000000	0.581656
2346.000000	0.573338
2345.000000	0.577873
2344.000000	0.576453
2343.000000	0.576656
2342.000000	0.573544
2341.000000	0.568264
2340.000000	0.564698
2339.000000	0.563014
2338.000000	0.555703
2337.000000	0.561095
2336.000000	0.554235
2335.000000	0.554225
2334.000000	0.556787
2333.000000	0.553862
2332.000000	0.546737
2331.000000	0.550689
2330.000000	0.551836
2329.000000	0.555947
2328.000000	0.555034
2327.000000	0.557435
2326.000000	0.555129
2325.000000	0.561155
2324.000000	0.565981
2323.000000	0.567581
2322.000000	0.563146
2321.000000	0.572198
2320.000000	0.576109
2319.000000	0.571462
2318.000000	0.572752
2317.000000	0.578458
2316.000000	0.580304
2315.000000	0.588391
2314.000000	0.587334
2313.000000	0.591803
2312.000000	0.591714
2311.000000	0.586963
2310.000000	0.588988
2309.000000	0.592352
2308.000000	0.592594
2307.000000	0.591954
2306.000000	0.590901
2305.000000	0.592788
2304.000000	0.591620
2303.000000	0.591576
2302.000000	0.590850
2301.000000	0.590993
2300.000000	0.589054
2299.000000	0.591103
2298.000000	0.591257
2297.000000	0.590910
2296.000000	0.591427
2295.000000	0.590467
2294.000000	0.591030
2293.000000	0.590528
2292.000000	0.589561
2291.000000	0.592625
2290.000000	0.589364
2289.000000	0.587384
2288.000000	0.584946
2287.000000	0.585555
2286.000000	0.591720
2285.000000	0.588916
2284.000000	0.586336
2283.000000	0.586810
2282.000000	0.585418
2281.000000	0.582939
2280.000000	0.585907
2279.000000	0.582903
2278.000000	0.582047
2277.000000	0.581674
2276.000000	0.582276
2275.000000	0.582348
2274.000000	0.580967
2273.000000	0.578940
2272.000000	0.577254
2271.000000	0.576387
2270.000000	0.570415
2269.000000	0.571013
2268.000000	0.571081
2267.000000	0.566581
2266.000000	0.561439
2265.000000	0.559210
2264.000000	0.554330
2263.000000	0.551798
2262.000000	0.554484
2261.000000	0.551511
2260.000000	0.546657
2259.000000	0.543623
2258.000000	0.538145
2257.000000	0.533484
2256.000000	0.532109
2255.000000	0.526839
2254.000000	0.521596
2253.000000	0.521435
2252.000000	0.518583
2251.000000	0.512512
2250.000000	0.505750
2249.000000	0.502563
2248.000000	0.500932
2247.000000	0.497481
2246.000000	0.493282
2245.000000	0.487956
2244.000000	0.484443
2243.000000	0.482198
2242.000000	0.480331
2241.000000	0.479297
2240.000000	0.476381
2239.000000	0.473812
2238.000000	0.471546
2237.000000	0.468237
2236.000000	0.465997
2235.000000	0.464192
2234.000000	0.462641
2233.000000	0.461697
2232.000000	0.459902
2231.000000	0.458978
2230.000000	0.457971
2229.000000	0.457127
2228.000000	0.456901
2227.000000	0.457343
2226.000000	0.457423
2225.000000	0.458401
2224.000000	0.459770
2223.000000	0.460205
2222.000000	0.458559
2221.000000	0.455804
2220.000000	0.457502
2219.000000	0.457151
2218.000000	0.458594
2217.000000	0.461188
2216.000000	0.462464
2215.000000	0.461516
2214.000000	0.462701
2213.000000	0.460761
2212.000000	0.462051
2211.000000	0.464695
2210.000000	0.466199
2209.000000	0.466942
2208.000000	0.469489
2207.000000	0.470381
2206.000000	0.471388
2205.000000	0.471719
2204.000000	0.472058
2203.000000	0.474997
2202.000000	0.476691
2201.000000	0.476904
2200.000000	0.476969
2199.000000	0.478063
2198.000000	0.480233
2197.000000	0.480674
2196.000000	0.481344
2195.000000	0.484326
2194.000000	0.487192
2193.000000	0.488385
2192.000000	0.486957
2191.000000	0.487984
2190.000000	0.487994
2189.000000	0.489871
2188.000000	0.493769
2187.000000	0.491776
2186.000000	0.492194
2185.000000	0.493987
2184.000000	0.494283
2183.000000	0.493751
2182.000000	0.494932
2181.000000	0.497632
2180.000000	0.497148
2179.000000	0.497354
2178.000000	0.496076
2177.000000	0.494071
2176.000000	0.494496
2175.000000	0.497676
2174.000000	0.497766
2173.000000	0.496076
2172.000000	0.494156
2171.000000	0.493189
2170.000000	0.494881
2169.000000	0.490162
2168.000000	0.489474
2167.000000	0.489105
2166.000000	0.488380
2165.000000	0.486042
2164.000000	0.487783
2163.000000	0.486930
2162.000000	0.483843
2161.000000	0.479611
2160.000000	0.477016
2159.000000	0.477594
2158.000000	0.476140
2157.000000	0.473572
2156.000000	0.470480
2155.000000	0.466564
2154.000000	0.462882
2153.000000	0.459761
2152.000000	0.460160
2151.000000	0.459585
2150.000000	0.457795
2149.000000	0.452941
2148.000000	0.453642
2147.000000	0.450807
2146.000000	0.449765
2145.000000	0.446418
2144.000000	0.443917
2143.000000	0.444598
2142.000000	0.442894
2141.000000	0.438319
2140.000000	0.437772
2139.000000	0.435578
2138.000000	0.434637
2137.000000	0.430849
2136.000000	0.431022
2135.000000	0.429120
2134.000000	0.427816
2133.000000	0.427876
2132.000000	0.425954
2131.000000	0.425576
2130.000000	0.421971
2129.000000	0.420560
2128.000000	0.419528
2127.000000	0.420487
2126.000000	0.421978
2125.000000	0.418850
2124.000000	0.416543
2123.000000	0.416622
2122.000000	0.413849
2121.000000	0.416381
2120.000000	0.417365
2119.000000	0.413924
2118.000000	0.412889
2117.000000	0.414604
2116.000000	0.413983
2115.000000	0.411293
2114.000000	0.412216
2113.000000	0.411811
2112.000000	0.411228
2111.000000	0.411508
2110.000000	0.411664
2109.000000	0.409338
2108.000000	0.410978
2107.000000	0.409001
2106.000000	0.408219
2105.000000	0.407683
2104.000000	0.408926
2103.000000	0.408735
2102.000000	0.409125
2101.000000	0.407333
2100.000000	0.407471
2099.000000	0.406542
2098.000000	0.406309
2097.000000	0.407403
2096.000000	0.409391
2095.000000	0.408659
2094.000000	0.407525
2093.000000	0.407425
2092.000000	0.407462
2091.000000	0.406458
2090.000000	0.409519
2089.000000	0.409165
2088.000000	0.408863
2087.000000	0.409134
2086.000000	0.408692
2085.000000	0.409624
2084.000000	0.411286
2083.000000	0.410399
2082.000000	0.412780
2081.000000	0.415247
2080.000000	0.415408
2079.000000	0.416427
2078.000000	0.418386
2077.000000	0.418784
2076.000000	0.420697
2075.000000	0.422080
2074.000000	0.422434
2073.000000	0.424022
2072.000000	0.425948
2071.000000	0.428811
2070.000000	0.430855
2069.000000	0.433118
2068.000000	0.434269
2067.000000	0.435877
2066.000000	0.439175
2065.000000	0.441945
2064.000000	0.442719
2063.000000	0.445994
2062.000000	0.448234
2061.000000	0.449729
2060.000000	0.452225
2059.000000	0.454012
2058.000000	0.455587
2057.000000	0.458442
2056.000000	0.460856
2055.000000	0.463048
2054.000000	0.465267
2053.000000	0.466973
2052.000000	0.468242
2051.000000	0.470485
2050.000000	0.472102
2049.000000	0.473385
2048.000000	0.474211
2047.000000	0.474892
2046.000000	0.476087
2045.000000	0.477438
2044.000000	0.478333
2043.000000	0.477762
2042.000000	0.477532
2041.000000	0.476988
2040.000000	0.476111
2039.000000	0.475113
2038.000000	0.474546
2037.000000	0.474619
2036.000000	0.473960
2035.000000	0.472507
2034.000000	0.470366
2033.000000	0.468343
2032.000000	0.466837
2031.000000	0.465895
2030.000000	0.464090
2029.000000	0.461858
2028.000000	0.460818
2027.000000	0.459341
2026.000000	0.457176
2025.000000	0.456354
2024.000000	0.455763
2023.000000	0.453850
2022.000000	0.452836
2021.000000	0.453091
2020.000000	0.452184
2019.000000	0.451027
2018.000000	0.451149
2017.000000	0.451075
2016.000000	0.450982
2015.000000	0.451183
2014.000000	0.452031
2013.000000	0.452496
2012.000000	0.452501
2011.000000	0.453133
2010.000000	0.454665
2009.000000	0.455938
2008.000000	0.456350
2007.000000	0.457306
2006.000000	0.458838
2005.000000	0.460480
2004.000000	0.462201
2003.000000	0.463737
2002.000000	0.464691
2001.000000	0.466670
2000.000000	0.468672
1999.000000	0.470295
1998.000000	0.471593
1997.000000	0.472849
1996.000000	0.474802
1995.000000	0.476848
1994.000000	0.478983
1993.000000	0.480657
1992.000000	0.483365
1991.000000	0.485020
1990.000000	0.486308
1989.000000	0.488324
1988.000000	0.490604
1987.000000	0.492051
1986.000000	0.493347
1985.000000	0.495810
1984.000000	0.497649
1983.000000	0.499128
1982.000000	0.500518
1981.000000	0.501744
1980.000000	0.504363
1979.000000	0.506589
1978.000000	0.507603
1977.000000	0.509692
1976.000000	0.511314
1975.000000	0.513672
1974.000000	0.515327
1973.000000	0.517394
1972.000000	0.519383
1971.000000	0.520949
1970.000000	0.522424
1969.000000	0.523793
1968.000000	0.525813
1967.000000	0.527214
1966.000000	0.528193
1965.000000	0.530308
1964.000000	0.532105
1963.000000	0.534226
1962.000000	0.535837
1961.000000	0.537770
1960.000000	0.539178
1959.000000	0.540467
1958.000000	0.542216
1957.000000	0.543375
1956.000000	0.545411
1955.000000	0.546423
1954.000000	0.547477
1953.000000	0.549654
1952.000000	0.547861
1951.000000	0.549471
1950.000000	0.551224
1949.000000	0.551819
1948.000000	0.551621
1947.000000	0.553230
1946.000000	0.553101
1945.000000	0.553515
1944.000000	0.554647
1943.000000	0.552933
1942.000000	0.553521
1941.000000	0.553355
1940.000000	0.551381
1939.000000	0.551395
1938.000000	0.548852
1937.000000	0.547313
1936.000000	0.546038
1935.000000	0.545799
1934.000000	0.545317
1933.000000	0.541978
1932.000000	0.539939
1931.000000	0.537350
1930.000000	0.534858
1929.000000	0.532127
1928.000000	0.527027
1927.000000	0.524223
1926.000000	0.521012
1925.000000	0.517382
1924.000000	0.511752
1923.000000	0.508080
1922.000000	0.504656
1921.000000	0.498575
1920.000000	0.494318
1919.000000	0.490900
1918.000000	0.484287
1917.000000	0.478052
1916.000000	0.474623
1915.000000	0.468068
1914.000000	0.460638
1913.000000	0.454584
1912.000000	0.447661
1911.000000	0.441163
1910.000000	0.433189
1909.000000	0.427181
1908.000000	0.421092
1907.000000	0.412693
1906.000000	0.406529
1905.000000	0.398110
1904.000000	0.391037
1903.000000	0.383694
1902.000000	0.376172
1901.000000	0.368199
1900.000000	0.360281
1899.000000	0.353772
1898.000000	0.345254
1897.000000	0.338003
1896.000000	0.330956
1895.000000	0.323693
1894.000000	0.317103
1893.000000	0.310454
1892.000000	0.303513
1891.000000	0.297534
1890.000000	0.290984
1889.000000	0.285285
1888.000000	0.279610
1887.000000	0.274512
1886.000000	0.268907
1885.000000	0.263682
1884.000000	0.258665
1883.000000	0.254116
1882.000000	0.249619
1881.000000	0.245664
1880.000000	0.241477
1879.000000	0.238415
1878.000000	0.234945
1877.000000	0.231454
1876.000000	0.228467
1875.000000	0.225964
1874.000000	0.223054
1873.000000	0.221271
1872.000000	0.219063
1871.000000	0.217089
1870.000000	0.215063
1869.000000	0.213560
1868.000000	0.211905
1867.000000	0.211025
1866.000000	0.209878
1865.000000	0.208681
1864.000000	0.207771
1863.000000	0.206605
1862.000000	0.205794
1861.000000	0.205390
1860.000000	0.204469
1859.000000	0.204145
1858.000000	0.203491
1857.000000	0.203040
1856.000000	0.202775
1855.000000	0.202257
1854.000000	0.202067
1853.000000	0.201827
1852.000000	0.201569
1851.000000	0.201573
1850.000000	0.201682
1849.000000	0.201811
1848.000000	0.202289
1847.000000	0.202231
1846.000000	0.202293
1845.000000	0.202686
1844.000000	0.203210
1843.000000	0.203548
1842.000000	0.204299
1841.000000	0.204659
1840.000000	0.205024
1839.000000	0.205595
1838.000000	0.206109
1837.000000	0.206719
1836.000000	0.207246
1835.000000	0.207753
1834.000000	0.208365
1833.000000	0.208762
1832.000000	0.209461
1831.000000	0.210131
1830.000000	0.210665
1829.000000	0.211193
1828.000000	0.211546
1827.000000	0.211962
1826.000000	0.212598
1825.000000	0.212999
1824.000000	0.213535
1823.000000	0.214012
1822.000000	0.214220
1821.000000	0.214882
1820.000000	0.215337
1819.000000	0.215821
1818.000000	0.216195
1817.000000	0.216703
1816.000000	0.217249
1815.000000	0.217742
1814.000000	0.218330
1813.000000	0.218618
1812.000000	0.218885
1811.000000	0.219451
1810.000000	0.219975
1809.000000	0.220233
1808.000000	0.220620
1807.000000	0.221131
1806.000000	0.221430
1805.000000	0.221850
1804.000000	0.222298
1803.000000	0.222485
1802.000000	0.222830
1801.000000	0.223284
1800.000000	0.223574
1799.000000	0.223970
1798.000000	0.224406
1797.000000	0.224714
1796.000000	0.224855
1795.000000	0.224970
1794.000000	0.225266
1793.000000	0.225750
1792.000000	0.226076
1791.000000	0.226263
1790.000000	0.226591
1789.000000	0.227237
1788.000000	0.227582
1787.000000	0.227916
1786.000000	0.228374
1785.000000	0.228968
1784.000000	0.229590
1783.000000	0.230086
1782.000000	0.230788
1781.000000	0.231528
1780.000000	0.232131
1779.000000	0.233066
1778.000000	0.233910
1777.000000	0.234730
1776.000000	0.235675
1775.000000	0.236837
1774.000000	0.237904
1773.000000	0.238636
1772.000000	0.239703
1771.000000	0.241067
1770.000000	0.241935
1769.000000	0.242851
1768.000000	0.243584
1767.000000	0.244423
1766.000000	0.245205
1765.000000	0.245905
1764.000000	0.246273
1763.000000	0.247162
1762.000000	0.247875
1761.000000	0.248223
1760.000000	0.249119
1759.000000	0.249955
1758.000000	0.250318
1757.000000	0.250805
1756.000000	0.251523
1755.000000	0.251913
1754.000000	0.252457
1753.000000	0.253364
1752.000000	0.254100
1751.000000	0.255033
1750.000000	0.255883
1749.000000	0.256838
1748.000000	0.258025
1747.000000	0.259220
1746.000000	0.260029
1745.000000	0.261508
1744.000000	0.262790
1743.000000	0.263991
1742.000000	0.265242
1741.000000	0.266692
1740.000000	0.267850
1739.000000	0.268930
1738.000000	0.269766
1737.000000	0.270872
1736.000000	0.271784
1735.000000	0.272658
1734.000000	0.272927
1733.000000	0.273365
1732.000000	0.273366
1731.000000	0.273349
1730.000000	0.273600
1729.000000	0.273032
1728.000000	0.272065
1727.000000	0.271134
1726.000000	0.270211
1725.000000	0.269125
1724.000000	0.267810
1723.000000	0.266574
1722.000000	0.265023
1721.000000	0.263611
1720.000000	0.261823
1719.000000	0.259713
1718.000000	0.258291
1717.000000	0.257029
1716.000000	0.255172
1715.000000	0.253678
1714.000000	0.252097
1713.000000	0.250549
1712.000000	0.249258
1711.000000	0.247676
1710.000000	0.246698
1709.000000	0.245613
1708.000000	0.244494
1707.000000	0.243425
1706.000000	0.242776
1705.000000	0.241628
1704.000000	0.241102
1703.000000	0.240431
1702.000000	0.239947
1701.000000	0.239050
1700.000000	0.238193
1699.000000	0.237749
1698.000000	0.237417
1697.000000	0.236300
1696.000000	0.235089
1695.000000	0.234436
1694.000000	0.234021
1693.000000	0.232652
1692.000000	0.231696
1691.000000	0.230602
1690.000000	0.228880
1689.000000	0.227467
1688.000000	0.225765
1687.000000	0.224303
1686.000000	0.222574
1685.000000	0.220649
1684.000000	0.218926
1683.000000	0.217074
1682.000000	0.214890
1681.000000	0.212886
1680.000000	0.210823
1679.000000	0.208675
1678.000000	0.206587
1677.000000	0.204812
1676.000000	0.202736
1675.000000	0.200499
1674.000000	0.198488
1673.000000	0.196891
1672.000000	0.195142
1671.000000	0.193390
1670.000000	0.191724
1669.000000	0.190707
1668.000000	0.189207
1667.000000	0.187896
1666.000000	0.187161
1665.000000	0.186074
1664.000000	0.185067
1663.000000	0.184539
1662.000000	0.183929
1661.000000	0.183286
1660.000000	0.183024
1659.000000	0.182927
1658.000000	0.182754
1657.000000	0.182622
1656.000000	0.182989
1655.000000	0.183569
1654.000000	0.183885
1653.000000	0.183990
1652.000000	0.184151
1651.000000	0.184293
1650.000000	0.184304
1649.000000	0.184399
1648.000000	0.184587
1647.000000	0.184532
1646.000000	0.184663
1645.000000	0.184908
1644.000000	0.185208
1643.000000	0.185363
1642.000000	0.185710
1641.000000	0.185927
1640.000000	0.186221
1639.000000	0.186766
1638.000000	0.186965
1637.000000	0.187300
1636.000000	0.187766
1635.000000	0.188085
1634.000000	0.188492
1633.000000	0.189068
1632.000000	0.189577
1631.000000	0.189985
1630.000000	0.190480
1629.000000	0.190883
1628.000000	0.191338
1627.000000	0.191999
1626.000000	0.192602
1625.000000	0.193067
1624.000000	0.193493
1623.000000	0.194056
1622.000000	0.194670
1621.000000	0.195416
1620.000000	0.196056
1619.000000	0.196567
1618.000000	0.197279
1617.000000	0.197813
1616.000000	0.198525
1615.000000	0.199220
1614.000000	0.199825
1613.000000	0.200557
1612.000000	0.201234
1611.000000	0.201967
1610.000000	0.202668
1609.000000	0.203359
1608.000000	0.204054
1607.000000	0.204844
1606.000000	0.205563
1605.000000	0.206115
1604.000000	0.206975
1603.000000	0.207791
1602.000000	0.208354
1601.000000	0.209079
1600.000000	0.209832
1599.000000	0.210564
1598.000000	0.211260
1597.000000	0.211931
1596.000000	0.212615
1595.000000	0.213198
1594.000000	0.213867
1593.000000	0.214541
1592.000000	0.215184
1591.000000	0.215700
1590.000000	0.216235
1589.000000	0.217060
1588.000000	0.217626
1587.000000	0.218045
1586.000000	0.218748
1585.000000	0.219309
1584.000000	0.219781
1583.000000	0.220396
1582.000000	0.220957
1581.000000	0.221599
1580.000000	0.222193
1579.000000	0.222739
1578.000000	0.223219
1577.000000	0.223780
1576.000000	0.224450
1575.000000	0.224942
1574.000000	0.225639
1573.000000	0.226209
1572.000000	0.226694
1571.000000	0.227251
1570.000000	0.227780
1569.000000	0.228222
1568.000000	0.228576
1567.000000	0.229063
1566.000000	0.229583
1565.000000	0.230121
1564.000000	0.230518
1563.000000	0.230844
1562.000000	0.231306
1561.000000	0.231667
1560.000000	0.232161
1559.000000	0.232613
1558.000000	0.232793
1557.000000	0.233019
1556.000000	0.233386
1555.000000	0.233766
1554.000000	0.234132
1553.000000	0.234560
1552.000000	0.235028
1551.000000	0.235625
1550.000000	0.236233
1549.000000	0.236738
1548.000000	0.237357
1547.000000	0.238250
1546.000000	0.238887
1545.000000	0.239755
1544.000000	0.240605
1543.000000	0.241421
1542.000000	0.242514
1541.000000	0.243611
1540.000000	0.244533
1539.000000	0.245650
1538.000000	0.246733
1537.000000	0.247917
1536.000000	0.248835
1535.000000	0.249984
1534.000000	0.250940
1533.000000	0.251813
1532.000000	0.253036
1531.000000	0.254160
1530.000000	0.255189
1529.000000	0.256093
1528.000000	0.257074
1527.000000	0.257976
1526.000000	0.258743
1525.000000	0.259542
1524.000000	0.260187
1523.000000	0.260916
1522.000000	0.261749
1521.000000	0.262169
1520.000000	0.262694
1519.000000	0.263253
1518.000000	0.263624
1517.000000	0.264296
1516.000000	0.264656
1515.000000	0.265068
1514.000000	0.265454
1513.000000	0.265837
1512.000000	0.266022
1511.000000	0.266248
1510.000000	0.266556
1509.000000	0.266942
1508.000000	0.267137
1507.000000	0.267461
1506.000000	0.267466
1505.000000	0.267635
1504.000000	0.267859
1503.000000	0.267880
1502.000000	0.268026
1501.000000	0.268171
1500.000000	0.268233
1499.000000	0.268375
1498.000000	0.268419
1497.000000	0.268242
1496.000000	0.268329
1495.000000	0.268249
1494.000000	0.267962
1493.000000	0.267903
1492.000000	0.267646
1491.000000	0.267452
1490.000000	0.267166
1489.000000	0.266769
1488.000000	0.266628
1487.000000	0.266508
1486.000000	0.265869
1485.000000	0.265677
1484.000000	0.265303
1483.000000	0.264844
1482.000000	0.264504
1481.000000	0.264087
1480.000000	0.263689
1479.000000	0.263313
1478.000000	0.263024
1477.000000	0.262708
1476.000000	0.262368
1475.000000	0.261845
1474.000000	0.261436
1473.000000	0.261239
1472.000000	0.260887
1471.000000	0.260535
1470.000000	0.260213
1469.000000	0.259978
1468.000000	0.259636
1467.000000	0.259093
1466.000000	0.258758
1465.000000	0.258404
1464.000000	0.258074
1463.000000	0.257746
1462.000000	0.257332
1461.000000	0.257061
1460.000000	0.256565
1459.000000	0.256307
1458.000000	0.255685
1457.000000	0.255155
1456.000000	0.254682
1455.000000	0.253981
1454.000000	0.253367
1453.000000	0.252940
1452.000000	0.252235
1451.000000	0.251482
1450.000000	0.250756
1449.000000	0.250132
1448.000000	0.249232
1447.000000	0.248526
1446.000000	0.247749
1445.000000	0.246767
1444.000000	0.245903
1443.000000	0.244909
1442.000000	0.243925
1441.000000	0.242889
1440.000000	0.241759
1439.000000	0.240827
1438.000000	0.239697
1437.000000	0.238457
1436.000000	0.237198
1435.000000	0.235815
1434.000000	0.234629
1433.000000	0.233202
1432.000000	0.231636
1431.000000	0.230114
1430.000000	0.228579
1429.000000	0.227069
1428.000000	0.225318
1427.000000	0.223681
1426.000000	0.221919
1425.000000	0.220182
1424.000000	0.218439
1423.000000	0.216445
1422.000000	0.214514
1421.000000	0.212668
1420.000000	0.210573
1419.000000	0.208574
1418.000000	0.206428
1417.000000	0.204327
1416.000000	0.202388
1415.000000	0.200068
1414.000000	0.197848
1413.000000	0.195772
1412.000000	0.193622
1411.000000	0.191495
1410.000000	0.189390
1409.000000	0.187353
1408.000000	0.185256
1407.000000	0.183159
1406.000000	0.181179
1405.000000	0.179216
1404.000000	0.177406
1403.000000	0.175525
1402.000000	0.173692
1401.000000	0.171901
1400.000000	0.170107
1399.000000	0.168402
1398.000000	0.166743
1397.000000	0.165133
1396.000000	0.163525
1395.000000	0.162047
1394.000000	0.160621
1393.000000	0.159133
1392.000000	0.157767
1391.000000	0.156317
1390.000000	0.154907
1389.000000	0.153721
1388.000000	0.152530
1387.000000	0.151368
1386.000000	0.150354
1385.000000	0.149261
1384.000000	0.148137
1383.000000	0.147180
1382.000000	0.146318
1381.000000	0.145517
1380.000000	0.144701
1379.000000	0.143745
1378.000000	0.142884
1377.000000	0.142214
1376.000000	0.141561
1375.000000	0.140845
1374.000000	0.140175
1373.000000	0.139535
1372.000000	0.138927
1371.000000	0.138409
1370.000000	0.137737
1369.000000	0.137125
1368.000000	0.136678
1367.000000	0.136207
1366.000000	0.135625
1365.000000	0.135123
1364.000000	0.134742
1363.000000	0.134222
1362.000000	0.133787
1361.000000	0.133309
1360.000000	0.132833
1359.000000	0.132396
1358.000000	0.131892
1357.000000	0.131432
1356.000000	0.130959
1355.000000	0.130437
1354.000000	0.129910
1353.000000	0.129352
1352.000000	0.128809
1351.000000	0.128350
1350.000000	0.127801
1349.000000	0.127247
1348.000000	0.126727
1347.000000	0.126276
1346.000000	0.125975
1345.000000	0.125572
1344.000000	0.125151
1343.000000	0.124582
1342.000000	0.124121
1341.000000	0.123928
1340.000000	0.123482
1339.000000	0.123085
1338.000000	0.122839
1337.000000	0.122462
1336.000000	0.122058
1335.000000	0.121842
1334.000000	0.121655
1333.000000	0.121521
1332.000000	0.121315
1331.000000	0.120969
1330.000000	0.120581
1329.000000	0.120552
1328.000000	0.120437
1327.000000	0.120326
1326.000000	0.120142
1325.000000	0.120022
1324.000000	0.119834
1323.000000	0.119671
1322.000000	0.119730
1321.000000	0.119421
1320.000000	0.119450
1319.000000	0.119420
1318.000000	0.119251
1317.000000	0.119244
1316.000000	0.119073
1315.000000	0.119002
1314.000000	0.119036
1313.000000	0.119000
1312.000000	0.118765
1311.000000	0.118667
1310.000000	0.118593
1309.000000	0.118623
1308.000000	0.118544
1307.000000	0.118577
1306.000000	0.118531
1305.000000	0.118394
1304.000000	0.118306
1303.000000	0.118197
1302.000000	0.118268
1301.000000	0.118359
1300.000000	0.118290
1299.000000	0.118184
1298.000000	0.118245
1297.000000	0.118359
1296.000000	0.118314
1295.000000	0.118342
1294.000000	0.118546
1293.000000	0.118545
1292.000000	0.118713
1291.000000	0.118730
1290.000000	0.118851
1289.000000	0.118967
1288.000000	0.119199
1287.000000	0.119340
1286.000000	0.119417
1285.000000	0.119515
1284.000000	0.119543
1283.000000	0.119724
1282.000000	0.119925
1281.000000	0.119994
1280.000000	0.120063
1279.000000	0.120142
1278.000000	0.120247
1277.000000	0.120446
1276.000000	0.120468
1275.000000	0.120650
1274.000000	0.120778
1273.000000	0.120798
1272.000000	0.121036
1271.000000	0.121084
1270.000000	0.121223
1269.000000	0.121307
1268.000000	0.121226
1267.000000	0.121387
1266.000000	0.121350
1265.000000	0.121364
1264.000000	0.121412
1263.000000	0.121687
1262.000000	0.121536
1261.000000	0.121574
1260.000000	0.121628
1259.000000	0.121531
1258.000000	0.121672
1257.000000	0.121931
1256.000000	0.121771
1255.000000	0.121702
1254.000000	0.121897
1253.000000	0.121923
1252.000000	0.122126
1251.000000	0.122232
1250.000000	0.122356
1249.000000	0.122498
1248.000000	0.122647
1247.000000	0.122819
1246.000000	0.122899
1245.000000	0.123178
1244.000000	0.123441
1243.000000	0.123826
1242.000000	0.124060
1241.000000	0.124230
1240.000000	0.124610
1239.000000	0.124952
1238.000000	0.125359
1237.000000	0.125799
1236.000000	0.126145
1235.000000	0.126577
1234.000000	0.127048
1233.000000	0.127509
1232.000000	0.128034
1231.000000	0.128581
1230.000000	0.129035
1229.000000	0.129497
1228.000000	0.130042
1227.000000	0.130577
1226.000000	0.131096
1225.000000	0.131657
1224.000000	0.132105
1223.000000	0.132794
1222.000000	0.133370
1221.000000	0.133787
1220.000000	0.134220
1219.000000	0.134678
1218.000000	0.135208
1217.000000	0.135740
1216.000000	0.136006
1215.000000	0.136435
1214.000000	0.136908
1213.000000	0.137294
1212.000000	0.137621
1211.000000	0.137917
1210.000000	0.138276
1209.000000	0.138528
1208.000000	0.138692
1207.000000	0.139019
1206.000000	0.139512
1205.000000	0.139685
1204.000000	0.139759
1203.000000	0.140184
1202.000000	0.140388
1201.000000	0.140580
1200.000000	0.140685
1199.000000	0.140903
1198.000000	0.141050
1197.000000	0.141255
1196.000000	0.141505
1195.000000	0.141598
1194.000000	0.141542
1193.000000	0.141808
1192.000000	0.141918
1191.000000	0.141911
1190.000000	0.142038
1189.000000	0.142117
1188.000000	0.142107
1187.000000	0.142065
1186.000000	0.142111
1185.000000	0.142004
1184.000000	0.141845
1183.000000	0.141681
1182.000000	0.141514
1181.000000	0.141230
1180.000000	0.140950
1179.000000	0.140693
1178.000000	0.140307
1177.000000	0.139911
1176.000000	0.139531
1175.000000	0.139121
1174.000000	0.138713
1173.000000	0.138256
1172.000000	0.137760
1171.000000	0.137239
1170.000000	0.136651
1169.000000	0.136220
1168.000000	0.135726
1167.000000	0.135104
1166.000000	0.134516
1165.000000	0.133917
1164.000000	0.133315
1163.000000	0.132669
1162.000000	0.132168
1161.000000	0.131672
1160.000000	0.131098
1159.000000	0.130512
1158.000000	0.129919
1157.000000	0.129433
1156.000000	0.128964
1155.000000	0.128428
1154.000000	0.127974
1153.000000	0.127589
1152.000000	0.127156
1151.000000	0.126767
1150.000000	0.126357
1149.000000	0.125989
1148.000000	0.125716
1147.000000	0.125299
1146.000000	0.124953
1145.000000	0.124718
1144.000000	0.124370
1143.000000	0.123954
1142.000000	0.123644
1141.000000	0.123392
1140.000000	0.123131
1139.000000	0.122910
1138.000000	0.122643
1137.000000	0.122418
1136.000000	0.122172
1135.000000	0.121880
1134.000000	0.121721
1133.000000	0.121435
1132.000000	0.121334
1131.000000	0.121215
1130.000000	0.121100
1129.000000	0.121029
1128.000000	0.120873
1127.000000	0.120812
1126.000000	0.120804
1125.000000	0.120691
1124.000000	0.120655
1123.000000	0.120667
1122.000000	0.120607
1121.000000	0.120629
1120.000000	0.120589
1119.000000	0.120524
1118.000000	0.120661
1117.000000	0.120763
1116.000000	0.120817
1115.000000	0.120823
1114.000000	0.120765
1113.000000	0.120787
1112.000000	0.120888
1111.000000	0.121002
1110.000000	0.121109
1109.000000	0.121224
1108.000000	0.121279
1107.000000	0.121349
1106.000000	0.121330
1105.000000	0.121401
1104.000000	0.121494
1103.000000	0.121584
1102.000000	0.121646
1101.000000	0.121784
1100.000000	0.121942
1099.000000	0.122028
1098.000000	0.122060
1097.000000	0.122199
1096.000000	0.122273
1095.000000	0.122306
1094.000000	0.122379
1093.000000	0.122632
1092.000000	0.122664
1091.000000	0.122816
1090.000000	0.122884
1089.000000	0.123019
1088.000000	0.123096
1087.000000	0.123160
1086.000000	0.123325
1085.000000	0.123536
1084.000000	0.123640
1083.000000	0.123736
1082.000000	0.123969
1081.000000	0.124064
1080.000000	0.124164
1079.000000	0.124336
1078.000000	0.124434
1077.000000	0.124781
1076.000000	0.124843
1075.000000	0.124922
1074.000000	0.125095
1073.000000	0.125298
1072.000000	0.125393
1071.000000	0.125553
1070.000000	0.125734
1069.000000	0.125784
1068.000000	0.126092
1067.000000	0.126119
1066.000000	0.126393
1065.000000	0.126574
1064.000000	0.126741
1063.000000	0.126910
1062.000000	0.127062
1061.000000	0.127225
1060.000000	0.127359
1059.000000	0.127517
1058.000000	0.127738
1057.000000	0.127931
1056.000000	0.128017
1055.000000	0.128257
1054.000000	0.128336
1053.000000	0.128462
1052.000000	0.128639
1051.000000	0.128748
1050.000000	0.129013
1049.000000	0.129200
1048.000000	0.129340
1047.000000	0.129427
1046.000000	0.129677
1045.000000	0.129885
1044.000000	0.130009
1043.000000	0.130157
1042.000000	0.130255
1041.000000	0.130531
1040.000000	0.130512
1039.000000	0.130699
1038.000000	0.130820
1037.000000	0.130990
1036.000000	0.131165
1035.000000	0.131236
1034.000000	0.131286
1033.000000	0.131527
1032.000000	0.131600
1031.000000	0.131782
1030.000000	0.131819
1029.000000	0.131965
1028.000000	0.132198
1027.000000	0.132268
1026.000000	0.132369
1025.000000	0.132572
1024.000000	0.132830
1023.000000	0.132951
1022.000000	0.133036
1021.000000	0.133210
1020.000000	0.133219
1019.000000	0.133322
1018.000000	0.133458
1017.000000	0.133670
1016.000000	0.133843
1015.000000	0.133965
1014.000000	0.134081
1013.000000	0.134125
1012.000000	0.134289
1011.000000	0.134202
1010.000000	0.134467
1009.000000	0.134574
1008.000000	0.134595
1007.000000	0.134686
1006.000000	0.134720
1005.000000	0.134845
1004.000000	0.135038
1003.000000	0.135093
1002.000000	0.135149
1001.000000	0.135317
1000.000000	0.135459
999.000000	0.135509
998.000000	0.135625
997.000000	0.135764
996.000000	0.135835
995.000000	0.136067
994.000000	0.136237
993.000000	0.136361
992.000000	0.136387
991.000000	0.136418
990.000000	0.136516
989.000000	0.136630
988.000000	0.136773
987.000000	0.136860
986.000000	0.136934
985.000000	0.137123
984.000000	0.137073
983.000000	0.137047
982.000000	0.137257
981.000000	0.137445
980.000000	0.137534
979.000000	0.137636
978.000000	0.137751
977.000000	0.137914
976.000000	0.137982
975.000000	0.138014
974.000000	0.138128
973.000000	0.138249
972.000000	0.138328
971.000000	0.138433
970.000000	0.138461
969.000000	0.138540
968.000000	0.138639
967.000000	0.138692
966.000000	0.138883
965.000000	0.139104
964.000000	0.139156
963.000000	0.139218
962.000000	0.139458
961.000000	0.139465
960.000000	0.139395
959.000000	0.139504
958.000000	0.139640
957.000000	0.139786
956.000000	0.140066
955.000000	0.140146
954.000000	0.140170
953.000000	0.140375
952.000000	0.140496
951.000000	0.140668
950.000000	0.140911
949.000000	0.140970
948.000000	0.141086
947.000000	0.141259
946.000000	0.141292
945.000000	0.141468
944.000000	0.141748
943.000000	0.141888
942.000000	0.142007
941.000000	0.142281
940.000000	0.142501
939.000000	0.142582
938.000000	0.142747
937.000000	0.143026
936.000000	0.143259
935.000000	0.143405
934.000000	0.143763
933.000000	0.144087
932.000000	0.144287
931.000000	0.144573
930.000000	0.144651
929.000000	0.144833
928.000000	0.145143
927.000000	0.145483
926.000000	0.145734
925.000000	0.145714
924.000000	0.145779
923.000000	0.146025
922.000000	0.146295
921.000000	0.146492
920.000000	0.146548
919.000000	0.146657
918.000000	0.147065
917.000000	0.147608
916.000000	0.147720
915.000000	0.147604
914.000000	0.147798
913.000000	0.148133
912.000000	0.148227
911.000000	0.148549
910.000000	0.148924
909.000000	0.148831
908.000000	0.148910
907.000000	0.149413
906.000000	0.149743
905.000000	0.149944
904.000000	0.150331
903.000000	0.150468
902.000000	0.150697
901.000000	0.150556
900.000000	0.150686
899.000000	0.151093
898.000000	0.151053
897.000000	0.151157
896.000000	0.151266
895.000000	0.151334
894.000000	0.151232
893.000000	0.151946
892.000000	0.152283
891.000000	0.152583
890.000000	0.152239
889.000000	0.152702
888.000000	0.152862
887.000000	0.152400
886.000000	0.153223
885.000000	0.153008
884.000000	0.153753
883.000000	0.153642
882.000000	0.153737
881.000000	0.154596
880.000000	0.154878
879.000000	0.155428
878.000000	0.155402
877.000000	0.155802
876.000000	0.155776
875.000000	0.156440
874.000000	0.156781
873.000000	0.156812
872.000000	0.157198
871.000000	0.156998
870.000000	0.157504
869.000000	0.157460
868.000000	0.158237
867.000000	0.159053
866.000000	0.159693
865.000000	0.160220
864.000000	0.159966
863.000000	0.160482
862.000000	0.159925
861.000000	0.160786
860.000000	0.161567
859.000000	0.161543
858.000000	0.162622
857.000000	0.162736
856.000000	0.162726
855.000000	0.163229
854.000000	0.165537
853.000000	0.164980
852.000000	0.163550
851.000000	0.164778
850.000000	0.164317
849.000000	0.165467
848.000000	0.166189
847.000000	0.166725
846.000000	0.168371
845.000000	0.167200
844.000000	0.168619
843.000000	0.165999
842.000000	0.170308
841.000000	0.168198
840.000000	0.170431
839.000000	0.168549
838.000000	0.170863
837.000000	0.172713
836.000000	0.172880
835.000000	0.172022
834.000000	0.173072
833.000000	0.173812
832.000000	0.173141
831.000000	0.173911
830.000000	0.174670
829.000000	0.174671
828.000000	0.175359
827.000000	0.176047
826.000000	0.175075
825.000000	0.176734
824.000000	0.176499
823.000000	0.177942
822.000000	0.179890
821.000000	0.178815
820.000000	0.179507
819.000000	0.180438
818.000000	0.180708
817.000000	0.180980
816.000000	0.180868
815.000000	0.181445
814.000000	0.181570
813.000000	0.182621
812.000000	0.182165
811.000000	0.183512
810.000000	0.184963
809.000000	0.184709
808.000000	0.185614
807.000000	0.184875
806.000000	0.186448
805.000000	0.186574
804.000000	0.185178
803.000000	0.187949
802.000000	0.188350
801.000000	0.189019
800.000000	0.190271
799.000000	0.189454
798.000000	0.189673
797.000000	0.191299
796.000000	0.190819
795.000000	0.192649
794.000000	0.193274
793.000000	0.193365
792.000000	0.194243
791.000000	0.194308
790.000000	0.195556
789.000000	0.195710
788.000000	0.196132
787.000000	0.196939
786.000000	0.197698
785.000000	0.197665
784.000000	0.198700
783.000000	0.198789
782.000000	0.199854
781.000000	0.201191
780.000000	0.201091
779.000000	0.202342
778.000000	0.203403
777.000000	0.203625
776.000000	0.203687
775.000000	0.205001
774.000000	0.205520
773.000000	0.206362
772.000000	0.207459
771.000000	0.207462
770.000000	0.208072
769.000000	0.208672
768.000000	0.209829
767.000000	0.210106
766.000000	0.210442
765.000000	0.210714
764.000000	0.212532
763.000000	0.213304
762.000000	0.214274
761.000000	0.214225
760.000000	0.215929
759.000000	0.216359
758.000000	0.217147
757.000000	0.217922
756.000000	0.218816
755.000000	0.219678
754.000000	0.220194
753.000000	0.220920
752.000000	0.221901
751.000000	0.222719
750.000000	0.223529
749.000000	0.223778
748.000000	0.225218
747.000000	0.225743
746.000000	0.227439
745.000000	0.228167
744.000000	0.228402
743.000000	0.229602
742.000000	0.231455
741.000000	0.231266
740.000000	0.231755
739.000000	0.232989
738.000000	0.233402
737.000000	0.234682
736.000000	0.235443
735.000000	0.236430
734.000000	0.238103
733.000000	0.238731
732.000000	0.239104
731.000000	0.240036
730.000000	0.241232
729.000000	0.242220
728.000000	0.243527
727.000000	0.244433
726.000000	0.244931
725.000000	0.246223
724.000000	0.247259
723.000000	0.247895
722.000000	0.249158
721.000000	0.249996
720.000000	0.250568
719.000000	0.251510
718.000000	0.253295
717.000000	0.254739
716.000000	0.255383
715.000000	0.256231
714.000000	0.257414
713.000000	0.258437
712.000000	0.259491
711.000000	0.260609
710.000000	0.262020
709.000000	0.262657
708.000000	0.263549
707.000000	0.264967
706.000000	0.266091
705.000000	0.267276
704.000000	0.268546
703.000000	0.269499
702.000000	0.270360
701.000000	0.271359
700.000000	0.272535
699.000000	0.274180
698.000000	0.275674
697.000000	0.276548
696.000000	0.277879
695.000000	0.279587
694.000000	0.280510
693.000000	0.281561
692.000000	0.282653
691.000000	0.283789
690.000000	0.285582
689.000000	0.286814
688.000000	0.288412
687.000000	0.290018
686.000000	0.291018
685.000000	0.292255
684.000000	0.293374
683.000000	0.294884
682.000000	0.296251
681.000000	0.296959
680.000000	0.298721
679.000000	0.300129
678.000000	0.301180
677.000000	0.302823
676.000000	0.304558
675.000000	0.305566
674.000000	0.306813
673.000000	0.308343
672.000000	0.309965
671.000000	0.311039
670.000000	0.312480
669.000000	0.314356
668.000000	0.315568
667.000000	0.316535
666.000000	0.317809
665.000000	0.319695
664.000000	0.321552
663.000000	0.322692
662.000000	0.324201
661.000000	0.325346
660.000000	0.326676
659.000000	0.328511
658.000000	0.330215
657.000000	0.331455
656.000000	0.333182
655.000000	0.334099
654.000000	0.335978
653.000000	0.337444
652.000000	0.338853
651.000000	0.340079
650.000000	0.342128
649.000000	0.343504
648.000000	0.345272
647.000000	0.346930
646.000000	0.349064
645.000000	0.350188
644.000000	0.351507
643.000000	0.353299
642.000000	0.355027
641.000000	0.356581
640.000000	0.358221
639.000000	0.358952
638.000000	0.360897
637.000000	0.362972
636.000000	0.364462
635.000000	0.366092
634.000000	0.367867
633.000000	0.369000
632.000000	0.371142
631.000000	0.372661
630.000000	0.374602
629.000000	0.376153
628.000000	0.378311
627.000000	0.379809
626.000000	0.381773
625.000000	0.383399
624.000000	0.385642
623.000000	0.387084
622.000000	0.388437
621.000000	0.390099
620.000000	0.391896
619.000000	0.393487
618.000000	0.395387
617.000000	0.397373
616.000000	0.399257
615.000000	0.401263
614.000000	0.402995
613.000000	0.404705
612.000000	0.406323
611.000000	0.408267
610.000000	0.409894
609.000000	0.411564
608.000000	0.413487
607.000000	0.415400
606.000000	0.417874
605.000000	0.419369
604.000000	0.420984
603.000000	0.422952
602.000000	0.424821
601.000000	0.426644
600.000000	0.428752
599.000000	0.430938
598.000000	0.432373
597.000000	0.434438
596.000000	0.436301
595.000000	0.438444
594.000000	0.440183
593.000000	0.442371
592.000000	0.444663
591.000000	0.446090
590.000000	0.448478
589.000000	0.450195
588.000000	0.452187
587.000000	0.454328
586.000000	0.456381
585.000000	0.458300
584.000000	0.460056
583.000000	0.462630
582.000000	0.464769
581.000000	0.466708
580.000000	0.468752
579.000000	0.471269
578.000000	0.473051
577.000000	0.474723
576.000000	0.477492
575.000000	0.479259
574.000000	0.481630
573.000000	0.483847
572.000000	0.485905
571.000000	0.488059
570.000000	0.490035
569.000000	0.492727
568.000000	0.494819
567.000000	0.496557
566.000000	0.499096
565.000000	0.501487
564.000000	0.503819
563.000000	0.505874
562.000000	0.507781
561.000000	0.510808
560.000000	0.512763
559.000000	0.515156
558.000000	0.517656
557.000000	0.519509
556.000000	0.521721
555.000000	0.524083
554.000000	0.526810
553.000000	0.529008
552.000000	0.531379
551.000000	0.533442
550.000000	0.535754
549.000000	0.538434
548.000000	0.540429
547.000000	0.543063
546.000000	0.545243
545.000000	0.547927
544.000000	0.549911
543.000000	0.552173
542.000000	0.555052
541.000000	0.557074
540.000000	0.559887
539.000000	0.562402
538.000000	0.564849
537.000000	0.567364
536.000000	0.569740
535.000000	0.571753
534.000000	0.574390
533.000000	0.576750
532.000000	0.579141
531.000000	0.581832
530.000000	0.584108
529.000000	0.586625
528.000000	0.589473
527.000000	0.591677
526.000000	0.594575
525.000000	0.596924
524.000000	0.599912
523.000000	0.602369
522.000000	0.604988
521.000000	0.607594
520.000000	0.610320
519.000000	0.612640
518.000000	0.615268
517.000000	0.618010
516.000000	0.620972
515.000000	0.623612
514.000000	0.625987
513.000000	0.628474
512.000000	0.631318
511.000000	0.633798
510.000000	0.636371
509.000000	0.639227
508.000000	0.641874
507.000000	0.644804
506.000000	0.647719
505.000000	0.650571
504.000000	0.653601
503.000000	0.656381
502.000000	0.658582
501.000000	0.661236
500.000000	0.664306
499.000000	0.666879
498.000000	0.669887
497.000000	0.672105
496.000000	0.675253
495.000000	0.678463
494.000000	0.681162
493.000000	0.684180
492.000000	0.687572
491.000000	0.690501
490.000000	0.693183
489.000000	0.695893
488.000000	0.698652
487.000000	0.701213
486.000000	0.704597
485.000000	0.707712
484.000000	0.709978
483.000000	0.713022
482.000000	0.716905
481.000000	0.719572
480.000000	0.721930
479.000000	0.724285
478.000000	0.726884
477.000000	0.729738
476.000000	0.732630
475.000000	0.735516
474.000000	0.738410
473.000000	0.741379
472.000000	0.744366
471.000000	0.747345
470.000000	0.750182
469.000000	0.752973
468.000000	0.755671
467.000000	0.758626
466.000000	0.761895
465.000000	0.764651
464.000000	0.767430
463.000000	0.770654
462.000000	0.773834
461.000000	0.777069
460.000000	0.780163
459.000000	0.783464
458.000000	0.786828
457.000000	0.790062
456.000000	0.793132
455.000000	0.796073
454.000000	0.799284
453.000000	0.803295
452.000000	0.806736
451.000000	0.809646
450.000000	0.812739
449.000000	0.816051
448.000000	0.819575
447.000000	0.823516
446.000000	0.826778
445.000000	0.830164
444.000000	0.833396
443.000000	0.836436
442.000000	0.839774
441.000000	0.842686
440.000000	0.845580
439.000000	0.848880
438.000000	0.852492
437.000000	0.856027
436.000000	0.859048
435.000000	0.861910
434.000000	0.864709
433.000000	0.867862
432.000000	0.871274
431.000000	0.874176
430.000000	0.878168
429.000000	0.881314
428.000000	0.884020
427.000000	0.887580
426.000000	0.890573
425.000000	0.894506
424.000000	0.898157
423.000000	0.900753
422.000000	0.903589
421.000000	0.907280
420.000000	0.911216
419.000000	0.915045
418.000000	0.918033
417.000000	0.920867
416.000000	0.924491
415.000000	0.928055
414.000000	0.931038
413.000000	0.934506
412.000000	0.937858
411.000000	0.941355
410.000000	0.944516
409.000000	0.948031
408.000000	0.951551
407.000000	0.954656
406.000000	0.958409
405.000000	0.962365
404.000000	0.965163
403.000000	0.967754
402.000000	0.971405
401.000000	0.974503
400.000000	0.977433
399.000000	0.981270
398.000000	0.984451
397.000000	0.988552
396.000000	0.991486
395.000000	0.993932
394.000000	0.997188
393.000000	1.001392
392.000000	1.004551
391.000000	1.007142
390.000000	1.009979
389.000000	1.012958
388.000000	1.016799
387.000000	1.019304
386.000000	1.022553
385.000000	1.027675
384.000000	1.030468
383.000000	1.032241
382.000000	1.034833
381.000000	1.038911
380.000000	1.041501
379.000000	1.043900
378.000000	1.049515
377.000000	1.050814
376.000000	1.054287
375.000000	1.055548
374.000000	1.057121
373.000000	1.059929
372.000000	1.062505
371.000000	1.067820
370.000000	1.070283
369.000000	1.070592
368.000000	1.072549
367.000000	1.075050
366.000000	1.074535
365.000000	1.077886
364.000000	1.083976
363.000000	1.084386
362.000000	1.087145
361.000000	1.089999
360.000000	1.091037
359.000000	1.089956
358.000000	1.093751
357.000000	1.095259
356.000000	1.097547
355.000000	1.097094
354.000000	1.101199
353.000000	1.104064
352.000000	1.108523
351.000000	1.106112
350.000000	1.110396
349.000000	1.110607
348.000000	1.111802
347.000000	1.115502
346.000000	1.113398
345.000000	1.116359
344.000000	1.116912
343.000000	1.120806
342.000000	1.123240
341.000000	1.124282
340.000000	1.127510
339.000000	1.127273
338.000000	1.131372
337.000000	1.133711
336.000000	1.133139
335.000000	1.139204
334.000000	1.134900
333.000000	1.134745
332.000000	1.135480
331.000000	1.142451
330.000000	1.142315
329.000000	1.141880
328.000000	1.142688
327.000000	1.149609
326.000000	1.147582
325.000000	1.147566
324.000000	1.153467
323.000000	1.151363
322.000000	1.151899
321.000000	1.152854
320.000000	1.153306
319.000000	1.154105
318.000000	1.157608
317.000000	1.158215
316.000000	1.152162
315.000000	1.158489
314.000000	1.157083
313.000000	1.159544
312.000000	1.158995
311.000000	1.160097
310.000000	1.161176
309.000000	1.159484
308.000000	1.161961
307.000000	1.162859
306.000000	1.158497
305.000000	1.159771
304.000000	1.159214
303.000000	1.159503
302.000000	1.159083
301.000000	1.154461
300.000000	1.155606
299.000000	1.154260
298.000000	1.154634
297.000000	1.155556
296.000000	1.157940
295.000000	1.155325
294.000000	1.152602
293.000000	1.150463
292.000000	1.152833
291.000000	1.148109
290.000000	1.149904
289.000000	1.148118
288.000000	1.144972
287.000000	1.142540
286.000000	1.142638
285.000000	1.140723
284.000000	1.139032
283.000000	1.138362
282.000000	1.132998
281.000000	1.128586
280.000000	1.124163
279.000000	1.126353
278.000000	1.126149
277.000000	1.119319
276.000000	1.114907
275.000000	1.114402
274.000000	1.112300
273.000000	1.107503
272.000000	1.104803
271.000000	1.103618
270.000000	1.100883
269.000000	1.096896
268.000000	1.093501
267.000000	1.090292
266.000000	1.088757
265.000000	1.084441
264.000000	1.080905
263.000000	1.073365
262.000000	1.068956
261.000000	1.067681
260.000000	1.062271
259.000000	1.056532
258.000000	1.053219
257.000000	1.051609
256.000000	1.046483
255.000000	1.040683
254.000000	1.036267
253.000000	1.030239
252.000000	1.025893
251.000000	1.020191
250.000000	1.014138
249.000000	1.010395
248.000000	1.005332
247.000000	0.999632
246.000000	0.994323
245.000000	0.988720
244.000000	0.984639
243.000000	0.980404
242.000000	0.973556
241.000000	0.970076
240.000000	0.968343
239.000000	0.964815
238.000000	0.961483
237.000000	0.957816
236.000000	0.952918
235.000000	0.950178
234.000000	0.948892
233.000000	0.946693
232.000000	0.943818
231.000000	0.940890
230.000000	0.938639
229.000000	0.934937
228.000000	0.932015
227.000000	0.928278
226.000000	0.924511
225.000000	0.920204
224.000000	0.916409
223.000000	0.911454
222.000000	0.908615
221.000000	0.908531
220.000000	0.902750
219.000000	0.894659
218.000000	0.888522
217.000000	0.883551
216.000000	0.879756
215.000000	0.873725
214.000000	0.862362
213.000000	0.854252
212.000000	0.846026
211.000000	0.839206
210.000000	0.831220
209.000000	0.822586
208.000000	0.812896
207.000000	0.802614
206.000000	0.790861
205.000000	0.776609
204.000000	0.762727
203.000000	0.750219
202.000000	0.740993
201.000000	0.724436
200.000000	0.708475
