PE IR       SUBTECH     SPECTRUM    ASCII       PEDS        4.00        
   -1
A10-F002_1.ASC
23/09/14
11:33:24.00
23/09/14
11:53:14.00
uco
Sample 002 By uco Date Thursday, September 14 2023
450.000000
#HDR
-1
-1
#GR
cm-1
%T
1.0
0.0
4000.000000
-1.000000
3551
8
99.698340
83.321447
#DATA
4000.000000	99.570147
3999.000000	99.571426
3998.000000	99.573321
3997.000000	99.575178
3996.000000	99.576355
3995.000000	99.575853
3994.000000	99.572613
3993.000000	99.566653
3992.000000	99.559871
3991.000000	99.555089
3990.000000	99.553761
3989.000000	99.554494
3988.000000	99.554199
3987.000000	99.551011
3986.000000	99.545841
3985.000000	99.541081
3984.000000	99.538272
3983.000000	99.537258
3982.000000	99.537304
3981.000000	99.538225
3980.000000	99.540029
3979.000000	99.542030
3978.000000	99.543041
3977.000000	99.542594
3976.000000	99.541506
3975.000000	99.540946
3974.000000	99.541165
3973.000000	99.541620
3972.000000	99.542274
3971.000000	99.544205
3970.000000	99.548501
3969.000000	99.554742
3968.000000	99.560851
3967.000000	99.564534
3966.000000	99.565035
3965.000000	99.563657
3964.000000	99.562669
3963.000000	99.563319
3962.000000	99.564335
3961.000000	99.562467
3960.000000	99.555298
3959.000000	99.543925
3958.000000	99.532835
3957.000000	99.526874
3956.000000	99.527490
3955.000000	99.531788
3954.000000	99.535235
3953.000000	99.535385
3952.000000	99.533376
3951.000000	99.532244
3950.000000	99.534093
3949.000000	99.538745
3948.000000	99.544487
3947.000000	99.549411
3946.000000	99.552079
3945.000000	99.551548
3944.000000	99.547819
3943.000000	99.542541
3942.000000	99.538531
3941.000000	99.537981
3940.000000	99.540906
3939.000000	99.545323
3938.000000	99.548831
3937.000000	99.550278
3936.000000	99.550247
3935.000000	99.549841
3934.000000	99.549353
3933.000000	99.548548
3932.000000	99.547916
3931.000000	99.548601
3930.000000	99.550816
3929.000000	99.553271
3928.000000	99.554442
3927.000000	99.553658
3926.000000	99.551208
3925.000000	99.548201
3924.000000	99.546295
3923.000000	99.546735
3922.000000	99.549369
3921.000000	99.552944
3920.000000	99.556432
3919.000000	99.559684
3918.000000	99.562662
3917.000000	99.564724
3916.000000	99.565295
3915.000000	99.564854
3914.000000	99.564580
3913.000000	99.565470
3912.000000	99.567858
3911.000000	99.571192
3910.000000	99.573736
3909.000000	99.573309
3908.000000	99.568784
3907.000000	99.560968
3906.000000	99.552105
3905.000000	99.544835
3904.000000	99.541317
3903.000000	99.542245
3902.000000	99.546275
3901.000000	99.550763
3900.000000	99.553569
3899.000000	99.554176
3898.000000	99.553293
3897.000000	99.552091
3896.000000	99.551969
3895.000000	99.554496
3894.000000	99.560340
3893.000000	99.567902
3892.000000	99.573157
3891.000000	99.572556
3890.000000	99.566428
3889.000000	99.558294
3888.000000	99.551399
3887.000000	99.546825
3886.000000	99.544166
3885.000000	99.542911
3884.000000	99.542821
3883.000000	99.543534
3882.000000	99.543836
3881.000000	99.542168
3880.000000	99.538564
3879.000000	99.535104
3878.000000	99.533603
3877.000000	99.533753
3876.000000	99.533811
3875.000000	99.532858
3874.000000	99.532460
3873.000000	99.535300
3872.000000	99.541980
3871.000000	99.549561
3870.000000	99.553541
3869.000000	99.552352
3868.000000	99.548641
3867.000000	99.545445
3866.000000	99.543093
3865.000000	99.540150
3864.000000	99.535946
3863.000000	99.531469
3862.000000	99.528116
3861.000000	99.526719
3860.000000	99.527379
3859.000000	99.529485
3858.000000	99.532022
3857.000000	99.534569
3856.000000	99.537692
3855.000000	99.541554
3854.000000	99.545403
3853.000000	99.548641
3852.000000	99.550575
3851.000000	99.551337
3850.000000	99.551430
3849.000000	99.550861
3848.000000	99.549725
3847.000000	99.548679
3846.000000	99.548871
3845.000000	99.551563
3844.000000	99.557282
3843.000000	99.564973
3842.000000	99.572232
3841.000000	99.577085
3840.000000	99.579249
3839.000000	99.579241
3838.000000	99.576382
3837.000000	99.569530
3836.000000	99.559844
3835.000000	99.550510
3834.000000	99.543852
3833.000000	99.540022
3832.000000	99.538160
3831.000000	99.537617
3830.000000	99.537801
3829.000000	99.537795
3828.000000	99.536830
3827.000000	99.535038
3826.000000	99.533607
3825.000000	99.534341
3824.000000	99.538752
3823.000000	99.546192
3822.000000	99.551970
3821.000000	99.549911
3820.000000	99.539650
3819.000000	99.528408
3818.000000	99.523800
3817.000000	99.528109
3816.000000	99.537753
3815.000000	99.546503
3814.000000	99.550388
3813.000000	99.549787
3812.000000	99.547727
3811.000000	99.547695
3810.000000	99.551282
3809.000000	99.556313
3808.000000	99.557461
3807.000000	99.550971
3806.000000	99.539085
3805.000000	99.527735
3804.000000	99.521642
3803.000000	99.522689
3802.000000	99.529449
3801.000000	99.537146
3800.000000	99.541177
3799.000000	99.541502
3798.000000	99.541103
3797.000000	99.542448
3796.000000	99.545901
3795.000000	99.549567
3794.000000	99.551161
3793.000000	99.550173
3792.000000	99.548493
3791.000000	99.548772
3790.000000	99.552057
3789.000000	99.556889
3788.000000	99.560661
3787.000000	99.561149
3786.000000	99.557206
3785.000000	99.549795
3784.000000	99.542547
3783.000000	99.539651
3782.000000	99.542336
3781.000000	99.548047
3780.000000	99.553015
3779.000000	99.555151
3778.000000	99.554620
3777.000000	99.552732
3776.000000	99.551296
3775.000000	99.552175
3774.000000	99.555990
3773.000000	99.561078
3772.000000	99.564218
3771.000000	99.563119
3770.000000	99.558660
3769.000000	99.554246
3768.000000	99.552659
3767.000000	99.553928
3766.000000	99.555912
3765.000000	99.556754
3764.000000	99.557005
3763.000000	99.558911
3762.000000	99.563608
3761.000000	99.569966
3760.000000	99.575854
3759.000000	99.579480
3758.000000	99.579657
3757.000000	99.576244
3756.000000	99.570788
3755.000000	99.565620
3754.000000	99.562091
3753.000000	99.560249
3752.000000	99.560487
3751.000000	99.563704
3750.000000	99.568215
3749.000000	99.570295
3748.000000	99.569006
3747.000000	99.566112
3746.000000	99.561877
3745.000000	99.554584
3744.000000	99.546005
3743.000000	99.540594
3742.000000	99.538538
3741.000000	99.537000
3740.000000	99.535569
3739.000000	99.537093
3738.000000	99.543329
3737.000000	99.550927
3736.000000	99.553841
3735.000000	99.550644
3734.000000	99.546047
3733.000000	99.544357
3732.000000	99.545756
3731.000000	99.548332
3730.000000	99.550133
3729.000000	99.549511
3728.000000	99.546028
3727.000000	99.541807
3726.000000	99.541023
3725.000000	99.546193
3724.000000	99.555696
3723.000000	99.565664
3722.000000	99.572905
3721.000000	99.576260
3720.000000	99.576100
3719.000000	99.573318
3718.000000	99.568816
3717.000000	99.564018
3716.000000	99.561079
3715.000000	99.561539
3714.000000	99.564609
3713.000000	99.567189
3712.000000	99.566679
3711.000000	99.563689
3710.000000	99.560526
3709.000000	99.558092
3708.000000	99.556174
3707.000000	99.554548
3706.000000	99.552857
3705.000000	99.550680
3704.000000	99.548547
3703.000000	99.548256
3702.000000	99.551118
3701.000000	99.555908
3700.000000	99.560204
3699.000000	99.563168
3698.000000	99.565416
3697.000000	99.567528
3696.000000	99.569668
3695.000000	99.571725
3694.000000	99.573138
3693.000000	99.573435
3692.000000	99.573124
3691.000000	99.573283
3690.000000	99.573465
3689.000000	99.571875
3688.000000	99.568930
3687.000000	99.567073
3686.000000	99.566527
3685.000000	99.565234
3684.000000	99.562659
3683.000000	99.561210
3682.000000	99.563347
3681.000000	99.568334
3680.000000	99.573268
3679.000000	99.576535
3678.000000	99.578423
3677.000000	99.578356
3676.000000	99.574708
3675.000000	99.568235
3674.000000	99.562011
3673.000000	99.558610
3672.000000	99.558939
3671.000000	99.561517
3670.000000	99.562512
3669.000000	99.558793
3668.000000	99.551729
3667.000000	99.545534
3666.000000	99.542326
3665.000000	99.540801
3664.000000	99.538694
3663.000000	99.535620
3662.000000	99.533807
3661.000000	99.536604
3660.000000	99.546345
3659.000000	99.562110
3658.000000	99.578435
3657.000000	99.587389
3656.000000	99.585448
3655.000000	99.577256
3654.000000	99.569362
3653.000000	99.563478
3652.000000	99.557383
3651.000000	99.549453
3650.000000	99.541923
3649.000000	99.538878
3648.000000	99.540877
3647.000000	99.544351
3646.000000	99.545187
3645.000000	99.541671
3644.000000	99.535346
3643.000000	99.529926
3642.000000	99.528337
3641.000000	99.530015
3640.000000	99.531432
3639.000000	99.529569
3638.000000	99.524761
3637.000000	99.520324
3636.000000	99.519717
3635.000000	99.523584
3634.000000	99.529055
3633.000000	99.532321
3632.000000	99.531550
3631.000000	99.526174
3630.000000	99.515034
3629.000000	99.500082
3628.000000	99.489400
3627.000000	99.489487
3626.000000	99.498905
3625.000000	99.511757
3624.000000	99.522864
3623.000000	99.530029
3622.000000	99.533549
3621.000000	99.534386
3620.000000	99.533252
3619.000000	99.530728
3618.000000	99.527418
3617.000000	99.524197
3616.000000	99.522137
3615.000000	99.521503
3614.000000	99.521199
3613.000000	99.519902
3612.000000	99.517142
3611.000000	99.512526
3610.000000	99.505022
3609.000000	99.495162
3608.000000	99.487233
3607.000000	99.485555
3606.000000	99.489011
3605.000000	99.492583
3604.000000	99.492892
3603.000000	99.489927
3602.000000	99.485154
3601.000000	99.480305
3600.000000	99.478147
3599.000000	99.481462
3598.000000	99.489832
3597.000000	99.498730
3596.000000	99.503112
3595.000000	99.501300
3594.000000	99.495290
3593.000000	99.488336
3592.000000	99.483078
3591.000000	99.480887
3590.000000	99.481591
3589.000000	99.484225
3588.000000	99.488445
3587.000000	99.493323
3586.000000	99.494969
3585.000000	99.489221
3584.000000	99.476313
3583.000000	99.460636
3582.000000	99.446944
3581.000000	99.437419
3580.000000	99.431796
3579.000000	99.429138
3578.000000	99.428675
3577.000000	99.429628
3576.000000	99.431079
3575.000000	99.431948
3574.000000	99.431299
3573.000000	99.429656
3572.000000	99.429594
3571.000000	99.433309
3570.000000	99.438883
3569.000000	99.440300
3568.000000	99.433230
3567.000000	99.421287
3566.000000	99.412526
3565.000000	99.409827
3564.000000	99.409881
3563.000000	99.409016
3562.000000	99.406402
3561.000000	99.403456
3560.000000	99.401591
3559.000000	99.400288
3558.000000	99.397643
3557.000000	99.393139
3556.000000	99.388992
3555.000000	99.387778
3554.000000	99.389387
3553.000000	99.391615
3552.000000	99.393275
3551.000000	99.394485
3550.000000	99.394063
3549.000000	99.389702
3548.000000	99.381458
3547.000000	99.372953
3546.000000	99.367565
3545.000000	99.364736
3544.000000	99.361950
3543.000000	99.358385
3542.000000	99.354692
3541.000000	99.351411
3540.000000	99.349343
3539.000000	99.349931
3538.000000	99.353677
3537.000000	99.358798
3536.000000	99.362617
3535.000000	99.363645
3534.000000	99.361451
3533.000000	99.355740
3532.000000	99.346948
3531.000000	99.337132
3530.000000	99.329264
3529.000000	99.325553
3528.000000	99.326391
3527.000000	99.329960
3526.000000	99.332719
3525.000000	99.331630
3524.000000	99.326471
3523.000000	99.319156
3522.000000	99.310856
3521.000000	99.301512
3520.000000	99.292352
3519.000000	99.286745
3518.000000	99.287254
3517.000000	99.292706
3516.000000	99.299079
3515.000000	99.302543
3514.000000	99.301426
3513.000000	99.296658
3512.000000	99.291015
3511.000000	99.286908
3510.000000	99.284220
3509.000000	99.281089
3508.000000	99.276935
3507.000000	99.273185
3506.000000	99.270826
3505.000000	99.269126
3504.000000	99.267184
3503.000000	99.265032
3502.000000	99.262574
3501.000000	99.259187
3500.000000	99.255156
3499.000000	99.251946
3498.000000	99.250419
3497.000000	99.249986
3496.000000	99.249824
3495.000000	99.249718
3494.000000	99.249494
3493.000000	99.249327
3492.000000	99.250829
3491.000000	99.255647
3490.000000	99.262284
3489.000000	99.266398
3488.000000	99.265605
3487.000000	99.262214
3486.000000	99.259932
3485.000000	99.259521
3484.000000	99.259115
3483.000000	99.257046
3482.000000	99.252923
3481.000000	99.247238
3480.000000	99.241497
3479.000000	99.237732
3478.000000	99.236375
3477.000000	99.235193
3476.000000	99.231132
3475.000000	99.222881
3474.000000	99.211420
3473.000000	99.199237
3472.000000	99.189659
3471.000000	99.185602
3470.000000	99.187654
3469.000000	99.193821
3468.000000	99.201499
3467.000000	99.208824
3466.000000	99.214111
3465.000000	99.215663
3464.000000	99.213099
3463.000000	99.207780
3462.000000	99.201223
3461.000000	99.194174
3460.000000	99.187724
3459.000000	99.183706
3458.000000	99.183057
3457.000000	99.184936
3456.000000	99.188108
3455.000000	99.191880
3454.000000	99.195023
3453.000000	99.195592
3452.000000	99.192992
3451.000000	99.188773
3450.000000	99.184030
3449.000000	99.177469
3448.000000	99.167707
3447.000000	99.156666
3446.000000	99.148719
3445.000000	99.146546
3444.000000	99.149306
3443.000000	99.154297
3442.000000	99.159061
3441.000000	99.162261
3440.000000	99.163625
3439.000000	99.163209
3438.000000	99.160739
3437.000000	99.156217
3436.000000	99.151067
3435.000000	99.147586
3434.000000	99.146976
3433.000000	99.148626
3432.000000	99.151330
3431.000000	99.154023
3430.000000	99.155257
3429.000000	99.153687
3428.000000	99.149850
3427.000000	99.146106
3426.000000	99.144025
3425.000000	99.142787
3424.000000	99.140759
3423.000000	99.137664
3422.000000	99.134599
3421.000000	99.132969
3420.000000	99.133770
3419.000000	99.136660
3418.000000	99.139117
3417.000000	99.137832
3416.000000	99.131898
3415.000000	99.123978
3414.000000	99.117778
3413.000000	99.115003
3412.000000	99.115103
3411.000000	99.116672
3410.000000	99.118266
3409.000000	99.118817
3408.000000	99.118321
3407.000000	99.117649
3406.000000	99.117200
3405.000000	99.116302
3404.000000	99.114279
3403.000000	99.111367
3402.000000	99.108130
3401.000000	99.104764
3400.000000	99.101433
3399.000000	99.098741
3398.000000	99.097583
3397.000000	99.098688
3396.000000	99.102063
3395.000000	99.106289
3394.000000	99.108743
3393.000000	99.107471
3392.000000	99.102743
3391.000000	99.096086
3390.000000	99.088605
3389.000000	99.081463
3388.000000	99.076961
3387.000000	99.076964
3386.000000	99.080247
3385.000000	99.083325
3384.000000	99.084314
3383.000000	99.084386
3382.000000	99.085459
3381.000000	99.088046
3380.000000	99.091306
3379.000000	99.093395
3378.000000	99.091866
3377.000000	99.085817
3376.000000	99.077949
3375.000000	99.072672
3374.000000	99.071751
3373.000000	99.073345
3372.000000	99.075325
3371.000000	99.077475
3370.000000	99.080044
3369.000000	99.082247
3368.000000	99.082953
3367.000000	99.081213
3366.000000	99.075812
3365.000000	99.066426
3364.000000	99.055804
3363.000000	99.048541
3362.000000	99.046590
3361.000000	99.047570
3360.000000	99.048153
3359.000000	99.047341
3358.000000	99.045856
3357.000000	99.044446
3356.000000	99.043996
3355.000000	99.045542
3354.000000	99.048889
3353.000000	99.052500
3352.000000	99.055475
3351.000000	99.057984
3350.000000	99.059153
3349.000000	99.056823
3348.000000	99.050623
3347.000000	99.043480
3346.000000	99.038576
3345.000000	99.036185
3344.000000	99.034746
3343.000000	99.033377
3342.000000	99.031801
3341.000000	99.029432
3340.000000	99.026606
3339.000000	99.025680
3338.000000	99.028859
3337.000000	99.035204
3336.000000	99.041136
3335.000000	99.043665
3334.000000	99.042300
3333.000000	99.038418
3332.000000	99.034154
3331.000000	99.031474
3330.000000	99.030909
3329.000000	99.030944
3328.000000	99.029342
3327.000000	99.025368
3326.000000	99.020856
3325.000000	99.019300
3324.000000	99.023533
3323.000000	99.033317
3322.000000	99.044947
3321.000000	99.054050
3320.000000	99.058998
3319.000000	99.061144
3318.000000	99.062068
3317.000000	99.061648
3316.000000	99.058762
3315.000000	99.052730
3314.000000	99.044006
3313.000000	99.034538
3312.000000	99.027318
3311.000000	99.024165
3310.000000	99.023900
3309.000000	99.023935
3308.000000	99.023478
3307.000000	99.023423
3306.000000	99.023423
3305.000000	99.021581
3304.000000	99.017614
3303.000000	99.014110
3302.000000	99.013487
3301.000000	99.015168
3300.000000	99.016922
3299.000000	99.017492
3298.000000	99.016681
3297.000000	99.014212
3296.000000	99.009976
3295.000000	99.004906
3294.000000	99.000695
3293.000000	98.998794
3292.000000	98.999788
3291.000000	99.003156
3290.000000	99.007755
3289.000000	99.013217
3288.000000	99.020248
3287.000000	99.028221
3286.000000	99.033403
3285.000000	99.032163
3284.000000	99.025842
3283.000000	99.019866
3282.000000	99.017334
3281.000000	99.016062
3280.000000	99.013189
3279.000000	99.009834
3278.000000	99.009245
3277.000000	99.012278
3276.000000	99.016931
3275.000000	99.021226
3274.000000	99.024155
3273.000000	99.024567
3272.000000	99.021506
3271.000000	99.015999
3270.000000	99.011122
3269.000000	99.009628
3268.000000	99.011826
3267.000000	99.015569
3266.000000	99.017944
3265.000000	99.017402
3264.000000	99.014867
3263.000000	99.012755
3262.000000	99.012799
3261.000000	99.014767
3260.000000	99.016824
3259.000000	99.016827
3258.000000	99.013921
3257.000000	99.009701
3256.000000	99.007231
3255.000000	99.007846
3254.000000	99.009499
3253.000000	99.009473
3252.000000	99.007887
3251.000000	99.007060
3250.000000	99.008321
3249.000000	99.011445
3248.000000	99.016533
3247.000000	99.023672
3246.000000	99.030774
3245.000000	99.034624
3244.000000	99.034876
3243.000000	99.034418
3242.000000	99.034731
3241.000000	99.033336
3240.000000	99.027325
3239.000000	99.017694
3238.000000	99.008701
3237.000000	99.004211
3236.000000	99.005528
3235.000000	99.011223
3234.000000	99.017731
3233.000000	99.021365
3232.000000	99.021195
3231.000000	99.019347
3230.000000	99.017971
3229.000000	99.017209
3228.000000	99.016725
3227.000000	99.017493
3226.000000	99.020456
3225.000000	99.024527
3224.000000	99.027424
3223.000000	99.028168
3222.000000	99.027858
3221.000000	99.028283
3220.000000	99.030265
3219.000000	99.032792
3218.000000	99.033606
3217.000000	99.031445
3216.000000	99.028040
3215.000000	99.027119
3214.000000	99.030754
3213.000000	99.037126
3212.000000	99.041962
3211.000000	99.041783
3210.000000	99.036441
3209.000000	99.029742
3208.000000	99.027291
3207.000000	99.031950
3206.000000	99.041080
3205.000000	99.049344
3204.000000	99.053838
3203.000000	99.055288
3202.000000	99.054853
3201.000000	99.052442
3200.000000	99.048549
3199.000000	99.045229
3198.000000	99.043793
3197.000000	99.042999
3196.000000	99.040700
3195.000000	99.036484
3194.000000	99.032134
3193.000000	99.030526
3192.000000	99.033875
3191.000000	99.041232
3190.000000	99.047559
3189.000000	99.047446
3188.000000	99.040713
3187.000000	99.032524
3186.000000	99.027513
3185.000000	99.025675
3184.000000	99.024838
3183.000000	99.024529
3182.000000	99.025641
3181.000000	99.028246
3180.000000	99.031837
3179.000000	99.036492
3178.000000	99.041828
3177.000000	99.045736
3176.000000	99.046170
3175.000000	99.043862
3174.000000	99.041769
3173.000000	99.042049
3172.000000	99.044523
3171.000000	99.047737
3170.000000	99.050619
3169.000000	99.053262
3168.000000	99.056672
3167.000000	99.061377
3166.000000	99.066037
3165.000000	99.068189
3164.000000	99.066914
3163.000000	99.064087
3162.000000	99.062592
3161.000000	99.063876
3160.000000	99.067401
3159.000000	99.071265
3158.000000	99.073090
3157.000000	99.071707
3156.000000	99.068918
3155.000000	99.068384
3154.000000	99.071679
3153.000000	99.076178
3152.000000	99.077781
3151.000000	99.074983
3150.000000	99.069568
3149.000000	99.064209
3148.000000	99.060566
3147.000000	99.059196
3146.000000	99.059984
3145.000000	99.062396
3144.000000	99.065666
3143.000000	99.068940
3142.000000	99.071632
3141.000000	99.074308
3140.000000	99.078864
3139.000000	99.086475
3138.000000	99.095001
3137.000000	99.099817
3136.000000	99.098091
3135.000000	99.091760
3134.000000	99.085776
3133.000000	99.083965
3132.000000	99.086688
3131.000000	99.091455
3130.000000	99.094971
3129.000000	99.095375
3128.000000	99.093485
3127.000000	99.091986
3126.000000	99.093092
3125.000000	99.096955
3124.000000	99.101973
3123.000000	99.105885
3122.000000	99.106775
3121.000000	99.104193
3120.000000	99.099586
3119.000000	99.094897
3118.000000	99.090667
3117.000000	99.086378
3116.000000	99.082529
3115.000000	99.081041
3114.000000	99.083155
3113.000000	99.087824
3112.000000	99.092520
3111.000000	99.094877
3110.000000	99.093797
3109.000000	99.090231
3108.000000	99.087164
3107.000000	99.087330
3106.000000	99.090297
3105.000000	99.092744
3104.000000	99.092202
3103.000000	99.089680
3102.000000	99.087956
3101.000000	99.088106
3100.000000	99.088563
3099.000000	99.087391
3098.000000	99.084888
3097.000000	99.083634
3096.000000	99.085850
3095.000000	99.090904
3094.000000	99.096144
3093.000000	99.100184
3092.000000	99.103818
3091.000000	99.107024
3090.000000	99.107135
3089.000000	99.102041
3088.000000	99.094002
3087.000000	99.087749
3086.000000	99.085301
3085.000000	99.085023
3084.000000	99.085447
3083.000000	99.087130
3082.000000	99.090437
3081.000000	99.094180
3080.000000	99.097245
3079.000000	99.099306
3078.000000	99.099251
3077.000000	99.095483
3076.000000	99.089043
3075.000000	99.084223
3074.000000	99.084504
3073.000000	99.089450
3072.000000	99.096615
3071.000000	99.104423
3070.000000	99.111526
3069.000000	99.115219
3068.000000	99.113037
3067.000000	99.105762
3066.000000	99.097493
3065.000000	99.092841
3064.000000	99.094177
3063.000000	99.100131
3062.000000	99.105795
3061.000000	99.106099
3060.000000	99.100760
3059.000000	99.095074
3058.000000	99.094426
3057.000000	99.098684
3056.000000	99.103300
3055.000000	99.105023
3054.000000	99.104718
3053.000000	99.105051
3052.000000	99.107377
3051.000000	99.111166
3050.000000	99.115104
3049.000000	99.118124
3048.000000	99.119876
3047.000000	99.120431
3046.000000	99.119522
3045.000000	99.116737
3044.000000	99.112880
3043.000000	99.110242
3042.000000	99.110379
3041.000000	99.111980
3040.000000	99.112065
3039.000000	99.109427
3038.000000	99.106146
3037.000000	99.105474
3036.000000	99.108678
3035.000000	99.114015
3034.000000	99.118345
3033.000000	99.119551
3032.000000	99.117667
3031.000000	99.114344
3030.000000	99.111640
3029.000000	99.110938
3028.000000	99.111948
3027.000000	99.112256
3026.000000	99.108990
3025.000000	99.102136
3024.000000	99.095629
3023.000000	99.093702
3022.000000	99.096462
3021.000000	99.100428
3020.000000	99.103174
3019.000000	99.105601
3018.000000	99.109217
3017.000000	99.113005
3016.000000	99.114332
3015.000000	99.112186
3014.000000	99.108459
3013.000000	99.106263
3012.000000	99.107397
3011.000000	99.110982
3010.000000	99.114314
3009.000000	99.115436
3008.000000	99.114911
3007.000000	99.114745
3006.000000	99.115992
3005.000000	99.118212
3004.000000	99.120717
3003.000000	99.122922
3002.000000	99.123605
3001.000000	99.121470
3000.000000	99.116864
2999.000000	99.111686
2998.000000	99.107104
2997.000000	99.102592
2996.000000	99.097679
2995.000000	99.093323
2994.000000	99.090735
2993.000000	99.089813
2992.000000	99.089504
2991.000000	99.088884
2990.000000	99.087341
2989.000000	99.084595
2988.000000	99.081183
2987.000000	99.078160
2986.000000	99.075816
2985.000000	99.073378
2984.000000	99.070329
2983.000000	99.067193
2982.000000	99.064622
2981.000000	99.062431
2980.000000	99.059844
2979.000000	99.055928
2978.000000	99.049781
2977.000000	99.041354
2976.000000	99.032214
2975.000000	99.024199
2974.000000	99.017088
2973.000000	99.009171
2972.000000	99.000472
2971.000000	98.993612
2970.000000	98.990517
2969.000000	98.989772
2968.000000	98.988301
2967.000000	98.984198
2966.000000	98.976737
2965.000000	98.965172
2964.000000	98.949609
2963.000000	98.932286
2962.000000	98.916150
2961.000000	98.902281
2960.000000	98.890010
2959.000000	98.879106
2958.000000	98.870471
2957.000000	98.864778
2956.000000	98.861710
2955.000000	98.860600
2954.000000	98.860767
2953.000000	98.861047
2952.000000	98.859963
2951.000000	98.857050
2950.000000	98.853784
2949.000000	98.852809
2948.000000	98.855715
2947.000000	98.860991
2946.000000	98.864071
2945.000000	98.860137
2944.000000	98.847582
2943.000000	98.828721
2942.000000	98.807356
2941.000000	98.786164
2940.000000	98.766233
2939.000000	98.747702
2938.000000	98.730081
2937.000000	98.712669
2936.000000	98.695118
2935.000000	98.677025
2934.000000	98.656972
2933.000000	98.633306
2932.000000	98.606567
2931.000000	98.579641
2930.000000	98.554217
2929.000000	98.528178
2928.000000	98.497948
2927.000000	98.462890
2926.000000	98.425859
2925.000000	98.390075
2924.000000	98.356981
2923.000000	98.326912
2922.000000	98.300140
2921.000000	98.276975
2920.000000	98.258318
2919.000000	98.246461
2918.000000	98.244311
2917.000000	98.253348
2916.000000	98.273070
2915.000000	98.302604
2914.000000	98.341418
2913.000000	98.387688
2912.000000	98.436804
2911.000000	98.482815
2910.000000	98.521376
2909.000000	98.551290
2908.000000	98.574010
2907.000000	98.592410
2906.000000	98.609560
2905.000000	98.627204
2904.000000	98.644761
2903.000000	98.660172
2902.000000	98.672216
2901.000000	98.681940
2900.000000	98.691699
2899.000000	98.702840
2898.000000	98.714487
2897.000000	98.724760
2896.000000	98.733186
2895.000000	98.741668
2894.000000	98.752690
2893.000000	98.766454
2892.000000	98.780240
2891.000000	98.790985
2890.000000	98.798332
2889.000000	98.804606
2888.000000	98.811933
2887.000000	98.820025
2886.000000	98.826854
2885.000000	98.830664
2884.000000	98.830981
2883.000000	98.828552
2882.000000	98.825204
2881.000000	98.823185
2880.000000	98.823314
2879.000000	98.823778
2878.000000	98.821783
2877.000000	98.816688
2876.000000	98.810699
2875.000000	98.806199
2874.000000	98.803359
2873.000000	98.800938
2872.000000	98.798598
2871.000000	98.797329
2870.000000	98.797755
2869.000000	98.798840
2868.000000	98.798601
2867.000000	98.795756
2866.000000	98.790454
2865.000000	98.783480
2864.000000	98.774977
2863.000000	98.764338
2862.000000	98.751443
2861.000000	98.737341
2860.000000	98.722810
2859.000000	98.706540
2858.000000	98.685983
2857.000000	98.660307
2856.000000	98.631463
2855.000000	98.601893
2854.000000	98.572164
2853.000000	98.541470
2852.000000	98.510091
2851.000000	98.481380
2850.000000	98.462090
2849.000000	98.460350
2848.000000	98.480684
2847.000000	98.519457
2846.000000	98.566364
2845.000000	98.612078
2844.000000	98.654055
2843.000000	98.694453
2842.000000	98.734189
2841.000000	98.770934
2840.000000	98.802243
2839.000000	98.827879
2838.000000	98.848742
2837.000000	98.865489
2836.000000	98.878994
2835.000000	98.890783
2834.000000	98.901874
2833.000000	98.911804
2832.000000	98.919432
2831.000000	98.924308
2830.000000	98.927049
2829.000000	98.928981
2828.000000	98.931655
2827.000000	98.936105
2826.000000	98.942237
2825.000000	98.949058
2824.000000	98.955389
2823.000000	98.960226
2822.000000	98.963099
2821.000000	98.964783
2820.000000	98.967063
2819.000000	98.970692
2818.000000	98.973981
2817.000000	98.974661
2816.000000	98.972996
2815.000000	98.971813
2814.000000	98.973471
2813.000000	98.978171
2812.000000	98.985233
2811.000000	98.994228
2810.000000	99.004044
2809.000000	99.012203
2808.000000	99.016515
2807.000000	99.017051
2806.000000	99.015863
2805.000000	99.015171
2804.000000	99.016070
2803.000000	99.018146
2802.000000	99.019739
2801.000000	99.019278
2800.000000	99.017101
2799.000000	99.015576
2798.000000	99.016858
2797.000000	99.020793
2796.000000	99.025211
2795.000000	99.027704
2794.000000	99.026862
2793.000000	99.022881
2792.000000	99.017914
2791.000000	99.015205
2790.000000	99.016716
2789.000000	99.021528
2788.000000	99.027117
2787.000000	99.031875
2786.000000	99.035726
2785.000000	99.038761
2784.000000	99.040573
2783.000000	99.041227
2782.000000	99.041841
2781.000000	99.043419
2780.000000	99.045628
2779.000000	99.047582
2778.000000	99.049559
2777.000000	99.052958
2776.000000	99.058181
2775.000000	99.063252
2774.000000	99.065346
2773.000000	99.063600
2772.000000	99.059873
2771.000000	99.056771
2770.000000	99.055550
2769.000000	99.055987
2768.000000	99.057371
2767.000000	99.058957
2766.000000	99.059912
2765.000000	99.059582
2764.000000	99.057943
2763.000000	99.055677
2762.000000	99.053945
2761.000000	99.053972
2760.000000	99.056194
2759.000000	99.059527
2758.000000	99.062109
2757.000000	99.063144
2756.000000	99.063407
2755.000000	99.063581
2754.000000	99.063045
2753.000000	99.061049
2752.000000	99.058217
2751.000000	99.055805
2750.000000	99.054154
2749.000000	99.053098
2748.000000	99.053333
2747.000000	99.055828
2746.000000	99.059981
2745.000000	99.063821
2744.000000	99.066136
2743.000000	99.067047
2742.000000	99.066425
2741.000000	99.063512
2740.000000	99.058857
2739.000000	99.055094
2738.000000	99.054501
2737.000000	99.056564
2736.000000	99.059095
2735.000000	99.061288
2734.000000	99.064516
2733.000000	99.070163
2732.000000	99.077400
2731.000000	99.083246
2730.000000	99.084611
2729.000000	99.080741
2728.000000	99.074221
2727.000000	99.069150
2726.000000	99.067626
2725.000000	99.068024
2724.000000	99.067256
2723.000000	99.064603
2722.000000	99.062671
2721.000000	99.064469
2720.000000	99.070115
2719.000000	99.076641
2718.000000	99.080675
2717.000000	99.081045
2716.000000	99.079049
2715.000000	99.076691
2714.000000	99.074873
2713.000000	99.073183
2712.000000	99.071177
2711.000000	99.069624
2710.000000	99.070208
2709.000000	99.073695
2708.000000	99.078417
2707.000000	99.081151
2706.000000	99.080122
2705.000000	99.077071
2704.000000	99.075690
2703.000000	99.077912
2702.000000	99.082327
2701.000000	99.086334
2700.000000	99.088858
2699.000000	99.090256
2698.000000	99.090471
2697.000000	99.088646
2696.000000	99.084628
2695.000000	99.079862
2694.000000	99.076340
2693.000000	99.075001
2692.000000	99.075209
2691.000000	99.075404
2690.000000	99.074389
2689.000000	99.072506
2688.000000	99.071604
2687.000000	99.073380
2686.000000	99.077597
2685.000000	99.082155
2684.000000	99.084872
2683.000000	99.084978
2682.000000	99.083173
2681.000000	99.080891
2680.000000	99.079542
2679.000000	99.079912
2678.000000	99.081902
2677.000000	99.084829
2676.000000	99.087914
2675.000000	99.090454
2674.000000	99.091932
2673.000000	99.092350
2672.000000	99.092170
2671.000000	99.091581
2670.000000	99.090179
2669.000000	99.087745
2668.000000	99.084860
2667.000000	99.082186
2666.000000	99.079522
2665.000000	99.076191
2664.000000	99.072048
2663.000000	99.067559
2662.000000	99.063482
2661.000000	99.061216
2660.000000	99.062538
2659.000000	99.067496
2658.000000	99.072895
2657.000000	99.074705
2656.000000	99.072442
2655.000000	99.069787
2654.000000	99.070215
2653.000000	99.073301
2652.000000	99.076012
2651.000000	99.076319
2650.000000	99.074467
2649.000000	99.071736
2648.000000	99.069550
2647.000000	99.069526
2646.000000	99.073004
2645.000000	99.080032
2644.000000	99.089184
2643.000000	99.098405
2642.000000	99.105739
2641.000000	99.109730
2640.000000	99.110059
2639.000000	99.108075
2638.000000	99.106248
2637.000000	99.106678
2636.000000	99.109697
2635.000000	99.113346
2634.000000	99.114203
2633.000000	99.109732
2632.000000	99.100989
2631.000000	99.093067
2630.000000	99.091768
2629.000000	99.098878
2628.000000	99.110409
2627.000000	99.119633
2626.000000	99.122304
2625.000000	99.119605
2624.000000	99.116529
2623.000000	99.117363
2622.000000	99.122148
2621.000000	99.126954
2620.000000	99.127629
2619.000000	99.123785
2618.000000	99.119423
2617.000000	99.119175
2616.000000	99.123486
2615.000000	99.128076
2614.000000	99.129012
2613.000000	99.127720
2612.000000	99.129209
2611.000000	99.135109
2610.000000	99.140835
2609.000000	99.141092
2608.000000	99.136477
2607.000000	99.132359
2606.000000	99.131858
2605.000000	99.132483
2604.000000	99.129876
2603.000000	99.122933
2602.000000	99.114601
2601.000000	99.109072
2600.000000	99.108867
2599.000000	99.113423
2598.000000	99.119849
2597.000000	99.125834
2596.000000	99.131886
2595.000000	99.139623
2594.000000	99.147866
2593.000000	99.152321
2592.000000	99.150480
2591.000000	99.145716
2590.000000	99.144939
2589.000000	99.152022
2588.000000	99.163599
2587.000000	99.171188
2586.000000	99.167995
2585.000000	99.155024
2584.000000	99.141113
2583.000000	99.135746
2582.000000	99.141056
2581.000000	99.151237
2580.000000	99.159273
2579.000000	99.162692
2578.000000	99.162655
2577.000000	99.160394
2576.000000	99.156823
2575.000000	99.154086
2574.000000	99.154532
2573.000000	99.157828
2572.000000	99.160830
2571.000000	99.160821
2570.000000	99.157750
2569.000000	99.153236
2568.000000	99.148751
2567.000000	99.145298
2566.000000	99.143501
2565.000000	99.142831
2564.000000	99.141273
2563.000000	99.137149
2562.000000	99.131759
2561.000000	99.129591
2560.000000	99.135204
2559.000000	99.149520
2558.000000	99.168823
2557.000000	99.186937
2556.000000	99.198393
2555.000000	99.200787
2554.000000	99.196002
2553.000000	99.189699
2552.000000	99.187828
2551.000000	99.191612
2550.000000	99.195888
2549.000000	99.193757
2548.000000	99.183331
2547.000000	99.169203
2546.000000	99.157445
2545.000000	99.150256
2544.000000	99.145800
2543.000000	99.142083
2542.000000	99.139825
2541.000000	99.141390
2540.000000	99.147141
2539.000000	99.153515
2538.000000	99.155667
2537.000000	99.152333
2536.000000	99.146887
2535.000000	99.142798
2534.000000	99.139715
2533.000000	99.135763
2532.000000	99.131770
2531.000000	99.129839
2530.000000	99.128047
2529.000000	99.120555
2528.000000	99.104570
2527.000000	99.084265
2526.000000	99.065883
2525.000000	99.051527
2524.000000	99.040353
2523.000000	99.033477
2522.000000	99.033890
2521.000000	99.041511
2520.000000	99.051267
2519.000000	99.057125
2518.000000	99.056426
2517.000000	99.050198
2516.000000	99.041174
2515.000000	99.032537
2514.000000	99.027357
2513.000000	99.027621
2512.000000	99.033243
2511.000000	99.041750
2510.000000	99.048939
2509.000000	99.050901
2508.000000	99.047020
2507.000000	99.041199
2506.000000	99.039034
2505.000000	99.043137
2504.000000	99.051214
2503.000000	99.058354
2502.000000	99.060677
2501.000000	99.057597
2500.000000	99.052148
2499.000000	99.049258
2498.000000	99.051935
2497.000000	99.058281
2496.000000	99.063299
2495.000000	99.064499
2494.000000	99.065152
2493.000000	99.070989
2492.000000	99.084228
2491.000000	99.101852
2490.000000	99.118999
2489.000000	99.132584
2488.000000	99.141500
2487.000000	99.145192
2486.000000	99.143634
2485.000000	99.138537
2484.000000	99.133314
2483.000000	99.131160
2482.000000	99.133117
2481.000000	99.137592
2480.000000	99.141356
2479.000000	99.141610
2478.000000	99.138286
2477.000000	99.134510
2476.000000	99.133814
2475.000000	99.136444
2474.000000	99.139664
2473.000000	99.142319
2472.000000	99.147116
2471.000000	99.156384
2470.000000	99.166742
2469.000000	99.171220
2468.000000	99.167630
2467.000000	99.162178
2466.000000	99.162838
2465.000000	99.170393
2464.000000	99.177816
2463.000000	99.177819
2462.000000	99.169669
2461.000000	99.159422
2460.000000	99.155007
2459.000000	99.160413
2458.000000	99.172456
2457.000000	99.182678
2456.000000	99.184216
2455.000000	99.177788
2454.000000	99.170350
2453.000000	99.168049
2452.000000	99.171378
2451.000000	99.176720
2450.000000	99.180541
2449.000000	99.181318
2448.000000	99.179491
2447.000000	99.177247
2446.000000	99.177202
2445.000000	99.179772
2444.000000	99.182572
2443.000000	99.183527
2442.000000	99.183532
2441.000000	99.184465
2440.000000	99.185749
2439.000000	99.185386
2438.000000	99.183869
2437.000000	99.184153
2436.000000	99.187176
2435.000000	99.190266
2434.000000	99.191304
2433.000000	99.191676
2432.000000	99.192792
2431.000000	99.192047
2430.000000	99.186117
2429.000000	99.177517
2428.000000	99.173814
2427.000000	99.178995
2426.000000	99.188618
2425.000000	99.195372
2424.000000	99.197142
2423.000000	99.197418
2422.000000	99.199560
2421.000000	99.203714
2420.000000	99.208670
2419.000000	99.213509
2418.000000	99.216621
2417.000000	99.215485
2416.000000	99.209009
2415.000000	99.199136
2414.000000	99.189266
2413.000000	99.181711
2412.000000	99.176943
2411.000000	99.174336
2410.000000	99.173157
2409.000000	99.173638
2408.000000	99.177345
2407.000000	99.185468
2406.000000	99.196375
2405.000000	99.206136
2404.000000	99.211887
2403.000000	99.213581
2402.000000	99.212247
2401.000000	99.208713
2400.000000	99.205188
2399.000000	99.205793
2398.000000	99.212784
2397.000000	99.222813
2396.000000	99.229252
2395.000000	99.228358
2394.000000	99.221949
2393.000000	99.214601
2392.000000	99.210206
2391.000000	99.210852
2390.000000	99.216267
2389.000000	99.223079
2388.000000	99.226376
2387.000000	99.223857
2386.000000	99.218069
2385.000000	99.213927
2384.000000	99.214272
2383.000000	99.218124
2382.000000	99.222530
2381.000000	99.225227
2380.000000	99.225861
2379.000000	99.225294
2378.000000	99.224012
2377.000000	99.221823
2376.000000	99.219548
2375.000000	99.219997
2374.000000	99.225086
2373.000000	99.232015
2372.000000	99.234726
2371.000000	99.230460
2370.000000	99.222848
2369.000000	99.217532
2368.000000	99.217590
2367.000000	99.224243
2366.000000	99.237728
2365.000000	99.253591
2364.000000	99.261503
2363.000000	99.253803
2362.000000	99.234020
2361.000000	99.212848
2360.000000	99.197419
2359.000000	99.188462
2358.000000	99.187026
2357.000000	99.196953
2356.000000	99.218212
2355.000000	99.241716
2354.000000	99.254549
2353.000000	99.250974
2352.000000	99.235990
2351.000000	99.219141
2350.000000	99.207346
2349.000000	99.202535
2348.000000	99.202179
2347.000000	99.201009
2346.000000	99.195276
2345.000000	99.186231
2344.000000	99.178781
2343.000000	99.176703
2342.000000	99.178981
2341.000000	99.181199
2340.000000	99.180429
2339.000000	99.177810
2338.000000	99.176126
2337.000000	99.176326
2336.000000	99.176666
2335.000000	99.174976
2334.000000	99.171218
2333.000000	99.168693
2332.000000	99.172005
2331.000000	99.182724
2330.000000	99.196456
2329.000000	99.204406
2328.000000	99.198462
2327.000000	99.175708
2326.000000	99.140841
2325.000000	99.105622
2324.000000	99.084016
2323.000000	99.083756
2322.000000	99.100220
2321.000000	99.120064
2320.000000	99.131954
2319.000000	99.133838
2318.000000	99.130820
2317.000000	99.129057
2316.000000	99.132415
2315.000000	99.142151
2314.000000	99.157172
2313.000000	99.174444
2312.000000	99.190344
2311.000000	99.201535
2310.000000	99.204887
2309.000000	99.198770
2308.000000	99.186212
2307.000000	99.174858
2306.000000	99.170492
2305.000000	99.170737
2304.000000	99.167662
2303.000000	99.157290
2302.000000	99.143849
2301.000000	99.134008
2300.000000	99.129861
2299.000000	99.129890
2298.000000	99.134481
2297.000000	99.146576
2296.000000	99.166278
2295.000000	99.186422
2294.000000	99.195064
2293.000000	99.183855
2292.000000	99.156287
2291.000000	99.127558
2290.000000	99.113288
2289.000000	99.116073
2288.000000	99.124523
2287.000000	99.126803
2286.000000	99.122670
2285.000000	99.120340
2284.000000	99.125068
2283.000000	99.135104
2282.000000	99.146696
2281.000000	99.157895
2280.000000	99.167790
2279.000000	99.176621
2278.000000	99.186660
2277.000000	99.198729
2276.000000	99.207926
2275.000000	99.207555
2274.000000	99.197878
2273.000000	99.186483
2272.000000	99.179201
2271.000000	99.175347
2270.000000	99.173197
2269.000000	99.174886
2268.000000	99.183095
2267.000000	99.196798
2266.000000	99.213146
2265.000000	99.230572
2264.000000	99.247864
2263.000000	99.262755
2262.000000	99.273066
2261.000000	99.276916
2260.000000	99.271698
2259.000000	99.256949
2258.000000	99.238871
2257.000000	99.226888
2256.000000	99.223205
2255.000000	99.220268
2254.000000	99.211271
2253.000000	99.198345
2252.000000	99.187471
2251.000000	99.181079
2250.000000	99.180309
2249.000000	99.188839
2248.000000	99.207547
2247.000000	99.228277
2246.000000	99.239617
2245.000000	99.238748
2244.000000	99.233536
2243.000000	99.233715
2242.000000	99.243435
2241.000000	99.260388
2240.000000	99.277067
2239.000000	99.283698
2238.000000	99.275305
2237.000000	99.257723
2236.000000	99.243960
2235.000000	99.243355
2234.000000	99.255188
2233.000000	99.271485
2232.000000	99.283572
2231.000000	99.286807
2230.000000	99.281528
2229.000000	99.270488
2228.000000	99.255747
2227.000000	99.239235
2226.000000	99.225459
2225.000000	99.219456
2224.000000	99.220823
2223.000000	99.224309
2222.000000	99.228356
2221.000000	99.237842
2220.000000	99.254376
2219.000000	99.268986
2218.000000	99.270505
2217.000000	99.258375
2216.000000	99.241745
2215.000000	99.227646
2214.000000	99.215898
2213.000000	99.204768
2212.000000	99.195660
2211.000000	99.191301
2210.000000	99.192905
2209.000000	99.199562
2208.000000	99.208330
2207.000000	99.216147
2206.000000	99.224012
2205.000000	99.237481
2204.000000	99.259849
2203.000000	99.286097
2202.000000	99.306312
2201.000000	99.314266
2200.000000	99.311464
2199.000000	99.305342
2198.000000	99.305301
2197.000000	99.316737
2196.000000	99.334954
2195.000000	99.347984
2194.000000	99.349408
2193.000000	99.346031
2192.000000	99.349300
2191.000000	99.362062
2190.000000	99.377955
2189.000000	99.389253
2188.000000	99.389204
2187.000000	99.370199
2186.000000	99.328501
2185.000000	99.272507
2184.000000	99.220812
2183.000000	99.190033
2182.000000	99.187535
2181.000000	99.213784
2180.000000	99.264221
2179.000000	99.327160
2178.000000	99.383841
2177.000000	99.415218
2176.000000	99.414302
2175.000000	99.394118
2174.000000	99.379133
2173.000000	99.383354
2172.000000	99.398113
2171.000000	99.406816
2170.000000	99.408354
2169.000000	99.416524
2168.000000	99.435449
2167.000000	99.446973
2166.000000	99.429040
2165.000000	99.379380
2164.000000	99.316700
2163.000000	99.267465
2162.000000	99.258911
2161.000000	99.309506
2160.000000	99.404673
2159.000000	99.489993
2158.000000	99.517419
2157.000000	99.496599
2156.000000	99.476677
2155.000000	99.491155
2154.000000	99.540171
2153.000000	99.603830
2152.000000	99.652441
2151.000000	99.656960
2150.000000	99.610078
2149.000000	99.539579
2148.000000	99.487896
2147.000000	99.475110
2146.000000	99.489275
2145.000000	99.508685
2144.000000	99.520213
2143.000000	99.516834
2142.000000	99.494510
2141.000000	99.460786
2140.000000	99.436335
2139.000000	99.436774
2138.000000	99.456259
2137.000000	99.475287
2136.000000	99.481508
2135.000000	99.477018
2134.000000	99.467262
2133.000000	99.451930
2132.000000	99.429589
2131.000000	99.404906
2130.000000	99.386825
2129.000000	99.381017
2128.000000	99.385809
2127.000000	99.394120
2126.000000	99.397720
2125.000000	99.391201
2124.000000	99.375045
2123.000000	99.355678
2122.000000	99.340998
2121.000000	99.334659
2120.000000	99.334275
2119.000000	99.334136
2118.000000	99.328552
2117.000000	99.314058
2116.000000	99.291660
2115.000000	99.267247
2114.000000	99.247091
2113.000000	99.231992
2112.000000	99.218419
2111.000000	99.206974
2110.000000	99.206021
2109.000000	99.223001
2108.000000	99.254193
2107.000000	99.286981
2106.000000	99.310681
2105.000000	99.321406
2104.000000	99.319232
2103.000000	99.307213
2102.000000	99.293863
2101.000000	99.290687
2100.000000	99.302973
2099.000000	99.324577
2098.000000	99.343311
2097.000000	99.350325
2096.000000	99.345238
2095.000000	99.335399
2094.000000	99.330502
2093.000000	99.334269
2092.000000	99.339548
2091.000000	99.334436
2090.000000	99.315215
2089.000000	99.292085
2088.000000	99.280525
2087.000000	99.286950
2086.000000	99.303213
2085.000000	99.313423
2084.000000	99.307011
2083.000000	99.288475
2082.000000	99.274247
2081.000000	99.277291
2080.000000	99.293860
2079.000000	99.307946
2078.000000	99.309020
2077.000000	99.301566
2076.000000	99.296899
2075.000000	99.301056
2074.000000	99.313556
2073.000000	99.332923
2072.000000	99.356773
2071.000000	99.377240
2070.000000	99.381771
2069.000000	99.362746
2068.000000	99.327676
2067.000000	99.297905
2066.000000	99.293557
2065.000000	99.315329
2064.000000	99.341196
2063.000000	99.346907
2062.000000	99.329806
2061.000000	99.309403
2060.000000	99.306717
2059.000000	99.326508
2058.000000	99.358432
2057.000000	99.388264
2056.000000	99.405253
2055.000000	99.403895
2054.000000	99.383984
2053.000000	99.351312
2052.000000	99.319366
2051.000000	99.308804
2050.000000	99.337505
2049.000000	99.400137
2048.000000	99.461061
2047.000000	99.485100
2046.000000	99.474343
2045.000000	99.458119
2044.000000	99.451358
2043.000000	99.444815
2042.000000	99.437458
2041.000000	99.451539
2040.000000	99.497429
2039.000000	99.543146
2038.000000	99.543734
2037.000000	99.493716
2036.000000	99.432259
2035.000000	99.396025
2034.000000	99.385729
2033.000000	99.384645
2032.000000	99.390956
2031.000000	99.418790
2030.000000	99.473563
2029.000000	99.537190
2028.000000	99.581446
2027.000000	99.595074
2026.000000	99.592209
2025.000000	99.590739
2024.000000	99.588524
2023.000000	99.570229
2022.000000	99.536382
2021.000000	99.513015
2020.000000	99.524654
2019.000000	99.564404
2018.000000	99.597287
2017.000000	99.591398
2016.000000	99.547593
2015.000000	99.498052
2014.000000	99.474333
2013.000000	99.477380
2012.000000	99.479231
2011.000000	99.458804
2010.000000	99.430979
2009.000000	99.430905
2008.000000	99.473166
2007.000000	99.538994
2006.000000	99.602067
2005.000000	99.646862
2004.000000	99.661573
2003.000000	99.636070
2002.000000	99.575965
2001.000000	99.506221
2000.000000	99.449591
1999.000000	99.406381
1998.000000	99.363410
1997.000000	99.317970
1996.000000	99.285469
1995.000000	99.285610
1994.000000	99.324086
1993.000000	99.381442
1992.000000	99.420692
1991.000000	99.419974
1990.000000	99.394735
1989.000000	99.375331
1988.000000	99.370758
1987.000000	99.367610
1986.000000	99.358314
1985.000000	99.350696
1984.000000	99.346241
1983.000000	99.329575
1982.000000	99.291430
1981.000000	99.248226
1980.000000	99.226942
1979.000000	99.240135
1978.000000	99.284464
1977.000000	99.349855
1976.000000	99.419012
1975.000000	99.473299
1974.000000	99.510736
1973.000000	99.545827
1972.000000	99.583644
1971.000000	99.607734
1970.000000	99.603024
1969.000000	99.579211
1968.000000	99.561241
1967.000000	99.562912
1966.000000	99.577300
1965.000000	99.586166
1964.000000	99.572761
1963.000000	99.535569
1962.000000	99.497944
1961.000000	99.493030
1960.000000	99.526297
1959.000000	99.564567
1958.000000	99.574296
1957.000000	99.557947
1956.000000	99.542521
1955.000000	99.544903
1954.000000	99.560935
1953.000000	99.578313
1952.000000	99.585057
1951.000000	99.570958
1950.000000	99.536723
1949.000000	99.502784
1948.000000	99.495692
1947.000000	99.520517
1946.000000	99.554084
1945.000000	99.568586
1944.000000	99.556707
1943.000000	99.532861
1942.000000	99.514933
1941.000000	99.507059
1940.000000	99.500209
1939.000000	99.486510
1938.000000	99.469474
1937.000000	99.461156
1936.000000	99.469771
1935.000000	99.492006
1934.000000	99.518645
1933.000000	99.543498
1932.000000	99.563990
1931.000000	99.575930
1930.000000	99.573354
1929.000000	99.555982
1928.000000	99.533987
1927.000000	99.521977
1926.000000	99.527342
1925.000000	99.543672
1924.000000	99.554355
1923.000000	99.544820
1922.000000	99.514601
1921.000000	99.476050
1920.000000	99.442618
1919.000000	99.423410
1918.000000	99.423494
1917.000000	99.439034
1916.000000	99.456106
1915.000000	99.462658
1914.000000	99.458789
1913.000000	99.453799
1912.000000	99.455718
1911.000000	99.464986
1910.000000	99.477561
1909.000000	99.488757
1908.000000	99.492533
1907.000000	99.483417
1906.000000	99.463440
1905.000000	99.444177
1904.000000	99.436930
1903.000000	99.441754
1902.000000	99.450241
1901.000000	99.457614
1900.000000	99.467330
1899.000000	99.483183
1898.000000	99.500522
1897.000000	99.507709
1896.000000	99.496688
1895.000000	99.472461
1894.000000	99.451247
1893.000000	99.447841
1892.000000	99.465304
1891.000000	99.495890
1890.000000	99.526653
1889.000000	99.544962
1888.000000	99.545717
1887.000000	99.533575
1886.000000	99.517002
1885.000000	99.501815
1884.000000	99.488856
1883.000000	99.476898
1882.000000	99.467482
1881.000000	99.464603
1880.000000	99.469428
1879.000000	99.478172
1878.000000	99.485839
1877.000000	99.489935
1876.000000	99.490611
1875.000000	99.489351
1874.000000	99.488095
1873.000000	99.488130
1872.000000	99.489798
1871.000000	99.494109
1870.000000	99.503253
1869.000000	99.516300
1868.000000	99.526305
1867.000000	99.527990
1866.000000	99.524155
1865.000000	99.519866
1864.000000	99.516184
1863.000000	99.512179
1862.000000	99.509527
1861.000000	99.511146
1860.000000	99.516264
1859.000000	99.521489
1858.000000	99.526158
1857.000000	99.531946
1856.000000	99.537920
1855.000000	99.541156
1854.000000	99.541857
1853.000000	99.542786
1852.000000	99.543354
1851.000000	99.539570
1850.000000	99.530848
1849.000000	99.522144
1848.000000	99.517556
1847.000000	99.516336
1846.000000	99.517457
1845.000000	99.523202
1844.000000	99.533334
1843.000000	99.541189
1842.000000	99.542841
1841.000000	99.542100
1840.000000	99.543361
1839.000000	99.546727
1838.000000	99.549911
1837.000000	99.551343
1836.000000	99.549862
1835.000000	99.544108
1834.000000	99.535046
1833.000000	99.526755
1832.000000	99.522945
1831.000000	99.524393
1830.000000	99.530074
1829.000000	99.538822
1828.000000	99.549182
1827.000000	99.559251
1826.000000	99.567243
1825.000000	99.571045
1824.000000	99.568634
1823.000000	99.560976
1822.000000	99.553039
1821.000000	99.550122
1820.000000	99.552624
1819.000000	99.555495
1818.000000	99.554447
1817.000000	99.550961
1816.000000	99.549288
1815.000000	99.550537
1814.000000	99.552014
1813.000000	99.550310
1812.000000	99.543562
1811.000000	99.532808
1810.000000	99.521571
1809.000000	99.511987
1808.000000	99.501223
1807.000000	99.484446
1806.000000	99.461299
1805.000000	99.436814
1804.000000	99.414849
1803.000000	99.392779
1802.000000	99.364916
1801.000000	99.329865
1800.000000	99.291905
1799.000000	99.255867
1798.000000	99.224813
1797.000000	99.201316
1796.000000	99.186065
1795.000000	99.177503
1794.000000	99.175991
1793.000000	99.186463
1792.000000	99.210770
1791.000000	99.241277
1790.000000	99.271290
1789.000000	99.301608
1788.000000	99.332419
1787.000000	99.359083
1786.000000	99.377833
1785.000000	99.391674
1784.000000	99.406356
1783.000000	99.422588
1782.000000	99.437602
1781.000000	99.450995
1780.000000	99.464269
1779.000000	99.477314
1778.000000	99.489188
1777.000000	99.500629
1776.000000	99.512269
1775.000000	99.521700
1774.000000	99.525005
1773.000000	99.521118
1772.000000	99.513932
1771.000000	99.508537
1770.000000	99.506615
1769.000000	99.507684
1768.000000	99.510895
1767.000000	99.514471
1766.000000	99.517290
1765.000000	99.520638
1764.000000	99.526165
1763.000000	99.532611
1762.000000	99.536107
1761.000000	99.535519
1760.000000	99.534962
1759.000000	99.538564
1758.000000	99.546651
1757.000000	99.556701
1756.000000	99.565583
1755.000000	99.572381
1754.000000	99.578405
1753.000000	99.584025
1752.000000	99.586582
1751.000000	99.582588
1750.000000	99.573232
1749.000000	99.564484
1748.000000	99.560051
1747.000000	99.558138
1746.000000	99.554912
1745.000000	99.547939
1744.000000	99.537175
1743.000000	99.524704
1742.000000	99.512881
1741.000000	99.501859
1740.000000	99.490209
1739.000000	99.478906
1738.000000	99.472073
1737.000000	99.471414
1736.000000	99.473766
1735.000000	99.473153
1734.000000	99.466954
1733.000000	99.461392
1732.000000	99.461925
1731.000000	99.466671
1730.000000	99.473113
1729.000000	99.480553
1728.000000	99.487541
1727.000000	99.491174
1726.000000	99.490079
1725.000000	99.487161
1724.000000	99.487374
1723.000000	99.492305
1722.000000	99.498742
1721.000000	99.503571
1720.000000	99.506956
1719.000000	99.510672
1718.000000	99.513927
1717.000000	99.512100
1716.000000	99.504178
1715.000000	99.496034
1714.000000	99.493590
1713.000000	99.497834
1712.000000	99.505102
1711.000000	99.510918
1710.000000	99.513464
1709.000000	99.513895
1708.000000	99.514379
1707.000000	99.515707
1706.000000	99.515905
1705.000000	99.511458
1704.000000	99.501555
1703.000000	99.489244
1702.000000	99.478426
1701.000000	99.473953
1700.000000	99.474171
1699.000000	99.469473
1698.000000	99.458912
1697.000000	99.449884
1696.000000	99.445613
1695.000000	99.440475
1694.000000	99.428690
1693.000000	99.413335
1692.000000	99.399539
1691.000000	99.388630
1690.000000	99.378656
1689.000000	99.367446
1688.000000	99.354567
1687.000000	99.339429
1686.000000	99.320383
1685.000000	99.298481
1684.000000	99.281139
1683.000000	99.272542
1682.000000	99.267628
1681.000000	99.262076
1680.000000	99.254472
1679.000000	99.243415
1678.000000	99.228662
1677.000000	99.211613
1676.000000	99.193854
1675.000000	99.174699
1674.000000	99.152626
1673.000000	99.128762
1672.000000	99.105735
1671.000000	99.085375
1670.000000	99.069044
1669.000000	99.057565
1668.000000	99.049304
1667.000000	99.040219
1666.000000	99.027230
1665.000000	99.010201
1664.000000	98.991425
1663.000000	98.973799
1662.000000	98.959023
1661.000000	98.947842
1660.000000	98.939961
1659.000000	98.932838
1658.000000	98.923235
1657.000000	98.910571
1656.000000	98.898862
1655.000000	98.893548
1654.000000	98.902270
1653.000000	98.922199
1652.000000	98.934835
1651.000000	98.935989
1650.000000	98.933385
1649.000000	98.930653
1648.000000	98.931658
1647.000000	98.940796
1646.000000	98.956047
1645.000000	98.968467
1644.000000	98.974446
1643.000000	98.976482
1642.000000	98.977661
1641.000000	98.980347
1640.000000	98.985450
1639.000000	98.991934
1638.000000	98.998007
1637.000000	99.004237
1636.000000	99.013941
1635.000000	99.026155
1634.000000	99.035348
1633.000000	99.040809
1632.000000	99.045823
1631.000000	99.051859
1630.000000	99.058297
1629.000000	99.065188
1628.000000	99.074641
1627.000000	99.087340
1626.000000	99.100710
1625.000000	99.112723
1624.000000	99.124881
1623.000000	99.138789
1622.000000	99.151855
1621.000000	99.160778
1620.000000	99.165694
1619.000000	99.168429
1618.000000	99.171110
1617.000000	99.177496
1616.000000	99.190150
1615.000000	99.205678
1614.000000	99.218754
1613.000000	99.227126
1612.000000	99.230567
1611.000000	99.229646
1610.000000	99.226567
1609.000000	99.225788
1608.000000	99.231296
1607.000000	99.242261
1606.000000	99.253220
1605.000000	99.259609
1604.000000	99.261632
1603.000000	99.262526
1602.000000	99.264549
1601.000000	99.266924
1600.000000	99.266799
1599.000000	99.261811
1598.000000	99.252444
1597.000000	99.241986
1596.000000	99.233232
1595.000000	99.225695
1594.000000	99.217408
1593.000000	99.208171
1592.000000	99.198632
1591.000000	99.187631
1590.000000	99.173903
1589.000000	99.159539
1588.000000	99.147680
1587.000000	99.136923
1586.000000	99.122144
1585.000000	99.101240
1584.000000	99.077017
1583.000000	99.051762
1582.000000	99.024554
1581.000000	98.995726
1580.000000	98.968893
1579.000000	98.946921
1578.000000	98.930581
1577.000000	98.924993
1576.000000	98.939865
1575.000000	98.970420
1574.000000	98.997999
1573.000000	99.015374
1572.000000	99.028977
1571.000000	99.048175
1570.000000	99.076785
1569.000000	99.107132
1568.000000	99.130010
1567.000000	99.144557
1566.000000	99.153736
1565.000000	99.160848
1564.000000	99.168737
1563.000000	99.176800
1562.000000	99.179583
1561.000000	99.171156
1560.000000	99.150242
1559.000000	99.126739
1558.000000	99.112138
1557.000000	99.101993
1556.000000	99.088159
1555.000000	99.066362
1554.000000	99.034576
1553.000000	98.997642
1552.000000	98.961571
1551.000000	98.924031
1550.000000	98.876045
1549.000000	98.814621
1548.000000	98.744841
1547.000000	98.666166
1546.000000	98.569139
1545.000000	98.450251
1544.000000	98.324879
1543.000000	98.210902
1542.000000	98.106267
1541.000000	97.998322
1540.000000	97.897639
1539.000000	97.830126
1538.000000	97.790503
1537.000000	97.758621
1536.000000	97.727349
1535.000000	97.693080
1534.000000	97.648922
1533.000000	97.592353
1532.000000	97.533239
1531.000000	97.478393
1530.000000	97.423205
1529.000000	97.362323
1528.000000	97.295481
1527.000000	97.223828
1526.000000	97.146541
1525.000000	97.065912
1524.000000	96.986926
1523.000000	96.907856
1522.000000	96.818500
1521.000000	96.720361
1520.000000	96.630966
1519.000000	96.552276
1518.000000	96.467646
1517.000000	96.369065
1516.000000	96.270201
1515.000000	96.185219
1514.000000	96.107394
1513.000000	96.024446
1512.000000	95.934725
1511.000000	95.843723
1510.000000	95.753459
1509.000000	95.659299
1508.000000	95.553754
1507.000000	95.429294
1506.000000	95.297944
1505.000000	95.186354
1504.000000	95.099074
1503.000000	95.022107
1502.000000	94.940123
1501.000000	94.844424
1500.000000	94.738345
1499.000000	94.628972
1498.000000	94.516015
1497.000000	94.398524
1496.000000	94.287535
1495.000000	94.191209
1494.000000	94.101458
1493.000000	94.008829
1492.000000	93.911900
1491.000000	93.810283
1490.000000	93.700277
1489.000000	93.585767
1488.000000	93.480556
1487.000000	93.388653
1486.000000	93.300608
1485.000000	93.210559
1484.000000	93.122151
1483.000000	93.038294
1482.000000	92.954459
1481.000000	92.866135
1480.000000	92.775915
1479.000000	92.686566
1478.000000	92.594756
1477.000000	92.498759
1476.000000	92.404674
1475.000000	92.316340
1474.000000	92.225787
1473.000000	92.126618
1472.000000	92.030205
1471.000000	91.946944
1470.000000	91.868900
1469.000000	91.788010
1468.000000	91.706675
1467.000000	91.629204
1466.000000	91.554255
1465.000000	91.478301
1464.000000	91.403442
1463.000000	91.332178
1462.000000	91.260907
1461.000000	91.186148
1460.000000	91.107900
1459.000000	91.025473
1458.000000	90.934295
1457.000000	90.839733
1456.000000	90.758713
1455.000000	90.689043
1454.000000	90.615079
1453.000000	90.533136
1452.000000	90.450068
1451.000000	90.371147
1450.000000	90.293826
1449.000000	90.215918
1448.000000	90.141752
1447.000000	90.072806
1446.000000	90.002577
1445.000000	89.928177
1444.000000	89.855106
1443.000000	89.786927
1442.000000	89.719880
1441.000000	89.651622
1440.000000	89.587164
1439.000000	89.531510
1438.000000	89.483181
1437.000000	89.437268
1436.000000	89.388076
1435.000000	89.328399
1434.000000	89.254534
1433.000000	89.170875
1432.000000	89.085814
1431.000000	89.002642
1430.000000	88.916487
1429.000000	88.825900
1428.000000	88.739163
1427.000000	88.660154
1426.000000	88.580480
1425.000000	88.491618
1424.000000	88.396863
1423.000000	88.303711
1422.000000	88.209666
1421.000000	88.107119
1420.000000	87.997054
1419.000000	87.889609
1418.000000	87.788830
1417.000000	87.690065
1416.000000	87.592698
1415.000000	87.497430
1414.000000	87.399223
1413.000000	87.293844
1412.000000	87.185485
1411.000000	87.080441
1410.000000	86.977151
1409.000000	86.871880
1408.000000	86.768462
1407.000000	86.672795
1406.000000	86.583557
1405.000000	86.497357
1404.000000	86.417174
1403.000000	86.344341
1402.000000	86.271180
1401.000000	86.191258
1400.000000	86.108186
1399.000000	86.026829
1398.000000	85.942048
1397.000000	85.848091
1396.000000	85.751839
1395.000000	85.664477
1394.000000	85.585928
1393.000000	85.509208
1392.000000	85.433071
1391.000000	85.357416
1390.000000	85.276643
1389.000000	85.187892
1388.000000	85.100125
1387.000000	85.024009
1386.000000	84.955838
1385.000000	84.887377
1384.000000	84.820985
1383.000000	84.760662
1382.000000	84.701868
1381.000000	84.640944
1380.000000	84.585552
1379.000000	84.543553
1378.000000	84.509249
1377.000000	84.474183
1376.000000	84.444566
1375.000000	84.434776
1374.000000	84.446741
1373.000000	84.469121
1372.000000	84.495439
1371.000000	84.527542
1370.000000	84.566602
1369.000000	84.614463
1368.000000	84.675819
1367.000000	84.749324
1366.000000	84.826498
1365.000000	84.907254
1364.000000	85.006547
1363.000000	85.135277
1362.000000	85.280166
1361.000000	85.421094
1360.000000	85.557017
1359.000000	85.695917
1358.000000	85.838723
1357.000000	85.985274
1356.000000	86.141075
1355.000000	86.307128
1354.000000	86.473511
1353.000000	86.633404
1352.000000	86.792765
1351.000000	86.958000
1350.000000	87.125702
1349.000000	87.291619
1348.000000	87.458518
1347.000000	87.627667
1346.000000	87.793253
1345.000000	87.951825
1344.000000	88.107126
1343.000000	88.261469
1342.000000	88.412844
1341.000000	88.563401
1340.000000	88.719092
1339.000000	88.876649
1338.000000	89.025175
1337.000000	89.164456
1336.000000	89.304489
1335.000000	89.447827
1334.000000	89.588238
1333.000000	89.724933
1332.000000	89.863752
1331.000000	90.003873
1330.000000	90.137758
1329.000000	90.265667
1328.000000	90.396064
1327.000000	90.530555
1326.000000	90.662462
1325.000000	90.790336
1324.000000	90.918566
1323.000000	91.044419
1322.000000	91.159750
1321.000000	91.266005
1320.000000	91.373169
1319.000000	91.483027
1318.000000	91.587636
1317.000000	91.685899
1316.000000	91.786241
1315.000000	91.892114
1314.000000	91.998730
1313.000000	92.103735
1312.000000	92.208634
1311.000000	92.310942
1310.000000	92.407547
1309.000000	92.503815
1308.000000	92.606653
1307.000000	92.711301
1306.000000	92.807682
1305.000000	92.896730
1304.000000	92.986867
1303.000000	93.077838
1302.000000	93.162647
1301.000000	93.242492
1300.000000	93.325242
1299.000000	93.411086
1298.000000	93.493324
1297.000000	93.571397
1296.000000	93.650392
1295.000000	93.729839
1294.000000	93.805263
1293.000000	93.877518
1292.000000	93.948824
1291.000000	94.014038
1290.000000	94.067914
1289.000000	94.116561
1288.000000	94.169108
1287.000000	94.223032
1286.000000	94.270512
1285.000000	94.313645
1284.000000	94.359981
1283.000000	94.408509
1282.000000	94.453368
1281.000000	94.496626
1280.000000	94.544282
1279.000000	94.594220
1278.000000	94.640796
1277.000000	94.686528
1276.000000	94.737098
1275.000000	94.789919
1274.000000	94.839481
1273.000000	94.887979
1272.000000	94.938807
1271.000000	94.986167
1270.000000	95.023915
1269.000000	95.057749
1268.000000	95.095301
1267.000000	95.131383
1266.000000	95.157246
1265.000000	95.177607
1264.000000	95.204240
1263.000000	95.238627
1262.000000	95.274216
1261.000000	95.309655
1260.000000	95.345786
1259.000000	95.376378
1258.000000	95.396492
1257.000000	95.413608
1256.000000	95.437094
1255.000000	95.463349
1254.000000	95.483352
1253.000000	95.497915
1252.000000	95.513318
1251.000000	95.528868
1250.000000	95.540927
1249.000000	95.552441
1248.000000	95.566636
1247.000000	95.577733
1246.000000	95.579704
1245.000000	95.577518
1244.000000	95.578734
1243.000000	95.581266
1242.000000	95.580546
1241.000000	95.580888
1240.000000	95.587782
1239.000000	95.596325
1238.000000	95.599116
1237.000000	95.598794
1236.000000	95.601619
1235.000000	95.606101
1234.000000	95.609062
1233.000000	95.615233
1232.000000	95.629710
1231.000000	95.648285
1230.000000	95.665948
1229.000000	95.687094
1228.000000	95.716408
1227.000000	95.748471
1226.000000	95.777468
1225.000000	95.808325
1224.000000	95.846736
1223.000000	95.886954
1222.000000	95.921780
1221.000000	95.955664
1220.000000	95.995655
1219.000000	96.037856
1218.000000	96.074969
1217.000000	96.108800
1216.000000	96.143413
1215.000000	96.174923
1214.000000	96.200036
1213.000000	96.225490
1212.000000	96.256635
1211.000000	96.285886
1210.000000	96.305056
1209.000000	96.319382
1208.000000	96.336669
1207.000000	96.352297
1206.000000	96.358330
1205.000000	96.358650
1204.000000	96.361659
1203.000000	96.366592
1202.000000	96.369688
1201.000000	96.375316
1200.000000	96.388498
1199.000000	96.404640
1198.000000	96.418521
1197.000000	96.434833
1196.000000	96.458276
1195.000000	96.482439
1194.000000	96.500745
1193.000000	96.519080
1192.000000	96.545384
1191.000000	96.575544
1190.000000	96.601194
1189.000000	96.622312
1188.000000	96.640955
1187.000000	96.652745
1186.000000	96.656143
1185.000000	96.659771
1184.000000	96.668816
1183.000000	96.675015
1182.000000	96.671689
1181.000000	96.667272
1180.000000	96.671348
1179.000000	96.679205
1178.000000	96.684192
1177.000000	96.692448
1176.000000	96.710441
1175.000000	96.729992
1174.000000	96.740420
1173.000000	96.744814
1172.000000	96.750223
1171.000000	96.752778
1170.000000	96.747267
1169.000000	96.740674
1168.000000	96.741369
1167.000000	96.744716
1166.000000	96.743266
1165.000000	96.741124
1164.000000	96.744521
1163.000000	96.748909
1162.000000	96.749379
1161.000000	96.752946
1160.000000	96.766153
1159.000000	96.781322
1158.000000	96.789336
1157.000000	96.795120
1156.000000	96.806844
1155.000000	96.821468
1154.000000	96.835016
1153.000000	96.854630
1152.000000	96.885239
1151.000000	96.916391
1150.000000	96.937816
1149.000000	96.955968
1148.000000	96.979464
1147.000000	97.001106
1146.000000	97.011013
1145.000000	97.015421
1144.000000	97.025721
1143.000000	97.040374
1142.000000	97.053509
1141.000000	97.069545
1140.000000	97.093194
1139.000000	97.116857
1138.000000	97.133857
1137.000000	97.152269
1136.000000	97.179994
1135.000000	97.208329
1134.000000	97.226357
1133.000000	97.238953
1132.000000	97.254314
1131.000000	97.266332
1130.000000	97.266524
1129.000000	97.261329
1128.000000	97.260562
1127.000000	97.260776
1126.000000	97.256813
1125.000000	97.257360
1124.000000	97.271407
1123.000000	97.290382
1122.000000	97.300750
1121.000000	97.303766
1120.000000	97.306749
1119.000000	97.306713
1118.000000	97.299002
1117.000000	97.290565
1116.000000	97.288482
1115.000000	97.286835
1114.000000	97.280034
1113.000000	97.276520
1112.000000	97.283766
1111.000000	97.293107
1110.000000	97.295575
1109.000000	97.298953
1108.000000	97.312470
1107.000000	97.327945
1106.000000	97.333368
1105.000000	97.332066
1104.000000	97.331996
1103.000000	97.329448
1102.000000	97.320134
1101.000000	97.312779
1100.000000	97.314912
1099.000000	97.318200
1098.000000	97.313585
1097.000000	97.307157
1096.000000	97.305494
1095.000000	97.300010
1094.000000	97.282068
1093.000000	97.258910
1092.000000	97.238349
1091.000000	97.213298
1090.000000	97.177558
1089.000000	97.141595
1088.000000	97.115786
1087.000000	97.093266
1086.000000	97.065514
1085.000000	97.039182
1084.000000	97.021181
1083.000000	97.003453
1082.000000	96.980261
1081.000000	96.964211
1080.000000	96.967359
1079.000000	96.981094
1078.000000	96.992271
1077.000000	97.003356
1076.000000	97.019489
1075.000000	97.033206
1074.000000	97.040100
1073.000000	97.052441
1072.000000	97.078691
1071.000000	97.105671
1070.000000	97.118915
1069.000000	97.124749
1068.000000	97.134689
1067.000000	97.145430
1066.000000	97.151846
1065.000000	97.162045
1064.000000	97.180533
1063.000000	97.194344
1062.000000	97.194999
1061.000000	97.197112
1060.000000	97.215732
1059.000000	97.241935
1058.000000	97.259890
1057.000000	97.270643
1056.000000	97.280544
1055.000000	97.284226
1054.000000	97.279834
1053.000000	97.283465
1052.000000	97.306869
1051.000000	97.336168
1050.000000	97.354128
1049.000000	97.366350
1048.000000	97.384124
1047.000000	97.400985
1046.000000	97.408456
1045.000000	97.415808
1044.000000	97.432020
1043.000000	97.445971
1042.000000	97.444961
1041.000000	97.437286
1040.000000	97.436202
1039.000000	97.437519
1038.000000	97.432608
1037.000000	97.427943
1036.000000	97.431979
1035.000000	97.437733
1034.000000	97.436995
1033.000000	97.436431
1032.000000	97.442206
1031.000000	97.445303
1030.000000	97.440016
1029.000000	97.439235
1028.000000	97.453289
1027.000000	97.471617
1026.000000	97.484071
1025.000000	97.500496
1024.000000	97.529439
1023.000000	97.557050
1022.000000	97.569398
1021.000000	97.577279
1020.000000	97.596038
1019.000000	97.618545
1018.000000	97.630922
1017.000000	97.639066
1016.000000	97.655756
1015.000000	97.676275
1014.000000	97.688642
1013.000000	97.695298
1012.000000	97.704884
1011.000000	97.716185
1010.000000	97.727978
1009.000000	97.749838
1008.000000	97.785366
1007.000000	97.819987
1006.000000	97.842999
1005.000000	97.865751
1004.000000	97.900936
1003.000000	97.939910
1002.000000	97.968921
1001.000000	97.991233
1000.000000	98.014958
999.000000	98.034488
998.000000	98.043124
997.000000	98.049717
996.000000	98.065189
995.000000	98.086537
994.000000	98.109477
993.000000	98.140812
992.000000	98.181842
991.000000	98.216256
990.000000	98.231778
989.000000	98.238899
988.000000	98.251947
987.000000	98.268417
986.000000	98.282250
985.000000	98.299988
984.000000	98.326735
983.000000	98.352842
982.000000	98.370580
981.000000	98.386389
980.000000	98.401837
979.000000	98.402695
978.000000	98.384641
977.000000	98.369230
976.000000	98.375510
975.000000	98.393674
974.000000	98.405541
973.000000	98.411895
972.000000	98.420668
971.000000	98.427409
970.000000	98.428088
969.000000	98.433772
968.000000	98.452341
967.000000	98.472103
966.000000	98.481806
965.000000	98.490009
964.000000	98.506022
963.000000	98.520824
962.000000	98.525909
961.000000	98.532789
960.000000	98.553077
959.000000	98.577105
958.000000	98.592491
957.000000	98.606298
956.000000	98.628591
955.000000	98.651514
954.000000	98.665751
953.000000	98.679842
952.000000	98.702243
951.000000	98.720986
950.000000	98.723469
949.000000	98.719942
948.000000	98.726137
947.000000	98.737955
946.000000	98.744522
945.000000	98.750811
944.000000	98.765394
943.000000	98.780192
942.000000	98.783741
941.000000	98.782689
940.000000	98.790457
939.000000	98.806723
938.000000	98.824595
937.000000	98.844754
936.000000	98.866375
935.000000	98.879241
934.000000	98.881008
933.000000	98.887217
932.000000	98.908110
931.000000	98.931825
930.000000	98.945545
929.000000	98.955049
928.000000	98.968148
927.000000	98.978351
926.000000	98.982455
925.000000	98.993925
924.000000	99.020236
923.000000	99.045330
922.000000	99.054185
921.000000	99.056273
920.000000	99.066060
919.000000	99.079247
918.000000	99.087727
917.000000	99.099093
916.000000	99.120336
915.000000	99.140377
914.000000	99.148931
913.000000	99.156006
912.000000	99.172751
911.000000	99.191341
910.000000	99.203559
909.000000	99.220965
908.000000	99.254608
907.000000	99.291883
906.000000	99.315306
905.000000	99.328712
904.000000	99.345116
903.000000	99.364222
902.000000	99.381279
901.000000	99.401225
900.000000	99.425449
899.000000	99.441664
898.000000	99.445858
897.000000	99.456255
896.000000	99.487124
895.000000	99.526652
894.000000	99.559159
893.000000	99.589983
892.000000	99.628356
891.000000	99.665625
890.000000	99.689523
889.000000	99.698340
888.000000	99.676763
887.000000	99.571572
886.000000	99.316305
885.000000	98.867391
884.000000	98.203743
883.000000	97.318731
882.000000	96.231750
881.000000	94.992024
880.000000	93.645495
879.000000	92.214740
878.000000	90.728963
877.000000	89.247191
876.000000	87.822751
875.000000	86.455817
874.000000	85.139520
873.000000	83.988215
872.000000	83.321447
871.000000	83.545493
870.000000	84.859064
869.000000	87.037666
868.000000	89.515079
867.000000	91.720912
866.000000	93.384667
865.000000	94.554167
864.000000	95.387261
863.000000	95.992142
862.000000	96.433057
861.000000	96.774690
860.000000	97.061104
859.000000	97.292317
858.000000	97.466687
857.000000	97.611247
856.000000	97.747090
855.000000	97.863881
854.000000	97.953797
853.000000	98.031246
852.000000	98.088751
851.000000	98.078981
850.000000	97.984083
849.000000	97.870918
848.000000	97.836539
847.000000	97.916075
846.000000	98.071741
845.000000	98.246383
844.000000	98.395962
843.000000	98.496117
842.000000	98.554361
841.000000	98.603431
840.000000	98.660614
839.000000	98.710397
838.000000	98.740966
837.000000	98.769068
836.000000	98.808068
835.000000	98.842683
834.000000	98.858957
833.000000	98.871368
832.000000	98.895833
831.000000	98.923838
830.000000	98.946708
829.000000	98.976029
828.000000	99.015475
827.000000	99.042754
826.000000	99.046541
825.000000	99.049953
824.000000	99.070550
823.000000	99.090611
822.000000	99.094574
821.000000	99.098103
820.000000	99.113308
819.000000	99.123540
818.000000	99.118997
817.000000	99.119932
816.000000	99.138371
815.000000	99.153150
814.000000	99.150431
813.000000	99.154160
812.000000	99.186421
811.000000	99.230505
810.000000	99.261755
809.000000	99.283150
808.000000	99.301802
807.000000	99.303789
806.000000	99.283039
805.000000	99.263842
804.000000	99.264803
803.000000	99.271006
802.000000	99.269688
801.000000	99.279750
800.000000	99.315766
799.000000	99.355351
798.000000	99.373530
797.000000	99.378402
796.000000	99.383419
795.000000	99.377330
794.000000	99.352560
793.000000	99.331634
792.000000	99.334407
791.000000	99.347166
790.000000	99.350995
789.000000	99.351363
788.000000	99.354513
787.000000	99.347055
786.000000	99.325737
785.000000	99.315297
784.000000	99.329276
783.000000	99.343814
782.000000	99.337039
781.000000	99.323247
780.000000	99.321199
779.000000	99.320672
778.000000	99.309575
777.000000	99.303531
776.000000	99.318206
775.000000	99.340009
774.000000	99.352523
773.000000	99.364676
772.000000	99.384954
771.000000	99.396221
770.000000	99.385131
769.000000	99.370263
768.000000	99.373612
767.000000	99.389211
766.000000	99.404564
765.000000	99.425664
764.000000	99.455679
763.000000	99.476605
762.000000	99.478273
761.000000	99.478823
760.000000	99.492627
759.000000	99.505625
758.000000	99.505295
757.000000	99.505042
756.000000	99.515869
755.000000	99.524612
754.000000	99.523930
753.000000	99.531479
752.000000	99.554044
751.000000	99.566290
750.000000	99.551995
749.000000	99.534830
748.000000	99.540309
747.000000	99.558219
746.000000	99.568932
745.000000	99.575356
744.000000	99.581836
743.000000	99.573992
742.000000	99.548299
741.000000	99.531120
740.000000	99.540942
739.000000	99.560941
738.000000	99.573421
737.000000	99.587370
736.000000	99.607051
735.000000	99.609269
734.000000	99.582426
733.000000	99.554034
732.000000	99.548652
731.000000	99.550073
730.000000	99.535310
729.000000	99.513743
728.000000	99.500641
727.000000	99.483714
726.000000	99.447895
725.000000	99.404682
724.000000	99.365348
723.000000	99.313004
722.000000	99.228225
721.000000	99.114252
720.000000	98.968086
719.000000	98.751823
718.000000	98.417315
717.000000	97.936360
716.000000	97.304023
715.000000	96.567441
714.000000	95.876895
713.000000	95.448752
712.000000	95.418315
711.000000	95.740206
710.000000	96.254214
709.000000	96.809335
708.000000	97.305682
707.000000	97.683016
706.000000	97.932772
705.000000	98.098781
704.000000	98.223434
703.000000	98.310396
702.000000	98.359156
701.000000	98.397529
700.000000	98.447935
699.000000	98.498726
698.000000	98.540855
697.000000	98.596763
696.000000	98.678216
695.000000	98.755145
694.000000	98.801886
693.000000	98.837893
692.000000	98.886553
691.000000	98.929696
690.000000	98.942473
689.000000	98.937701
688.000000	98.938281
687.000000	98.938461
686.000000	98.930865
685.000000	98.934504
684.000000	98.958879
683.000000	98.977580
682.000000	98.974196
681.000000	98.974473
680.000000	98.997430
679.000000	99.014471
678.000000	98.997100
677.000000	98.967419
676.000000	98.958245
675.000000	98.962590
674.000000	98.959794
673.000000	98.957738
672.000000	98.970188
671.000000	98.985613
670.000000	98.987497
669.000000	98.983092
668.000000	98.986430
667.000000	98.976571
666.000000	98.944327
665.000000	98.931185
664.000000	98.947935
663.000000	98.958822
662.000000	98.942514
661.000000	98.928635
660.000000	98.943275
659.000000	98.962064
658.000000	98.960654
657.000000	98.961266
656.000000	98.983291
655.000000	98.998785
654.000000	98.982542
653.000000	98.960578
652.000000	98.961481
651.000000	98.966850
650.000000	98.954403
649.000000	98.947375
648.000000	98.971227
647.000000	99.003424
646.000000	99.012126
645.000000	99.006612
644.000000	99.006903
643.000000	99.004570
642.000000	98.992918
641.000000	98.994588
640.000000	99.019693
639.000000	99.037199
638.000000	99.027057
637.000000	99.016905
636.000000	99.029440
635.000000	99.039315
634.000000	99.025582
633.000000	99.017912
632.000000	99.044260
631.000000	99.076577
630.000000	99.074753
629.000000	99.045580
628.000000	99.014999
627.000000	98.983660
626.000000	98.950947
625.000000	98.940774
624.000000	98.960224
623.000000	98.974774
622.000000	98.962669
621.000000	98.951401
620.000000	98.963251
619.000000	98.973934
618.000000	98.963646
617.000000	98.960216
616.000000	98.984593
615.000000	99.003141
614.000000	98.984772
613.000000	98.955535
612.000000	98.951258
611.000000	98.962220
610.000000	98.969768
609.000000	98.988552
608.000000	99.026858
607.000000	99.050656
606.000000	99.035211
605.000000	99.007048
604.000000	98.992181
603.000000	98.973747
602.000000	98.941986
601.000000	98.929709
600.000000	98.953684
599.000000	98.977871
598.000000	98.978188
597.000000	98.986976
596.000000	99.027115
595.000000	99.063394
594.000000	99.062847
593.000000	99.047576
592.000000	99.041086
591.000000	99.022163
590.000000	98.980944
589.000000	98.955444
588.000000	98.964645
587.000000	98.970998
586.000000	98.954164
585.000000	98.954636
584.000000	98.996710
583.000000	99.036032
582.000000	99.038365
581.000000	99.037641
580.000000	99.060766
579.000000	99.067194
578.000000	99.026264
577.000000	98.981617
576.000000	98.975879
575.000000	98.980216
574.000000	98.960748
573.000000	98.944543
572.000000	98.953557
571.000000	98.951406
570.000000	98.916794
569.000000	98.899346
568.000000	98.931149
567.000000	98.956249
566.000000	98.921512
565.000000	98.866073
564.000000	98.849143
563.000000	98.861619
562.000000	98.875704
561.000000	98.907196
560.000000	98.959606
559.000000	98.976269
558.000000	98.925173
557.000000	98.863648
556.000000	98.848961
555.000000	98.851924
554.000000	98.828071
553.000000	98.803153
552.000000	98.814780
551.000000	98.839868
550.000000	98.849537
549.000000	98.868540
548.000000	98.910238
547.000000	98.925981
546.000000	98.890278
545.000000	98.864792
544.000000	98.900413
543.000000	98.954433
542.000000	98.971845
541.000000	98.969016
540.000000	98.970226
539.000000	98.942067
538.000000	98.865040
537.000000	98.791134
536.000000	98.757229
535.000000	98.719372
534.000000	98.644568
533.000000	98.583254
532.000000	98.580997
531.000000	98.601930
530.000000	98.611197
529.000000	98.646201
528.000000	98.732659
527.000000	98.810714
526.000000	98.824712
525.000000	98.815096
524.000000	98.826240
523.000000	98.820311
522.000000	98.772520
521.000000	98.747229
520.000000	98.795150
519.000000	98.857810
518.000000	98.866866
517.000000	98.863750
516.000000	98.906528
515.000000	98.952914
514.000000	98.949162
513.000000	98.934846
512.000000	98.966577
511.000000	99.019187
510.000000	99.049104
509.000000	99.081242
508.000000	99.144215
507.000000	99.190017
506.000000	99.172470
505.000000	99.133482
504.000000	99.121518
503.000000	99.107623
502.000000	99.061940
501.000000	99.029317
500.000000	99.038534
499.000000	99.034844
498.000000	98.982842
497.000000	98.937096
496.000000	98.943213
495.000000	98.959808
494.000000	98.951400
493.000000	98.965363
492.000000	99.032420
491.000000	99.086778
490.000000	99.076922
489.000000	99.053026
488.000000	99.061066
487.000000	99.065182
486.000000	99.051025
485.000000	99.089417
484.000000	99.200582
483.000000	99.270970
482.000000	99.224034
481.000000	99.143776
480.000000	99.121907
479.000000	99.116665
478.000000	99.065155
477.000000	99.013659
476.000000	99.020591
475.000000	99.042817
474.000000	99.035500
473.000000	99.058436
472.000000	99.152190
471.000000	99.215700
470.000000	99.174359
469.000000	99.113915
468.000000	99.127954
467.000000	99.187648
466.000000	99.247161
465.000000	99.349661
464.000000	99.507780
463.000000	99.610877
462.000000	99.579565
461.000000	99.493995
460.000000	99.439486
459.000000	99.366475
458.000000	99.240298
457.000000	99.183884
456.000000	99.265437
455.000000	99.358080
454.000000	99.377714
453.000000	99.406162
452.000000	99.508861
451.000000	99.595731
450.000000	99.610778
