PE IR       SUBTECH     SPECTRUM    ASCII       PEDS        4.00        
   -1
G11-F002_1.ASC
23/09/14
11:40:28.00
23/09/14
11:53:14.00
uco
Sample 002 By uco Date Thursday, September 14 2023
450.000000
#HDR
-1
-1
#GR
cm-1
%T
1.0
0.0
4000.000000
-1.000000
3551
8
99.853072
78.119900
#DATA
4000.000000	99.775028
3999.000000	99.770214
3998.000000	99.765401
3997.000000	99.760636
3996.000000	99.757797
3995.000000	99.756842
3994.000000	99.756237
3993.000000	99.754711
3992.000000	99.752403
3991.000000	99.750472
3990.000000	99.747374
3989.000000	99.747395
3988.000000	99.747100
3987.000000	99.745787
3986.000000	99.743809
3985.000000	99.741935
3984.000000	99.740533
3983.000000	99.739375
3982.000000	99.738142
3981.000000	99.736826
3980.000000	99.735546
3979.000000	99.734242
3978.000000	99.732836
3977.000000	99.731529
3976.000000	99.730554
3975.000000	99.729564
3974.000000	99.727785
3973.000000	99.725271
3972.000000	99.723811
3971.000000	99.725946
3970.000000	99.732417
3969.000000	99.740778
3968.000000	99.747025
3967.000000	99.748735
3966.000000	99.746554
3965.000000	99.742876
3964.000000	99.739398
3963.000000	99.735981
3962.000000	99.731413
3961.000000	99.725059
3960.000000	99.718129
3959.000000	99.713574
3958.000000	99.714275
3957.000000	99.720639
3956.000000	99.729621
3955.000000	99.736446
3954.000000	99.737850
3953.000000	99.734019
3952.000000	99.727958
3951.000000	99.723354
3950.000000	99.722633
3949.000000	99.726279
3948.000000	99.733077
3947.000000	99.740554
3946.000000	99.745814
3945.000000	99.746760
3944.000000	99.743020
3943.000000	99.736039
3942.000000	99.728460
3941.000000	99.723034
3940.000000	99.721403
3939.000000	99.723780
3938.000000	99.729045
3937.000000	99.734973
3936.000000	99.739224
3935.000000	99.740564
3934.000000	99.739232
3933.000000	99.736118
3932.000000	99.731882
3931.000000	99.726840
3930.000000	99.721607
3929.000000	99.717639
3928.000000	99.716801
3927.000000	99.720424
3926.000000	99.728090
3925.000000	99.736948
3924.000000	99.743159
3923.000000	99.745092
3922.000000	99.744645
3921.000000	99.744988
3920.000000	99.747582
3919.000000	99.751500
3918.000000	99.754733
3917.000000	99.755472
3916.000000	99.752651
3915.000000	99.746672
3914.000000	99.739999
3913.000000	99.736095
3912.000000	99.736789
3911.000000	99.740945
3910.000000	99.745268
3909.000000	99.746585
3908.000000	99.743312
3907.000000	99.736050
3906.000000	99.727670
3905.000000	99.722145
3904.000000	99.721712
3903.000000	99.724159
3902.000000	99.724856
3901.000000	99.722056
3900.000000	99.718682
3899.000000	99.718404
3898.000000	99.721440
3897.000000	99.725559
3896.000000	99.729351
3895.000000	99.732737
3894.000000	99.735261
3893.000000	99.736094
3892.000000	99.735273
3891.000000	99.733817
3890.000000	99.731371
3889.000000	99.726644
3888.000000	99.721546
3887.000000	99.720543
3886.000000	99.725312
3885.000000	99.731888
3884.000000	99.734417
3883.000000	99.732288
3882.000000	99.729633
3881.000000	99.728278
3880.000000	99.726622
3879.000000	99.722994
3878.000000	99.716813
3877.000000	99.709670
3876.000000	99.704639
3875.000000	99.702774
3874.000000	99.702101
3873.000000	99.700123
3872.000000	99.697823
3871.000000	99.699879
3870.000000	99.708662
3869.000000	99.719549
3868.000000	99.725050
3867.000000	99.723830
3866.000000	99.720525
3865.000000	99.717308
3864.000000	99.712374
3863.000000	99.706293
3862.000000	99.703530
3861.000000	99.706753
3860.000000	99.713069
3859.000000	99.717792
3858.000000	99.718283
3857.000000	99.714248
3856.000000	99.707619
3855.000000	99.702895
3854.000000	99.703844
3853.000000	99.705916
3852.000000	99.700716
3851.000000	99.691035
3850.000000	99.688317
3849.000000	99.696333
3848.000000	99.707941
3847.000000	99.715274
3846.000000	99.717013
3845.000000	99.717074
3844.000000	99.719872
3843.000000	99.726868
3842.000000	99.735552
3841.000000	99.741780
3840.000000	99.742751
3839.000000	99.737710
3838.000000	99.727492
3837.000000	99.715017
3836.000000	99.704478
3835.000000	99.699247
3834.000000	99.700628
3833.000000	99.707449
3832.000000	99.716603
3831.000000	99.724017
3830.000000	99.726504
3829.000000	99.724003
3828.000000	99.719299
3827.000000	99.715317
3826.000000	99.712822
3825.000000	99.711101
3824.000000	99.711332
3823.000000	99.717432
3822.000000	99.730287
3821.000000	99.741996
3820.000000	99.740618
3819.000000	99.723297
3818.000000	99.700575
3817.000000	99.686461
3816.000000	99.686716
3815.000000	99.694776
3814.000000	99.700480
3813.000000	99.703110
3812.000000	99.709118
3811.000000	99.720677
3810.000000	99.733486
3809.000000	99.741759
3808.000000	99.741688
3807.000000	99.732818
3806.000000	99.717242
3805.000000	99.697592
3804.000000	99.678304
3803.000000	99.665785
3802.000000	99.664933
3801.000000	99.674693
3800.000000	99.685970
3799.000000	99.691847
3798.000000	99.695474
3797.000000	99.701512
3796.000000	99.708968
3795.000000	99.713522
3794.000000	99.713297
3793.000000	99.711634
3792.000000	99.713352
3791.000000	99.719450
3790.000000	99.727034
3789.000000	99.732597
3788.000000	99.734013
3787.000000	99.730964
3786.000000	99.725192
3785.000000	99.720147
3784.000000	99.718689
3783.000000	99.720865
3782.000000	99.724999
3781.000000	99.730094
3780.000000	99.735441
3779.000000	99.739074
3778.000000	99.738645
3777.000000	99.734575
3776.000000	99.730650
3775.000000	99.730210
3774.000000	99.732108
3773.000000	99.732187
3772.000000	99.728775
3771.000000	99.725113
3770.000000	99.725423
3769.000000	99.729300
3768.000000	99.732374
3767.000000	99.732268
3766.000000	99.730383
3765.000000	99.728305
3764.000000	99.725712
3763.000000	99.722479
3762.000000	99.721327
3761.000000	99.725407
3760.000000	99.733140
3759.000000	99.738548
3758.000000	99.737548
3757.000000	99.731562
3756.000000	99.723592
3755.000000	99.714483
3754.000000	99.703453
3753.000000	99.689667
3752.000000	99.674054
3751.000000	99.661274
3750.000000	99.657713
3749.000000	99.663462
3748.000000	99.670604
3747.000000	99.672981
3746.000000	99.671602
3745.000000	99.671930
3744.000000	99.678508
3743.000000	99.685469
3742.000000	99.685253
3741.000000	99.683768
3740.000000	99.686275
3739.000000	99.688783
3738.000000	99.689078
3737.000000	99.691475
3736.000000	99.699202
3735.000000	99.708035
3734.000000	99.712963
3733.000000	99.715611
3732.000000	99.719427
3731.000000	99.723393
3730.000000	99.724315
3729.000000	99.721670
3728.000000	99.717303
3727.000000	99.713001
3726.000000	99.710697
3725.000000	99.712586
3724.000000	99.719878
3723.000000	99.730962
3722.000000	99.741167
3721.000000	99.746058
3720.000000	99.744411
3719.000000	99.738233
3718.000000	99.730966
3717.000000	99.725718
3716.000000	99.724279
3715.000000	99.727091
3714.000000	99.733090
3713.000000	99.738793
3712.000000	99.739822
3711.000000	99.735640
3710.000000	99.730894
3709.000000	99.729925
3708.000000	99.732392
3707.000000	99.735837
3706.000000	99.739046
3705.000000	99.741995
3704.000000	99.744886
3703.000000	99.747638
3702.000000	99.750263
3701.000000	99.752474
3700.000000	99.752934
3699.000000	99.750418
3698.000000	99.746270
3697.000000	99.743303
3696.000000	99.742147
3695.000000	99.740591
3694.000000	99.737176
3693.000000	99.733378
3692.000000	99.731311
3691.000000	99.730997
3690.000000	99.730482
3689.000000	99.729243
3688.000000	99.729309
3687.000000	99.731294
3686.000000	99.733572
3685.000000	99.735557
3684.000000	99.736866
3683.000000	99.736537
3682.000000	99.735436
3681.000000	99.736089
3680.000000	99.739304
3679.000000	99.741089
3678.000000	99.735621
3677.000000	99.721694
3676.000000	99.706784
3675.000000	99.701848
3674.000000	99.707560
3673.000000	99.715794
3672.000000	99.723317
3671.000000	99.730125
3670.000000	99.733253
3669.000000	99.731006
3668.000000	99.727164
3667.000000	99.726905
3666.000000	99.731649
3665.000000	99.738657
3664.000000	99.744064
3663.000000	99.746470
3662.000000	99.747933
3661.000000	99.751227
3660.000000	99.756416
3659.000000	99.760176
3658.000000	99.758462
3657.000000	99.749726
3656.000000	99.736820
3655.000000	99.723878
3654.000000	99.712785
3653.000000	99.704737
3652.000000	99.700389
3651.000000	99.698755
3650.000000	99.699029
3649.000000	99.702074
3648.000000	99.710149
3647.000000	99.724243
3646.000000	99.740242
3645.000000	99.752083
3644.000000	99.757503
3643.000000	99.758486
3642.000000	99.757670
3641.000000	99.755409
3640.000000	99.750336
3639.000000	99.742152
3638.000000	99.732804
3637.000000	99.724795
3636.000000	99.719985
3635.000000	99.719533
3634.000000	99.723246
3633.000000	99.728648
3632.000000	99.732615
3631.000000	99.733775
3630.000000	99.731975
3629.000000	99.727755
3628.000000	99.722681
3627.000000	99.717853
3626.000000	99.714872
3625.000000	99.716331
3624.000000	99.721491
3623.000000	99.726363
3622.000000	99.728198
3621.000000	99.727245
3620.000000	99.724949
3619.000000	99.721997
3618.000000	99.718302
3617.000000	99.713990
3616.000000	99.710465
3615.000000	99.710238
3614.000000	99.714594
3613.000000	99.721621
3612.000000	99.727342
3611.000000	99.728470
3610.000000	99.723888
3609.000000	99.714846
3608.000000	99.704921
3607.000000	99.699037
3606.000000	99.700203
3605.000000	99.706972
3604.000000	99.714787
3603.000000	99.719572
3602.000000	99.720625
3601.000000	99.720400
3600.000000	99.721746
3599.000000	99.725175
3598.000000	99.729020
3597.000000	99.731040
3596.000000	99.729990
3595.000000	99.726391
3594.000000	99.721976
3593.000000	99.718112
3592.000000	99.714973
3591.000000	99.712331
3590.000000	99.710432
3589.000000	99.710146
3588.000000	99.712353
3587.000000	99.717308
3586.000000	99.723833
3585.000000	99.728834
3584.000000	99.729100
3583.000000	99.724493
3582.000000	99.718427
3581.000000	99.714955
3580.000000	99.715431
3579.000000	99.717720
3578.000000	99.719133
3577.000000	99.719340
3576.000000	99.719589
3575.000000	99.719819
3574.000000	99.717986
3573.000000	99.713218
3572.000000	99.708350
3571.000000	99.708004
3570.000000	99.713636
3569.000000	99.720735
3568.000000	99.721322
3567.000000	99.712537
3566.000000	99.701718
3565.000000	99.697668
3564.000000	99.700101
3563.000000	99.702512
3562.000000	99.700619
3561.000000	99.695764
3560.000000	99.692367
3559.000000	99.692953
3558.000000	99.696049
3557.000000	99.698730
3556.000000	99.699824
3555.000000	99.700205
3554.000000	99.700906
3553.000000	99.701889
3552.000000	99.702579
3551.000000	99.702602
3550.000000	99.701442
3549.000000	99.698467
3548.000000	99.694062
3547.000000	99.690186
3546.000000	99.688994
3545.000000	99.690440
3544.000000	99.691946
3543.000000	99.691093
3542.000000	99.687914
3541.000000	99.684219
3540.000000	99.681399
3539.000000	99.679525
3538.000000	99.678358
3537.000000	99.678153
3536.000000	99.678827
3535.000000	99.678852
3534.000000	99.676116
3533.000000	99.669967
3532.000000	99.662001
3531.000000	99.654732
3530.000000	99.650020
3529.000000	99.648714
3528.000000	99.650938
3527.000000	99.655760
3526.000000	99.660942
3525.000000	99.664104
3524.000000	99.664371
3523.000000	99.662611
3522.000000	99.660096
3521.000000	99.657470
3520.000000	99.655239
3519.000000	99.654617
3518.000000	99.657011
3517.000000	99.662445
3516.000000	99.668946
3515.000000	99.673713
3514.000000	99.674938
3513.000000	99.672750
3512.000000	99.668651
3511.000000	99.664000
3510.000000	99.659109
3509.000000	99.653889
3508.000000	99.648915
3507.000000	99.645269
3506.000000	99.643609
3505.000000	99.643809
3504.000000	99.645262
3503.000000	99.647314
3502.000000	99.649445
3501.000000	99.651175
3500.000000	99.651968
3499.000000	99.651364
3498.000000	99.649239
3497.000000	99.646028
3496.000000	99.642632
3495.000000	99.639927
3494.000000	99.638518
3493.000000	99.639254
3492.000000	99.643504
3491.000000	99.651799
3490.000000	99.661934
3489.000000	99.669446
3488.000000	99.670965
3487.000000	99.667030
3486.000000	99.661233
3485.000000	99.656837
3484.000000	99.654638
3483.000000	99.653326
3482.000000	99.651122
3481.000000	99.647380
3480.000000	99.643265
3479.000000	99.641026
3478.000000	99.642223
3477.000000	99.646380
3476.000000	99.651047
3475.000000	99.653113
3474.000000	99.650576
3473.000000	99.643795
3472.000000	99.635620
3471.000000	99.630077
3470.000000	99.629937
3469.000000	99.634856
3468.000000	99.641712
3467.000000	99.646868
3466.000000	99.648385
3465.000000	99.646430
3464.000000	99.642148
3463.000000	99.636588
3462.000000	99.630756
3461.000000	99.626195
3460.000000	99.624621
3459.000000	99.626478
3458.000000	99.630236
3457.000000	99.633676
3456.000000	99.635865
3455.000000	99.637528
3454.000000	99.639750
3453.000000	99.643138
3452.000000	99.648040
3451.000000	99.654266
3450.000000	99.660049
3449.000000	99.662339
3448.000000	99.659405
3447.000000	99.653239
3446.000000	99.648277
3445.000000	99.647311
3444.000000	99.649565
3443.000000	99.652442
3442.000000	99.653834
3441.000000	99.652567
3440.000000	99.647892
3439.000000	99.639676
3438.000000	99.629147
3437.000000	99.618939
3436.000000	99.612017
3435.000000	99.610349
3434.000000	99.614146
3433.000000	99.621780
3432.000000	99.630290
3431.000000	99.636512
3430.000000	99.638583
3429.000000	99.636802
3428.000000	99.633056
3427.000000	99.629302
3426.000000	99.626404
3425.000000	99.624154
3424.000000	99.622084
3423.000000	99.620260
3422.000000	99.619514
3421.000000	99.621018
3420.000000	99.625302
3419.000000	99.631239
3418.000000	99.635985
3417.000000	99.636506
3416.000000	99.631829
3415.000000	99.624255
3414.000000	99.618166
3413.000000	99.616909
3412.000000	99.620205
3411.000000	99.624491
3410.000000	99.626084
3409.000000	99.624336
3408.000000	99.621832
3407.000000	99.621583
3406.000000	99.624115
3405.000000	99.627077
3404.000000	99.627333
3403.000000	99.623421
3402.000000	99.616472
3401.000000	99.609217
3400.000000	99.604040
3399.000000	99.601580
3398.000000	99.600981
3397.000000	99.601434
3396.000000	99.603197
3395.000000	99.606783
3394.000000	99.611368
3393.000000	99.614681
3392.000000	99.614913
3391.000000	99.612603
3390.000000	99.610268
3389.000000	99.610114
3388.000000	99.612098
3387.000000	99.614019
3386.000000	99.613560
3385.000000	99.610561
3384.000000	99.607494
3383.000000	99.607719
3382.000000	99.613024
3381.000000	99.622265
3380.000000	99.631669
3379.000000	99.636653
3378.000000	99.634692
3377.000000	99.627474
3376.000000	99.619980
3375.000000	99.616606
3374.000000	99.617990
3373.000000	99.621672
3372.000000	99.625006
3371.000000	99.626595
3370.000000	99.625814
3369.000000	99.622830
3368.000000	99.619475
3367.000000	99.618457
3366.000000	99.620650
3365.000000	99.624078
3364.000000	99.626534
3363.000000	99.628327
3362.000000	99.631317
3361.000000	99.635695
3360.000000	99.639057
3359.000000	99.639024
3358.000000	99.636038
3357.000000	99.633000
3356.000000	99.632307
3355.000000	99.633600
3354.000000	99.634634
3353.000000	99.634258
3352.000000	99.633932
3351.000000	99.635745
3350.000000	99.639326
3349.000000	99.641910
3348.000000	99.641669
3347.000000	99.639998
3346.000000	99.639870
3345.000000	99.642608
3344.000000	99.646930
3343.000000	99.650515
3342.000000	99.651644
3341.000000	99.649933
3340.000000	99.646785
3339.000000	99.644967
3338.000000	99.646469
3337.000000	99.650229
3336.000000	99.652692
3335.000000	99.651149
3334.000000	99.646254
3333.000000	99.641074
3332.000000	99.638316
3331.000000	99.638808
3330.000000	99.641869
3329.000000	99.646241
3328.000000	99.650629
3327.000000	99.653985
3326.000000	99.655983
3325.000000	99.657477
3324.000000	99.660319
3323.000000	99.666109
3322.000000	99.674463
3321.000000	99.682597
3320.000000	99.687294
3319.000000	99.687794
3318.000000	99.686481
3317.000000	99.686265
3316.000000	99.687416
3315.000000	99.687570
3314.000000	99.684939
3313.000000	99.680790
3312.000000	99.678218
3311.000000	99.678832
3310.000000	99.681341
3309.000000	99.683399
3308.000000	99.684092
3307.000000	99.684179
3306.000000	99.684593
3305.000000	99.685489
3304.000000	99.686615
3303.000000	99.687991
3302.000000	99.690114
3301.000000	99.693706
3300.000000	99.698908
3299.000000	99.704134
3298.000000	99.706215
3297.000000	99.702972
3296.000000	99.696185
3295.000000	99.691145
3294.000000	99.692361
3293.000000	99.699813
3292.000000	99.709595
3291.000000	99.717571
3290.000000	99.721968
3289.000000	99.723237
3288.000000	99.722789
3287.000000	99.722086
3286.000000	99.721876
3285.000000	99.721581
3284.000000	99.719905
3283.000000	99.716667
3282.000000	99.713735
3281.000000	99.713398
3280.000000	99.715764
3279.000000	99.718484
3278.000000	99.719220
3277.000000	99.717824
3276.000000	99.715587
3275.000000	99.712856
3274.000000	99.708577
3273.000000	99.702248
3272.000000	99.695395
3271.000000	99.690626
3270.000000	99.689826
3269.000000	99.693492
3268.000000	99.700615
3267.000000	99.708228
3266.000000	99.711981
3265.000000	99.709006
3264.000000	99.700634
3263.000000	99.691343
3262.000000	99.684743
3261.000000	99.681121
3260.000000	99.678639
3259.000000	99.675722
3258.000000	99.671868
3257.000000	99.667445
3256.000000	99.663660
3255.000000	99.662098
3254.000000	99.663330
3253.000000	99.666161
3252.000000	99.668824
3251.000000	99.670623
3250.000000	99.672013
3249.000000	99.673446
3248.000000	99.674764
3247.000000	99.675439
3246.000000	99.674814
3245.000000	99.672207
3244.000000	99.667275
3243.000000	99.660256
3242.000000	99.651523
3241.000000	99.641286
3240.000000	99.630306
3239.000000	99.620719
3238.000000	99.615188
3237.000000	99.614658
3236.000000	99.617028
3235.000000	99.618621
3234.000000	99.617292
3233.000000	99.614153
3232.000000	99.612299
3231.000000	99.613827
3230.000000	99.618273
3229.000000	99.623733
3228.000000	99.628751
3227.000000	99.632764
3226.000000	99.635254
3225.000000	99.635460
3224.000000	99.633087
3223.000000	99.628806
3222.000000	99.623982
3221.000000	99.620327
3220.000000	99.619529
3219.000000	99.622134
3218.000000	99.626456
3217.000000	99.629553
3216.000000	99.630040
3215.000000	99.629595
3214.000000	99.630945
3213.000000	99.634455
3212.000000	99.637290
3211.000000	99.636077
3210.000000	99.630272
3209.000000	99.622785
3208.000000	99.617435
3207.000000	99.615719
3206.000000	99.616196
3205.000000	99.616946
3204.000000	99.618018
3203.000000	99.620947
3202.000000	99.626107
3201.000000	99.631437
3200.000000	99.633985
3199.000000	99.632294
3198.000000	99.627193
3197.000000	99.620916
3196.000000	99.615700
3195.000000	99.612638
3194.000000	99.611349
3193.000000	99.610701
3192.000000	99.609865
3191.000000	99.608633
3190.000000	99.607088
3189.000000	99.605520
3188.000000	99.604304
3187.000000	99.603128
3186.000000	99.600679
3185.000000	99.596290
3184.000000	99.591861
3183.000000	99.590504
3182.000000	99.592689
3181.000000	99.595106
3180.000000	99.594497
3179.000000	99.591527
3178.000000	99.589567
3177.000000	99.590125
3176.000000	99.591263
3175.000000	99.590715
3174.000000	99.589137
3173.000000	99.589293
3172.000000	99.592547
3171.000000	99.596910
3170.000000	99.598924
3169.000000	99.597328
3168.000000	99.594603
3167.000000	99.594421
3166.000000	99.597581
3165.000000	99.600910
3164.000000	99.600462
3163.000000	99.595428
3162.000000	99.588696
3161.000000	99.583968
3160.000000	99.582811
3159.000000	99.584295
3158.000000	99.586978
3157.000000	99.590794
3156.000000	99.596596
3155.000000	99.603682
3154.000000	99.608543
3153.000000	99.607285
3152.000000	99.599663
3151.000000	99.589785
3150.000000	99.582414
3149.000000	99.579128
3148.000000	99.578450
3147.000000	99.578532
3146.000000	99.578641
3145.000000	99.578576
3144.000000	99.578004
3143.000000	99.576732
3142.000000	99.575118
3141.000000	99.574017
3140.000000	99.574338
3139.000000	99.576267
3138.000000	99.578605
3137.000000	99.579409
3136.000000	99.577927
3135.000000	99.575628
3134.000000	99.574689
3133.000000	99.575721
3132.000000	99.577550
3131.000000	99.578970
3130.000000	99.579822
3129.000000	99.580475
3128.000000	99.581139
3127.000000	99.582004
3126.000000	99.583423
3125.000000	99.585476
3124.000000	99.587489
3123.000000	99.588228
3122.000000	99.586689
3121.000000	99.582860
3120.000000	99.577772
3119.000000	99.572589
3118.000000	99.567454
3117.000000	99.561720
3116.000000	99.555754
3115.000000	99.551940
3114.000000	99.552851
3113.000000	99.558285
3112.000000	99.564791
3111.000000	99.568353
3110.000000	99.567348
3109.000000	99.563014
3108.000000	99.557911
3107.000000	99.554178
3106.000000	99.552685
3105.000000	99.553126
3104.000000	99.554913
3103.000000	99.558051
3102.000000	99.562730
3101.000000	99.567771
3100.000000	99.570409
3099.000000	99.568832
3098.000000	99.564886
3097.000000	99.563023
3096.000000	99.566048
3095.000000	99.572524
3094.000000	99.578851
3093.000000	99.582951
3092.000000	99.584911
3091.000000	99.584952
3090.000000	99.582640
3089.000000	99.578283
3088.000000	99.573419
3087.000000	99.569084
3086.000000	99.564895
3085.000000	99.560858
3084.000000	99.558961
3083.000000	99.561313
3082.000000	99.567122
3081.000000	99.572978
3080.000000	99.576075
3079.000000	99.575906
3078.000000	99.572954
3077.000000	99.567522
3076.000000	99.560720
3075.000000	99.555257
3074.000000	99.553920
3073.000000	99.557453
3072.000000	99.564356
3071.000000	99.572114
3070.000000	99.577995
3069.000000	99.579394
3068.000000	99.574836
3067.000000	99.565420
3066.000000	99.554943
3065.000000	99.547900
3064.000000	99.546582
3063.000000	99.549622
3062.000000	99.553474
3061.000000	99.555775
3060.000000	99.557233
3059.000000	99.559856
3058.000000	99.563659
3057.000000	99.566095
3056.000000	99.565150
3055.000000	99.562176
3054.000000	99.560837
3053.000000	99.563478
3052.000000	99.568965
3051.000000	99.573831
3050.000000	99.575222
3049.000000	99.573055
3048.000000	99.569583
3047.000000	99.566912
3046.000000	99.565210
3045.000000	99.563700
3044.000000	99.562790
3043.000000	99.563860
3042.000000	99.566586
3041.000000	99.567802
3040.000000	99.564288
3039.000000	99.556387
3038.000000	99.547981
3037.000000	99.542970
3036.000000	99.542338
3035.000000	99.544345
3034.000000	99.546530
3033.000000	99.547256
3032.000000	99.546093
3031.000000	99.543685
3030.000000	99.541382
3029.000000	99.540454
3028.000000	99.541000
3027.000000	99.541480
3026.000000	99.539854
3025.000000	99.535668
3024.000000	99.530793
3023.000000	99.527615
3022.000000	99.526735
3021.000000	99.526919
3020.000000	99.526872
3019.000000	99.526276
3018.000000	99.525285
3017.000000	99.524000
3016.000000	99.522560
3015.000000	99.521001
3014.000000	99.518985
3013.000000	99.516523
3012.000000	99.514930
3011.000000	99.515889
3010.000000	99.519244
3009.000000	99.522805
3008.000000	99.524768
3007.000000	99.525377
3006.000000	99.525746
3005.000000	99.526163
3004.000000	99.526301
3003.000000	99.526140
3002.000000	99.525691
3001.000000	99.524464
3000.000000	99.522169
2999.000000	99.519528
2998.000000	99.517587
2997.000000	99.516608
2996.000000	99.516260
2995.000000	99.516227
2994.000000	99.515860
2993.000000	99.514045
2992.000000	99.510660
2991.000000	99.507702
2990.000000	99.507632
2989.000000	99.510569
2988.000000	99.514170
2987.000000	99.516309
2986.000000	99.516869
2985.000000	99.516774
2984.000000	99.516396
2983.000000	99.515524
2982.000000	99.514222
2981.000000	99.512998
2980.000000	99.512307
2979.000000	99.512128
2978.000000	99.511892
2977.000000	99.510748
2976.000000	99.508084
2975.000000	99.504010
2974.000000	99.499416
2973.000000	99.495718
2972.000000	99.494390
2971.000000	99.496076
2970.000000	99.499917
2969.000000	99.504399
2968.000000	99.509188
2967.000000	99.515183
2966.000000	99.521841
2965.000000	99.525525
2964.000000	99.522345
2963.000000	99.512594
2962.000000	99.500912
2961.000000	99.491829
2960.000000	99.486502
2959.000000	99.483906
2958.000000	99.483272
2957.000000	99.484049
2956.000000	99.484883
2955.000000	99.484591
2954.000000	99.483993
2953.000000	99.485233
2952.000000	99.488916
2951.000000	99.493024
2950.000000	99.495286
2949.000000	99.495914
2948.000000	99.497167
2947.000000	99.500369
2946.000000	99.503900
2945.000000	99.504324
2944.000000	99.499450
2943.000000	99.490442
2942.000000	99.481194
2941.000000	99.475533
2940.000000	99.474632
2939.000000	99.476638
2938.000000	99.478556
2937.000000	99.478496
2936.000000	99.476474
2935.000000	99.473715
2934.000000	99.471665
2933.000000	99.471236
2932.000000	99.471987
2931.000000	99.471747
2930.000000	99.467977
2929.000000	99.460510
2928.000000	99.452631
2927.000000	99.448198
2926.000000	99.447473
2925.000000	99.446673
2924.000000	99.442085
2923.000000	99.433706
2922.000000	99.424401
2921.000000	99.416797
2920.000000	99.412336
2919.000000	99.412173
2918.000000	99.416594
2917.000000	99.423071
2916.000000	99.426870
2915.000000	99.425095
2914.000000	99.419554
2913.000000	99.414717
2912.000000	99.413272
2911.000000	99.414558
2910.000000	99.416678
2909.000000	99.418854
2908.000000	99.421606
2907.000000	99.425757
2906.000000	99.431579
2905.000000	99.437932
2904.000000	99.441776
2903.000000	99.439635
2902.000000	99.430937
2901.000000	99.419816
2900.000000	99.412585
2899.000000	99.412829
2898.000000	99.418795
2897.000000	99.425472
2896.000000	99.428785
2895.000000	99.428086
2894.000000	99.425530
2893.000000	99.423638
2892.000000	99.423425
2891.000000	99.424497
2890.000000	99.426349
2889.000000	99.428796
2888.000000	99.430916
2887.000000	99.430578
2886.000000	99.426231
2885.000000	99.419086
2884.000000	99.412523
2883.000000	99.409019
2882.000000	99.408245
2881.000000	99.408181
2880.000000	99.407159
2879.000000	99.404574
2878.000000	99.400635
2877.000000	99.396351
2876.000000	99.393182
2875.000000	99.391893
2874.000000	99.391838
2873.000000	99.391830
2872.000000	99.391595
2871.000000	99.392008
2870.000000	99.393990
2869.000000	99.397414
2868.000000	99.401092
2867.000000	99.403732
2866.000000	99.404953
2865.000000	99.405294
2864.000000	99.405204
2863.000000	99.404525
2862.000000	99.403451
2861.000000	99.403321
2860.000000	99.405095
2859.000000	99.407137
2858.000000	99.406116
2857.000000	99.400746
2856.000000	99.393226
2855.000000	99.386223
2854.000000	99.379701
2853.000000	99.371829
2852.000000	99.362021
2851.000000	99.351925
2850.000000	99.344232
2849.000000	99.341504
2848.000000	99.344883
2847.000000	99.352308
2846.000000	99.358768
2845.000000	99.360326
2844.000000	99.358013
2843.000000	99.356484
2842.000000	99.359015
2841.000000	99.364996
2840.000000	99.372117
2839.000000	99.379085
2838.000000	99.385578
2837.000000	99.391014
2836.000000	99.394586
2835.000000	99.396171
2834.000000	99.396585
2833.000000	99.397042
2832.000000	99.398380
2831.000000	99.400446
2830.000000	99.402381
2829.000000	99.403820
2828.000000	99.405318
2827.000000	99.407091
2826.000000	99.407978
2825.000000	99.406627
2824.000000	99.403175
2823.000000	99.398659
2822.000000	99.393376
2821.000000	99.387234
2820.000000	99.381341
2819.000000	99.377482
2818.000000	99.375935
2817.000000	99.375380
2816.000000	99.375183
2815.000000	99.376114
2814.000000	99.378346
2813.000000	99.380584
2812.000000	99.382084
2811.000000	99.384066
2810.000000	99.387907
2809.000000	99.392969
2808.000000	99.397451
2807.000000	99.400596
2806.000000	99.402853
2805.000000	99.404561
2804.000000	99.405732
2803.000000	99.406779
2802.000000	99.408243
2801.000000	99.409914
2800.000000	99.411227
2799.000000	99.412586
2798.000000	99.415376
2797.000000	99.420261
2796.000000	99.425812
2795.000000	99.429113
2794.000000	99.427868
2793.000000	99.422257
2792.000000	99.414922
2791.000000	99.408804
2790.000000	99.404829
2789.000000	99.402105
2788.000000	99.400264
2787.000000	99.400374
2786.000000	99.402716
2785.000000	99.404648
2784.000000	99.402426
2783.000000	99.395475
2782.000000	99.387656
2781.000000	99.383547
2780.000000	99.384060
2779.000000	99.386488
2778.000000	99.388272
2777.000000	99.389411
2776.000000	99.390981
2775.000000	99.392708
2774.000000	99.393463
2773.000000	99.393738
2772.000000	99.395866
2771.000000	99.400964
2770.000000	99.406766
2769.000000	99.409664
2768.000000	99.408479
2767.000000	99.405288
2766.000000	99.402897
2765.000000	99.402464
2764.000000	99.403465
2763.000000	99.404860
2762.000000	99.405967
2761.000000	99.406774
2760.000000	99.407590
2759.000000	99.408205
2758.000000	99.407743
2757.000000	99.405905
2756.000000	99.403826
2755.000000	99.402722
2754.000000	99.401964
2753.000000	99.399699
2752.000000	99.395537
2751.000000	99.391508
2750.000000	99.389877
2749.000000	99.390702
2748.000000	99.391868
2747.000000	99.391017
2746.000000	99.387306
2745.000000	99.382004
2744.000000	99.377667
2743.000000	99.376105
2742.000000	99.376828
2741.000000	99.377782
2740.000000	99.377649
2739.000000	99.376929
2738.000000	99.376871
2737.000000	99.378150
2736.000000	99.380739
2735.000000	99.384260
2734.000000	99.387995
2733.000000	99.390979
2732.000000	99.392575
2731.000000	99.392887
2730.000000	99.392671
2729.000000	99.393008
2728.000000	99.394629
2727.000000	99.396912
2726.000000	99.397752
2725.000000	99.395320
2724.000000	99.390164
2723.000000	99.385044
2722.000000	99.382654
2721.000000	99.383906
2720.000000	99.387976
2719.000000	99.392970
2718.000000	99.396559
2717.000000	99.397199
2716.000000	99.395363
2715.000000	99.392972
2714.000000	99.391192
2713.000000	99.389194
2712.000000	99.385331
2711.000000	99.379301
2710.000000	99.373179
2709.000000	99.370382
2708.000000	99.372957
2707.000000	99.379046
2706.000000	99.383484
2705.000000	99.382072
2704.000000	99.375429
2703.000000	99.368045
2702.000000	99.363966
2701.000000	99.364198
2700.000000	99.367524
2699.000000	99.371986
2698.000000	99.375410
2697.000000	99.376314
2696.000000	99.375288
2695.000000	99.374566
2694.000000	99.375573
2693.000000	99.377555
2692.000000	99.378853
2691.000000	99.378635
2690.000000	99.377116
2689.000000	99.375115
2688.000000	99.373882
2687.000000	99.374422
2686.000000	99.376364
2685.000000	99.378172
2684.000000	99.378893
2683.000000	99.379048
2682.000000	99.379504
2681.000000	99.380377
2680.000000	99.381416
2679.000000	99.382576
2678.000000	99.383616
2677.000000	99.383871
2676.000000	99.383055
2675.000000	99.381723
2674.000000	99.380420
2673.000000	99.378803
2672.000000	99.376109
2671.000000	99.372159
2670.000000	99.367665
2669.000000	99.363781
2668.000000	99.361316
2667.000000	99.359949
2666.000000	99.358385
2665.000000	99.355833
2664.000000	99.353057
2663.000000	99.351209
2662.000000	99.350112
2661.000000	99.348881
2660.000000	99.347840
2659.000000	99.348169
2658.000000	99.349564
2657.000000	99.350043
2656.000000	99.348810
2655.000000	99.347889
2654.000000	99.350001
2653.000000	99.355812
2652.000000	99.363564
2651.000000	99.370016
2650.000000	99.371479
2649.000000	99.366240
2648.000000	99.357510
2647.000000	99.352288
2646.000000	99.355238
2645.000000	99.364338
2644.000000	99.373728
2643.000000	99.379490
2642.000000	99.380993
2641.000000	99.378313
2640.000000	99.371707
2639.000000	99.364039
2638.000000	99.360831
2637.000000	99.365797
2636.000000	99.376641
2635.000000	99.386102
2634.000000	99.387388
2633.000000	99.379119
2632.000000	99.366150
2631.000000	99.356042
2630.000000	99.354050
2629.000000	99.360326
2628.000000	99.370887
2627.000000	99.380689
2626.000000	99.386495
2625.000000	99.388555
2624.000000	99.390312
2623.000000	99.395472
2622.000000	99.404110
2621.000000	99.411961
2620.000000	99.414416
2619.000000	99.411218
2618.000000	99.406731
2617.000000	99.405731
2616.000000	99.409276
2615.000000	99.414454
2614.000000	99.417720
2613.000000	99.418177
2612.000000	99.417321
2611.000000	99.415864
2610.000000	99.412289
2609.000000	99.405679
2608.000000	99.398760
2607.000000	99.396002
2606.000000	99.398738
2605.000000	99.403961
2604.000000	99.407815
2603.000000	99.408313
2602.000000	99.404717
2601.000000	99.397049
2600.000000	99.387562
2599.000000	99.380566
2598.000000	99.378933
2597.000000	99.381455
2596.000000	99.384383
2595.000000	99.384672
2594.000000	99.381565
2593.000000	99.376811
2592.000000	99.374071
2591.000000	99.376408
2590.000000	99.383463
2589.000000	99.392220
2588.000000	99.400793
2587.000000	99.409529
2586.000000	99.417856
2585.000000	99.422759
2584.000000	99.422098
2583.000000	99.417895
2582.000000	99.414662
2581.000000	99.415578
2580.000000	99.420963
2579.000000	99.428682
2578.000000	99.434903
2577.000000	99.436208
2576.000000	99.432571
2575.000000	99.427217
2574.000000	99.422941
2573.000000	99.420301
2572.000000	99.419732
2571.000000	99.422391
2570.000000	99.427276
2569.000000	99.430266
2568.000000	99.428469
2567.000000	99.423386
2566.000000	99.417557
2565.000000	99.410500
2564.000000	99.401098
2563.000000	99.392220
2562.000000	99.389049
2561.000000	99.393119
2560.000000	99.400984
2559.000000	99.408877
2558.000000	99.415808
2557.000000	99.421816
2556.000000	99.425974
2555.000000	99.427756
2554.000000	99.429060
2553.000000	99.433328
2552.000000	99.442626
2551.000000	99.455747
2550.000000	99.468846
2549.000000	99.477878
2548.000000	99.480676
2547.000000	99.476844
2546.000000	99.466577
2545.000000	99.450940
2544.000000	99.433217
2543.000000	99.418257
2542.000000	99.409329
2541.000000	99.405955
2540.000000	99.404692
2539.000000	99.401284
2538.000000	99.393011
2537.000000	99.381196
2536.000000	99.371476
2535.000000	99.369085
2534.000000	99.373249
2533.000000	99.378148
2532.000000	99.379478
2531.000000	99.377280
2530.000000	99.371688
2529.000000	99.360188
2528.000000	99.341979
2527.000000	99.322030
2526.000000	99.306807
2525.000000	99.297107
2524.000000	99.288869
2523.000000	99.280657
2522.000000	99.276751
2521.000000	99.281156
2520.000000	99.290756
2519.000000	99.296868
2518.000000	99.293614
2517.000000	99.283807
2516.000000	99.275549
2515.000000	99.273236
2514.000000	99.273458
2513.000000	99.271021
2512.000000	99.267437
2511.000000	99.270018
2510.000000	99.281862
2509.000000	99.295748
2508.000000	99.300610
2507.000000	99.293268
2506.000000	99.281926
2505.000000	99.278195
2504.000000	99.286471
2503.000000	99.300556
2502.000000	99.309940
2501.000000	99.309488
2500.000000	99.303164
2499.000000	99.298630
2498.000000	99.299326
2497.000000	99.303061
2496.000000	99.306924
2495.000000	99.310565
2494.000000	99.314732
2493.000000	99.319410
2492.000000	99.324555
2491.000000	99.330820
2490.000000	99.338526
2489.000000	99.347363
2488.000000	99.357467
2487.000000	99.368993
2486.000000	99.380283
2485.000000	99.388455
2484.000000	99.392352
2483.000000	99.392925
2482.000000	99.390632
2481.000000	99.385088
2480.000000	99.378004
2479.000000	99.373579
2478.000000	99.374577
2477.000000	99.380008
2476.000000	99.387421
2475.000000	99.395193
2474.000000	99.401905
2473.000000	99.406493
2472.000000	99.410258
2471.000000	99.415628
2470.000000	99.421290
2469.000000	99.421801
2468.000000	99.414622
2467.000000	99.404821
2466.000000	99.399841
2465.000000	99.401458
2464.000000	99.405506
2463.000000	99.407711
2462.000000	99.406968
2461.000000	99.404298
2460.000000	99.401706
2459.000000	99.401605
2458.000000	99.404864
2457.000000	99.409449
2456.000000	99.412608
2455.000000	99.413889
2454.000000	99.414613
2453.000000	99.415407
2452.000000	99.416021
2451.000000	99.416739
2450.000000	99.417975
2449.000000	99.418847
2448.000000	99.417920
2447.000000	99.415343
2446.000000	99.413130
2445.000000	99.413388
2444.000000	99.416662
2443.000000	99.421263
2442.000000	99.423905
2441.000000	99.422567
2440.000000	99.419723
2439.000000	99.421061
2438.000000	99.429339
2437.000000	99.440386
2436.000000	99.446729
2435.000000	99.444729
2434.000000	99.437053
2433.000000	99.428886
2432.000000	99.423034
2431.000000	99.418539
2430.000000	99.413226
2429.000000	99.407180
2428.000000	99.403219
2427.000000	99.403622
2426.000000	99.407552
2425.000000	99.413088
2424.000000	99.420306
2423.000000	99.429641
2422.000000	99.437922
2421.000000	99.440028
2420.000000	99.435515
2419.000000	99.430261
2418.000000	99.429546
2417.000000	99.431741
2416.000000	99.430949
2415.000000	99.424158
2414.000000	99.413973
2413.000000	99.405444
2412.000000	99.401578
2411.000000	99.401225
2410.000000	99.400769
2409.000000	99.398755
2408.000000	99.398661
2407.000000	99.405091
2406.000000	99.417242
2405.000000	99.428868
2404.000000	99.435173
2403.000000	99.437038
2402.000000	99.437688
2401.000000	99.438494
2400.000000	99.439565
2399.000000	99.441294
2398.000000	99.443114
2397.000000	99.443033
2396.000000	99.440554
2395.000000	99.438094
2394.000000	99.437636
2393.000000	99.438072
2392.000000	99.437707
2391.000000	99.437057
2390.000000	99.436897
2389.000000	99.435809
2388.000000	99.432550
2387.000000	99.429293
2386.000000	99.429276
2385.000000	99.432094
2384.000000	99.434073
2383.000000	99.433034
2382.000000	99.430473
2381.000000	99.428987
2380.000000	99.429645
2379.000000	99.431887
2378.000000	99.434068
2377.000000	99.433882
2376.000000	99.429976
2375.000000	99.423450
2374.000000	99.416361
2373.000000	99.409312
2372.000000	99.402496
2371.000000	99.398283
2370.000000	99.399345
2369.000000	99.403635
2368.000000	99.405066
2367.000000	99.400680
2366.000000	99.394427
2365.000000	99.392039
2364.000000	99.394480
2363.000000	99.398134
2362.000000	99.397153
2361.000000	99.385474
2360.000000	99.361920
2359.000000	99.332195
2358.000000	99.309265
2357.000000	99.305513
2356.000000	99.321671
2355.000000	99.346073
2354.000000	99.361944
2353.000000	99.361783
2352.000000	99.351448
2351.000000	99.342689
2350.000000	99.342081
2349.000000	99.347297
2348.000000	99.352555
2347.000000	99.351346
2346.000000	99.341565
2345.000000	99.328125
2344.000000	99.320596
2343.000000	99.325251
2342.000000	99.335546
2341.000000	99.340499
2340.000000	99.336548
2339.000000	99.329390
2338.000000	99.325172
2337.000000	99.326001
2336.000000	99.330821
2335.000000	99.336526
2334.000000	99.336812
2333.000000	99.327720
2332.000000	99.314092
2331.000000	99.306436
2330.000000	99.308853
2329.000000	99.311335
2328.000000	99.302361
2327.000000	99.278338
2326.000000	99.246837
2325.000000	99.220132
2324.000000	99.210363
2323.000000	99.224108
2322.000000	99.255389
2321.000000	99.289635
2320.000000	99.314305
2319.000000	99.326760
2318.000000	99.330382
2317.000000	99.328509
2316.000000	99.324545
2315.000000	99.321584
2314.000000	99.321395
2313.000000	99.323777
2312.000000	99.330458
2311.000000	99.343230
2310.000000	99.359058
2309.000000	99.369216
2308.000000	99.368894
2307.000000	99.362471
2306.000000	99.357860
2305.000000	99.357569
2304.000000	99.358233
2303.000000	99.355792
2302.000000	99.347859
2301.000000	99.334106
2300.000000	99.318133
2299.000000	99.306474
2298.000000	99.303200
2297.000000	99.305641
2296.000000	99.309182
2295.000000	99.312488
2294.000000	99.317031
2293.000000	99.322574
2292.000000	99.328041
2291.000000	99.333819
2290.000000	99.340181
2289.000000	99.344516
2288.000000	99.344388
2287.000000	99.342069
2286.000000	99.341999
2285.000000	99.344392
2284.000000	99.344833
2283.000000	99.340716
2282.000000	99.334907
2281.000000	99.333174
2280.000000	99.339319
2279.000000	99.352505
2278.000000	99.367264
2277.000000	99.377563
2276.000000	99.382467
2275.000000	99.386246
2274.000000	99.391519
2273.000000	99.394635
2272.000000	99.390351
2271.000000	99.378477
2270.000000	99.364030
2269.000000	99.353491
2268.000000	99.352683
2267.000000	99.364347
2266.000000	99.384385
2265.000000	99.402849
2264.000000	99.411770
2263.000000	99.410194
2262.000000	99.401413
2261.000000	99.390042
2260.000000	99.383048
2259.000000	99.386980
2258.000000	99.399791
2257.000000	99.410959
2256.000000	99.413841
2255.000000	99.413466
2254.000000	99.417446
2253.000000	99.424475
2252.000000	99.427297
2251.000000	99.422294
2250.000000	99.411122
2249.000000	99.397386
2248.000000	99.387249
2247.000000	99.388427
2246.000000	99.402797
2245.000000	99.423095
2244.000000	99.441227
2243.000000	99.455689
2242.000000	99.466517
2241.000000	99.469073
2240.000000	99.459513
2239.000000	99.441994
2238.000000	99.424533
2237.000000	99.412214
2236.000000	99.409043
2235.000000	99.419621
2234.000000	99.441634
2233.000000	99.462639
2232.000000	99.472767
2231.000000	99.475685
2230.000000	99.478634
2229.000000	99.477792
2228.000000	99.464436
2227.000000	99.441212
2226.000000	99.420757
2225.000000	99.410015
2224.000000	99.406460
2223.000000	99.408510
2222.000000	99.418575
2221.000000	99.434482
2220.000000	99.447313
2219.000000	99.451020
2218.000000	99.447872
2217.000000	99.442838
2216.000000	99.437427
2215.000000	99.429263
2214.000000	99.413914
2213.000000	99.388720
2212.000000	99.359620
2211.000000	99.341367
2210.000000	99.344454
2209.000000	99.362961
2208.000000	99.381220
2207.000000	99.391781
2206.000000	99.400767
2205.000000	99.415773
2204.000000	99.434667
2203.000000	99.448106
2202.000000	99.450076
2201.000000	99.445203
2200.000000	99.446008
2199.000000	99.460285
2198.000000	99.480362
2197.000000	99.489541
2196.000000	99.482208
2195.000000	99.472341
2194.000000	99.478686
2193.000000	99.506504
2192.000000	99.546949
2191.000000	99.588453
2190.000000	99.622870
2189.000000	99.644811
2188.000000	99.651267
2187.000000	99.640330
2186.000000	99.609721
2185.000000	99.562913
2184.000000	99.516707
2183.000000	99.491945
2182.000000	99.493480
2181.000000	99.509323
2180.000000	99.530861
2179.000000	99.559464
2178.000000	99.588262
2177.000000	99.595994
2176.000000	99.572796
2175.000000	99.538662
2174.000000	99.521122
2173.000000	99.523455
2172.000000	99.529583
2171.000000	99.532140
2170.000000	99.539284
2169.000000	99.556491
2168.000000	99.573321
2167.000000	99.569239
2166.000000	99.527556
2165.000000	99.449621
2164.000000	99.364331
2163.000000	99.316622
2162.000000	99.336566
2161.000000	99.419676
2160.000000	99.536439
2159.000000	99.653479
2158.000000	99.741326
2157.000000	99.779385
2156.000000	99.771764
2155.000000	99.748273
2154.000000	99.739815
2153.000000	99.755696
2152.000000	99.783063
2151.000000	99.801306
2150.000000	99.796902
2149.000000	99.773493
2148.000000	99.750981
2147.000000	99.747322
2146.000000	99.758511
2145.000000	99.762865
2144.000000	99.745452
2143.000000	99.709457
2142.000000	99.664632
2141.000000	99.618339
2140.000000	99.580344
2139.000000	99.562955
2138.000000	99.569129
2137.000000	99.587627
2136.000000	99.604863
2135.000000	99.615499
2134.000000	99.618291
2133.000000	99.611436
2132.000000	99.598864
2131.000000	99.593071
2130.000000	99.603504
2129.000000	99.624747
2128.000000	99.640773
2127.000000	99.639571
2126.000000	99.621948
2125.000000	99.598977
2124.000000	99.582581
2123.000000	99.575907
2122.000000	99.571447
2121.000000	99.560384
2120.000000	99.542904
2119.000000	99.525435
2118.000000	99.509307
2117.000000	99.488517
2116.000000	99.459454
2115.000000	99.426810
2114.000000	99.398074
2113.000000	99.377210
2112.000000	99.364945
2111.000000	99.360562
2110.000000	99.362316
2109.000000	99.370180
2108.000000	99.387681
2107.000000	99.415082
2106.000000	99.441618
2105.000000	99.453189
2104.000000	99.449181
2103.000000	99.442944
2102.000000	99.443734
2101.000000	99.447563
2100.000000	99.448251
2099.000000	99.447030
2098.000000	99.446819
2097.000000	99.446789
2096.000000	99.448012
2095.000000	99.455307
2094.000000	99.467930
2093.000000	99.477333
2092.000000	99.479272
2091.000000	99.478789
2090.000000	99.478835
2089.000000	99.474941
2088.000000	99.467536
2087.000000	99.467765
2086.000000	99.480990
2085.000000	99.493956
2084.000000	99.490328
2083.000000	99.472839
2082.000000	99.457905
2081.000000	99.453295
2080.000000	99.453377
2079.000000	99.453013
2078.000000	99.453200
2077.000000	99.452686
2076.000000	99.446167
2075.000000	99.433901
2074.000000	99.424836
2073.000000	99.426923
2072.000000	99.438450
2071.000000	99.449405
2070.000000	99.447671
2069.000000	99.426917
2068.000000	99.395167
2067.000000	99.373771
2066.000000	99.380962
2065.000000	99.414084
2064.000000	99.450882
2063.000000	99.469633
2062.000000	99.465605
2061.000000	99.451156
2060.000000	99.444818
2059.000000	99.456671
2058.000000	99.480496
2057.000000	99.502223
2056.000000	99.516618
2055.000000	99.529965
2054.000000	99.544403
2053.000000	99.549839
2052.000000	99.538753
2051.000000	99.521015
2050.000000	99.515416
2049.000000	99.529569
2048.000000	99.554043
2047.000000	99.574168
2046.000000	99.579750
2045.000000	99.565723
2044.000000	99.534905
2043.000000	99.500972
2042.000000	99.482242
2041.000000	99.490416
2040.000000	99.523239
2039.000000	99.565384
2038.000000	99.597734
2037.000000	99.611528
2036.000000	99.614603
2035.000000	99.616517
2034.000000	99.611430
2033.000000	99.591979
2032.000000	99.576261
2031.000000	99.596167
2030.000000	99.655733
2029.000000	99.722164
2028.000000	99.762605
2027.000000	99.771359
2026.000000	99.756672
2025.000000	99.727179
2024.000000	99.702284
2023.000000	99.708809
2022.000000	99.750179
2021.000000	99.795573
2020.000000	99.814466
2019.000000	99.807950
2018.000000	99.794668
2017.000000	99.782018
2016.000000	99.762647
2015.000000	99.726828
2014.000000	99.669613
2013.000000	99.600015
2012.000000	99.548017
2011.000000	99.542403
2010.000000	99.575135
2009.000000	99.604656
2008.000000	99.603532
2007.000000	99.586439
2006.000000	99.579756
2005.000000	99.584924
2004.000000	99.585998
2003.000000	99.573299
2002.000000	99.545106
2001.000000	99.503187
2000.000000	99.460483
1999.000000	99.440255
1998.000000	99.454394
1997.000000	99.488516
1996.000000	99.518114
1995.000000	99.533518
1994.000000	99.541174
1993.000000	99.549710
1992.000000	99.563671
1991.000000	99.582224
1990.000000	99.595603
1989.000000	99.590594
1988.000000	99.566637
1987.000000	99.539038
1986.000000	99.520783
1985.000000	99.508392
1984.000000	99.490212
1983.000000	99.460595
1982.000000	99.421995
1981.000000	99.383774
1980.000000	99.363833
1979.000000	99.380075
1978.000000	99.432575
1977.000000	99.502200
1976.000000	99.572467
1975.000000	99.639959
1974.000000	99.699833
1973.000000	99.742760
1972.000000	99.771845
1971.000000	99.799928
1970.000000	99.824518
1969.000000	99.826324
1968.000000	99.799351
1967.000000	99.763099
1966.000000	99.734618
1965.000000	99.707410
1964.000000	99.669435
1963.000000	99.624835
1962.000000	99.590634
1961.000000	99.583402
1960.000000	99.608315
1959.000000	99.650108
1958.000000	99.677818
1957.000000	99.672971
1956.000000	99.651835
1955.000000	99.644062
1954.000000	99.652326
1953.000000	99.651637
1952.000000	99.627293
1951.000000	99.592876
1950.000000	99.568961
1949.000000	99.564958
1948.000000	99.584989
1947.000000	99.629376
1946.000000	99.681422
1945.000000	99.712193
1944.000000	99.710128
1943.000000	99.692958
1942.000000	99.680387
1941.000000	99.668776
1940.000000	99.645717
1939.000000	99.612505
1938.000000	99.579412
1937.000000	99.553247
1936.000000	99.538475
1935.000000	99.541407
1934.000000	99.564286
1933.000000	99.599887
1932.000000	99.637900
1931.000000	99.669897
1930.000000	99.685525
1929.000000	99.676523
1928.000000	99.651406
1927.000000	99.634411
1926.000000	99.640783
1925.000000	99.661086
1924.000000	99.674136
1923.000000	99.668728
1922.000000	99.648978
1921.000000	99.625027
1920.000000	99.606570
1919.000000	99.600551
1918.000000	99.604232
1917.000000	99.604114
1916.000000	99.592073
1915.000000	99.575350
1914.000000	99.564773
1913.000000	99.562305
1912.000000	99.563721
1911.000000	99.567423
1910.000000	99.575181
1909.000000	99.586309
1908.000000	99.596743
1907.000000	99.603425
1906.000000	99.606122
1905.000000	99.607461
1904.000000	99.611350
1903.000000	99.617129
1902.000000	99.617155
1901.000000	99.606157
1900.000000	99.591705
1899.000000	99.586800
1898.000000	99.592470
1897.000000	99.597158
1896.000000	99.594102
1895.000000	99.589394
1894.000000	99.589425
1893.000000	99.591536
1892.000000	99.592619
1891.000000	99.596127
1890.000000	99.603894
1889.000000	99.609402
1888.000000	99.608009
1887.000000	99.605442
1886.000000	99.608102
1885.000000	99.613462
1884.000000	99.615513
1883.000000	99.613812
1882.000000	99.611535
1881.000000	99.608720
1880.000000	99.603605
1879.000000	99.597360
1878.000000	99.592421
1877.000000	99.589150
1876.000000	99.587664
1875.000000	99.589239
1874.000000	99.593359
1873.000000	99.597527
1872.000000	99.602058
1871.000000	99.610524
1870.000000	99.622911
1869.000000	99.632754
1868.000000	99.636573
1867.000000	99.638589
1866.000000	99.639779
1865.000000	99.634003
1864.000000	99.618422
1863.000000	99.599460
1862.000000	99.585876
1861.000000	99.580359
1860.000000	99.581253
1859.000000	99.588062
1858.000000	99.600425
1857.000000	99.614587
1856.000000	99.625814
1855.000000	99.632510
1854.000000	99.635300
1853.000000	99.634880
1852.000000	99.632101
1851.000000	99.627980
1850.000000	99.621850
1849.000000	99.612718
1848.000000	99.603713
1847.000000	99.599876
1846.000000	99.601038
1845.000000	99.601025
1844.000000	99.597482
1843.000000	99.596083
1842.000000	99.600269
1841.000000	99.608075
1840.000000	99.618371
1839.000000	99.630507
1838.000000	99.639586
1837.000000	99.639786
1836.000000	99.633582
1835.000000	99.629996
1834.000000	99.632085
1833.000000	99.633369
1832.000000	99.628011
1831.000000	99.619001
1830.000000	99.613718
1829.000000	99.614104
1828.000000	99.616429
1827.000000	99.618231
1826.000000	99.618436
1825.000000	99.615181
1824.000000	99.609794
1823.000000	99.606711
1822.000000	99.606968
1821.000000	99.607897
1820.000000	99.609093
1819.000000	99.613204
1818.000000	99.619318
1817.000000	99.621678
1816.000000	99.617551
1815.000000	99.610297
1814.000000	99.602763
1813.000000	99.593381
1812.000000	99.581470
1811.000000	99.570641
1810.000000	99.563191
1809.000000	99.555943
1808.000000	99.544610
1807.000000	99.528041
1806.000000	99.506240
1805.000000	99.478840
1804.000000	99.446686
1803.000000	99.410742
1802.000000	99.369644
1801.000000	99.322358
1800.000000	99.274454
1799.000000	99.233934
1798.000000	99.201720
1797.000000	99.174283
1796.000000	99.151918
1795.000000	99.139244
1794.000000	99.139423
1793.000000	99.151936
1792.000000	99.175929
1791.000000	99.210787
1790.000000	99.252349
1789.000000	99.293343
1788.000000	99.327953
1787.000000	99.354680
1786.000000	99.376204
1785.000000	99.397095
1784.000000	99.420211
1783.000000	99.444248
1782.000000	99.465507
1781.000000	99.481189
1780.000000	99.493324
1779.000000	99.506488
1778.000000	99.520018
1777.000000	99.528650
1776.000000	99.531024
1775.000000	99.533165
1774.000000	99.541027
1773.000000	99.551543
1772.000000	99.556449
1771.000000	99.554340
1770.000000	99.549864
1769.000000	99.546315
1768.000000	99.545521
1767.000000	99.548527
1766.000000	99.553732
1765.000000	99.558226
1764.000000	99.562186
1763.000000	99.568350
1762.000000	99.577007
1761.000000	99.584685
1760.000000	99.590661
1759.000000	99.598685
1758.000000	99.610528
1757.000000	99.622657
1756.000000	99.631993
1755.000000	99.641312
1754.000000	99.653194
1753.000000	99.664384
1752.000000	99.668626
1751.000000	99.664345
1750.000000	99.656401
1749.000000	99.649094
1748.000000	99.643976
1747.000000	99.642694
1746.000000	99.644691
1745.000000	99.645403
1744.000000	99.642791
1743.000000	99.641219
1742.000000	99.644391
1741.000000	99.647632
1740.000000	99.642082
1739.000000	99.626841
1738.000000	99.610502
1737.000000	99.600113
1736.000000	99.596880
1735.000000	99.598111
1734.000000	99.599624
1733.000000	99.597909
1732.000000	99.591167
1731.000000	99.581725
1730.000000	99.573397
1729.000000	99.568184
1728.000000	99.566539
1727.000000	99.567272
1726.000000	99.567875
1725.000000	99.566963
1724.000000	99.567584
1723.000000	99.572782
1722.000000	99.579194
1721.000000	99.581807
1720.000000	99.581588
1719.000000	99.583705
1718.000000	99.586935
1717.000000	99.582777
1716.000000	99.572565
1715.000000	99.568126
1714.000000	99.572769
1713.000000	99.579160
1712.000000	99.581672
1711.000000	99.581705
1710.000000	99.581879
1709.000000	99.580935
1708.000000	99.577594
1707.000000	99.575305
1706.000000	99.577293
1705.000000	99.580264
1704.000000	99.580008
1703.000000	99.578989
1702.000000	99.582000
1701.000000	99.586763
1700.000000	99.589097
1699.000000	99.590564
1698.000000	99.593023
1697.000000	99.596688
1696.000000	99.601315
1695.000000	99.606674
1694.000000	99.610589
1693.000000	99.610958
1692.000000	99.610013
1691.000000	99.609459
1690.000000	99.607901
1689.000000	99.603588
1688.000000	99.597702
1687.000000	99.594040
1686.000000	99.593498
1685.000000	99.592799
1684.000000	99.593326
1683.000000	99.598365
1682.000000	99.602674
1681.000000	99.603020
1680.000000	99.602269
1679.000000	99.602226
1678.000000	99.601699
1677.000000	99.597848
1676.000000	99.591573
1675.000000	99.588784
1674.000000	99.591243
1673.000000	99.592859
1672.000000	99.591711
1671.000000	99.590936
1670.000000	99.590140
1669.000000	99.586388
1668.000000	99.581312
1667.000000	99.579270
1666.000000	99.579896
1665.000000	99.579734
1664.000000	99.578401
1663.000000	99.580941
1662.000000	99.591562
1661.000000	99.607040
1660.000000	99.623549
1659.000000	99.641023
1658.000000	99.656450
1657.000000	99.665019
1656.000000	99.668977
1655.000000	99.679064
1654.000000	99.703217
1653.000000	99.735319
1652.000000	99.759951
1651.000000	99.770292
1650.000000	99.773834
1649.000000	99.777078
1648.000000	99.777760
1647.000000	99.775075
1646.000000	99.774115
1645.000000	99.775256
1644.000000	99.774974
1643.000000	99.773797
1642.000000	99.772492
1641.000000	99.768848
1640.000000	99.762913
1639.000000	99.758665
1638.000000	99.757556
1637.000000	99.754857
1636.000000	99.749462
1635.000000	99.751498
1634.000000	99.760249
1633.000000	99.763807
1632.000000	99.761342
1631.000000	99.758240
1630.000000	99.755865
1629.000000	99.751552
1628.000000	99.745643
1627.000000	99.742564
1626.000000	99.742135
1625.000000	99.738606
1624.000000	99.730596
1623.000000	99.725136
1622.000000	99.725905
1621.000000	99.726961
1620.000000	99.725343
1619.000000	99.725255
1618.000000	99.727232
1617.000000	99.723857
1616.000000	99.712847
1615.000000	99.702527
1614.000000	99.696881
1613.000000	99.692554
1612.000000	99.686708
1611.000000	99.679663
1610.000000	99.672365
1609.000000	99.664113
1608.000000	99.656563
1607.000000	99.653434
1606.000000	99.653478
1605.000000	99.650399
1604.000000	99.642737
1603.000000	99.636338
1602.000000	99.633619
1601.000000	99.629345
1600.000000	99.620306
1599.000000	99.610055
1598.000000	99.600843
1597.000000	99.589635
1596.000000	99.575589
1595.000000	99.563520
1594.000000	99.555993
1593.000000	99.549501
1592.000000	99.541939
1591.000000	99.535746
1590.000000	99.531193
1589.000000	99.524981
1588.000000	99.517695
1587.000000	99.514091
1586.000000	99.513810
1585.000000	99.510557
1584.000000	99.502164
1583.000000	99.494563
1582.000000	99.492067
1581.000000	99.491847
1580.000000	99.492048
1579.000000	99.495989
1578.000000	99.504830
1577.000000	99.512936
1576.000000	99.518948
1575.000000	99.527765
1574.000000	99.535893
1573.000000	99.538145
1572.000000	99.538603
1571.000000	99.543662
1570.000000	99.551408
1569.000000	99.552649
1568.000000	99.547026
1567.000000	99.543705
1566.000000	99.544989
1565.000000	99.545369
1564.000000	99.542235
1563.000000	99.540759
1562.000000	99.541448
1561.000000	99.536458
1560.000000	99.511049
1559.000000	99.470746
1558.000000	99.447182
1557.000000	99.436082
1556.000000	99.421922
1555.000000	99.407286
1554.000000	99.386043
1553.000000	99.349597
1552.000000	99.299954
1551.000000	99.243930
1550.000000	99.179923
1549.000000	99.105986
1548.000000	99.027641
1547.000000	98.944717
1546.000000	98.843644
1545.000000	98.714005
1544.000000	98.575671
1543.000000	98.460006
1542.000000	98.361887
1541.000000	98.235076
1540.000000	98.067117
1539.000000	97.918819
1538.000000	97.816049
1537.000000	97.727595
1536.000000	97.635870
1535.000000	97.531979
1534.000000	97.400420
1533.000000	97.244049
1532.000000	97.097950
1531.000000	96.980827
1530.000000	96.875050
1529.000000	96.758497
1528.000000	96.625406
1527.000000	96.484833
1526.000000	96.344737
1525.000000	96.208490
1524.000000	96.078791
1523.000000	95.950178
1522.000000	95.801410
1521.000000	95.632340
1520.000000	95.481517
1519.000000	95.360549
1518.000000	95.234478
1517.000000	95.074530
1516.000000	94.901987
1515.000000	94.755854
1514.000000	94.629652
1513.000000	94.491803
1512.000000	94.333909
1511.000000	94.176037
1510.000000	94.032308
1509.000000	93.888259
1508.000000	93.708445
1507.000000	93.472387
1506.000000	93.236028
1505.000000	93.058537
1504.000000	92.922975
1503.000000	92.798997
1502.000000	92.666193
1501.000000	92.511338
1500.000000	92.340552
1499.000000	92.168955
1498.000000	91.996410
1497.000000	91.811464
1496.000000	91.627841
1495.000000	91.470100
1494.000000	91.333119
1493.000000	91.195913
1492.000000	91.048190
1491.000000	90.888897
1490.000000	90.719049
1489.000000	90.548631
1488.000000	90.396724
1487.000000	90.267390
1486.000000	90.144681
1485.000000	90.017076
1484.000000	89.888342
1483.000000	89.763884
1482.000000	89.638664
1481.000000	89.508897
1480.000000	89.384361
1479.000000	89.272922
1478.000000	89.164571
1477.000000	89.045111
1476.000000	88.918493
1475.000000	88.798312
1474.000000	88.680595
1473.000000	88.551326
1472.000000	88.424905
1471.000000	88.326667
1470.000000	88.248193
1469.000000	88.168327
1468.000000	88.081039
1467.000000	87.987933
1466.000000	87.885907
1465.000000	87.773301
1464.000000	87.665873
1463.000000	87.578695
1462.000000	87.502062
1461.000000	87.419232
1460.000000	87.324832
1459.000000	87.220944
1458.000000	87.100539
1457.000000	86.963172
1456.000000	86.843378
1455.000000	86.757629
1454.000000	86.680264
1453.000000	86.590837
1452.000000	86.491749
1451.000000	86.395157
1450.000000	86.302739
1449.000000	86.206746
1448.000000	86.110168
1447.000000	86.025068
1446.000000	85.951018
1445.000000	85.875841
1444.000000	85.795952
1443.000000	85.717686
1442.000000	85.643829
1441.000000	85.572972
1440.000000	85.507851
1439.000000	85.451527
1438.000000	85.395650
1437.000000	85.325049
1436.000000	85.242715
1435.000000	85.164778
1434.000000	85.087811
1433.000000	84.995986
1432.000000	84.883865
1431.000000	84.758174
1430.000000	84.628006
1429.000000	84.501068
1428.000000	84.387750
1427.000000	84.290580
1426.000000	84.194680
1425.000000	84.081553
1424.000000	83.954079
1423.000000	83.833340
1422.000000	83.722897
1421.000000	83.601326
1420.000000	83.449783
1419.000000	83.278823
1418.000000	83.117834
1417.000000	82.976905
1416.000000	82.849104
1415.000000	82.727197
1414.000000	82.599435
1413.000000	82.455191
1412.000000	82.299223
1411.000000	82.145768
1410.000000	81.996997
1409.000000	81.844477
1408.000000	81.689963
1407.000000	81.543866
1406.000000	81.407105
1405.000000	81.274380
1404.000000	81.154255
1403.000000	81.058067
1402.000000	80.973733
1401.000000	80.877867
1400.000000	80.765394
1399.000000	80.651718
1398.000000	80.543837
1397.000000	80.430420
1396.000000	80.307049
1395.000000	80.185003
1394.000000	80.072403
1393.000000	79.967938
1392.000000	79.873632
1391.000000	79.791034
1390.000000	79.707874
1389.000000	79.609021
1388.000000	79.502383
1387.000000	79.415009
1386.000000	79.354616
1385.000000	79.305198
1384.000000	79.261343
1383.000000	79.230484
1382.000000	79.210175
1381.000000	79.190971
1380.000000	79.177583
1379.000000	79.183813
1378.000000	79.208246
1377.000000	79.239276
1376.000000	79.281233
1375.000000	79.351651
1374.000000	79.451897
1373.000000	79.565331
1372.000000	79.686659
1371.000000	79.824402
1370.000000	79.980061
1369.000000	80.149421
1368.000000	80.335246
1367.000000	80.539631
1366.000000	80.753556
1365.000000	80.972452
1364.000000	81.212086
1363.000000	81.488431
1362.000000	81.786203
1361.000000	82.077514
1360.000000	82.360407
1359.000000	82.646867
1358.000000	82.936251
1357.000000	83.223430
1356.000000	83.515233
1355.000000	83.818493
1354.000000	84.122932
1353.000000	84.415365
1352.000000	84.699550
1351.000000	84.984658
1350.000000	85.267591
1349.000000	85.542385
1348.000000	85.814556
1347.000000	86.089892
1346.000000	86.360064
1345.000000	86.614429
1344.000000	86.855269
1343.000000	87.089792
1342.000000	87.318733
1341.000000	87.543338
1340.000000	87.771752
1339.000000	88.005889
1338.000000	88.234093
1337.000000	88.449476
1336.000000	88.659041
1335.000000	88.867334
1334.000000	89.068567
1333.000000	89.260368
1332.000000	89.450798
1331.000000	89.644092
1330.000000	89.832801
1329.000000	90.012037
1328.000000	90.188367
1327.000000	90.366765
1326.000000	90.541622
1325.000000	90.707751
1324.000000	90.868063
1323.000000	91.023851
1322.000000	91.170281
1321.000000	91.307710
1320.000000	91.445411
1319.000000	91.587620
1318.000000	91.726568
1317.000000	91.856197
1316.000000	91.980907
1315.000000	92.105552
1314.000000	92.228987
1313.000000	92.351422
1312.000000	92.476816
1311.000000	92.603841
1310.000000	92.725134
1309.000000	92.838774
1308.000000	92.950014
1307.000000	93.060125
1306.000000	93.164722
1305.000000	93.264897
1304.000000	93.368157
1303.000000	93.475453
1302.000000	93.578768
1301.000000	93.674010
1300.000000	93.765284
1299.000000	93.854463
1298.000000	93.937987
1297.000000	94.016453
1296.000000	94.096085
1295.000000	94.177420
1294.000000	94.253276
1293.000000	94.320442
1292.000000	94.383279
1291.000000	94.444057
1290.000000	94.499706
1289.000000	94.550628
1288.000000	94.602445
1287.000000	94.656313
1286.000000	94.707070
1285.000000	94.753378
1284.000000	94.800534
1283.000000	94.851021
1282.000000	94.901033
1281.000000	94.948690
1280.000000	94.997553
1279.000000	95.049690
1278.000000	95.102595
1277.000000	95.154574
1276.000000	95.206475
1275.000000	95.257519
1274.000000	95.306366
1273.000000	95.356103
1272.000000	95.410620
1271.000000	95.466069
1270.000000	95.513473
1269.000000	95.549823
1268.000000	95.579401
1267.000000	95.605759
1266.000000	95.630631
1265.000000	95.658641
1264.000000	95.693788
1263.000000	95.731749
1262.000000	95.764208
1261.000000	95.790557
1260.000000	95.816792
1259.000000	95.844302
1258.000000	95.869276
1257.000000	95.891987
1256.000000	95.916910
1255.000000	95.944146
1254.000000	95.969546
1253.000000	95.992763
1252.000000	96.016624
1251.000000	96.039034
1250.000000	96.054045
1249.000000	96.061167
1248.000000	96.065958
1247.000000	96.071063
1246.000000	96.074219
1245.000000	96.075045
1244.000000	96.076635
1243.000000	96.080272
1242.000000	96.085028
1241.000000	96.092292
1240.000000	96.104040
1239.000000	96.117163
1238.000000	96.126365
1237.000000	96.132547
1236.000000	96.141682
1235.000000	96.155770
1234.000000	96.171330
1233.000000	96.186357
1232.000000	96.202527
1231.000000	96.220875
1230.000000	96.241447
1229.000000	96.266551
1228.000000	96.298210
1227.000000	96.333580
1226.000000	96.368789
1225.000000	96.405720
1224.000000	96.448495
1223.000000	96.494736
1222.000000	96.537845
1221.000000	96.576723
1220.000000	96.615811
1219.000000	96.656040
1218.000000	96.692870
1217.000000	96.723122
1216.000000	96.747550
1215.000000	96.767545
1214.000000	96.785121
1213.000000	96.804824
1212.000000	96.828934
1211.000000	96.851895
1210.000000	96.866163
1209.000000	96.872276
1208.000000	96.876945
1207.000000	96.882873
1206.000000	96.887336
1205.000000	96.889505
1204.000000	96.891934
1203.000000	96.895373
1202.000000	96.898914
1201.000000	96.905071
1200.000000	96.918137
1199.000000	96.937319
1198.000000	96.957173
1197.000000	96.974923
1196.000000	96.992140
1195.000000	97.009669
1194.000000	97.026831
1193.000000	97.045422
1192.000000	97.068835
1191.000000	97.096450
1190.000000	97.122917
1189.000000	97.142997
1188.000000	97.154266
1187.000000	97.157231
1186.000000	97.156642
1185.000000	97.159889
1184.000000	97.169223
1183.000000	97.177908
1182.000000	97.178865
1181.000000	97.174873
1180.000000	97.175245
1179.000000	97.184969
1178.000000	97.202576
1177.000000	97.225233
1176.000000	97.249044
1175.000000	97.267222
1174.000000	97.275626
1173.000000	97.278803
1172.000000	97.284087
1171.000000	97.291416
1170.000000	97.295287
1169.000000	97.294560
1168.000000	97.293178
1167.000000	97.292477
1166.000000	97.289792
1165.000000	97.284689
1164.000000	97.280770
1163.000000	97.281491
1162.000000	97.288643
1161.000000	97.303026
1160.000000	97.321218
1159.000000	97.334074
1158.000000	97.335509
1157.000000	97.331545
1156.000000	97.334416
1155.000000	97.348802
1154.000000	97.369818
1153.000000	97.392524
1152.000000	97.415886
1151.000000	97.438154
1150.000000	97.456325
1149.000000	97.471071
1148.000000	97.485835
1147.000000	97.500533
1146.000000	97.512026
1145.000000	97.520972
1144.000000	97.532203
1143.000000	97.547712
1142.000000	97.564702
1141.000000	97.581419
1140.000000	97.600182
1139.000000	97.623733
1138.000000	97.652109
1137.000000	97.682858
1136.000000	97.711304
1135.000000	97.732201
1134.000000	97.745221
1133.000000	97.756899
1132.000000	97.772802
1131.000000	97.789782
1130.000000	97.800696
1129.000000	97.804785
1128.000000	97.808074
1127.000000	97.815355
1126.000000	97.827237
1125.000000	97.843651
1124.000000	97.864393
1123.000000	97.886235
1122.000000	97.904192
1121.000000	97.915778
1120.000000	97.921062
1119.000000	97.920599
1118.000000	97.917068
1117.000000	97.916403
1116.000000	97.922521
1115.000000	97.932524
1114.000000	97.941050
1113.000000	97.947025
1112.000000	97.952255
1111.000000	97.956639
1110.000000	97.959868
1109.000000	97.964687
1108.000000	97.972472
1107.000000	97.977832
1106.000000	97.973776
1105.000000	97.960828
1104.000000	97.946009
1103.000000	97.934419
1102.000000	97.926656
1101.000000	97.922571
1100.000000	97.921778
1099.000000	97.921617
1098.000000	97.919219
1097.000000	97.915118
1096.000000	97.911192
1095.000000	97.906185
1094.000000	97.896672
1093.000000	97.880767
1092.000000	97.858063
1091.000000	97.828871
1090.000000	97.796597
1089.000000	97.767550
1088.000000	97.744459
1087.000000	97.723287
1086.000000	97.700072
1085.000000	97.677489
1084.000000	97.660496
1083.000000	97.649169
1082.000000	97.641054
1081.000000	97.637232
1080.000000	97.640838
1079.000000	97.651506
1078.000000	97.666328
1077.000000	97.684488
1076.000000	97.706065
1075.000000	97.728788
1074.000000	97.750418
1073.000000	97.772130
1072.000000	97.795335
1071.000000	97.817387
1070.000000	97.834450
1069.000000	97.846484
1068.000000	97.856397
1067.000000	97.867416
1066.000000	97.883688
1065.000000	97.908359
1064.000000	97.937159
1063.000000	97.959282
1062.000000	97.969601
1061.000000	97.975600
1060.000000	97.987451
1059.000000	98.006302
1058.000000	98.027498
1057.000000	98.049413
1056.000000	98.072505
1055.000000	98.094219
1054.000000	98.112051
1053.000000	98.128223
1052.000000	98.145053
1051.000000	98.159432
1050.000000	98.168635
1049.000000	98.177370
1048.000000	98.191869
1047.000000	98.210898
1046.000000	98.229065
1045.000000	98.244320
1044.000000	98.255583
1043.000000	98.258519
1042.000000	98.251649
1041.000000	98.242985
1040.000000	98.242361
1039.000000	98.249410
1038.000000	98.255999
1037.000000	98.258197
1036.000000	98.259013
1035.000000	98.261193
1034.000000	98.264228
1033.000000	98.267247
1032.000000	98.269682
1031.000000	98.270841
1030.000000	98.273211
1029.000000	98.282951
1028.000000	98.301843
1027.000000	98.322186
1026.000000	98.335580
1025.000000	98.343158
1024.000000	98.351315
1023.000000	98.361459
1022.000000	98.370970
1021.000000	98.380474
1020.000000	98.392355
1019.000000	98.404830
1018.000000	98.415194
1017.000000	98.426706
1016.000000	98.444327
1015.000000	98.465165
1014.000000	98.480347
1013.000000	98.485833
1012.000000	98.485479
1011.000000	98.485293
1010.000000	98.490586
1009.000000	98.506170
1008.000000	98.532136
1007.000000	98.560277
1006.000000	98.581002
1005.000000	98.593375
1004.000000	98.603743
1003.000000	98.616433
1002.000000	98.631479
1001.000000	98.649072
1000.000000	98.669370
999.000000	98.688513
998.000000	98.701095
997.000000	98.706971
996.000000	98.711491
995.000000	98.719960
994.000000	98.735136
993.000000	98.757454
992.000000	98.783053
991.000000	98.804039
990.000000	98.816084
989.000000	98.824071
988.000000	98.835637
987.000000	98.851970
986.000000	98.869457
985.000000	98.886873
984.000000	98.905133
983.000000	98.922978
982.000000	98.938843
981.000000	98.953552
980.000000	98.965131
979.000000	98.965319
978.000000	98.949700
977.000000	98.928362
976.000000	98.917582
975.000000	98.921401
974.000000	98.929253
973.000000	98.931442
972.000000	98.929150
971.000000	98.929173
970.000000	98.935771
969.000000	98.948704
968.000000	98.963545
967.000000	98.973374
966.000000	98.975460
965.000000	98.975901
964.000000	98.982427
963.000000	98.994306
962.000000	99.005081
961.000000	99.013470
960.000000	99.024081
959.000000	99.038149
958.000000	99.051807
957.000000	99.063963
956.000000	99.078393
955.000000	99.096346
954.000000	99.113739
953.000000	99.126987
952.000000	99.135931
951.000000	99.140371
950.000000	99.140096
949.000000	99.139350
948.000000	99.144704
947.000000	99.156601
946.000000	99.168538
945.000000	99.176245
944.000000	99.181956
943.000000	99.188324
942.000000	99.194068
941.000000	99.198148
940.000000	99.202933
939.000000	99.210353
938.000000	99.218757
937.000000	99.225786
936.000000	99.231147
935.000000	99.235493
934.000000	99.240322
933.000000	99.249684
932.000000	99.267180
931.000000	99.289505
930.000000	99.307151
929.000000	99.313871
928.000000	99.313248
927.000000	99.315015
926.000000	99.327081
925.000000	99.350505
924.000000	99.378494
923.000000	99.400574
922.000000	99.411911
921.000000	99.418312
920.000000	99.428577
919.000000	99.443226
918.000000	99.455748
917.000000	99.463962
916.000000	99.473265
915.000000	99.488119
914.000000	99.506373
913.000000	99.523558
912.000000	99.537479
911.000000	99.547217
910.000000	99.553245
909.000000	99.560243
908.000000	99.574188
907.000000	99.594330
906.000000	99.612944
905.000000	99.625003
904.000000	99.633785
903.000000	99.645290
902.000000	99.661888
901.000000	99.682483
900.000000	99.703366
899.000000	99.718044
898.000000	99.723145
897.000000	99.726374
896.000000	99.741299
895.000000	99.771010
894.000000	99.803586
893.000000	99.827518
892.000000	99.842888
891.000000	99.853072
890.000000	99.851901
889.000000	99.821901
888.000000	99.734352
887.000000	99.536266
886.000000	99.148512
885.000000	98.490057
884.000000	97.510241
883.000000	96.202868
882.000000	94.594719
881.000000	92.738237
880.000000	90.709422
879.000000	88.600271
878.000000	86.504409
877.000000	84.504710
876.000000	82.658956
875.000000	80.981764
874.000000	79.498552
873.000000	78.394880
872.000000	78.119900
871.000000	79.178750
870.000000	81.680066
869.000000	85.106174
868.000000	88.586962
867.000000	91.430847
866.000000	93.431410
865.000000	94.756331
864.000000	95.653558
863.000000	96.288615
862.000000	96.752937
861.000000	97.107589
860.000000	97.390293
859.000000	97.615786
858.000000	97.797675
857.000000	97.953192
856.000000	98.089285
855.000000	98.203301
854.000000	98.296652
853.000000	98.369468
852.000000	98.398509
851.000000	98.348608
850.000000	98.224098
849.000000	98.095584
848.000000	98.056759
847.000000	98.150072
846.000000	98.337719
845.000000	98.540908
844.000000	98.699810
843.000000	98.801851
842.000000	98.867956
841.000000	98.921867
840.000000	98.972638
839.000000	99.018024
838.000000	99.055601
837.000000	99.087190
836.000000	99.116044
835.000000	99.144070
834.000000	99.170466
833.000000	99.191690
832.000000	99.205712
831.000000	99.217460
830.000000	99.234974
829.000000	99.257492
828.000000	99.274231
827.000000	99.280659
826.000000	99.288558
825.000000	99.311260
824.000000	99.345113
823.000000	99.376007
822.000000	99.398716
821.000000	99.417463
820.000000	99.432178
819.000000	99.437629
818.000000	99.434524
817.000000	99.429391
816.000000	99.424151
815.000000	99.417263
814.000000	99.415482
813.000000	99.431968
812.000000	99.468757
811.000000	99.510241
810.000000	99.538033
809.000000	99.546088
808.000000	99.539635
807.000000	99.527793
806.000000	99.520034
805.000000	99.521260
804.000000	99.526600
803.000000	99.527971
802.000000	99.528083
801.000000	99.539488
800.000000	99.566091
799.000000	99.594406
798.000000	99.608804
797.000000	99.608029
796.000000	99.600736
795.000000	99.592016
794.000000	99.582110
793.000000	99.573422
792.000000	99.570327
791.000000	99.572819
790.000000	99.575806
789.000000	99.574872
788.000000	99.570026
787.000000	99.564781
786.000000	99.563515
785.000000	99.568099
784.000000	99.575463
783.000000	99.579637
782.000000	99.577261
781.000000	99.570141
780.000000	99.562768
779.000000	99.559253
778.000000	99.561580
777.000000	99.567643
776.000000	99.571841
775.000000	99.571319
774.000000	99.570810
773.000000	99.577183
772.000000	99.589797
771.000000	99.601151
770.000000	99.606858
769.000000	99.609448
768.000000	99.612038
767.000000	99.614626
766.000000	99.618701
765.000000	99.629431
764.000000	99.648991
763.000000	99.670925
762.000000	99.684909
761.000000	99.686372
760.000000	99.680588
759.000000	99.678659
758.000000	99.688539
757.000000	99.706897
756.000000	99.720686
755.000000	99.720126
754.000000	99.709509
753.000000	99.701264
752.000000	99.700712
751.000000	99.702122
750.000000	99.699148
749.000000	99.693122
748.000000	99.690156
747.000000	99.695285
746.000000	99.710134
745.000000	99.730980
744.000000	99.748239
743.000000	99.753508
742.000000	99.748782
741.000000	99.744296
740.000000	99.746240
739.000000	99.751548
738.000000	99.756007
737.000000	99.761347
736.000000	99.771254
735.000000	99.784383
734.000000	99.794588
733.000000	99.795914
732.000000	99.786130
731.000000	99.768020
730.000000	99.747806
729.000000	99.729471
728.000000	99.710351
727.000000	99.684722
726.000000	99.650560
725.000000	99.608393
724.000000	99.554163
723.000000	99.477981
722.000000	99.368622
721.000000	99.213500
720.000000	98.991770
719.000000	98.667391
718.000000	98.187638
717.000000	97.498158
716.000000	96.592908
715.000000	95.582709
714.000000	94.708450
713.000000	94.240046
712.000000	94.313700
711.000000	94.846972
710.000000	95.610287
709.000000	96.375074
708.000000	97.008125
707.000000	97.473726
706.000000	97.792146
705.000000	98.004265
704.000000	98.150463
703.000000	98.259449
702.000000	98.346816
701.000000	98.420355
700.000000	98.485266
699.000000	98.547610
698.000000	98.616520
697.000000	98.699517
696.000000	98.791672
695.000000	98.875453
694.000000	98.937127
693.000000	98.980977
692.000000	99.022050
691.000000	99.066642
690.000000	99.106953
689.000000	99.132245
688.000000	99.139312
687.000000	99.132908
686.000000	99.120956
685.000000	99.111479
684.000000	99.109665
683.000000	99.114910
682.000000	99.123144
681.000000	99.131515
680.000000	99.138191
679.000000	99.139068
678.000000	99.131816
677.000000	99.124124
676.000000	99.128663
675.000000	99.149328
674.000000	99.174561
673.000000	99.188246
672.000000	99.186956
671.000000	99.180551
670.000000	99.178290
669.000000	99.177799
668.000000	99.174111
667.000000	99.163189
666.000000	99.140526
665.000000	99.119633
664.000000	99.111544
663.000000	99.113381
662.000000	99.118227
661.000000	99.121167
660.000000	99.120268
659.000000	99.115414
658.000000	99.110518
657.000000	99.111786
656.000000	99.118680
655.000000	99.123419
654.000000	99.120525
653.000000	99.112543
652.000000	99.103959
651.000000	99.095223
650.000000	99.086054
649.000000	99.079930
648.000000	99.080634
647.000000	99.087492
646.000000	99.097764
645.000000	99.111034
644.000000	99.128059
643.000000	99.146899
642.000000	99.163205
641.000000	99.174652
640.000000	99.182887
639.000000	99.190949
638.000000	99.199960
637.000000	99.207551
636.000000	99.209165
635.000000	99.202850
634.000000	99.192858
633.000000	99.186178
632.000000	99.185573
631.000000	99.187157
630.000000	99.183089
629.000000	99.165692
628.000000	99.132102
627.000000	99.089268
626.000000	99.053424
625.000000	99.037931
624.000000	99.041244
623.000000	99.050646
622.000000	99.056156
621.000000	99.057047
620.000000	99.056775
619.000000	99.057788
618.000000	99.061250
617.000000	99.066193
616.000000	99.067732
615.000000	99.061025
614.000000	99.049059
613.000000	99.042570
612.000000	99.050399
611.000000	99.072364
610.000000	99.101797
609.000000	99.131401
608.000000	99.155826
607.000000	99.172571
606.000000	99.182188
605.000000	99.183705
604.000000	99.171054
603.000000	99.140674
602.000000	99.103612
601.000000	99.082208
600.000000	99.090185
599.000000	99.119114
598.000000	99.147858
597.000000	99.162987
596.000000	99.165069
595.000000	99.158550
594.000000	99.142640
593.000000	99.113903
592.000000	99.075810
591.000000	99.042028
590.000000	99.026304
589.000000	99.029811
588.000000	99.041725
587.000000	99.051063
586.000000	99.055795
585.000000	99.060340
584.000000	99.067765
583.000000	99.078434
582.000000	99.094050
581.000000	99.116671
580.000000	99.142503
579.000000	99.159645
578.000000	99.155368
577.000000	99.127318
576.000000	99.089426
575.000000	99.064244
574.000000	99.061503
573.000000	99.065808
572.000000	99.053849
571.000000	99.023645
570.000000	98.999900
569.000000	99.005016
568.000000	99.032345
567.000000	99.055947
566.000000	99.057069
565.000000	99.032616
564.000000	98.988274
563.000000	98.939611
562.000000	98.912683
561.000000	98.922771
560.000000	98.952696
559.000000	98.966801
558.000000	98.949952
557.000000	98.921512
556.000000	98.908073
555.000000	98.913942
554.000000	98.922759
553.000000	98.919194
552.000000	98.902782
551.000000	98.886974
550.000000	98.889700
549.000000	98.917949
548.000000	98.959738
547.000000	98.995940
546.000000	99.021836
545.000000	99.050545
544.000000	99.090834
543.000000	99.131666
542.000000	99.154050
541.000000	99.152504
540.000000	99.139133
539.000000	99.128219
538.000000	99.123151
537.000000	99.116086
536.000000	99.096110
535.000000	99.059655
534.000000	99.013277
533.000000	98.965515
532.000000	98.920259
531.000000	98.881251
530.000000	98.858555
529.000000	98.862508
528.000000	98.892594
527.000000	98.935839
526.000000	98.976403
525.000000	99.006864
524.000000	99.030936
523.000000	99.058909
522.000000	99.101967
521.000000	99.164709
520.000000	99.235663
519.000000	99.289392
518.000000	99.306901
517.000000	99.294659
516.000000	99.276267
515.000000	99.269239
514.000000	99.277765
513.000000	99.299939
512.000000	99.332872
511.000000	99.372573
510.000000	99.415429
509.000000	99.459150
508.000000	99.496915
507.000000	99.511198
506.000000	99.484901
505.000000	99.421057
504.000000	99.340241
503.000000	99.263287
502.000000	99.202837
501.000000	99.165588
500.000000	99.156713
499.000000	99.175564
498.000000	99.208556
497.000000	99.234472
496.000000	99.242488
495.000000	99.241695
494.000000	99.247642
493.000000	99.262146
492.000000	99.270394
491.000000	99.256562
490.000000	99.220197
489.000000	99.175804
488.000000	99.140568
487.000000	99.124523
486.000000	99.128067
485.000000	99.146273
484.000000	99.173322
483.000000	99.200607
482.000000	99.214408
481.000000	99.207982
480.000000	99.195880
479.000000	99.200312
478.000000	99.218818
477.000000	99.221591
476.000000	99.193982
475.000000	99.164266
474.000000	99.169791
473.000000	99.202212
472.000000	99.212320
471.000000	99.181354
470.000000	99.147269
469.000000	99.147673
468.000000	99.183998
467.000000	99.241751
466.000000	99.310442
465.000000	99.373279
464.000000	99.402865
463.000000	99.388542
462.000000	99.355034
461.000000	99.326352
460.000000	99.283162
459.000000	99.189010
458.000000	99.071540
457.000000	99.031123
456.000000	99.142328
455.000000	99.334291
454.000000	99.547872
453.000000	99.726246
452.000000	99.825308
451.000000	99.836222
450.000000	99.792620
