PE IR       SUBTECH     SPECTRUM    ASCII       PEDS        4.00        
   -1
G11-C001_1.ASC
23/09/14
11:46:30.00
23/09/14
11:53:14.00
uco
Sample 001 By uco Date Thursday, September 14 2023
450.000000
#HDR
-1
-1
#GR
cm-1
%T
1.0
0.0
4000.000000
-1.000000
3551
8
99.091757
90.620307
#DATA
4000.000000	99.053085
3999.000000	99.051402
3998.000000	99.048168
3997.000000	99.044722
3996.000000	99.042650
3995.000000	99.042007
3994.000000	99.040752
3993.000000	99.036406
3992.000000	99.028473
3991.000000	99.019127
3990.000000	99.011622
3989.000000	99.007933
3988.000000	99.007883
3987.000000	99.009963
3986.000000	99.012524
3985.000000	99.014475
3984.000000	99.015503
3983.000000	99.016008
3982.000000	99.016512
3981.000000	99.016873
3980.000000	99.016381
3979.000000	99.014900
3978.000000	99.013575
3977.000000	99.013771
3976.000000	99.015130
3975.000000	99.015122
3974.000000	99.011329
3973.000000	99.004495
3972.000000	98.998912
3971.000000	98.999299
3970.000000	99.006653
3969.000000	99.017010
3968.000000	99.024456
3967.000000	99.025519
3966.000000	99.021264
3965.000000	99.015632
3964.000000	99.011901
3963.000000	99.010564
3962.000000	99.009990
3961.000000	99.008818
3960.000000	99.007337
3959.000000	99.006623
3958.000000	99.007048
3957.000000	99.008139
3956.000000	99.009312
3955.000000	99.009746
3954.000000	99.007968
3953.000000	99.002729
3952.000000	98.995055
3951.000000	98.988759
3950.000000	98.987805
3949.000000	98.992784
3948.000000	99.000391
3947.000000	99.006632
3946.000000	99.010161
3945.000000	99.012285
3944.000000	99.014233
3943.000000	99.015207
3942.000000	99.013902
3941.000000	99.011003
3940.000000	99.008488
3939.000000	99.007266
3938.000000	99.006297
3937.000000	99.003901
3936.000000	98.999741
3935.000000	98.995045
3934.000000	98.991555
3933.000000	98.990571
3932.000000	98.992688
3931.000000	98.997560
3930.000000	99.003386
3929.000000	99.007779
3928.000000	99.010113
3927.000000	99.012444
3926.000000	99.016644
3925.000000	99.021014
3924.000000	99.022175
3923.000000	99.019677
3922.000000	99.016194
3921.000000	99.014313
3920.000000	99.014886
3919.000000	99.017797
3918.000000	99.022102
3917.000000	99.025577
3916.000000	99.026022
3915.000000	99.023634
3914.000000	99.020556
3913.000000	99.018627
3912.000000	99.018268
3911.000000	99.019232
3910.000000	99.021078
3909.000000	99.022691
3908.000000	99.022438
3907.000000	99.019631
3906.000000	99.015421
3905.000000	99.010682
3904.000000	99.004458
3903.000000	98.996446
3902.000000	98.989460
3901.000000	98.987457
3900.000000	98.991244
3899.000000	98.997588
3898.000000	99.002923
3897.000000	99.006532
3896.000000	99.009513
3895.000000	99.013014
3894.000000	99.017820
3893.000000	99.024002
3892.000000	99.028566
3891.000000	99.027353
3890.000000	99.020150
3889.000000	99.009938
3888.000000	99.001215
3887.000000	98.998092
3886.000000	98.998656
3885.000000	98.996544
3884.000000	98.989633
3883.000000	98.982381
3882.000000	98.981243
3881.000000	98.987652
3880.000000	98.996612
3879.000000	99.002812
3878.000000	99.003500
3877.000000	98.998647
3876.000000	98.991614
3875.000000	98.985703
3874.000000	98.981065
3873.000000	98.977516
3872.000000	98.978203
3871.000000	98.985648
3870.000000	98.993824
3869.000000	98.994444
3868.000000	98.987666
3867.000000	98.980294
3866.000000	98.977937
3865.000000	98.980156
3864.000000	98.982763
3863.000000	98.984095
3862.000000	98.985037
3861.000000	98.986818
3860.000000	98.991004
3859.000000	98.998845
3858.000000	99.008209
3857.000000	99.012942
3856.000000	99.009848
3855.000000	99.007090
3854.000000	99.008803
3853.000000	99.007305
3852.000000	99.003293
3851.000000	99.003189
3850.000000	99.007198
3849.000000	99.010864
3848.000000	99.010082
3847.000000	99.004258
3846.000000	98.995252
3845.000000	98.985574
3844.000000	98.977414
3843.000000	98.972608
3842.000000	98.973067
3841.000000	98.980656
3840.000000	98.994641
3839.000000	99.008705
3838.000000	99.013970
3837.000000	99.007176
3836.000000	98.993240
3835.000000	98.979485
3834.000000	98.970919
3833.000000	98.969335
3832.000000	98.973259
3831.000000	98.979034
3830.000000	98.982594
3829.000000	98.982124
3828.000000	98.979340
3827.000000	98.976432
3826.000000	98.972688
3825.000000	98.965597
3824.000000	98.955882
3823.000000	98.952217
3822.000000	98.961178
3821.000000	98.973118
3820.000000	98.975443
3819.000000	98.968428
3818.000000	98.961517
3817.000000	98.962672
3816.000000	98.970090
3815.000000	98.977710
3814.000000	98.983993
3813.000000	98.990304
3812.000000	98.996743
3811.000000	99.001386
3810.000000	99.002632
3809.000000	99.001947
3808.000000	99.000233
3807.000000	98.993633
3806.000000	98.979625
3805.000000	98.961612
3804.000000	98.947036
3803.000000	98.945027
3802.000000	98.955335
3801.000000	98.966748
3800.000000	98.973310
3799.000000	98.977984
3798.000000	98.985159
3797.000000	98.994943
3796.000000	99.003564
3795.000000	99.008800
3794.000000	99.011704
3793.000000	99.013949
3792.000000	99.016214
3791.000000	99.018537
3790.000000	99.020414
3789.000000	99.020852
3788.000000	99.019378
3787.000000	99.016947
3786.000000	99.014938
3785.000000	99.013618
3784.000000	99.012450
3783.000000	99.011453
3782.000000	99.011486
3781.000000	99.013592
3780.000000	99.017048
3779.000000	99.019397
3778.000000	99.019971
3777.000000	99.020748
3776.000000	99.023748
3775.000000	99.028225
3774.000000	99.030257
3773.000000	99.026580
3772.000000	99.018630
3771.000000	99.011174
3770.000000	99.007737
3769.000000	99.009484
3768.000000	99.016073
3767.000000	99.025388
3766.000000	99.032838
3765.000000	99.033497
3764.000000	99.027016
3763.000000	99.018304
3762.000000	99.012939
3761.000000	99.013062
3760.000000	99.016520
3759.000000	99.019627
3758.000000	99.020016
3757.000000	99.016675
3756.000000	99.009815
3755.000000	99.001133
3754.000000	98.993751
3753.000000	98.991463
3752.000000	98.996225
3751.000000	99.004639
3750.000000	99.011400
3749.000000	99.014849
3748.000000	99.016404
3747.000000	99.019676
3746.000000	99.029862
3745.000000	99.040733
3744.000000	99.037338
3743.000000	99.021468
3742.000000	99.006535
3741.000000	98.997998
3740.000000	98.992227
3739.000000	98.985472
3738.000000	98.981074
3737.000000	98.985397
3736.000000	98.996221
3735.000000	99.003093
3734.000000	99.001383
3733.000000	98.995990
3732.000000	98.993449
3731.000000	98.996435
3730.000000	99.003127
3729.000000	99.009480
3728.000000	99.012197
3727.000000	99.009450
3726.000000	99.002437
3725.000000	98.996576
3724.000000	98.997465
3723.000000	99.005978
3722.000000	99.018213
3721.000000	99.029692
3720.000000	99.038314
3719.000000	99.044137
3718.000000	99.047291
3717.000000	99.047068
3716.000000	99.043494
3715.000000	99.037768
3714.000000	99.032298
3713.000000	99.029511
3712.000000	99.028993
3711.000000	99.028055
3710.000000	99.026109
3709.000000	99.025390
3708.000000	99.027837
3707.000000	99.033144
3706.000000	99.038271
3705.000000	99.040660
3704.000000	99.041154
3703.000000	99.043079
3702.000000	99.047100
3701.000000	99.050470
3700.000000	99.051544
3699.000000	99.051960
3698.000000	99.053988
3697.000000	99.057033
3696.000000	99.058495
3695.000000	99.056364
3694.000000	99.050041
3693.000000	99.039745
3692.000000	99.028190
3691.000000	99.020469
3690.000000	99.018613
3689.000000	99.019287
3688.000000	99.020784
3687.000000	99.024950
3686.000000	99.031525
3685.000000	99.037864
3684.000000	99.041140
3683.000000	99.040508
3682.000000	99.037670
3681.000000	99.034434
3680.000000	99.028951
3679.000000	99.016921
3678.000000	98.999413
3677.000000	98.987590
3676.000000	98.988949
3675.000000	98.999282
3674.000000	99.011961
3673.000000	99.021633
3672.000000	99.027157
3671.000000	99.029591
3670.000000	99.025802
3669.000000	99.017290
3668.000000	99.013839
3667.000000	99.019808
3666.000000	99.030194
3665.000000	99.037540
3664.000000	99.038693
3663.000000	99.036608
3662.000000	99.035733
3661.000000	99.036671
3660.000000	99.036588
3659.000000	99.032996
3658.000000	99.025884
3657.000000	99.015456
3656.000000	99.002020
3655.000000	98.988401
3654.000000	98.975635
3653.000000	98.960633
3652.000000	98.942127
3651.000000	98.925091
3650.000000	98.915213
3649.000000	98.913307
3648.000000	98.917700
3647.000000	98.926455
3646.000000	98.936606
3645.000000	98.945289
3644.000000	98.951493
3643.000000	98.955325
3642.000000	98.955731
3641.000000	98.950440
3640.000000	98.938701
3639.000000	98.922471
3638.000000	98.904937
3637.000000	98.889650
3636.000000	98.880837
3635.000000	98.881442
3634.000000	98.888892
3633.000000	98.895482
3632.000000	98.894621
3631.000000	98.887716
3630.000000	98.880706
3629.000000	98.871572
3628.000000	98.858377
3627.000000	98.847791
3626.000000	98.843668
3625.000000	98.843625
3624.000000	98.844182
3623.000000	98.843655
3622.000000	98.842275
3621.000000	98.840176
3620.000000	98.835008
3619.000000	98.823606
3618.000000	98.807382
3617.000000	98.792023
3616.000000	98.783406
3615.000000	98.785147
3614.000000	98.795175
3613.000000	98.805197
3612.000000	98.807423
3611.000000	98.800033
3610.000000	98.785610
3609.000000	98.767796
3608.000000	98.750404
3607.000000	98.737524
3606.000000	98.730271
3605.000000	98.725479
3604.000000	98.719590
3603.000000	98.712270
3602.000000	98.705842
3601.000000	98.702119
3600.000000	98.701730
3599.000000	98.704381
3598.000000	98.708149
3597.000000	98.709740
3596.000000	98.708041
3595.000000	98.704920
3594.000000	98.702382
3593.000000	98.700008
3592.000000	98.695922
3591.000000	98.689017
3590.000000	98.680269
3589.000000	98.671837
3588.000000	98.663538
3587.000000	98.653405
3586.000000	98.641362
3585.000000	98.628168
3584.000000	98.613789
3583.000000	98.598732
3582.000000	98.584645
3581.000000	98.573346
3580.000000	98.565788
3579.000000	98.561299
3578.000000	98.558177
3577.000000	98.555166
3576.000000	98.552549
3575.000000	98.550300
3574.000000	98.546269
3573.000000	98.537909
3572.000000	98.525761
3571.000000	98.512912
3570.000000	98.501608
3569.000000	98.491404
3568.000000	98.478981
3567.000000	98.461002
3566.000000	98.439366
3565.000000	98.419421
3564.000000	98.404263
3563.000000	98.394163
3562.000000	98.388160
3561.000000	98.384798
3560.000000	98.382424
3559.000000	98.378986
3558.000000	98.371980
3557.000000	98.359905
3556.000000	98.344332
3555.000000	98.329353
3554.000000	98.318276
3553.000000	98.311251
3552.000000	98.306682
3551.000000	98.303306
3550.000000	98.299629
3549.000000	98.293533
3548.000000	98.283870
3547.000000	98.271029
3546.000000	98.255374
3545.000000	98.237183
3544.000000	98.218803
3543.000000	98.204020
3542.000000	98.193870
3541.000000	98.185262
3540.000000	98.175193
3539.000000	98.164575
3538.000000	98.156438
3537.000000	98.151258
3536.000000	98.146296
3535.000000	98.139095
3534.000000	98.129388
3533.000000	98.117752
3532.000000	98.104511
3531.000000	98.090393
3530.000000	98.077007
3529.000000	98.066112
3528.000000	98.058492
3527.000000	98.053376
3526.000000	98.048675
3525.000000	98.042367
3524.000000	98.033781
3523.000000	98.023030
3522.000000	98.009723
3521.000000	97.993818
3520.000000	97.977935
3519.000000	97.966724
3518.000000	97.962578
3517.000000	97.962771
3516.000000	97.961885
3515.000000	97.956143
3514.000000	97.945095
3513.000000	97.930869
3512.000000	97.916855
3511.000000	97.905758
3510.000000	97.897490
3509.000000	97.889516
3508.000000	97.879803
3507.000000	97.868453
3506.000000	97.856526
3505.000000	97.845093
3504.000000	97.835679
3503.000000	97.829846
3502.000000	97.827288
3501.000000	97.825589
3500.000000	97.822587
3499.000000	97.817636
3498.000000	97.810031
3497.000000	97.798164
3496.000000	97.781728
3495.000000	97.763572
3494.000000	97.748067
3493.000000	97.738270
3492.000000	97.734895
3491.000000	97.736118
3490.000000	97.737619
3489.000000	97.735053
3488.000000	97.728125
3487.000000	97.720920
3486.000000	97.716955
3485.000000	97.715279
3484.000000	97.712386
3483.000000	97.705959
3482.000000	97.695658
3481.000000	97.682323
3480.000000	97.668258
3479.000000	97.656878
3478.000000	97.649900
3477.000000	97.645355
3476.000000	97.639513
3475.000000	97.630448
3474.000000	97.619006
3473.000000	97.607126
3472.000000	97.596534
3471.000000	97.588584
3470.000000	97.584086
3469.000000	97.583135
3468.000000	97.585201
3467.000000	97.588619
3466.000000	97.590066
3465.000000	97.586036
3464.000000	97.575853
3463.000000	97.562536
3462.000000	97.550026
3461.000000	97.540091
3460.000000	97.532056
3459.000000	97.524259
3458.000000	97.515399
3457.000000	97.505661
3456.000000	97.497222
3455.000000	97.492504
3454.000000	97.491292
3453.000000	97.490653
3452.000000	97.487906
3451.000000	97.482468
3450.000000	97.474563
3449.000000	97.464124
3448.000000	97.451940
3447.000000	97.440446
3446.000000	97.431941
3445.000000	97.426688
3444.000000	97.423753
3443.000000	97.422336
3442.000000	97.421155
3441.000000	97.418020
3440.000000	97.411563
3439.000000	97.402520
3438.000000	97.392359
3437.000000	97.381568
3436.000000	97.370396
3435.000000	97.360239
3434.000000	97.352855
3433.000000	97.348388
3432.000000	97.345138
3431.000000	97.341116
3430.000000	97.335094
3429.000000	97.326692
3428.000000	97.316477
3427.000000	97.306039
3426.000000	97.297337
3425.000000	97.291695
3424.000000	97.289196
3423.000000	97.288509
3422.000000	97.287525
3421.000000	97.285150
3420.000000	97.282530
3419.000000	97.281205
3418.000000	97.279976
3417.000000	97.275375
3416.000000	97.265890
3415.000000	97.254505
3414.000000	97.246126
3413.000000	97.243051
3412.000000	97.243401
3411.000000	97.242931
3410.000000	97.237808
3409.000000	97.226984
3408.000000	97.213400
3407.000000	97.202370
3406.000000	97.197510
3405.000000	97.197783
3404.000000	97.198547
3403.000000	97.195311
3402.000000	97.186833
3401.000000	97.175658
3400.000000	97.165969
3399.000000	97.160171
3398.000000	97.157272
3397.000000	97.154980
3396.000000	97.152759
3395.000000	97.151513
3394.000000	97.150687
3393.000000	97.147720
3392.000000	97.140830
3391.000000	97.130774
3390.000000	97.119449
3389.000000	97.108488
3388.000000	97.099760
3387.000000	97.095059
3386.000000	97.093820
3385.000000	97.092537
3384.000000	97.088195
3383.000000	97.081711
3382.000000	97.076887
3381.000000	97.076267
3380.000000	97.078356
3379.000000	97.078220
3378.000000	97.070806
3377.000000	97.054859
3376.000000	97.034201
3375.000000	97.014555
3374.000000	96.998873
3373.000000	96.986239
3372.000000	96.974519
3371.000000	96.962380
3370.000000	96.949065
3369.000000	96.934392
3368.000000	96.919542
3367.000000	96.905992
3366.000000	96.893106
3365.000000	96.878570
3364.000000	96.861705
3363.000000	96.844300
3362.000000	96.827421
3361.000000	96.809539
3360.000000	96.789125
3359.000000	96.767283
3358.000000	96.746380
3357.000000	96.727339
3356.000000	96.709587
3355.000000	96.692598
3354.000000	96.676047
3353.000000	96.659248
3352.000000	96.641593
3351.000000	96.622840
3350.000000	96.602388
3349.000000	96.579537
3348.000000	96.555289
3347.000000	96.532601
3346.000000	96.513463
3345.000000	96.496420
3344.000000	96.478086
3343.000000	96.456551
3342.000000	96.432533
3341.000000	96.408194
3340.000000	96.385995
3339.000000	96.367904
3338.000000	96.354141
3337.000000	96.342591
3336.000000	96.330189
3335.000000	96.315077
3334.000000	96.297364
3333.000000	96.278346
3332.000000	96.259542
3331.000000	96.242039
3330.000000	96.226077
3329.000000	96.211090
3328.000000	96.196053
3327.000000	96.179901
3326.000000	96.162514
3325.000000	96.146064
3324.000000	96.134438
3323.000000	96.129480
3322.000000	96.127797
3321.000000	96.123052
3320.000000	96.111905
3319.000000	96.096807
3318.000000	96.082914
3317.000000	96.073405
3316.000000	96.067970
3315.000000	96.064322
3314.000000	96.060351
3313.000000	96.055685
3312.000000	96.051647
3311.000000	96.049247
3310.000000	96.047351
3309.000000	96.043753
3308.000000	96.037791
3307.000000	96.030569
3306.000000	96.023008
3305.000000	96.015546
3304.000000	96.009579
3303.000000	96.007103
3302.000000	96.008277
3301.000000	96.011004
3300.000000	96.013624
3299.000000	96.016412
3298.000000	96.019820
3297.000000	96.022891
3296.000000	96.024154
3295.000000	96.022864
3294.000000	96.018898
3293.000000	96.013092
3292.000000	96.008258
3291.000000	96.007879
3290.000000	96.012520
3289.000000	96.018682
3288.000000	96.022194
3287.000000	96.021710
3286.000000	96.018313
3285.000000	96.013511
3284.000000	96.008844
3283.000000	96.006017
3282.000000	96.005804
3281.000000	96.007411
3280.000000	96.010040
3279.000000	96.014304
3278.000000	96.021253
3277.000000	96.030692
3276.000000	96.041210
3275.000000	96.051158
3274.000000	96.058832
3273.000000	96.062759
3272.000000	96.063049
3271.000000	96.062052
3270.000000	96.062786
3269.000000	96.066787
3268.000000	96.073436
3267.000000	96.080622
3266.000000	96.086050
3265.000000	96.089146
3264.000000	96.092195
3263.000000	96.098288
3262.000000	96.107504
3261.000000	96.116174
3260.000000	96.120606
3259.000000	96.120532
3258.000000	96.118323
3257.000000	96.116231
3256.000000	96.115514
3255.000000	96.117095
3254.000000	96.121561
3253.000000	96.128765
3252.000000	96.138414
3251.000000	96.150716
3250.000000	96.165559
3249.000000	96.181242
3248.000000	96.194776
3247.000000	96.203534
3246.000000	96.206694
3245.000000	96.205702
3244.000000	96.203508
3243.000000	96.202641
3242.000000	96.203505
3241.000000	96.204776
3240.000000	96.205603
3239.000000	96.206880
3238.000000	96.210263
3237.000000	96.216299
3236.000000	96.223442
3235.000000	96.228726
3234.000000	96.230001
3233.000000	96.228482
3232.000000	96.228897
3231.000000	96.235821
3230.000000	96.249514
3229.000000	96.265732
3228.000000	96.279204
3227.000000	96.286855
3226.000000	96.288627
3225.000000	96.287028
3224.000000	96.285933
3223.000000	96.288060
3222.000000	96.292812
3221.000000	96.297297
3220.000000	96.299559
3219.000000	96.300261
3218.000000	96.301703
3217.000000	96.306450
3216.000000	96.316374
3215.000000	96.330862
3214.000000	96.345669
3213.000000	96.355336
3212.000000	96.357547
3211.000000	96.354498
3210.000000	96.350293
3209.000000	96.348297
3208.000000	96.350507
3207.000000	96.357080
3206.000000	96.365876
3205.000000	96.374070
3204.000000	96.380944
3203.000000	96.388033
3202.000000	96.396388
3201.000000	96.405289
3200.000000	96.413872
3199.000000	96.422152
3198.000000	96.429790
3197.000000	96.435629
3196.000000	96.439378
3195.000000	96.442290
3194.000000	96.445395
3193.000000	96.448654
3192.000000	96.452603
3191.000000	96.459080
3190.000000	96.468949
3189.000000	96.480377
3188.000000	96.490693
3187.000000	96.498978
3186.000000	96.505805
3185.000000	96.511579
3184.000000	96.516535
3183.000000	96.521611
3182.000000	96.528045
3181.000000	96.536558
3180.000000	96.547799
3179.000000	96.562780
3178.000000	96.581478
3177.000000	96.601337
3176.000000	96.618549
3175.000000	96.631239
3174.000000	96.640817
3173.000000	96.650014
3172.000000	96.659749
3171.000000	96.667925
3170.000000	96.671634
3169.000000	96.671054
3168.000000	96.670982
3167.000000	96.677452
3166.000000	96.692330
3165.000000	96.711546
3164.000000	96.728776
3163.000000	96.740454
3162.000000	96.747607
3161.000000	96.753915
3160.000000	96.762369
3159.000000	96.773165
3158.000000	96.784304
3157.000000	96.794406
3156.000000	96.804521
3155.000000	96.816588
3154.000000	96.830473
3153.000000	96.843542
3152.000000	96.853196
3151.000000	96.858950
3150.000000	96.862258
3149.000000	96.865361
3148.000000	96.870313
3147.000000	96.877930
3146.000000	96.887325
3145.000000	96.897166
3144.000000	96.907251
3143.000000	96.918017
3142.000000	96.929032
3141.000000	96.939435
3140.000000	96.949641
3139.000000	96.960594
3138.000000	96.971029
3137.000000	96.977616
3136.000000	96.978954
3135.000000	96.978080
3134.000000	96.979731
3133.000000	96.985776
3132.000000	96.994151
3131.000000	97.001548
3130.000000	97.006386
3129.000000	97.009813
3128.000000	97.014485
3127.000000	97.021991
3126.000000	97.031177
3125.000000	97.039336
3124.000000	97.044855
3123.000000	97.047869
3122.000000	97.048727
3121.000000	97.047363
3120.000000	97.044368
3119.000000	97.041102
3118.000000	97.038107
3117.000000	97.034889
3116.000000	97.031902
3115.000000	97.031163
3114.000000	97.033713
3113.000000	97.037556
3112.000000	97.039367
3111.000000	97.037643
3110.000000	97.033463
3109.000000	97.028719
3108.000000	97.024301
3107.000000	97.019531
3106.000000	97.012957
3105.000000	97.004317
3104.000000	96.996031
3103.000000	96.991668
3102.000000	96.991872
3101.000000	96.992400
3100.000000	96.987548
3099.000000	96.975731
3098.000000	96.961201
3097.000000	96.950387
3096.000000	96.946731
3095.000000	96.948353
3094.000000	96.950085
3093.000000	96.947887
3092.000000	96.941671
3091.000000	96.934094
3090.000000	96.927157
3089.000000	96.920663
3088.000000	96.913698
3087.000000	96.906437
3086.000000	96.899814
3085.000000	96.894092
3084.000000	96.888481
3083.000000	96.882008
3082.000000	96.874598
3081.000000	96.867595
3080.000000	96.863086
3079.000000	96.861882
3078.000000	96.862156
3077.000000	96.861127
3076.000000	96.858236
3075.000000	96.855622
3074.000000	96.855130
3073.000000	96.856139
3072.000000	96.857161
3071.000000	96.858303
3070.000000	96.860666
3069.000000	96.863849
3068.000000	96.865856
3067.000000	96.866023
3066.000000	96.866863
3065.000000	96.871977
3064.000000	96.882114
3063.000000	96.893886
3062.000000	96.902678
3061.000000	96.906921
3060.000000	96.909630
3059.000000	96.915690
3058.000000	96.927536
3057.000000	96.943308
3056.000000	96.958997
3055.000000	96.972184
3054.000000	96.983694
3053.000000	96.995948
3052.000000	97.010106
3051.000000	97.024941
3050.000000	97.038415
3049.000000	97.050136
3048.000000	97.061710
3047.000000	97.074432
3046.000000	97.087251
3045.000000	97.097799
3044.000000	97.105246
3043.000000	97.111236
3042.000000	97.117786
3041.000000	97.125005
3040.000000	97.131494
3039.000000	97.136658
3038.000000	97.141884
3037.000000	97.149217
3036.000000	97.159325
3035.000000	97.171229
3034.000000	97.183842
3033.000000	97.197151
3032.000000	97.211464
3031.000000	97.226177
3030.000000	97.240259
3029.000000	97.253697
3028.000000	97.267214
3027.000000	97.280327
3026.000000	97.291001
3025.000000	97.298087
3024.000000	97.303195
3023.000000	97.309180
3022.000000	97.317295
3021.000000	97.326585
3020.000000	97.335405
3019.000000	97.342606
3018.000000	97.347750
3017.000000	97.351314
3016.000000	97.354592
3015.000000	97.358634
3014.000000	97.363391
3013.000000	97.368424
3012.000000	97.373949
3011.000000	97.380321
3010.000000	97.386964
3009.000000	97.392838
3008.000000	97.397704
3007.000000	97.402067
3006.000000	97.406160
3005.000000	97.409787
3004.000000	97.412760
3003.000000	97.414667
3002.000000	97.414602
3001.000000	97.412020
3000.000000	97.407440
2999.000000	97.401457
2998.000000	97.393793
2997.000000	97.384635
2996.000000	97.376233
2995.000000	97.371300
2994.000000	97.369708
2993.000000	97.368467
2992.000000	97.365288
2991.000000	97.360511
2990.000000	97.355030
2989.000000	97.348041
2988.000000	97.338187
2987.000000	97.326046
2986.000000	97.314200
2985.000000	97.304980
2984.000000	97.298703
2983.000000	97.293924
2982.000000	97.289013
2981.000000	97.283509
2980.000000	97.278026
2979.000000	97.272859
2978.000000	97.267157
2977.000000	97.259871
2976.000000	97.250962
2975.000000	97.241064
2974.000000	97.230787
2973.000000	97.221578
2972.000000	97.216407
2971.000000	97.217475
2970.000000	97.222967
2969.000000	97.227784
2968.000000	97.228166
2967.000000	97.224336
2966.000000	97.218198
2965.000000	97.210237
2964.000000	97.199991
2963.000000	97.188276
2962.000000	97.177162
2961.000000	97.168031
2960.000000	97.160926
2959.000000	97.155721
2958.000000	97.152824
2957.000000	97.152393
2956.000000	97.153488
2955.000000	97.154485
2954.000000	97.154247
2953.000000	97.152738
2952.000000	97.150519
2951.000000	97.147820
2950.000000	97.144375
2949.000000	97.140110
2948.000000	97.135384
2947.000000	97.130204
2946.000000	97.123721
2945.000000	97.115251
2944.000000	97.105566
2943.000000	97.096415
2942.000000	97.088740
2941.000000	97.081784
2940.000000	97.073918
2939.000000	97.063926
2938.000000	97.051804
2937.000000	97.038922
2936.000000	97.027258
2935.000000	97.018096
2934.000000	97.011671
2933.000000	97.008237
2932.000000	97.008422
2931.000000	97.011488
2930.000000	97.014079
2929.000000	97.012458
2928.000000	97.006426
2927.000000	97.000197
2926.000000	96.999291
2925.000000	97.007041
2924.000000	97.023302
2923.000000	97.045049
2922.000000	97.068333
2921.000000	97.091227
2920.000000	97.115167
2919.000000	97.142241
2918.000000	97.171118
2917.000000	97.197102
2916.000000	97.216640
2915.000000	97.230345
2914.000000	97.241140
2913.000000	97.250979
2912.000000	97.260311
2911.000000	97.269387
2910.000000	97.278557
2909.000000	97.287952
2908.000000	97.297960
2907.000000	97.309500
2906.000000	97.322770
2905.000000	97.336085
2904.000000	97.347081
2903.000000	97.354898
2902.000000	97.360492
2901.000000	97.365090
2900.000000	97.369228
2899.000000	97.373363
2898.000000	97.378216
2897.000000	97.384086
2896.000000	97.390432
2895.000000	97.396519
2894.000000	97.402049
2893.000000	97.406930
2892.000000	97.410991
2891.000000	97.414479
2890.000000	97.418414
2889.000000	97.423628
2888.000000	97.429118
2887.000000	97.431913
2886.000000	97.429316
2885.000000	97.421490
2884.000000	97.411695
2883.000000	97.403770
2882.000000	97.399455
2881.000000	97.398019
2880.000000	97.397889
2879.000000	97.398101
2878.000000	97.398180
2877.000000	97.397340
2876.000000	97.394568
2875.000000	97.389837
2874.000000	97.385080
2873.000000	97.383392
2872.000000	97.386872
2871.000000	97.395180
2870.000000	97.406219
2869.000000	97.418033
2868.000000	97.429756
2867.000000	97.441012
2866.000000	97.451127
2865.000000	97.459270
2864.000000	97.465018
2863.000000	97.468579
2862.000000	97.470702
2861.000000	97.472477
2860.000000	97.474798
2859.000000	97.477846
2858.000000	97.481459
2857.000000	97.486083
2856.000000	97.492680
2855.000000	97.501452
2854.000000	97.511378
2853.000000	97.521419
2852.000000	97.531524
2851.000000	97.542049
2850.000000	97.553046
2849.000000	97.564700
2848.000000	97.577420
2847.000000	97.590388
2846.000000	97.600813
2845.000000	97.606315
2844.000000	97.608036
2843.000000	97.610147
2842.000000	97.616016
2841.000000	97.625575
2840.000000	97.636449
2839.000000	97.646434
2838.000000	97.654584
2837.000000	97.661120
2836.000000	97.667078
2835.000000	97.673353
2834.000000	97.679387
2833.000000	97.683331
2832.000000	97.684111
2831.000000	97.682856
2830.000000	97.681696
2829.000000	97.681652
2828.000000	97.682465
2827.000000	97.684121
2826.000000	97.687480
2825.000000	97.692911
2824.000000	97.698832
2823.000000	97.702391
2822.000000	97.701988
2821.000000	97.699067
2820.000000	97.697085
2819.000000	97.698469
2818.000000	97.702815
2817.000000	97.708100
2816.000000	97.713027
2815.000000	97.717543
2814.000000	97.721633
2813.000000	97.725084
2812.000000	97.728659
2811.000000	97.734054
2810.000000	97.741547
2809.000000	97.748388
2808.000000	97.750963
2807.000000	97.748715
2806.000000	97.745154
2805.000000	97.744848
2804.000000	97.749756
2803.000000	97.758228
2802.000000	97.766692
2801.000000	97.772130
2800.000000	97.773973
2799.000000	97.774424
2798.000000	97.776515
2797.000000	97.781038
2796.000000	97.785364
2795.000000	97.785956
2794.000000	97.782230
2793.000000	97.777483
2792.000000	97.775719
2791.000000	97.777905
2790.000000	97.781677
2789.000000	97.784523
2788.000000	97.786663
2787.000000	97.790460
2786.000000	97.797294
2785.000000	97.805478
2784.000000	97.811588
2783.000000	97.813698
2782.000000	97.812978
2781.000000	97.812078
2780.000000	97.812548
2779.000000	97.814412
2778.000000	97.817680
2777.000000	97.822879
2776.000000	97.829607
2775.000000	97.835779
2774.000000	97.839598
2773.000000	97.841942
2772.000000	97.845603
2771.000000	97.852026
2770.000000	97.859812
2769.000000	97.866587
2768.000000	97.871195
2767.000000	97.873621
2766.000000	97.874022
2765.000000	97.873057
2764.000000	97.872605
2763.000000	97.874781
2762.000000	97.879926
2761.000000	97.886145
2760.000000	97.890848
2759.000000	97.892404
2758.000000	97.890802
2757.000000	97.887793
2756.000000	97.886486
2755.000000	97.889542
2754.000000	97.896811
2753.000000	97.905040
2752.000000	97.910584
2751.000000	97.912419
2750.000000	97.912257
2749.000000	97.912214
2748.000000	97.913086
2747.000000	97.914660
2746.000000	97.916669
2745.000000	97.918935
2744.000000	97.921130
2743.000000	97.923007
2742.000000	97.924651
2741.000000	97.926141
2740.000000	97.927245
2739.000000	97.927980
2738.000000	97.929318
2737.000000	97.932681
2736.000000	97.938540
2735.000000	97.945844
2734.000000	97.952853
2733.000000	97.958189
2732.000000	97.961232
2731.000000	97.962248
2730.000000	97.962460
2729.000000	97.963396
2728.000000	97.965632
2727.000000	97.968287
2726.000000	97.969958
2725.000000	97.969920
2724.000000	97.968488
2723.000000	97.966874
2722.000000	97.966911
2721.000000	97.970141
2720.000000	97.976447
2719.000000	97.983856
2718.000000	97.990080
2717.000000	97.993926
2716.000000	97.995129
2715.000000	97.993864
2714.000000	97.991185
2713.000000	97.989162
2712.000000	97.989432
2711.000000	97.991891
2710.000000	97.995527
2709.000000	97.999825
2708.000000	98.004344
2707.000000	98.007767
2706.000000	98.009166
2705.000000	98.009956
2704.000000	98.012723
2703.000000	98.017801
2702.000000	98.022704
2701.000000	98.025505
2700.000000	98.027088
2699.000000	98.029023
2698.000000	98.030774
2697.000000	98.030602
2696.000000	98.028435
2695.000000	98.026265
2694.000000	98.025804
2693.000000	98.026914
2692.000000	98.028412
2691.000000	98.029541
2690.000000	98.030458
2689.000000	98.031738
2688.000000	98.033571
2687.000000	98.035333
2686.000000	98.036185
2685.000000	98.036240
2684.000000	98.036679
2683.000000	98.038374
2682.000000	98.040882
2681.000000	98.043299
2680.000000	98.045626
2679.000000	98.048497
2678.000000	98.051672
2677.000000	98.053628
2676.000000	98.053092
2675.000000	98.050722
2674.000000	98.048816
2673.000000	98.049059
2672.000000	98.050650
2671.000000	98.051346
2670.000000	98.050757
2669.000000	98.051661
2668.000000	98.056719
2667.000000	98.064169
2666.000000	98.068490
2665.000000	98.065864
2664.000000	98.057635
2663.000000	98.047816
2662.000000	98.039068
2661.000000	98.032506
2660.000000	98.029728
2659.000000	98.032197
2658.000000	98.038480
2657.000000	98.044329
2656.000000	98.046710
2655.000000	98.046895
2654.000000	98.048799
2653.000000	98.054813
2652.000000	98.063618
2651.000000	98.071484
2650.000000	98.075353
2649.000000	98.075170
2648.000000	98.073746
2647.000000	98.074246
2646.000000	98.077639
2645.000000	98.082601
2644.000000	98.087430
2643.000000	98.091334
2642.000000	98.094041
2641.000000	98.095302
2640.000000	98.095508
2639.000000	98.096394
2638.000000	98.100385
2637.000000	98.108831
2636.000000	98.120551
2635.000000	98.131870
2634.000000	98.138463
2633.000000	98.138099
2632.000000	98.132366
2631.000000	98.125904
2630.000000	98.123640
2629.000000	98.127998
2628.000000	98.137642
2627.000000	98.148479
2626.000000	98.156647
2625.000000	98.161476
2624.000000	98.165510
2623.000000	98.171193
2622.000000	98.177856
2621.000000	98.182468
2620.000000	98.182915
2619.000000	98.179817
2618.000000	98.175514
2617.000000	98.172354
2616.000000	98.171964
2615.000000	98.175171
2614.000000	98.182133
2613.000000	98.192675
2612.000000	98.206021
2611.000000	98.219527
2610.000000	98.228656
2609.000000	98.230236
2608.000000	98.226268
2607.000000	98.222954
2606.000000	98.224891
2605.000000	98.231032
2604.000000	98.236907
2603.000000	98.239564
2602.000000	98.239289
2601.000000	98.237633
2600.000000	98.235691
2599.000000	98.234317
2598.000000	98.234593
2597.000000	98.237407
2596.000000	98.242936
2595.000000	98.250511
2594.000000	98.258449
2593.000000	98.264393
2592.000000	98.267001
2591.000000	98.267605
2590.000000	98.269229
2589.000000	98.273353
2588.000000	98.278084
2587.000000	98.280134
2586.000000	98.278432
2585.000000	98.275480
2584.000000	98.275318
2583.000000	98.280133
2582.000000	98.288535
2581.000000	98.296844
2580.000000	98.302107
2579.000000	98.303872
2578.000000	98.303022
2577.000000	98.299776
2576.000000	98.293999
2575.000000	98.287149
2574.000000	98.282295
2573.000000	98.281555
2572.000000	98.284602
2571.000000	98.290185
2570.000000	98.297721
2569.000000	98.306338
2568.000000	98.313754
2567.000000	98.317930
2566.000000	98.319097
2565.000000	98.318521
2564.000000	98.316014
2563.000000	98.310932
2562.000000	98.305401
2561.000000	98.304005
2560.000000	98.309228
2559.000000	98.318820
2558.000000	98.328411
2557.000000	98.335192
2556.000000	98.338522
2555.000000	98.339136
2554.000000	98.339413
2553.000000	98.342776
2552.000000	98.350674
2551.000000	98.360681
2550.000000	98.368899
2549.000000	98.373436
2548.000000	98.374218
2547.000000	98.370769
2546.000000	98.362777
2545.000000	98.352700
2544.000000	98.345168
2543.000000	98.342887
2542.000000	98.344603
2541.000000	98.347617
2540.000000	98.350757
2539.000000	98.353981
2538.000000	98.356591
2537.000000	98.357289
2536.000000	98.355573
2535.000000	98.352318
2534.000000	98.349519
2533.000000	98.349873
2532.000000	98.355310
2531.000000	98.364436
2530.000000	98.372022
2529.000000	98.372825
2528.000000	98.366467
2527.000000	98.357473
2526.000000	98.350090
2525.000000	98.344345
2524.000000	98.338072
2523.000000	98.331572
2522.000000	98.328379
2521.000000	98.331256
2520.000000	98.339053
2519.000000	98.348369
2518.000000	98.356990
2517.000000	98.364610
2516.000000	98.371031
2515.000000	98.375428
2514.000000	98.377626
2513.000000	98.378862
2512.000000	98.380707
2511.000000	98.383563
2510.000000	98.386289
2509.000000	98.386925
2508.000000	98.384321
2507.000000	98.379898
2506.000000	98.377283
2505.000000	98.379058
2504.000000	98.383954
2503.000000	98.388225
2502.000000	98.389261
2501.000000	98.386562
2500.000000	98.380346
2499.000000	98.371973
2498.000000	98.365484
2497.000000	98.365093
2496.000000	98.369809
2495.000000	98.373808
2494.000000	98.374340
2493.000000	98.376375
2492.000000	98.386018
2491.000000	98.401292
2490.000000	98.413372
2489.000000	98.416425
2488.000000	98.412633
2487.000000	98.407445
2486.000000	98.403624
2485.000000	98.401221
2484.000000	98.400209
2483.000000	98.400676
2482.000000	98.401787
2481.000000	98.402285
2480.000000	98.401481
2479.000000	98.399092
2478.000000	98.395308
2477.000000	98.391732
2476.000000	98.390818
2475.000000	98.393085
2474.000000	98.396007
2473.000000	98.397031
2472.000000	98.396652
2471.000000	98.397044
2470.000000	98.398539
2469.000000	98.399560
2468.000000	98.399961
2467.000000	98.402050
2466.000000	98.407258
2465.000000	98.413211
2464.000000	98.415578
2463.000000	98.412287
2462.000000	98.405136
2461.000000	98.398132
2460.000000	98.395337
2459.000000	98.399315
2458.000000	98.409318
2457.000000	98.420376
2456.000000	98.426215
2455.000000	98.424627
2454.000000	98.419404
2453.000000	98.416475
2452.000000	98.418935
2451.000000	98.426149
2450.000000	98.435595
2449.000000	98.443779
2448.000000	98.446863
2447.000000	98.443232
2446.000000	98.435512
2445.000000	98.428320
2444.000000	98.424116
2443.000000	98.422550
2442.000000	98.422924
2441.000000	98.424930
2440.000000	98.427523
2439.000000	98.429927
2438.000000	98.433653
2437.000000	98.440299
2436.000000	98.446775
2435.000000	98.446520
2434.000000	98.437509
2433.000000	98.426256
2432.000000	98.421320
2431.000000	98.424474
2430.000000	98.430771
2429.000000	98.435548
2428.000000	98.438290
2427.000000	98.440368
2426.000000	98.442088
2425.000000	98.442764
2424.000000	98.441889
2423.000000	98.439452
2422.000000	98.435954
2421.000000	98.432436
2420.000000	98.429918
2419.000000	98.428740
2418.000000	98.428724
2417.000000	98.429478
2416.000000	98.430142
2415.000000	98.429636
2414.000000	98.428006
2413.000000	98.426874
2412.000000	98.427545
2411.000000	98.429049
2410.000000	98.429256
2409.000000	98.428081
2408.000000	98.428758
2407.000000	98.435121
2406.000000	98.447290
2405.000000	98.460368
2404.000000	98.468296
2403.000000	98.469742
2402.000000	98.469575
2401.000000	98.473672
2400.000000	98.482858
2399.000000	98.492754
2398.000000	98.498610
2397.000000	98.498413
2396.000000	98.492211
2395.000000	98.481296
2394.000000	98.468866
2393.000000	98.459273
2392.000000	98.455293
2391.000000	98.456916
2390.000000	98.462767
2389.000000	98.470675
2388.000000	98.476642
2387.000000	98.476501
2386.000000	98.470315
2385.000000	98.463329
2384.000000	98.460616
2383.000000	98.462045
2382.000000	98.464319
2381.000000	98.466125
2380.000000	98.468839
2379.000000	98.472720
2378.000000	98.475011
2377.000000	98.472655
2376.000000	98.465516
2375.000000	98.456423
2374.000000	98.448715
2373.000000	98.444122
2372.000000	98.442388
2371.000000	98.442953
2370.000000	98.446742
2369.000000	98.454245
2368.000000	98.462277
2367.000000	98.465540
2366.000000	98.462032
2365.000000	98.454008
2364.000000	98.444848
2363.000000	98.437836
2362.000000	98.431634
2361.000000	98.421560
2360.000000	98.404738
2359.000000	98.382128
2358.000000	98.367884
2357.000000	98.374172
2356.000000	98.397672
2355.000000	98.425226
2354.000000	98.440920
2353.000000	98.433311
2352.000000	98.396184
2351.000000	98.344814
2350.000000	98.307452
2349.000000	98.304212
2348.000000	98.334722
2347.000000	98.374269
2346.000000	98.395486
2345.000000	98.390183
2344.000000	98.378364
2343.000000	98.379435
2342.000000	98.388619
2341.000000	98.395877
2340.000000	98.396289
2339.000000	98.391324
2338.000000	98.382237
2337.000000	98.372635
2336.000000	98.367842
2335.000000	98.373461
2334.000000	98.389470
2333.000000	98.411073
2332.000000	98.427990
2331.000000	98.433423
2330.000000	98.425162
2329.000000	98.402996
2328.000000	98.372474
2327.000000	98.336517
2326.000000	98.304509
2325.000000	98.284091
2324.000000	98.283242
2323.000000	98.302417
2322.000000	98.332343
2321.000000	98.361496
2320.000000	98.380132
2319.000000	98.387154
2318.000000	98.387270
2317.000000	98.388234
2316.000000	98.394845
2315.000000	98.404391
2314.000000	98.412181
2313.000000	98.415918
2312.000000	98.419692
2311.000000	98.426129
2310.000000	98.434298
2309.000000	98.437921
2308.000000	98.434004
2307.000000	98.423682
2306.000000	98.412938
2305.000000	98.405737
2304.000000	98.401496
2303.000000	98.396576
2302.000000	98.388979
2301.000000	98.380207
2300.000000	98.372672
2299.000000	98.367368
2298.000000	98.365923
2297.000000	98.369736
2296.000000	98.378033
2295.000000	98.384664
2294.000000	98.384809
2293.000000	98.378220
2292.000000	98.369745
2291.000000	98.363293
2290.000000	98.361764
2289.000000	98.366741
2288.000000	98.377422
2287.000000	98.388520
2286.000000	98.393565
2285.000000	98.390110
2284.000000	98.380819
2283.000000	98.371298
2282.000000	98.367750
2281.000000	98.375053
2280.000000	98.392166
2279.000000	98.411966
2278.000000	98.426982
2277.000000	98.435544
2276.000000	98.439163
2275.000000	98.438298
2274.000000	98.434097
2273.000000	98.431181
2272.000000	98.433710
2271.000000	98.439431
2270.000000	98.443119
2269.000000	98.444148
2268.000000	98.446751
2267.000000	98.453939
2266.000000	98.465358
2265.000000	98.479350
2264.000000	98.493059
2263.000000	98.501645
2262.000000	98.503165
2261.000000	98.501901
2260.000000	98.502847
2259.000000	98.504409
2258.000000	98.501394
2257.000000	98.494376
2256.000000	98.489399
2255.000000	98.490140
2254.000000	98.494693
2253.000000	98.499981
2252.000000	98.503513
2251.000000	98.501988
2250.000000	98.494375
2249.000000	98.485944
2248.000000	98.484275
2247.000000	98.490555
2246.000000	98.499633
2245.000000	98.507070
2244.000000	98.511599
2243.000000	98.511956
2242.000000	98.508174
2241.000000	98.505522
2240.000000	98.510297
2239.000000	98.520224
2238.000000	98.524870
2237.000000	98.517449
2236.000000	98.502082
2235.000000	98.488623
2234.000000	98.484386
2233.000000	98.491523
2232.000000	98.507127
2231.000000	98.523686
2230.000000	98.532013
2229.000000	98.526227
2228.000000	98.506806
2227.000000	98.481015
2226.000000	98.460621
2225.000000	98.454474
2224.000000	98.459567
2223.000000	98.463065
2222.000000	98.456346
2221.000000	98.442964
2220.000000	98.430334
2219.000000	98.420657
2218.000000	98.415717
2217.000000	98.422521
2216.000000	98.444932
2215.000000	98.474368
2214.000000	98.497294
2213.000000	98.507751
2212.000000	98.505890
2211.000000	98.490736
2210.000000	98.465046
2209.000000	98.442390
2208.000000	98.436672
2207.000000	98.446076
2206.000000	98.458285
2205.000000	98.469744
2204.000000	98.488203
2203.000000	98.517059
2202.000000	98.548574
2201.000000	98.573584
2200.000000	98.588291
2199.000000	98.590143
2198.000000	98.576660
2197.000000	98.551384
2196.000000	98.524167
2195.000000	98.503363
2194.000000	98.493221
2193.000000	98.497455
2192.000000	98.517504
2191.000000	98.547321
2190.000000	98.576471
2189.000000	98.597380
2188.000000	98.605380
2187.000000	98.596288
2186.000000	98.572196
2185.000000	98.546820
2184.000000	98.535192
2183.000000	98.538440
2182.000000	98.546454
2181.000000	98.553072
2180.000000	98.560330
2179.000000	98.571276
2178.000000	98.587025
2177.000000	98.607772
2176.000000	98.629124
2175.000000	98.641933
2174.000000	98.642212
2173.000000	98.636273
2172.000000	98.631338
2171.000000	98.630028
2170.000000	98.638798
2169.000000	98.666660
2168.000000	98.703927
2167.000000	98.716885
2166.000000	98.682649
2165.000000	98.620181
2164.000000	98.569488
2163.000000	98.548902
2162.000000	98.558072
2161.000000	98.609916
2160.000000	98.721596
2159.000000	98.870021
2158.000000	98.993409
2157.000000	99.051409
2156.000000	99.051033
2155.000000	99.014071
2154.000000	98.957284
2153.000000	98.901222
2152.000000	98.863601
2151.000000	98.840288
2150.000000	98.814150
2149.000000	98.783802
2148.000000	98.764243
2147.000000	98.758526
2146.000000	98.750182
2145.000000	98.728407
2144.000000	98.702746
2143.000000	98.686048
2142.000000	98.679085
2141.000000	98.679068
2140.000000	98.689365
2139.000000	98.711650
2138.000000	98.738307
2137.000000	98.761873
2136.000000	98.785137
2135.000000	98.812702
2134.000000	98.836425
2133.000000	98.839521
2132.000000	98.815434
2131.000000	98.776417
2130.000000	98.742244
2129.000000	98.724212
2128.000000	98.719893
2127.000000	98.720081
2126.000000	98.717367
2125.000000	98.707611
2124.000000	98.687578
2123.000000	98.657507
2122.000000	98.626164
2121.000000	98.606877
2120.000000	98.603766
2119.000000	98.605465
2118.000000	98.596697
2117.000000	98.573334
2116.000000	98.543407
2115.000000	98.516888
2114.000000	98.499929
2113.000000	98.495988
2112.000000	98.505762
2111.000000	98.525524
2110.000000	98.549133
2109.000000	98.571023
2108.000000	98.585740
2107.000000	98.588431
2106.000000	98.580181
2105.000000	98.569735
2104.000000	98.564453
2103.000000	98.562144
2102.000000	98.557543
2101.000000	98.553749
2100.000000	98.559170
2099.000000	98.574278
2098.000000	98.589386
2097.000000	98.596465
2096.000000	98.596866
2095.000000	98.596120
2094.000000	98.597234
2093.000000	98.600594
2092.000000	98.604410
2091.000000	98.602946
2090.000000	98.589508
2089.000000	98.564971
2088.000000	98.541168
2087.000000	98.532306
2086.000000	98.543170
2085.000000	98.565365
2084.000000	98.584224
2083.000000	98.590998
2082.000000	98.589684
2081.000000	98.590943
2080.000000	98.599374
2079.000000	98.609968
2078.000000	98.617887
2077.000000	98.625611
2076.000000	98.635816
2075.000000	98.643205
2074.000000	98.641101
2073.000000	98.633677
2072.000000	98.633409
2071.000000	98.645843
2070.000000	98.662350
2069.000000	98.668193
2068.000000	98.654810
2067.000000	98.626701
2066.000000	98.600984
2065.000000	98.597008
2064.000000	98.618436
2063.000000	98.647683
2062.000000	98.664773
2061.000000	98.667561
2060.000000	98.667177
2059.000000	98.667239
2058.000000	98.658526
2057.000000	98.636175
2056.000000	98.612739
2055.000000	98.607317
2054.000000	98.624040
2053.000000	98.646090
2052.000000	98.652923
2051.000000	98.642629
2050.000000	98.635587
2049.000000	98.652148
2048.000000	98.685209
2047.000000	98.705340
2046.000000	98.698295
2045.000000	98.682911
2044.000000	98.684697
2043.000000	98.705436
2042.000000	98.728656
2041.000000	98.742802
2040.000000	98.746966
2039.000000	98.742601
2038.000000	98.734300
2037.000000	98.733050
2036.000000	98.744534
2035.000000	98.759369
2034.000000	98.769415
2033.000000	98.787371
2032.000000	98.833556
2031.000000	98.906201
2030.000000	98.978964
2029.000000	99.024408
2028.000000	99.031888
2027.000000	99.008639
2026.000000	98.973058
2025.000000	98.943207
2024.000000	98.921357
2023.000000	98.893937
2022.000000	98.854911
2021.000000	98.821511
2020.000000	98.817443
2019.000000	98.846800
2018.000000	98.891396
2017.000000	98.923748
2016.000000	98.919586
2015.000000	98.872002
2014.000000	98.802246
2013.000000	98.748031
2012.000000	98.729662
2011.000000	98.734305
2010.000000	98.742291
2009.000000	98.754557
2008.000000	98.782870
2007.000000	98.825788
2006.000000	98.869868
2005.000000	98.905025
2004.000000	98.926483
2003.000000	98.930606
2002.000000	98.917771
2001.000000	98.893330
2000.000000	98.861276
1999.000000	98.825542
1998.000000	98.799043
1997.000000	98.796312
1996.000000	98.811260
1995.000000	98.820089
1994.000000	98.813258
1993.000000	98.806529
1992.000000	98.810180
1991.000000	98.807634
1990.000000	98.785232
1989.000000	98.760793
1988.000000	98.758138
1987.000000	98.769919
1986.000000	98.769854
1985.000000	98.751109
1984.000000	98.728968
1983.000000	98.712085
1982.000000	98.694776
1981.000000	98.676705
1980.000000	98.671740
1979.000000	98.697601
1978.000000	98.765907
1977.000000	98.871192
1976.000000	98.977928
1975.000000	99.038123
1974.000000	99.038331
1973.000000	99.014867
1972.000000	99.010171
1971.000000	99.028709
1970.000000	99.048671
1969.000000	99.055274
1968.000000	99.044017
1967.000000	99.011995
1966.000000	98.970196
1965.000000	98.946278
1964.000000	98.950386
1963.000000	98.955787
1962.000000	98.934574
1961.000000	98.898014
1960.000000	98.878532
1959.000000	98.883429
1958.000000	98.896212
1957.000000	98.911019
1956.000000	98.933889
1955.000000	98.957081
1954.000000	98.961334
1953.000000	98.943982
1952.000000	98.922704
1951.000000	98.909529
1950.000000	98.902652
1949.000000	98.904463
1948.000000	98.924723
1947.000000	98.959671
1946.000000	98.986395
1945.000000	98.986543
1944.000000	98.963780
1943.000000	98.932713
1942.000000	98.901962
1941.000000	98.873675
1940.000000	98.849830
1939.000000	98.833101
1938.000000	98.826468
1937.000000	98.832619
1936.000000	98.848875
1935.000000	98.865192
1934.000000	98.873887
1933.000000	98.879439
1932.000000	98.891290
1931.000000	98.907528
1930.000000	98.916229
1929.000000	98.913384
1928.000000	98.909473
1927.000000	98.915968
1926.000000	98.931732
1925.000000	98.945823
1924.000000	98.946169
1923.000000	98.926132
1922.000000	98.891023
1921.000000	98.857513
1920.000000	98.840794
1919.000000	98.842720
1918.000000	98.851731
1917.000000	98.856129
1916.000000	98.855304
1915.000000	98.854670
1914.000000	98.856725
1913.000000	98.859549
1912.000000	98.860234
1911.000000	98.858895
1910.000000	98.860322
1909.000000	98.868739
1908.000000	98.878718
1907.000000	98.878126
1906.000000	98.862941
1905.000000	98.844993
1904.000000	98.838753
1903.000000	98.844107
1902.000000	98.850341
1901.000000	98.852905
1900.000000	98.855990
1899.000000	98.859988
1898.000000	98.856549
1897.000000	98.839965
1896.000000	98.816994
1895.000000	98.801787
1894.000000	98.804743
1893.000000	98.827342
1892.000000	98.862901
1891.000000	98.898089
1890.000000	98.916632
1889.000000	98.911238
1888.000000	98.891965
1887.000000	98.874859
1886.000000	98.867709
1885.000000	98.868171
1884.000000	98.868364
1883.000000	98.861801
1882.000000	98.849675
1881.000000	98.839893
1880.000000	98.838272
1879.000000	98.842908
1878.000000	98.848353
1877.000000	98.852078
1876.000000	98.854421
1875.000000	98.855080
1874.000000	98.854716
1873.000000	98.858309
1872.000000	98.871618
1871.000000	98.894003
1870.000000	98.916401
1869.000000	98.927628
1868.000000	98.925150
1867.000000	98.915018
1866.000000	98.902908
1865.000000	98.892193
1864.000000	98.885447
1863.000000	98.884266
1862.000000	98.889246
1861.000000	98.899228
1860.000000	98.909307
1859.000000	98.913166
1858.000000	98.910286
1857.000000	98.907918
1856.000000	98.912278
1855.000000	98.920449
1854.000000	98.925008
1853.000000	98.924062
1852.000000	98.920981
1851.000000	98.918828
1850.000000	98.918665
1849.000000	98.921509
1848.000000	98.927471
1847.000000	98.934349
1846.000000	98.940766
1845.000000	98.947577
1844.000000	98.953475
1843.000000	98.953618
1842.000000	98.946178
1841.000000	98.936209
1840.000000	98.930202
1839.000000	98.929097
1838.000000	98.928543
1837.000000	98.927326
1836.000000	98.929329
1835.000000	98.935978
1834.000000	98.943240
1833.000000	98.947278
1832.000000	98.947610
1831.000000	98.944842
1830.000000	98.939697
1829.000000	98.936886
1828.000000	98.940256
1827.000000	98.946250
1826.000000	98.948023
1825.000000	98.942527
1824.000000	98.935032
1823.000000	98.932246
1822.000000	98.934055
1821.000000	98.937049
1820.000000	98.940360
1819.000000	98.945787
1818.000000	98.953409
1817.000000	98.960664
1816.000000	98.965090
1815.000000	98.966291
1814.000000	98.965488
1813.000000	98.962935
1812.000000	98.957598
1811.000000	98.948820
1810.000000	98.938624
1809.000000	98.931431
1808.000000	98.929656
1807.000000	98.931446
1806.000000	98.934007
1805.000000	98.937101
1804.000000	98.941232
1803.000000	98.943649
1802.000000	98.940574
1801.000000	98.932343
1800.000000	98.925090
1799.000000	98.922969
1798.000000	98.924324
1797.000000	98.926833
1796.000000	98.930532
1795.000000	98.935557
1794.000000	98.940862
1793.000000	98.943836
1792.000000	98.943820
1791.000000	98.944678
1790.000000	98.949192
1789.000000	98.955853
1788.000000	98.961913
1787.000000	98.965469
1786.000000	98.966546
1785.000000	98.967770
1784.000000	98.971618
1783.000000	98.976484
1782.000000	98.980655
1781.000000	98.984964
1780.000000	98.991625
1779.000000	98.999792
1778.000000	99.006194
1777.000000	99.009881
1776.000000	99.012029
1775.000000	99.013950
1774.000000	99.016437
1773.000000	99.018055
1772.000000	99.017426
1771.000000	99.016543
1770.000000	99.015138
1769.000000	99.012632
1768.000000	99.010988
1767.000000	99.010534
1766.000000	99.009473
1765.000000	99.007366
1764.000000	99.007493
1763.000000	99.011874
1762.000000	99.016437
1761.000000	99.016237
1760.000000	99.013375
1759.000000	99.011838
1758.000000	99.013501
1757.000000	99.018401
1756.000000	99.025226
1755.000000	99.031853
1754.000000	99.035397
1753.000000	99.035476
1752.000000	99.034107
1751.000000	99.032370
1750.000000	99.028864
1749.000000	99.022781
1748.000000	99.016211
1747.000000	99.012670
1746.000000	99.013219
1745.000000	99.015622
1744.000000	99.018593
1743.000000	99.021993
1742.000000	99.024138
1741.000000	99.023321
1740.000000	99.022282
1739.000000	99.024984
1738.000000	99.029440
1737.000000	99.030551
1736.000000	99.032021
1735.000000	99.041310
1734.000000	99.051874
1733.000000	99.055465
1732.000000	99.055749
1731.000000	99.056970
1730.000000	99.059635
1729.000000	99.061613
1728.000000	99.061075
1727.000000	99.058523
1726.000000	99.054428
1725.000000	99.048011
1724.000000	99.042855
1723.000000	99.044744
1722.000000	99.051992
1721.000000	99.056685
1720.000000	99.056536
1719.000000	99.056421
1718.000000	99.053834
1717.000000	99.039253
1716.000000	99.014484
1715.000000	98.989852
1714.000000	98.968085
1713.000000	98.944655
1712.000000	98.916591
1711.000000	98.884734
1710.000000	98.849205
1709.000000	98.807307
1708.000000	98.757396
1707.000000	98.701220
1706.000000	98.638643
1705.000000	98.569521
1704.000000	98.497579
1703.000000	98.422733
1702.000000	98.339113
1701.000000	98.234303
1700.000000	98.115715
1699.000000	98.025766
1698.000000	97.959896
1697.000000	97.878786
1696.000000	97.772016
1695.000000	97.670622
1694.000000	97.599705
1693.000000	97.544421
1692.000000	97.484646
1691.000000	97.414209
1690.000000	97.335368
1689.000000	97.254447
1688.000000	97.177191
1687.000000	97.103265
1686.000000	97.018029
1685.000000	96.882675
1684.000000	96.689072
1683.000000	96.520453
1682.000000	96.406568
1681.000000	96.297814
1680.000000	96.165081
1679.000000	96.015719
1678.000000	95.863474
1677.000000	95.700306
1676.000000	95.505409
1675.000000	95.287530
1674.000000	95.092119
1673.000000	94.931927
1672.000000	94.776131
1671.000000	94.591285
1670.000000	94.363068
1669.000000	94.114764
1668.000000	93.890983
1667.000000	93.709400
1666.000000	93.553642
1665.000000	93.396062
1664.000000	93.216912
1663.000000	93.020008
1662.000000	92.835408
1661.000000	92.683222
1660.000000	92.555994
1659.000000	92.445412
1658.000000	92.351109
1657.000000	92.270730
1656.000000	92.197722
1655.000000	92.127577
1654.000000	92.031243
1653.000000	91.889852
1652.000000	91.790684
1651.000000	91.769610
1650.000000	91.775488
1649.000000	91.769221
1648.000000	91.725550
1647.000000	91.639950
1646.000000	91.550731
1645.000000	91.490198
1644.000000	91.447967
1643.000000	91.407334
1642.000000	91.363770
1641.000000	91.316733
1640.000000	91.266529
1639.000000	91.215176
1638.000000	91.158740
1637.000000	91.078141
1636.000000	90.955557
1635.000000	90.828895
1634.000000	90.750155
1633.000000	90.709967
1632.000000	90.679961
1631.000000	90.651625
1630.000000	90.629831
1629.000000	90.620307
1628.000000	90.627087
1627.000000	90.654982
1626.000000	90.707246
1625.000000	90.782762
1624.000000	90.879177
1623.000000	90.996320
1622.000000	91.131795
1621.000000	91.275141
1620.000000	91.416720
1619.000000	91.560118
1618.000000	91.723523
1617.000000	91.921042
1616.000000	92.132425
1615.000000	92.320392
1614.000000	92.479806
1613.000000	92.631983
1612.000000	92.792665
1611.000000	92.960377
1610.000000	93.127780
1609.000000	93.294870
1608.000000	93.462699
1607.000000	93.624104
1606.000000	93.774455
1605.000000	93.919849
1604.000000	94.064892
1603.000000	94.203095
1602.000000	94.327770
1601.000000	94.443238
1600.000000	94.553743
1599.000000	94.653510
1598.000000	94.738714
1597.000000	94.817545
1596.000000	94.897049
1595.000000	94.970085
1594.000000	95.028925
1593.000000	95.079576
1592.000000	95.128104
1591.000000	95.166806
1590.000000	95.189067
1589.000000	95.204917
1588.000000	95.224920
1587.000000	95.241003
1586.000000	95.240745
1585.000000	95.228909
1584.000000	95.215542
1583.000000	95.197042
1582.000000	95.166456
1581.000000	95.130971
1580.000000	95.099600
1579.000000	95.064419
1578.000000	95.006845
1577.000000	94.914993
1576.000000	94.798785
1575.000000	94.684644
1574.000000	94.586136
1573.000000	94.498846
1572.000000	94.409350
1571.000000	94.290742
1570.000000	94.120173
1569.000000	93.930411
1568.000000	93.775545
1567.000000	93.651011
1566.000000	93.519029
1565.000000	93.367294
1564.000000	93.214001
1563.000000	93.080456
1562.000000	92.965540
1561.000000	92.855577
1560.000000	92.694440
1559.000000	92.412859
1558.000000	92.152011
1557.000000	92.030838
1556.000000	91.966303
1555.000000	91.892726
1554.000000	91.805637
1553.000000	91.726441
1552.000000	91.668070
1551.000000	91.621908
1550.000000	91.578293
1549.000000	91.540688
1548.000000	91.515971
1547.000000	91.500516
1546.000000	91.487834
1545.000000	91.478041
1544.000000	91.476400
1543.000000	91.484377
1542.000000	91.494584
1541.000000	91.498264
1540.000000	91.501718
1539.000000	91.526544
1538.000000	91.572181
1537.000000	91.621997
1536.000000	91.668917
1535.000000	91.714113
1534.000000	91.759443
1533.000000	91.807115
1532.000000	91.861587
1531.000000	91.922451
1530.000000	91.986680
1529.000000	92.054351
1528.000000	92.127206
1527.000000	92.206147
1526.000000	92.289499
1525.000000	92.371861
1524.000000	92.449352
1523.000000	92.527278
1522.000000	92.616796
1521.000000	92.718208
1520.000000	92.815614
1519.000000	92.899873
1518.000000	92.978079
1517.000000	93.059813
1516.000000	93.146792
1515.000000	93.235560
1514.000000	93.327526
1513.000000	93.427185
1512.000000	93.533321
1511.000000	93.637435
1510.000000	93.735516
1509.000000	93.834228
1508.000000	93.941678
1507.000000	94.051807
1506.000000	94.158465
1505.000000	94.261137
1504.000000	94.357445
1503.000000	94.448426
1502.000000	94.539162
1501.000000	94.631690
1500.000000	94.722066
1499.000000	94.808251
1498.000000	94.896953
1497.000000	94.995080
1496.000000	95.097562
1495.000000	95.191567
1494.000000	95.272089
1493.000000	95.344360
1492.000000	95.418277
1491.000000	95.499591
1490.000000	95.580339
1489.000000	95.646340
1488.000000	95.696249
1487.000000	95.738791
1486.000000	95.776831
1485.000000	95.807351
1484.000000	95.829036
1483.000000	95.845898
1482.000000	95.860442
1481.000000	95.868827
1480.000000	95.867188
1479.000000	95.857219
1478.000000	95.841421
1477.000000	95.818209
1476.000000	95.786835
1475.000000	95.749327
1474.000000	95.702290
1473.000000	95.633847
1472.000000	95.548565
1471.000000	95.470995
1470.000000	95.408181
1469.000000	95.347958
1468.000000	95.281276
1467.000000	95.204462
1466.000000	95.113735
1465.000000	95.009805
1464.000000	94.908936
1463.000000	94.828867
1462.000000	94.765962
1461.000000	94.706429
1460.000000	94.638878
1459.000000	94.551580
1458.000000	94.422520
1457.000000	94.255644
1456.000000	94.117954
1455.000000	94.043274
1454.000000	93.997222
1453.000000	93.951663
1452.000000	93.905747
1451.000000	93.868842
1450.000000	93.845251
1449.000000	93.833430
1448.000000	93.831810
1447.000000	93.836617
1446.000000	93.844736
1445.000000	93.857519
1444.000000	93.879117
1443.000000	93.910964
1442.000000	93.949163
1441.000000	93.989200
1440.000000	94.029947
1439.000000	94.075341
1438.000000	94.133536
1437.000000	94.209010
1436.000000	94.291066
1435.000000	94.363357
1434.000000	94.422362
1433.000000	94.474105
1432.000000	94.521554
1431.000000	94.561249
1430.000000	94.590854
1429.000000	94.614560
1428.000000	94.636005
1427.000000	94.652610
1426.000000	94.663310
1425.000000	94.670944
1424.000000	94.676148
1423.000000	94.676926
1422.000000	94.673880
1421.000000	94.672839
1420.000000	94.678892
1419.000000	94.689178
1418.000000	94.699719
1417.000000	94.710718
1416.000000	94.720005
1415.000000	94.723084
1414.000000	94.717386
1413.000000	94.701749
1412.000000	94.674275
1411.000000	94.634572
1410.000000	94.587151
1409.000000	94.537777
1408.000000	94.487626
1407.000000	94.433291
1406.000000	94.373703
1405.000000	94.314627
1404.000000	94.265290
1403.000000	94.230433
1402.000000	94.207600
1401.000000	94.192711
1400.000000	94.182242
1399.000000	94.172215
1398.000000	94.160680
1397.000000	94.148578
1396.000000	94.136908
1395.000000	94.126775
1394.000000	94.123466
1393.000000	94.132039
1392.000000	94.148724
1391.000000	94.163611
1390.000000	94.169903
1389.000000	94.168391
1388.000000	94.164335
1387.000000	94.161793
1386.000000	94.162405
1385.000000	94.166187
1384.000000	94.171187
1383.000000	94.174781
1382.000000	94.176179
1381.000000	94.178096
1380.000000	94.183917
1379.000000	94.194222
1378.000000	94.208386
1377.000000	94.227332
1376.000000	94.252429
1375.000000	94.283416
1374.000000	94.320834
1373.000000	94.366709
1372.000000	94.419671
1371.000000	94.474754
1370.000000	94.531131
1369.000000	94.593929
1368.000000	94.665936
1367.000000	94.742501
1366.000000	94.819186
1365.000000	94.898951
1364.000000	94.985259
1363.000000	95.071591
1362.000000	95.146589
1361.000000	95.207909
1360.000000	95.259238
1359.000000	95.299926
1358.000000	95.328329
1357.000000	95.348200
1356.000000	95.363377
1355.000000	95.370477
1354.000000	95.364154
1353.000000	95.345634
1352.000000	95.319406
1351.000000	95.284580
1350.000000	95.238694
1349.000000	95.185669
1348.000000	95.131929
1347.000000	95.077654
1346.000000	95.018885
1345.000000	94.956447
1344.000000	94.896259
1343.000000	94.841998
1342.000000	94.791960
1341.000000	94.741834
1340.000000	94.687821
1339.000000	94.631252
1338.000000	94.582354
1337.000000	94.553551
1336.000000	94.548653
1335.000000	94.562613
1334.000000	94.590652
1333.000000	94.632971
1332.000000	94.688189
1331.000000	94.748546
1330.000000	94.807000
1329.000000	94.863881
1328.000000	94.921338
1327.000000	94.976214
1326.000000	95.024949
1325.000000	95.069662
1324.000000	95.112507
1323.000000	95.149148
1322.000000	95.174812
1321.000000	95.191864
1320.000000	95.204959
1319.000000	95.213822
1318.000000	95.217736
1317.000000	95.222529
1316.000000	95.235639
1315.000000	95.258664
1314.000000	95.290306
1313.000000	95.331307
1312.000000	95.380420
1311.000000	95.430664
1310.000000	95.476389
1309.000000	95.519451
1308.000000	95.562972
1307.000000	95.603869
1306.000000	95.637655
1305.000000	95.665891
1304.000000	95.692903
1303.000000	95.719593
1302.000000	95.745741
1301.000000	95.773187
1300.000000	95.801044
1299.000000	95.823243
1298.000000	95.836093
1297.000000	95.843032
1296.000000	95.846837
1295.000000	95.842881
1294.000000	95.826275
1293.000000	95.799134
1292.000000	95.765084
1291.000000	95.723025
1290.000000	95.672040
1289.000000	95.617066
1288.000000	95.563319
1287.000000	95.510148
1286.000000	95.456102
1285.000000	95.404767
1284.000000	95.360072
1283.000000	95.321065
1282.000000	95.286684
1281.000000	95.260986
1280.000000	95.248625
1279.000000	95.248691
1278.000000	95.257214
1277.000000	95.271460
1276.000000	95.288093
1275.000000	95.303193
1274.000000	95.317745
1273.000000	95.336828
1272.000000	95.359407
1271.000000	95.376085
1270.000000	95.381838
1269.000000	95.382450
1268.000000	95.382652
1267.000000	95.376973
1266.000000	95.359929
1265.000000	95.336580
1264.000000	95.314674
1263.000000	95.293310
1262.000000	95.267076
1261.000000	95.235380
1260.000000	95.199384
1259.000000	95.156266
1258.000000	95.104846
1257.000000	95.050781
1256.000000	94.998909
1255.000000	94.945360
1254.000000	94.883487
1253.000000	94.812940
1252.000000	94.737021
1251.000000	94.656506
1250.000000	94.571379
1249.000000	94.483647
1248.000000	94.393336
1247.000000	94.296159
1246.000000	94.190457
1245.000000	94.081836
1244.000000	93.976777
1243.000000	93.876447
1242.000000	93.780535
1241.000000	93.691446
1240.000000	93.610209
1239.000000	93.533957
1238.000000	93.462189
1237.000000	93.401106
1236.000000	93.356387
1235.000000	93.326739
1234.000000	93.309823
1233.000000	93.308489
1232.000000	93.326481
1231.000000	93.362299
1230.000000	93.413622
1229.000000	93.483925
1228.000000	93.576735
1227.000000	93.688286
1226.000000	93.811809
1225.000000	93.945191
1224.000000	94.088368
1223.000000	94.236174
1222.000000	94.381328
1221.000000	94.520787
1220.000000	94.653002
1219.000000	94.772898
1218.000000	94.875764
1217.000000	94.961326
1216.000000	95.028982
1215.000000	95.075327
1214.000000	95.100525
1213.000000	95.111342
1212.000000	95.111414
1211.000000	95.095463
1210.000000	95.059444
1209.000000	95.008401
1208.000000	94.949838
1207.000000	94.886813
1206.000000	94.823398
1205.000000	94.769186
1204.000000	94.731493
1203.000000	94.709443
1202.000000	94.701759
1201.000000	94.714006
1200.000000	94.751053
1199.000000	94.809521
1198.000000	94.883281
1197.000000	94.970371
1196.000000	95.068588
1195.000000	95.170219
1194.000000	95.269345
1193.000000	95.367898
1192.000000	95.467984
1191.000000	95.564980
1190.000000	95.654768
1189.000000	95.740743
1188.000000	95.826429
1187.000000	95.907891
1186.000000	95.979845
1185.000000	96.042903
1184.000000	96.098492
1183.000000	96.144538
1182.000000	96.182417
1181.000000	96.219677
1180.000000	96.259959
1179.000000	96.298310
1178.000000	96.332104
1177.000000	96.366351
1176.000000	96.402009
1175.000000	96.430767
1174.000000	96.448429
1173.000000	96.462838
1172.000000	96.480837
1171.000000	96.497217
1170.000000	96.504889
1169.000000	96.506326
1168.000000	96.507212
1167.000000	96.507899
1166.000000	96.507656
1165.000000	96.508147
1164.000000	96.506751
1163.000000	96.497256
1162.000000	96.483412
1161.000000	96.480327
1160.000000	96.495774
1159.000000	96.521724
1158.000000	96.550382
1157.000000	96.584909
1156.000000	96.627519
1155.000000	96.671537
1154.000000	96.714858
1153.000000	96.767308
1152.000000	96.833635
1151.000000	96.902531
1150.000000	96.963243
1149.000000	97.019782
1148.000000	97.077396
1147.000000	97.129103
1146.000000	97.168683
1145.000000	97.204354
1144.000000	97.246214
1143.000000	97.290696
1142.000000	97.329418
1141.000000	97.362865
1140.000000	97.394660
1139.000000	97.423214
1138.000000	97.448636
1137.000000	97.476763
1136.000000	97.507198
1135.000000	97.529912
1134.000000	97.542802
1133.000000	97.558629
1132.000000	97.584963
1131.000000	97.611563
1130.000000	97.628105
1129.000000	97.639619
1128.000000	97.652989
1127.000000	97.663532
1126.000000	97.667804
1125.000000	97.675077
1124.000000	97.692536
1123.000000	97.712045
1122.000000	97.724478
1121.000000	97.734277
1120.000000	97.747095
1119.000000	97.756614
1118.000000	97.756911
1117.000000	97.755200
1116.000000	97.759239
1115.000000	97.764229
1114.000000	97.764312
1113.000000	97.764285
1112.000000	97.767796
1111.000000	97.766851
1110.000000	97.755397
1109.000000	97.740999
1108.000000	97.731388
1107.000000	97.722107
1106.000000	97.708243
1105.000000	97.694579
1104.000000	97.683578
1103.000000	97.667808
1102.000000	97.645461
1101.000000	97.628378
1100.000000	97.622907
1099.000000	97.617518
1098.000000	97.600965
1097.000000	97.577605
1096.000000	97.553172
1095.000000	97.521206
1094.000000	97.476714
1093.000000	97.428005
1092.000000	97.381451
1091.000000	97.328858
1090.000000	97.261698
1089.000000	97.184570
1088.000000	97.103537
1087.000000	97.016213
1086.000000	96.924572
1085.000000	96.842313
1084.000000	96.777895
1083.000000	96.724892
1082.000000	96.680243
1081.000000	96.655755
1080.000000	96.660437
1079.000000	96.686056
1078.000000	96.722098
1077.000000	96.769755
1076.000000	96.828785
1075.000000	96.888143
1074.000000	96.942163
1073.000000	96.998994
1072.000000	97.059891
1071.000000	97.107240
1070.000000	97.127512
1069.000000	97.130467
1068.000000	97.132063
1067.000000	97.134011
1066.000000	97.132936
1065.000000	97.132824
1064.000000	97.135075
1063.000000	97.132550
1062.000000	97.126044
1061.000000	97.130238
1060.000000	97.150949
1059.000000	97.173895
1058.000000	97.188467
1057.000000	97.204714
1056.000000	97.233495
1055.000000	97.267890
1054.000000	97.298435
1053.000000	97.328523
1052.000000	97.359783
1051.000000	97.380335
1050.000000	97.384605
1049.000000	97.387087
1048.000000	97.400673
1047.000000	97.419519
1046.000000	97.436740
1045.000000	97.457887
1044.000000	97.482443
1043.000000	97.493461
1042.000000	97.481281
1041.000000	97.459112
1040.000000	97.439038
1039.000000	97.410669
1038.000000	97.359920
1037.000000	97.291486
1036.000000	97.217293
1035.000000	97.139870
1034.000000	97.062791
1033.000000	97.000883
1032.000000	96.964679
1031.000000	96.949224
1030.000000	96.950369
1029.000000	96.975772
1028.000000	97.026532
1027.000000	97.086363
1026.000000	97.143076
1025.000000	97.202264
1024.000000	97.267091
1023.000000	97.324318
1022.000000	97.366113
1021.000000	97.405002
1020.000000	97.450218
1019.000000	97.488973
1018.000000	97.508837
1017.000000	97.519837
1016.000000	97.536005
1015.000000	97.553290
1014.000000	97.562759
1013.000000	97.569066
1012.000000	97.579783
1011.000000	97.593653
1010.000000	97.613820
1009.000000	97.653894
1008.000000	97.714877
1007.000000	97.774584
1006.000000	97.816483
1005.000000	97.851411
1004.000000	97.895856
1003.000000	97.946902
1002.000000	97.994902
1001.000000	98.041943
1000.000000	98.090285
999.000000	98.129762
998.000000	98.154565
997.000000	98.177100
996.000000	98.209512
995.000000	98.247270
994.000000	98.284655
993.000000	98.327886
992.000000	98.377328
991.000000	98.415597
990.000000	98.431096
989.000000	98.436998
988.000000	98.450199
987.000000	98.468584
986.000000	98.484257
985.000000	98.501363
984.000000	98.523447
983.000000	98.539682
982.000000	98.540742
981.000000	98.532206
980.000000	98.517496
979.000000	98.485322
978.000000	98.430906
977.000000	98.372617
976.000000	98.330765
975.000000	98.304997
974.000000	98.287356
973.000000	98.280513
972.000000	98.287053
971.000000	98.297802
970.000000	98.307290
969.000000	98.325125
968.000000	98.356915
967.000000	98.389682
966.000000	98.411131
965.000000	98.427147
964.000000	98.445466
963.000000	98.460050
962.000000	98.466738
961.000000	98.476645
960.000000	98.497680
959.000000	98.519774
958.000000	98.533744
957.000000	98.547603
956.000000	98.568699
955.000000	98.587543
954.000000	98.595384
953.000000	98.599685
952.000000	98.606429
951.000000	98.605028
950.000000	98.588012
949.000000	98.568207
948.000000	98.559553
947.000000	98.557128
946.000000	98.551506
945.000000	98.545568
944.000000	98.541476
943.000000	98.528903
942.000000	98.503308
941.000000	98.479869
940.000000	98.473297
939.000000	98.479119
938.000000	98.488095
937.000000	98.502156
936.000000	98.522580
935.000000	98.540890
934.000000	98.555599
933.000000	98.579698
932.000000	98.616925
931.000000	98.649708
930.000000	98.664931
929.000000	98.672313
928.000000	98.683519
927.000000	98.693394
926.000000	98.696738
925.000000	98.702165
924.000000	98.713904
923.000000	98.720661
922.000000	98.718703
921.000000	98.724297
920.000000	98.746994
919.000000	98.772025
918.000000	98.786276
917.000000	98.799511
916.000000	98.821603
915.000000	98.841668
914.000000	98.849466
913.000000	98.856542
912.000000	98.875275
911.000000	98.897147
910.000000	98.911699
909.000000	98.927398
908.000000	98.952961
907.000000	98.977050
906.000000	98.987048
905.000000	98.989599
904.000000	98.993745
903.000000	98.993110
902.000000	98.984190
901.000000	98.982052
900.000000	98.997446
899.000000	99.016719
898.000000	99.024480
897.000000	99.027464
896.000000	99.037316
895.000000	99.048954
894.000000	99.055020
893.000000	99.062435
892.000000	99.075289
891.000000	99.080720
890.000000	99.070888
889.000000	99.059970
888.000000	99.060188
887.000000	99.059875
886.000000	99.043291
885.000000	99.012936
884.000000	98.974946
883.000000	98.923725
882.000000	98.858479
881.000000	98.792689
880.000000	98.727373
879.000000	98.637653
878.000000	98.506225
877.000000	98.348697
876.000000	98.189034
875.000000	98.035600
874.000000	97.901696
873.000000	97.820556
872.000000	97.814658
871.000000	97.869870
870.000000	97.960151
869.000000	98.075651
868.000000	98.207085
867.000000	98.329389
866.000000	98.424640
865.000000	98.500841
864.000000	98.567763
863.000000	98.616587
862.000000	98.642558
861.000000	98.663317
860.000000	98.692893
859.000000	98.719959
858.000000	98.731959
857.000000	98.737455
856.000000	98.745540
855.000000	98.748179
854.000000	98.743059
853.000000	98.747803
852.000000	98.769487
851.000000	98.785758
850.000000	98.779353
849.000000	98.766137
848.000000	98.766948
847.000000	98.777190
846.000000	98.787694
845.000000	98.808785
844.000000	98.847659
843.000000	98.885876
842.000000	98.905242
841.000000	98.914736
840.000000	98.928704
839.000000	98.941592
838.000000	98.947119
837.000000	98.959197
836.000000	98.989280
835.000000	99.024081
834.000000	99.047556
833.000000	99.063898
832.000000	99.078828
831.000000	99.082058
830.000000	99.069624
829.000000	99.058972
828.000000	99.060266
827.000000	99.058674
826.000000	99.047188
825.000000	99.047186
824.000000	99.070552
823.000000	99.091757
822.000000	99.085336
821.000000	99.060411
820.000000	99.033953
819.000000	99.002887
818.000000	98.966154
817.000000	98.941865
816.000000	98.938049
815.000000	98.935905
814.000000	98.925412
813.000000	98.927628
812.000000	98.957316
811.000000	98.993802
810.000000	99.014058
809.000000	99.025797
808.000000	99.042183
807.000000	99.053468
806.000000	99.050668
805.000000	99.048376
804.000000	99.057139
803.000000	99.061614
802.000000	99.052441
801.000000	99.049856
800.000000	99.067976
799.000000	99.085110
798.000000	99.078750
797.000000	99.061558
796.000000	99.053519
795.000000	99.046607
794.000000	99.026524
793.000000	99.003256
792.000000	98.991767
791.000000	98.986568
790.000000	98.980432
789.000000	98.982987
788.000000	98.996696
787.000000	99.000755
786.000000	98.983387
785.000000	98.964813
784.000000	98.964753
783.000000	98.973049
782.000000	98.975264
781.000000	98.979975
780.000000	98.996141
779.000000	99.009659
778.000000	99.007600
777.000000	99.001139
776.000000	99.000898
775.000000	98.995125
774.000000	98.976206
773.000000	98.962922
772.000000	98.971070
771.000000	98.986535
770.000000	98.991585
769.000000	98.993433
768.000000	99.003237
767.000000	99.011862
766.000000	99.010415
765.000000	99.010123
764.000000	99.018107
763.000000	99.017898
762.000000	98.997750
761.000000	98.973954
760.000000	98.963527
759.000000	98.958627
758.000000	98.949630
757.000000	98.946724
756.000000	98.955939
755.000000	98.960391
754.000000	98.948744
753.000000	98.935965
752.000000	98.933135
751.000000	98.924970
750.000000	98.901006
749.000000	98.880485
748.000000	98.880514
747.000000	98.887127
746.000000	98.883299
745.000000	98.878672
744.000000	98.885643
743.000000	98.892746
742.000000	98.887559
741.000000	98.879609
740.000000	98.875793
739.000000	98.860939
738.000000	98.828752
737.000000	98.803508
736.000000	98.803978
735.000000	98.812151
734.000000	98.804834
733.000000	98.789140
732.000000	98.779162
731.000000	98.764519
730.000000	98.731555
729.000000	98.691696
728.000000	98.660514
727.000000	98.631944
726.000000	98.598528
725.000000	98.572289
724.000000	98.559729
723.000000	98.542107
722.000000	98.506002
721.000000	98.468910
720.000000	98.448865
719.000000	98.433933
718.000000	98.407369
717.000000	98.374679
716.000000	98.340163
715.000000	98.286986
714.000000	98.208930
713.000000	98.134998
712.000000	98.094028
711.000000	98.077822
710.000000	98.064702
709.000000	98.052785
708.000000	98.045331
707.000000	98.031862
706.000000	98.010416
705.000000	98.000578
704.000000	98.008605
703.000000	98.008328
702.000000	97.981957
701.000000	97.949579
700.000000	97.932163
699.000000	97.917842
698.000000	97.892588
697.000000	97.872385
696.000000	97.872475
695.000000	97.875050
694.000000	97.860441
693.000000	97.842455
692.000000	97.840367
691.000000	97.842466
690.000000	97.829570
689.000000	97.808515
688.000000	97.791362
687.000000	97.766562
686.000000	97.722151
685.000000	97.670929
684.000000	97.625488
683.000000	97.578558
682.000000	97.533932
681.000000	97.520714
680.000000	97.546024
679.000000	97.566942
678.000000	97.546485
677.000000	97.504500
676.000000	97.478445
675.000000	97.468911
674.000000	97.452687
673.000000	97.426249
672.000000	97.402469
671.000000	97.385752
670.000000	97.373160
669.000000	97.371425
668.000000	97.372480
667.000000	97.325599
666.000000	97.234168
665.000000	97.164795
664.000000	97.134195
663.000000	97.114366
662.000000	97.091215
661.000000	97.089855
660.000000	97.121194
659.000000	97.145565
658.000000	97.127738
657.000000	97.085567
656.000000	97.047549
655.000000	97.008287
654.000000	96.959379
653.000000	96.922679
652.000000	96.913254
651.000000	96.906669
650.000000	96.881758
649.000000	96.861540
648.000000	96.871860
647.000000	96.894710
646.000000	96.901272
645.000000	96.897308
644.000000	96.898317
643.000000	96.894415
642.000000	96.877270
641.000000	96.868743
640.000000	96.885245
639.000000	96.904268
638.000000	96.902588
637.000000	96.895447
636.000000	96.901709
635.000000	96.902298
634.000000	96.874473
633.000000	96.837388
632.000000	96.823903
631.000000	96.832864
630.000000	96.842285
629.000000	96.844649
628.000000	96.838901
627.000000	96.815085
626.000000	96.776164
625.000000	96.746775
624.000000	96.735250
623.000000	96.720692
622.000000	96.700018
621.000000	96.706789
620.000000	96.755260
619.000000	96.807839
618.000000	96.828426
617.000000	96.829063
616.000000	96.829453
615.000000	96.814704
614.000000	96.774959
613.000000	96.742242
612.000000	96.745627
611.000000	96.766325
610.000000	96.776221
609.000000	96.784191
608.000000	96.806149
607.000000	96.825230
606.000000	96.821865
605.000000	96.809000
604.000000	96.800763
603.000000	96.783371
602.000000	96.751298
601.000000	96.731806
600.000000	96.740009
599.000000	96.751352
598.000000	96.751889
597.000000	96.771374
596.000000	96.828734
595.000000	96.889174
594.000000	96.911259
593.000000	96.898026
592.000000	96.868736
591.000000	96.823612
590.000000	96.771222
589.000000	96.743531
588.000000	96.750649
587.000000	96.764524
586.000000	96.772276
585.000000	96.796682
584.000000	96.838155
583.000000	96.853515
582.000000	96.827552
581.000000	96.806703
580.000000	96.824268
579.000000	96.848421
578.000000	96.843694
577.000000	96.823715
576.000000	96.803759
575.000000	96.763311
574.000000	96.696222
573.000000	96.634861
572.000000	96.587012
571.000000	96.516754
570.000000	96.423814
569.000000	96.373951
568.000000	96.400507
567.000000	96.442834
566.000000	96.434188
565.000000	96.386805
564.000000	96.341859
563.000000	96.303779
562.000000	96.273009
561.000000	96.274236
560.000000	96.302722
559.000000	96.305551
558.000000	96.265739
557.000000	96.240421
556.000000	96.267764
555.000000	96.302192
554.000000	96.294076
553.000000	96.266171
552.000000	96.255443
551.000000	96.247819
550.000000	96.227158
549.000000	96.223920
548.000000	96.257776
547.000000	96.293150
546.000000	96.305582
545.000000	96.330686
544.000000	96.393372
543.000000	96.457684
542.000000	96.496334
541.000000	96.539532
540.000000	96.603661
539.000000	96.640605
538.000000	96.611736
537.000000	96.545796
536.000000	96.472575
535.000000	96.370099
534.000000	96.229187
533.000000	96.095517
532.000000	95.999806
531.000000	95.919164
530.000000	95.851155
529.000000	95.844825
528.000000	95.913261
527.000000	95.989797
526.000000	96.023439
525.000000	96.048333
524.000000	96.096481
523.000000	96.135619
522.000000	96.154872
521.000000	96.213563
520.000000	96.342471
519.000000	96.472602
518.000000	96.533766
517.000000	96.556305
516.000000	96.593544
515.000000	96.632820
514.000000	96.660586
513.000000	96.717561
512.000000	96.821449
511.000000	96.916555
510.000000	96.964290
509.000000	97.006140
508.000000	97.074380
507.000000	97.124310
506.000000	97.127410
505.000000	97.137067
504.000000	97.186381
503.000000	97.217628
502.000000	97.189042
501.000000	97.161793
500.000000	97.189013
499.000000	97.222318
498.000000	97.211969
497.000000	97.194920
496.000000	97.214272
495.000000	97.243438
494.000000	97.264163
493.000000	97.328149
492.000000	97.453442
491.000000	97.548973
490.000000	97.538165
489.000000	97.471822
488.000000	97.433340
487.000000	97.427801
486.000000	97.438141
485.000000	97.491477
484.000000	97.585081
483.000000	97.641435
482.000000	97.633884
481.000000	97.653746
480.000000	97.767219
479.000000	97.905738
478.000000	97.976254
477.000000	97.988081
476.000000	97.987891
475.000000	97.967193
474.000000	97.926261
473.000000	97.935925
472.000000	98.024692
471.000000	98.098550
470.000000	98.095432
469.000000	98.080699
468.000000	98.108909
467.000000	98.138634
466.000000	98.146826
465.000000	98.194841
464.000000	98.298268
463.000000	98.368403
462.000000	98.371539
461.000000	98.407734
460.000000	98.530044
459.000000	98.627629
458.000000	98.609577
457.000000	98.587091
456.000000	98.674627
455.000000	98.791854
454.000000	98.854082
453.000000	98.910185
452.000000	99.009481
451.000000	99.068806
450.000000	99.053925
