PE IR       SUBTECH     SPECTRUM    ASCII       PEDS        4.00        
   -1
POD9-2C-F001_1.ASC
23/09/08
12:06:16.00
23/09/08
12:25:17.00
uco
Sample 016 By uco Date Friday, September 08 2023
450.000000
#HDR
-1
-1
#GR
cm-1
%T
1.0
0.0
4000.000000
-1.000000
3551
8
100.373693
98.321533
#DATA
4000.000000	100.317542
3999.000000	100.320162
3998.000000	100.318137
3997.000000	100.311837
3996.000000	100.303606
3995.000000	100.296207
3994.000000	100.290795
3993.000000	100.286624
3992.000000	100.288436
3991.000000	100.283625
3990.000000	100.279186
3989.000000	100.276554
3988.000000	100.276777
3987.000000	100.279939
3986.000000	100.285067
3985.000000	100.290215
3984.000000	100.293172
3983.000000	100.292772
3982.000000	100.289694
3981.000000	100.285762
3980.000000	100.282519
3979.000000	100.280550
3978.000000	100.279966
3977.000000	100.280944
3976.000000	100.283538
3975.000000	100.287159
3974.000000	100.290501
3973.000000	100.292103
3972.000000	100.291200
3971.000000	100.288450
3970.000000	100.285753
3969.000000	100.284944
3968.000000	100.286192
3967.000000	100.287833
3966.000000	100.288227
3965.000000	100.287495
3964.000000	100.287201
3963.000000	100.288377
3962.000000	100.290189
3961.000000	100.290801
3960.000000	100.289349
3959.000000	100.286817
3958.000000	100.284960
3957.000000	100.284633
3956.000000	100.285142
3955.000000	100.285119
3954.000000	100.284054
3953.000000	100.282658
3952.000000	100.281700
3951.000000	100.280860
3950.000000	100.279063
3949.000000	100.276203
3948.000000	100.273947
3947.000000	100.274264
3946.000000	100.277569
3945.000000	100.282274
3944.000000	100.285782
3943.000000	100.286259
3942.000000	100.283808
3941.000000	100.279973
3940.000000	100.276388
3939.000000	100.274349
3938.000000	100.274866
3937.000000	100.278314
3936.000000	100.283763
3935.000000	100.288720
3934.000000	100.290356
3933.000000	100.287717
3932.000000	100.282985
3931.000000	100.279758
3930.000000	100.279448
3929.000000	100.280601
3928.000000	100.281445
3927.000000	100.281455
3926.000000	100.280879
3925.000000	100.279911
3924.000000	100.278660
3923.000000	100.276949
3922.000000	100.274280
3921.000000	100.270356
3920.000000	100.265661
3919.000000	100.261415
3918.000000	100.259071
3917.000000	100.259857
3916.000000	100.264369
3915.000000	100.272125
3914.000000	100.281038
3913.000000	100.288071
3912.000000	100.290701
3911.000000	100.288518
3910.000000	100.283165
3909.000000	100.276692
3908.000000	100.270168
3907.000000	100.263394
3906.000000	100.255988
3905.000000	100.248740
3904.000000	100.244396
3903.000000	100.245652
3902.000000	100.251993
3901.000000	100.260029
3900.000000	100.266516
3899.000000	100.270223
3898.000000	100.271658
3897.000000	100.271583
3896.000000	100.270102
3895.000000	100.267309
3894.000000	100.263374
3893.000000	100.258406
3892.000000	100.252840
3891.000000	100.248250
3890.000000	100.245892
3889.000000	100.245959
3888.000000	100.248391
3887.000000	100.252355
3886.000000	100.256239
3885.000000	100.259243
3884.000000	100.261648
3883.000000	100.264005
3882.000000	100.266563
3881.000000	100.269367
3880.000000	100.272916
3879.000000	100.277161
3878.000000	100.280993
3877.000000	100.283712
3876.000000	100.285134
3875.000000	100.284611
3874.000000	100.282137
3873.000000	100.279537
3872.000000	100.278254
3871.000000	100.277324
3870.000000	100.275644
3869.000000	100.274887
3868.000000	100.277136
3867.000000	100.281724
3866.000000	100.284767
3865.000000	100.281680
3864.000000	100.272019
3863.000000	100.260985
3862.000000	100.254326
3861.000000	100.254079
3860.000000	100.258560
3859.000000	100.264585
3858.000000	100.270139
3857.000000	100.275378
3856.000000	100.281567
3855.000000	100.288501
3854.000000	100.291952
3853.000000	100.293456
3852.000000	100.296855
3851.000000	100.298474
3850.000000	100.294917
3849.000000	100.287481
3848.000000	100.279282
3847.000000	100.273475
3846.000000	100.271485
3845.000000	100.272987
3844.000000	100.276630
3843.000000	100.281116
3842.000000	100.285727
3841.000000	100.290095
3840.000000	100.293082
3839.000000	100.293601
3838.000000	100.292080
3837.000000	100.289240
3836.000000	100.285443
3835.000000	100.281795
3834.000000	100.279692
3833.000000	100.278998
3832.000000	100.278031
3831.000000	100.275585
3830.000000	100.272618
3829.000000	100.271419
3828.000000	100.273070
3827.000000	100.276157
3826.000000	100.278196
3825.000000	100.278756
3824.000000	100.279922
3823.000000	100.283828
3822.000000	100.288984
3821.000000	100.292649
3820.000000	100.295015
3819.000000	100.296344
3818.000000	100.296196
3817.000000	100.294120
3816.000000	100.291805
3815.000000	100.291784
3814.000000	100.292964
3813.000000	100.292037
3812.000000	100.287507
3811.000000	100.281504
3810.000000	100.278314
3809.000000	100.280867
3808.000000	100.287222
3807.000000	100.292529
3806.000000	100.294750
3805.000000	100.296903
3804.000000	100.303056
3803.000000	100.313389
3802.000000	100.322430
3801.000000	100.324735
3800.000000	100.319065
3799.000000	100.308531
3798.000000	100.297831
3797.000000	100.290538
3796.000000	100.288067
3795.000000	100.289342
3794.000000	100.291979
3793.000000	100.294239
3792.000000	100.295742
3791.000000	100.296449
3790.000000	100.295942
3789.000000	100.293994
3788.000000	100.291525
3787.000000	100.290209
3786.000000	100.291092
3785.000000	100.293697
3784.000000	100.296258
3783.000000	100.297063
3782.000000	100.295738
3781.000000	100.293269
3780.000000	100.290809
3779.000000	100.288821
3778.000000	100.286214
3777.000000	100.281934
3776.000000	100.277098
3775.000000	100.274615
3774.000000	100.276808
3773.000000	100.283653
3772.000000	100.292198
3771.000000	100.297477
3770.000000	100.295728
3769.000000	100.287547
3768.000000	100.277140
3767.000000	100.269164
3766.000000	100.266765
3765.000000	100.270494
3764.000000	100.278237
3763.000000	100.287093
3762.000000	100.294768
3761.000000	100.299178
3760.000000	100.298462
3759.000000	100.293195
3758.000000	100.286779
3757.000000	100.282935
3756.000000	100.283438
3755.000000	100.287478
3754.000000	100.291902
3753.000000	100.292807
3752.000000	100.288919
3751.000000	100.283979
3750.000000	100.282309
3749.000000	100.282236
3748.000000	100.281743
3747.000000	100.282169
3746.000000	100.283208
3745.000000	100.280406
3744.000000	100.272610
3743.000000	100.264376
3742.000000	100.259419
3741.000000	100.258479
3740.000000	100.261083
3739.000000	100.266278
3738.000000	100.272586
3737.000000	100.277072
3736.000000	100.278230
3735.000000	100.279080
3734.000000	100.282739
3733.000000	100.287453
3732.000000	100.289558
3731.000000	100.287823
3730.000000	100.283855
3729.000000	100.280028
3728.000000	100.277496
3727.000000	100.275680
3726.000000	100.273444
3725.000000	100.270088
3724.000000	100.265647
3723.000000	100.261466
3722.000000	100.260070
3721.000000	100.263731
3720.000000	100.272302
3719.000000	100.282938
3718.000000	100.291797
3717.000000	100.296637
3716.000000	100.298251
3715.000000	100.299260
3714.000000	100.301838
3713.000000	100.306340
3712.000000	100.311004
3711.000000	100.313244
3710.000000	100.311105
3709.000000	100.305556
3708.000000	100.300662
3707.000000	100.299777
3706.000000	100.303047
3705.000000	100.308311
3704.000000	100.312877
3703.000000	100.314687
3702.000000	100.313118
3701.000000	100.309163
3700.000000	100.304474
3699.000000	100.300458
3698.000000	100.298114
3697.000000	100.297906
3696.000000	100.299944
3695.000000	100.303907
3694.000000	100.308441
3693.000000	100.311237
3692.000000	100.309598
3691.000000	100.302750
3690.000000	100.295544
3689.000000	100.297464
3688.000000	100.310251
3687.000000	100.323652
3686.000000	100.329077
3685.000000	100.326001
3684.000000	100.318534
3683.000000	100.311840
3682.000000	100.309104
3681.000000	100.308917
3680.000000	100.306785
3679.000000	100.300289
3678.000000	100.291474
3677.000000	100.283898
3676.000000	100.279014
3675.000000	100.277526
3674.000000	100.277181
3673.000000	100.276014
3672.000000	100.274861
3671.000000	100.275327
3670.000000	100.278788
3669.000000	100.285628
3668.000000	100.292588
3667.000000	100.296112
3666.000000	100.295290
3665.000000	100.291440
3664.000000	100.286913
3663.000000	100.283272
3662.000000	100.279809
3661.000000	100.274883
3660.000000	100.269183
3659.000000	100.266181
3658.000000	100.269045
3657.000000	100.277100
3656.000000	100.286335
3655.000000	100.293027
3654.000000	100.296199
3653.000000	100.297034
3652.000000	100.296469
3651.000000	100.294415
3650.000000	100.292666
3649.000000	100.296186
3648.000000	100.303501
3647.000000	100.306750
3646.000000	100.304230
3645.000000	100.300816
3644.000000	100.300681
3643.000000	100.304463
3642.000000	100.310248
3641.000000	100.315826
3640.000000	100.320195
3639.000000	100.322712
3638.000000	100.322344
3637.000000	100.318751
3636.000000	100.313481
3635.000000	100.309059
3634.000000	100.306815
3633.000000	100.306132
3632.000000	100.305856
3631.000000	100.305522
3630.000000	100.303787
3629.000000	100.299502
3628.000000	100.295390
3627.000000	100.292653
3626.000000	100.289653
3625.000000	100.285107
3624.000000	100.279091
3623.000000	100.272929
3622.000000	100.268871
3621.000000	100.268659
3620.000000	100.272236
3619.000000	100.277858
3618.000000	100.282976
3617.000000	100.284905
3616.000000	100.282270
3615.000000	100.275580
3614.000000	100.267165
3613.000000	100.260467
3612.000000	100.257552
3611.000000	100.257991
3610.000000	100.260574
3609.000000	100.264744
3608.000000	100.270003
3607.000000	100.275156
3606.000000	100.278824
3605.000000	100.280381
3604.000000	100.279815
3603.000000	100.276554
3602.000000	100.269806
3601.000000	100.260167
3600.000000	100.250549
3599.000000	100.244435
3598.000000	100.243848
3597.000000	100.248996
3596.000000	100.258604
3595.000000	100.269674
3594.000000	100.278272
3593.000000	100.281555
3592.000000	100.278769
3591.000000	100.271167
3590.000000	100.261001
3589.000000	100.250395
3588.000000	100.241340
3587.000000	100.237023
3586.000000	100.239630
3585.000000	100.248609
3584.000000	100.261899
3583.000000	100.276231
3582.000000	100.287432
3581.000000	100.292585
3580.000000	100.292262
3579.000000	100.289764
3578.000000	100.287483
3577.000000	100.284833
3576.000000	100.279781
3575.000000	100.271899
3574.000000	100.263206
3573.000000	100.256344
3572.000000	100.252211
3571.000000	100.249484
3570.000000	100.245901
3569.000000	100.239760
3568.000000	100.232315
3567.000000	100.229592
3566.000000	100.236622
3565.000000	100.249815
3564.000000	100.261799
3563.000000	100.268699
3562.000000	100.270745
3561.000000	100.269628
3560.000000	100.266234
3559.000000	100.260380
3558.000000	100.252487
3557.000000	100.244732
3556.000000	100.240052
3555.000000	100.239884
3554.000000	100.242840
3553.000000	100.245885
3552.000000	100.247148
3551.000000	100.246996
3550.000000	100.246544
3549.000000	100.246088
3548.000000	100.245132
3547.000000	100.243426
3546.000000	100.241554
3545.000000	100.240068
3544.000000	100.238248
3543.000000	100.234687
3542.000000	100.229034
3541.000000	100.222990
3540.000000	100.219249
3539.000000	100.219060
3538.000000	100.220917
3537.000000	100.222143
3536.000000	100.222210
3535.000000	100.223480
3534.000000	100.228257
3533.000000	100.235937
3532.000000	100.243491
3531.000000	100.248094
3530.000000	100.248946
3529.000000	100.246993
3528.000000	100.243439
3527.000000	100.238669
3526.000000	100.232271
3525.000000	100.223915
3524.000000	100.214279
3523.000000	100.205357
3522.000000	100.199656
3521.000000	100.198807
3520.000000	100.202605
3519.000000	100.208882
3518.000000	100.214594
3517.000000	100.217755
3516.000000	100.218660
3515.000000	100.218896
3514.000000	100.219205
3513.000000	100.218701
3512.000000	100.216309
3511.000000	100.212655
3510.000000	100.210125
3509.000000	100.210635
3508.000000	100.213560
3507.000000	100.216486
3506.000000	100.218060
3505.000000	100.219370
3504.000000	100.222514
3503.000000	100.227535
3502.000000	100.231194
3501.000000	100.229703
3500.000000	100.222343
3499.000000	100.211832
3498.000000	100.201914
3497.000000	100.195215
3496.000000	100.192398
3495.000000	100.192446
3494.000000	100.193723
3493.000000	100.195350
3492.000000	100.197550
3491.000000	100.200472
3490.000000	100.203233
3489.000000	100.204908
3488.000000	100.206212
3487.000000	100.209037
3486.000000	100.214046
3485.000000	100.219735
3484.000000	100.224011
3483.000000	100.225595
3482.000000	100.223695
3481.000000	100.217739
3480.000000	100.208648
3479.000000	100.199623
3478.000000	100.194043
3477.000000	100.192456
3476.000000	100.192357
3475.000000	100.191031
3474.000000	100.188111
3473.000000	100.185087
3472.000000	100.183062
3471.000000	100.181651
3470.000000	100.179807
3469.000000	100.177165
3468.000000	100.174506
3467.000000	100.173122
3466.000000	100.173859
3465.000000	100.176730
3464.000000	100.181208
3463.000000	100.186534
3462.000000	100.191676
3461.000000	100.195381
3460.000000	100.196743
3459.000000	100.195622
3458.000000	100.192264
3457.000000	100.186726
3456.000000	100.179473
3455.000000	100.172523
3454.000000	100.169163
3453.000000	100.171575
3452.000000	100.178615
3451.000000	100.186292
3450.000000	100.190569
3449.000000	100.189845
3448.000000	100.185442
3447.000000	100.180326
3446.000000	100.177052
3445.000000	100.176513
3444.000000	100.178162
3443.000000	100.180647
3442.000000	100.182206
3441.000000	100.181483
3440.000000	100.178816
3439.000000	100.176390
3438.000000	100.176304
3437.000000	100.178170
3436.000000	100.179251
3435.000000	100.177405
3434.000000	100.173735
3433.000000	100.171879
3432.000000	100.174394
3431.000000	100.179905
3430.000000	100.183903
3429.000000	100.182850
3428.000000	100.177797
3427.000000	100.173512
3426.000000	100.173619
3425.000000	100.176861
3424.000000	100.178766
3423.000000	100.176826
3422.000000	100.173067
3421.000000	100.171091
3420.000000	100.171364
3419.000000	100.170676
3418.000000	100.166415
3417.000000	100.160164
3416.000000	100.156477
3415.000000	100.158689
3414.000000	100.166315
3413.000000	100.176205
3412.000000	100.185264
3411.000000	100.191460
3410.000000	100.193098
3409.000000	100.188853
3408.000000	100.179232
3407.000000	100.167198
3406.000000	100.156635
3405.000000	100.150304
3404.000000	100.149264
3403.000000	100.153174
3402.000000	100.160264
3401.000000	100.167497
3400.000000	100.171845
3399.000000	100.171807
3398.000000	100.167752
3397.000000	100.161406
3396.000000	100.155399
3395.000000	100.152475
3394.000000	100.153864
3393.000000	100.158083
3392.000000	100.162009
3391.000000	100.163476
3390.000000	100.162665
3389.000000	100.161290
3388.000000	100.161213
3387.000000	100.163466
3386.000000	100.167418
3385.000000	100.170642
3384.000000	100.170675
3383.000000	100.167319
3382.000000	100.162480
3381.000000	100.157636
3380.000000	100.152673
3379.000000	100.147705
3378.000000	100.144628
3377.000000	100.145515
3376.000000	100.149919
3375.000000	100.154911
3374.000000	100.157607
3373.000000	100.156889
3372.000000	100.153226
3371.000000	100.148249
3370.000000	100.144579
3369.000000	100.144470
3368.000000	100.147670
3367.000000	100.151302
3366.000000	100.152606
3365.000000	100.151466
3364.000000	100.149962
3363.000000	100.150190
3362.000000	100.152955
3361.000000	100.157627
3360.000000	100.162248
3359.000000	100.164180
3358.000000	100.161780
3357.000000	100.155833
3356.000000	100.148968
3355.000000	100.143666
3354.000000	100.141030
3353.000000	100.141107
3352.000000	100.143329
3351.000000	100.146272
3350.000000	100.147787
3349.000000	100.146238
3348.000000	100.141780
3347.000000	100.136235
3346.000000	100.131717
3345.000000	100.129370
3344.000000	100.129132
3343.000000	100.130364
3342.000000	100.132526
3341.000000	100.135229
3340.000000	100.137697
3339.000000	100.138466
3338.000000	100.136172
3337.000000	100.131028
3336.000000	100.125324
3335.000000	100.121942
3334.000000	100.121982
3333.000000	100.123778
3332.000000	100.124316
3331.000000	100.121771
3330.000000	100.117065
3329.000000	100.113352
3328.000000	100.113894
3327.000000	100.119773
3326.000000	100.128971
3325.000000	100.137469
3324.000000	100.141826
3323.000000	100.141390
3322.000000	100.138173
3321.000000	100.134350
3320.000000	100.130088
3319.000000	100.124398
3318.000000	100.118131
3317.000000	100.114957
3316.000000	100.118115
3315.000000	100.126416
3314.000000	100.134617
3313.000000	100.138149
3312.000000	100.136707
3311.000000	100.133109
3310.000000	100.129872
3309.000000	100.127846
3308.000000	100.127219
3307.000000	100.127958
3306.000000	100.129016
3305.000000	100.128558
3304.000000	100.126016
3303.000000	100.123367
3302.000000	100.123417
3301.000000	100.126618
3300.000000	100.130151
3299.000000	100.130491
3298.000000	100.126727
3297.000000	100.121260
3296.000000	100.117238
3295.000000	100.115435
3294.000000	100.113880
3293.000000	100.110548
3292.000000	100.106021
3291.000000	100.103097
3290.000000	100.103876
3289.000000	100.107726
3288.000000	100.112243
3287.000000	100.115649
3286.000000	100.117837
3285.000000	100.119573
3284.000000	100.121396
3283.000000	100.123403
3282.000000	100.125571
3281.000000	100.127837
3280.000000	100.129893
3279.000000	100.131103
3278.000000	100.130768
3277.000000	100.128724
3276.000000	100.125961
3275.000000	100.124585
3274.000000	100.126546
3273.000000	100.131771
3272.000000	100.137573
3271.000000	100.140422
3270.000000	100.138735
3269.000000	100.133885
3268.000000	100.128470
3267.000000	100.124031
3266.000000	100.120796
3265.000000	100.119106
3264.000000	100.119831
3263.000000	100.122838
3262.000000	100.125931
3261.000000	100.126376
3260.000000	100.123549
3259.000000	100.119592
3258.000000	100.117492
3257.000000	100.118857
3256.000000	100.123258
3255.000000	100.128921
3254.000000	100.133797
3253.000000	100.136358
3252.000000	100.135926
3251.000000	100.132666
3250.000000	100.127655
3249.000000	100.122983
3248.000000	100.120887
3247.000000	100.121772
3246.000000	100.123301
3245.000000	100.122593
3244.000000	100.119701
3243.000000	100.117938
3242.000000	100.120162
3241.000000	100.125286
3240.000000	100.128981
3239.000000	100.127598
3238.000000	100.121218
3237.000000	100.113517
3236.000000	100.109163
3235.000000	100.110700
3234.000000	100.116954
3233.000000	100.124114
3232.000000	100.128767
3231.000000	100.130222
3230.000000	100.129993
3229.000000	100.129689
3228.000000	100.130023
3227.000000	100.131321
3226.000000	100.133756
3225.000000	100.136594
3224.000000	100.138048
3223.000000	100.136763
3222.000000	100.133322
3221.000000	100.129855
3220.000000	100.128147
3219.000000	100.128365
3218.000000	100.129560
3217.000000	100.130906
3216.000000	100.132080
3215.000000	100.132757
3214.000000	100.132358
3213.000000	100.130747
3212.000000	100.129029
3211.000000	100.129086
3210.000000	100.131793
3209.000000	100.135829
3208.000000	100.138628
3207.000000	100.138519
3206.000000	100.135692
3205.000000	100.131335
3204.000000	100.126703
3203.000000	100.123172
3202.000000	100.122154
3201.000000	100.123894
3200.000000	100.126502
3199.000000	100.127166
3198.000000	100.124833
3197.000000	100.121353
3196.000000	100.119785
3195.000000	100.121688
3194.000000	100.126181
3193.000000	100.131064
3192.000000	100.134691
3191.000000	100.137199
3190.000000	100.140211
3189.000000	100.145132
3188.000000	100.151296
3187.000000	100.156040
3186.000000	100.156880
3185.000000	100.153756
3184.000000	100.149153
3183.000000	100.146332
3182.000000	100.147390
3181.000000	100.152021
3180.000000	100.157266
3179.000000	100.158734
3178.000000	100.153605
3177.000000	100.143295
3176.000000	100.132775
3175.000000	100.126710
3174.000000	100.125994
3173.000000	100.127676
3172.000000	100.127588
3171.000000	100.123326
3170.000000	100.115751
3169.000000	100.108680
3168.000000	100.106754
3167.000000	100.112404
3166.000000	100.123942
3165.000000	100.136257
3164.000000	100.143833
3163.000000	100.143977
3162.000000	100.138351
3161.000000	100.131762
3160.000000	100.128928
3159.000000	100.131515
3158.000000	100.137857
3157.000000	100.145280
3156.000000	100.152055
3155.000000	100.157022
3154.000000	100.158521
3153.000000	100.155361
3152.000000	100.149093
3151.000000	100.143974
3150.000000	100.143570
3149.000000	100.147332
3148.000000	100.150911
3147.000000	100.149823
3146.000000	100.143136
3145.000000	100.134292
3144.000000	100.128745
3143.000000	100.129937
3142.000000	100.136705
3141.000000	100.144406
3140.000000	100.148953
3139.000000	100.149785
3138.000000	100.149181
3137.000000	100.149300
3136.000000	100.150441
3135.000000	100.151586
3134.000000	100.151755
3133.000000	100.150594
3132.000000	100.148309
3131.000000	100.145517
3130.000000	100.143055
3129.000000	100.141532
3128.000000	100.140766
3127.000000	100.139736
3126.000000	100.137374
3125.000000	100.133691
3124.000000	100.129885
3123.000000	100.126948
3122.000000	100.124441
3121.000000	100.121472
3120.000000	100.118883
3119.000000	100.119210
3118.000000	100.123690
3117.000000	100.130182
3116.000000	100.135132
3115.000000	100.137221
3114.000000	100.137935
3113.000000	100.138885
3112.000000	100.139905
3111.000000	100.139981
3110.000000	100.138875
3109.000000	100.137438
3108.000000	100.137034
3107.000000	100.138806
3106.000000	100.142457
3105.000000	100.145582
3104.000000	100.145469
3103.000000	100.142261
3102.000000	100.139332
3101.000000	100.139756
3100.000000	100.143256
3099.000000	100.147451
3098.000000	100.150897
3097.000000	100.153449
3096.000000	100.154352
3095.000000	100.151994
3094.000000	100.146000
3093.000000	100.138384
3092.000000	100.131940
3091.000000	100.128016
3090.000000	100.126126
3089.000000	100.125226
3088.000000	100.124849
3087.000000	100.125193
3086.000000	100.126418
3085.000000	100.128045
3084.000000	100.129145
3083.000000	100.129214
3082.000000	100.128668
3081.000000	100.128360
3080.000000	100.128884
3079.000000	100.130428
3078.000000	100.132812
3077.000000	100.135213
3076.000000	100.136431
3075.000000	100.136369
3074.000000	100.137023
3073.000000	100.140713
3072.000000	100.146749
3071.000000	100.150804
3070.000000	100.148626
3069.000000	100.140421
3068.000000	100.130891
3067.000000	100.124918
3066.000000	100.123689
3065.000000	100.125109
3064.000000	100.127036
3063.000000	100.129029
3062.000000	100.131365
3061.000000	100.133796
3060.000000	100.136048
3059.000000	100.138664
3058.000000	100.142347
3057.000000	100.146622
3056.000000	100.149954
3055.000000	100.151199
3054.000000	100.150232
3053.000000	100.147283
3052.000000	100.142610
3051.000000	100.137175
3050.000000	100.132753
3049.000000	100.130678
3048.000000	100.130882
3047.000000	100.132526
3046.000000	100.135058
3045.000000	100.138016
3044.000000	100.140192
3043.000000	100.139898
3042.000000	100.136388
3041.000000	100.130949
3040.000000	100.126561
3039.000000	100.126108
3038.000000	100.130088
3037.000000	100.135638
3036.000000	100.138444
3035.000000	100.136414
3034.000000	100.131517
3033.000000	100.127814
3032.000000	100.128059
3031.000000	100.132167
3030.000000	100.137967
3029.000000	100.142624
3028.000000	100.144160
3027.000000	100.142931
3026.000000	100.141376
3025.000000	100.141179
3024.000000	100.140910
3023.000000	100.137858
3022.000000	100.132076
3021.000000	100.126931
3020.000000	100.125177
3019.000000	100.125999
3018.000000	100.126780
3017.000000	100.126436
3016.000000	100.125647
3015.000000	100.124686
3014.000000	100.122841
3013.000000	100.120135
3012.000000	100.118284
3011.000000	100.119142
3010.000000	100.122634
3009.000000	100.126676
3008.000000	100.129009
3007.000000	100.128990
3006.000000	100.127758
3005.000000	100.126865
3004.000000	100.126864
3003.000000	100.127315
3002.000000	100.127976
3001.000000	100.129413
3000.000000	100.132273
2999.000000	100.136313
2998.000000	100.140330
2997.000000	100.142728
2996.000000	100.142114
2995.000000	100.138108
2994.000000	100.132225
2993.000000	100.127523
2992.000000	100.126431
2991.000000	100.128745
2990.000000	100.131979
2989.000000	100.133642
2988.000000	100.132863
2987.000000	100.130169
2986.000000	100.126476
2985.000000	100.122572
2984.000000	100.119022
2983.000000	100.115874
2982.000000	100.112389
2981.000000	100.107452
2980.000000	100.100827
2979.000000	100.094193
2978.000000	100.090428
2977.000000	100.091018
2976.000000	100.094029
2975.000000	100.095407
2974.000000	100.092786
2973.000000	100.087495
2972.000000	100.082313
2971.000000	100.077889
2970.000000	100.072382
2969.000000	100.064369
2968.000000	100.054841
2967.000000	100.045957
2966.000000	100.038557
2965.000000	100.031558
2964.000000	100.023418
2963.000000	100.013870
2962.000000	100.004521
2961.000000	99.998214
2960.000000	99.997461
2959.000000	100.002559
2958.000000	100.010758
2957.000000	100.017515
2956.000000	100.019436
2955.000000	100.016520
2954.000000	100.011576
2953.000000	100.007133
2952.000000	100.003115
2951.000000	99.997948
2950.000000	99.991681
2949.000000	99.986953
2948.000000	99.986222
2947.000000	99.988632
2946.000000	99.990371
2945.000000	99.988138
2944.000000	99.981962
2943.000000	99.974826
2942.000000	99.969856
2941.000000	99.967388
2940.000000	99.964247
2939.000000	99.956201
2938.000000	99.941859
2937.000000	99.924140
2936.000000	99.907469
2935.000000	99.893826
2934.000000	99.882043
2933.000000	99.870228
2932.000000	99.857668
2931.000000	99.844485
2930.000000	99.830985
2929.000000	99.817930
2928.000000	99.806671
2927.000000	99.798448
2926.000000	99.794031
2925.000000	99.794003
2924.000000	99.798371
2923.000000	99.805640
2922.000000	99.813395
2921.000000	99.820559
2920.000000	99.828238
2919.000000	99.837665
2918.000000	99.848114
2917.000000	99.857786
2916.000000	99.866162
2915.000000	99.874380
2914.000000	99.883496
2913.000000	99.893332
2912.000000	99.903088
2911.000000	99.912319
2910.000000	99.921149
2909.000000	99.930112
2908.000000	99.939847
2907.000000	99.950251
2906.000000	99.959658
2905.000000	99.965473
2904.000000	99.966424
2903.000000	99.964254
2902.000000	99.963104
2901.000000	99.966434
2900.000000	99.974413
2899.000000	99.984011
2898.000000	99.991710
2897.000000	99.996516
2896.000000	100.000169
2895.000000	100.004612
2894.000000	100.009737
2893.000000	100.014011
2892.000000	100.016569
2891.000000	100.017723
2890.000000	100.017594
2889.000000	100.015562
2888.000000	100.011778
2887.000000	100.008418
2886.000000	100.008239
2885.000000	100.011812
2884.000000	100.016851
2883.000000	100.020627
2882.000000	100.022519
2881.000000	100.023796
2880.000000	100.025280
2879.000000	100.026051
2878.000000	100.024692
2877.000000	100.021168
2876.000000	100.016886
2875.000000	100.013120
2874.000000	100.010174
2873.000000	100.008174
2872.000000	100.007703
2871.000000	100.008775
2870.000000	100.009567
2869.000000	100.007398
2868.000000	100.001404
2867.000000	99.993685
2866.000000	99.987390
2865.000000	99.983930
2864.000000	99.982378
2863.000000	99.980897
2862.000000	99.977950
2861.000000	99.972522
2860.000000	99.964325
2859.000000	99.954327
2858.000000	99.944275
2857.000000	99.935041
2856.000000	99.925850
2855.000000	99.915827
2854.000000	99.906104
2853.000000	99.899682
2852.000000	99.899183
2851.000000	99.905300
2850.000000	99.917121
2849.000000	99.932909
2848.000000	99.950194
2847.000000	99.966177
2846.000000	99.979200
2845.000000	99.989817
2844.000000	99.999867
2843.000000	100.010576
2842.000000	100.021819
2841.000000	100.032684
2840.000000	100.042016
2839.000000	100.048583
2838.000000	100.051694
2837.000000	100.052038
2836.000000	100.051410
2835.000000	100.051278
2834.000000	100.051933
2833.000000	100.053094
2832.000000	100.054756
2831.000000	100.057104
2830.000000	100.059988
2829.000000	100.062908
2828.000000	100.065335
2827.000000	100.066858
2826.000000	100.067289
2825.000000	100.066919
2824.000000	100.066569
2823.000000	100.067238
2822.000000	100.069713
2821.000000	100.074282
2820.000000	100.080328
2819.000000	100.086282
2818.000000	100.090753
2817.000000	100.093963
2816.000000	100.097388
2815.000000	100.101525
2814.000000	100.104708
2813.000000	100.104868
2812.000000	100.101961
2811.000000	100.097881
2810.000000	100.094386
2809.000000	100.092097
2808.000000	100.091378
2807.000000	100.092829
2806.000000	100.096313
2805.000000	100.100227
2804.000000	100.102526
2803.000000	100.102375
2802.000000	100.100549
2801.000000	100.098599
2800.000000	100.097944
2799.000000	100.099203
2798.000000	100.101610
2797.000000	100.103051
2796.000000	100.101431
2795.000000	100.096656
2794.000000	100.091196
2793.000000	100.088305
2792.000000	100.089369
2791.000000	100.092941
2790.000000	100.096346
2789.000000	100.098131
2788.000000	100.098822
2787.000000	100.099526
2786.000000	100.100271
2785.000000	100.099953
2784.000000	100.097757
2783.000000	100.094350
2782.000000	100.091640
2781.000000	100.091319
2780.000000	100.093455
2779.000000	100.096463
2778.000000	100.098548
2777.000000	100.099176
2776.000000	100.098929
2775.000000	100.098141
2774.000000	100.096272
2773.000000	100.092893
2772.000000	100.088774
2771.000000	100.085547
2770.000000	100.084535
2769.000000	100.086106
2768.000000	100.089664
2767.000000	100.093761
2766.000000	100.096652
2765.000000	100.097453
2764.000000	100.096694
2763.000000	100.095295
2762.000000	100.093302
2761.000000	100.090324
2760.000000	100.087009
2759.000000	100.085121
2758.000000	100.085781
2757.000000	100.088118
2756.000000	100.090043
2755.000000	100.090246
2754.000000	100.089368
2753.000000	100.089234
2752.000000	100.090722
2751.000000	100.092352
2750.000000	100.091679
2749.000000	100.088527
2748.000000	100.086006
2747.000000	100.087190
2746.000000	100.091346
2745.000000	100.094922
2744.000000	100.096022
2743.000000	100.096123
2742.000000	100.097067
2741.000000	100.098327
2740.000000	100.098546
2739.000000	100.098318
2738.000000	100.099568
2737.000000	100.102621
2736.000000	100.105461
2735.000000	100.106063
2734.000000	100.104488
2733.000000	100.102591
2732.000000	100.102213
2731.000000	100.103458
2730.000000	100.104081
2729.000000	100.100949
2728.000000	100.093204
2727.000000	100.083948
2726.000000	100.077890
2725.000000	100.077150
2724.000000	100.079987
2723.000000	100.083482
2722.000000	100.086467
2721.000000	100.089618
2720.000000	100.093730
2719.000000	100.098470
2718.000000	100.102282
2717.000000	100.103205
2716.000000	100.100520
2715.000000	100.096038
2714.000000	100.093053
2713.000000	100.093331
2712.000000	100.095413
2711.000000	100.096444
2710.000000	100.095396
2709.000000	100.093866
2708.000000	100.093835
2707.000000	100.095304
2706.000000	100.096397
2705.000000	100.095468
2704.000000	100.092794
2703.000000	100.090170
2702.000000	100.089039
2701.000000	100.089342
2700.000000	100.090205
2699.000000	100.091272
2698.000000	100.092759
2697.000000	100.094500
2696.000000	100.095791
2695.000000	100.096375
2694.000000	100.096807
2693.000000	100.097447
2692.000000	100.097699
2691.000000	100.096713
2690.000000	100.094366
2689.000000	100.091068
2688.000000	100.087272
2687.000000	100.083992
2686.000000	100.083178
2685.000000	100.086154
2684.000000	100.091349
2683.000000	100.094703
2682.000000	100.093231
2681.000000	100.087849
2680.000000	100.082215
2679.000000	100.079113
2678.000000	100.078600
2677.000000	100.079310
2676.000000	100.080431
2675.000000	100.081876
2674.000000	100.083200
2673.000000	100.083457
2672.000000	100.082381
2671.000000	100.081025
2670.000000	100.080604
2669.000000	100.080938
2668.000000	100.080584
2667.000000	100.078561
2666.000000	100.075479
2665.000000	100.072931
2664.000000	100.072107
2663.000000	100.073047
2662.000000	100.074662
2661.000000	100.075234
2660.000000	100.073482
2659.000000	100.069769
2658.000000	100.066139
2657.000000	100.064727
2656.000000	100.066076
2655.000000	100.069011
2654.000000	100.071696
2653.000000	100.072553
2652.000000	100.070946
2651.000000	100.067925
2650.000000	100.066067
2649.000000	100.067562
2648.000000	100.072174
2647.000000	100.077552
2646.000000	100.081498
2645.000000	100.083379
2644.000000	100.083706
2643.000000	100.083541
2642.000000	100.084477
2641.000000	100.087864
2640.000000	100.093255
2639.000000	100.098364
2638.000000	100.101280
2637.000000	100.102074
2636.000000	100.101681
2635.000000	100.100253
2634.000000	100.097861
2633.000000	100.096110
2632.000000	100.097419
2631.000000	100.102442
2630.000000	100.109253
2629.000000	100.115313
2628.000000	100.119271
2627.000000	100.120700
2626.000000	100.119253
2625.000000	100.115038
2624.000000	100.109452
2623.000000	100.104762
2622.000000	100.102534
2621.000000	100.102330
2620.000000	100.101781
2619.000000	100.098316
2618.000000	100.091642
2617.000000	100.084823
2616.000000	100.082287
2615.000000	100.086169
2614.000000	100.094527
2613.000000	100.103176
2612.000000	100.109093
2611.000000	100.112098
2610.000000	100.113839
2609.000000	100.115617
2608.000000	100.117137
2607.000000	100.117174
2606.000000	100.115387
2605.000000	100.113399
2604.000000	100.113992
2603.000000	100.119124
2602.000000	100.128391
2601.000000	100.138861
2600.000000	100.146521
2599.000000	100.148944
2598.000000	100.147282
2597.000000	100.145056
2596.000000	100.144407
2595.000000	100.144321
2594.000000	100.143211
2593.000000	100.141831
2592.000000	100.141775
2591.000000	100.142067
2590.000000	100.140008
2589.000000	100.135741
2588.000000	100.133442
2587.000000	100.136639
2586.000000	100.144010
2585.000000	100.150856
2584.000000	100.153183
2583.000000	100.149497
2582.000000	100.140889
2581.000000	100.131586
2580.000000	100.127773
2579.000000	100.132685
2578.000000	100.142757
2577.000000	100.150716
2576.000000	100.152793
2575.000000	100.151498
2574.000000	100.151319
2573.000000	100.153599
2572.000000	100.156233
2571.000000	100.156818
2570.000000	100.154876
2569.000000	100.151536
2568.000000	100.147834
2567.000000	100.143399
2566.000000	100.136994
2565.000000	100.128656
2564.000000	100.121041
2563.000000	100.118071
2562.000000	100.122457
2561.000000	100.134392
2560.000000	100.151319
2559.000000	100.167938
2558.000000	100.177779
2557.000000	100.177244
2556.000000	100.168788
2555.000000	100.159120
2554.000000	100.154022
2553.000000	100.155260
2552.000000	100.161250
2551.000000	100.168694
2550.000000	100.173733
2549.000000	100.173695
2548.000000	100.168918
2547.000000	100.162200
2546.000000	100.156272
2545.000000	100.152431
2544.000000	100.150975
2543.000000	100.151461
2542.000000	100.152831
2541.000000	100.154916
2540.000000	100.159453
2539.000000	100.167629
2538.000000	100.176772
2537.000000	100.181754
2536.000000	100.180107
2535.000000	100.173620
2534.000000	100.164862
2533.000000	100.155178
2532.000000	100.146924
2531.000000	100.144237
2530.000000	100.149028
2529.000000	100.158181
2528.000000	100.166839
2527.000000	100.172786
2526.000000	100.175716
2525.000000	100.174397
2524.000000	100.167884
2523.000000	100.158668
2522.000000	100.151778
2521.000000	100.150588
2520.000000	100.154924
2519.000000	100.162343
2518.000000	100.169395
2517.000000	100.172712
2516.000000	100.171389
2515.000000	100.167902
2514.000000	100.164697
2513.000000	100.160832
2512.000000	100.154549
2511.000000	100.148257
2510.000000	100.147190
2509.000000	100.152649
2508.000000	100.159801
2507.000000	100.163463
2506.000000	100.163444
2505.000000	100.162561
2504.000000	100.161773
2503.000000	100.159359
2502.000000	100.153798
2501.000000	100.145785
2500.000000	100.138046
2499.000000	100.134146
2498.000000	100.136403
2497.000000	100.143675
2496.000000	100.151641
2495.000000	100.156034
2494.000000	100.155502
2493.000000	100.151566
2492.000000	100.147215
2491.000000	100.145599
2490.000000	100.148050
2489.000000	100.152187
2488.000000	100.153633
2487.000000	100.151036
2486.000000	100.148042
2485.000000	100.148870
2484.000000	100.152939
2483.000000	100.155755
2482.000000	100.154556
2481.000000	100.151215
2480.000000	100.149695
2479.000000	100.151971
2478.000000	100.156752
2477.000000	100.161218
2476.000000	100.163378
2475.000000	100.163151
2474.000000	100.161582
2473.000000	100.159532
2472.000000	100.157587
2471.000000	100.156470
2470.000000	100.156224
2469.000000	100.155328
2468.000000	100.152606
2467.000000	100.150095
2466.000000	100.151590
2465.000000	100.157339
2464.000000	100.162708
2463.000000	100.163880
2462.000000	100.162544
2461.000000	100.162486
2460.000000	100.163399
2459.000000	100.161369
2458.000000	100.154502
2457.000000	100.144819
2456.000000	100.135066
2455.000000	100.127006
2454.000000	100.122971
2453.000000	100.125538
2452.000000	100.134296
2451.000000	100.145354
2450.000000	100.155123
2449.000000	100.162332
2448.000000	100.165911
2447.000000	100.164246
2446.000000	100.158366
2445.000000	100.153102
2444.000000	100.152352
2443.000000	100.154734
2442.000000	100.156113
2441.000000	100.154896
2440.000000	100.152639
2439.000000	100.150918
2438.000000	100.150482
2437.000000	100.152669
2436.000000	100.158524
2435.000000	100.166042
2434.000000	100.170617
2433.000000	100.169197
2432.000000	100.162951
2431.000000	100.155593
2430.000000	100.150225
2429.000000	100.147851
2428.000000	100.147534
2427.000000	100.147491
2426.000000	100.146875
2425.000000	100.146716
2424.000000	100.148579
2423.000000	100.152617
2422.000000	100.157838
2421.000000	100.163755
2420.000000	100.170218
2419.000000	100.175657
2418.000000	100.177286
2417.000000	100.174083
2416.000000	100.168672
2415.000000	100.165211
2414.000000	100.165622
2413.000000	100.168228
2412.000000	100.169868
2411.000000	100.169127
2410.000000	100.167699
2409.000000	100.168671
2408.000000	100.173295
2407.000000	100.179671
2406.000000	100.184878
2405.000000	100.187863
2404.000000	100.189727
2403.000000	100.191658
2402.000000	100.193470
2401.000000	100.193789
2400.000000	100.190776
2399.000000	100.183246
2398.000000	100.172540
2397.000000	100.163267
2396.000000	100.160484
2395.000000	100.165294
2394.000000	100.173918
2393.000000	100.181407
2392.000000	100.185281
2391.000000	100.185277
2390.000000	100.181337
2389.000000	100.173636
2388.000000	100.164186
2387.000000	100.156671
2386.000000	100.153992
2385.000000	100.156606
2384.000000	100.163508
2383.000000	100.173891
2382.000000	100.186817
2381.000000	100.199612
2380.000000	100.208484
2379.000000	100.212131
2378.000000	100.213849
2377.000000	100.217779
2376.000000	100.222546
2375.000000	100.221169
2374.000000	100.209376
2373.000000	100.191904
2372.000000	100.177505
2371.000000	100.169312
2370.000000	100.164420
2369.000000	100.162121
2368.000000	100.166307
2367.000000	100.177806
2366.000000	100.189917
2365.000000	100.194985
2364.000000	100.191678
2363.000000	100.183008
2362.000000	100.171005
2361.000000	100.156546
2360.000000	100.142970
2359.000000	100.135159
2358.000000	100.136324
2357.000000	100.146273
2356.000000	100.161005
2355.000000	100.174767
2354.000000	100.183427
2353.000000	100.186058
2352.000000	100.181068
2351.000000	100.167097
2350.000000	100.148476
2349.000000	100.133864
2348.000000	100.130697
2347.000000	100.138611
2346.000000	100.147035
2345.000000	100.144476
2344.000000	100.132060
2343.000000	100.121407
2342.000000	100.120568
2341.000000	100.127154
2340.000000	100.132454
2339.000000	100.132333
2338.000000	100.130436
2337.000000	100.131229
2336.000000	100.134393
2335.000000	100.137766
2334.000000	100.141264
2333.000000	100.145074
2332.000000	100.145474
2331.000000	100.138019
2330.000000	100.125315
2329.000000	100.115918
2328.000000	100.114407
2327.000000	100.114782
2326.000000	100.108418
2325.000000	100.095133
2324.000000	100.083134
2323.000000	100.078660
2322.000000	100.077565
2321.000000	100.071876
2320.000000	100.061580
2319.000000	100.056025
2318.000000	100.062773
2317.000000	100.078776
2316.000000	100.093858
2315.000000	100.100321
2314.000000	100.098875
2313.000000	100.096150
2312.000000	100.097640
2311.000000	100.102634
2310.000000	100.106103
2309.000000	100.104811
2308.000000	100.100519
2307.000000	100.096558
2306.000000	100.093016
2305.000000	100.087589
2304.000000	100.080249
2303.000000	100.074856
2302.000000	100.074768
2301.000000	100.078426
2300.000000	100.080442
2299.000000	100.076829
2298.000000	100.068666
2297.000000	100.060736
2296.000000	100.057302
2295.000000	100.058875
2294.000000	100.063043
2293.000000	100.067536
2292.000000	100.071851
2291.000000	100.075850
2290.000000	100.078379
2289.000000	100.078469
2288.000000	100.076997
2287.000000	100.075704
2286.000000	100.074879
2285.000000	100.073338
2284.000000	100.070033
2283.000000	100.064365
2282.000000	100.055923
2281.000000	100.046661
2280.000000	100.042504
2279.000000	100.048832
2278.000000	100.062912
2277.000000	100.074456
2276.000000	100.076778
2275.000000	100.075236
2274.000000	100.081238
2273.000000	100.098683
2272.000000	100.119567
2271.000000	100.133025
2270.000000	100.135884
2269.000000	100.133740
2268.000000	100.134198
2267.000000	100.140416
2266.000000	100.149364
2265.000000	100.154115
2264.000000	100.148760
2263.000000	100.133558
2262.000000	100.116247
2261.000000	100.106761
2260.000000	100.109098
2259.000000	100.118770
2258.000000	100.128615
2257.000000	100.135341
2256.000000	100.138662
2255.000000	100.136735
2254.000000	100.127546
2253.000000	100.115372
2252.000000	100.109834
2251.000000	100.114288
2250.000000	100.118845
2249.000000	100.110020
2248.000000	100.087013
2247.000000	100.063912
2246.000000	100.055426
2245.000000	100.063960
2244.000000	100.080605
2243.000000	100.095288
2242.000000	100.104383
2241.000000	100.111018
2240.000000	100.120302
2239.000000	100.133480
2238.000000	100.146190
2237.000000	100.152942
2236.000000	100.152529
2235.000000	100.147301
2234.000000	100.138613
2233.000000	100.126978
2232.000000	100.116431
2231.000000	100.113745
2230.000000	100.121097
2229.000000	100.132959
2228.000000	100.142817
2227.000000	100.150023
2226.000000	100.156681
2225.000000	100.160124
2224.000000	100.153430
2223.000000	100.134297
2222.000000	100.110847
2221.000000	100.096835
2220.000000	100.100624
2219.000000	100.119025
2218.000000	100.142260
2217.000000	100.164253
2216.000000	100.186622
2215.000000	100.211672
2214.000000	100.233398
2213.000000	100.238862
2212.000000	100.219229
2211.000000	100.178178
2210.000000	100.130152
2209.000000	100.092717
2208.000000	100.078028
2207.000000	100.086347
2206.000000	100.106425
2205.000000	100.124447
2204.000000	100.134032
2203.000000	100.137098
2202.000000	100.137503
2201.000000	100.138449
2200.000000	100.144416
2199.000000	100.157387
2198.000000	100.168310
2197.000000	100.159690
2196.000000	100.124852
2195.000000	100.081607
2194.000000	100.058917
2193.000000	100.068543
2192.000000	100.093577
2191.000000	100.107295
2190.000000	100.099369
2189.000000	100.080525
2188.000000	100.065429
2187.000000	100.057771
2186.000000	100.054330
2185.000000	100.056241
2184.000000	100.067539
2183.000000	100.084592
2182.000000	100.097303
2181.000000	100.104847
2180.000000	100.120922
2179.000000	100.155054
2178.000000	100.195094
2177.000000	100.218961
2176.000000	100.222584
2175.000000	100.225598
2174.000000	100.246220
2173.000000	100.278643
2172.000000	100.300089
2171.000000	100.294704
2170.000000	100.267095
2169.000000	100.238227
2168.000000	100.229435
2167.000000	100.244017
2166.000000	100.261554
2165.000000	100.253645
2164.000000	100.209412
2163.000000	100.144154
2162.000000	100.084450
2161.000000	100.053201
2160.000000	100.065529
2159.000000	100.122816
2158.000000	100.203504
2157.000000	100.272516
2156.000000	100.308887
2155.000000	100.315690
2154.000000	100.305058
2153.000000	100.287587
2152.000000	100.274246
2151.000000	100.273910
2150.000000	100.284052
2149.000000	100.291298
2148.000000	100.286433
2147.000000	100.274180
2146.000000	100.265284
2145.000000	100.264741
2144.000000	100.271305
2143.000000	100.282205
2142.000000	100.292739
2141.000000	100.295928
2140.000000	100.288953
2139.000000	100.277787
2138.000000	100.270634
2137.000000	100.268943
2136.000000	100.269316
2135.000000	100.272478
2134.000000	100.284058
2133.000000	100.304578
2132.000000	100.322837
2131.000000	100.322932
2130.000000	100.298677
2129.000000	100.260916
2128.000000	100.229261
2127.000000	100.214744
2126.000000	100.211257
2125.000000	100.205285
2124.000000	100.191627
2123.000000	100.176069
2122.000000	100.164972
2121.000000	100.159024
2120.000000	100.158126
2119.000000	100.164459
2118.000000	100.175359
2117.000000	100.178908
2116.000000	100.165468
2115.000000	100.143061
2114.000000	100.132851
2113.000000	100.146329
2112.000000	100.171624
2111.000000	100.186669
2110.000000	100.182961
2109.000000	100.171885
2108.000000	100.169873
2107.000000	100.181917
2106.000000	100.200526
2105.000000	100.215902
2104.000000	100.222856
2103.000000	100.219759
2102.000000	100.206555
2101.000000	100.187694
2100.000000	100.173858
2099.000000	100.174755
2098.000000	100.189015
2097.000000	100.204825
2096.000000	100.212773
2095.000000	100.214958
2094.000000	100.218518
2093.000000	100.223699
2092.000000	100.223703
2091.000000	100.215480
2090.000000	100.205290
2089.000000	100.201805
2088.000000	100.206225
2087.000000	100.211436
2086.000000	100.209707
2085.000000	100.198690
2084.000000	100.180578
2083.000000	100.158305
2082.000000	100.134414
2081.000000	100.112660
2080.000000	100.098017
2079.000000	100.094058
2078.000000	100.101153
2077.000000	100.117226
2076.000000	100.138914
2075.000000	100.161919
2074.000000	100.181254
2073.000000	100.191760
2072.000000	100.188535
2071.000000	100.168453
2070.000000	100.135237
2069.000000	100.103551
2068.000000	100.091198
2067.000000	100.102123
2066.000000	100.121032
2065.000000	100.130472
2064.000000	100.131738
2063.000000	100.141322
2062.000000	100.167144
2061.000000	100.196470
2060.000000	100.208247
2059.000000	100.192511
2058.000000	100.157166
2057.000000	100.122370
2056.000000	100.108636
2055.000000	100.120929
2054.000000	100.141101
2053.000000	100.143944
2052.000000	100.125021
2051.000000	100.105227
2050.000000	100.104590
2049.000000	100.118845
2048.000000	100.127839
2047.000000	100.120223
2046.000000	100.098028
2045.000000	100.065721
2044.000000	100.034418
2043.000000	100.030974
2042.000000	100.079497
2041.000000	100.165636
2040.000000	100.235752
2039.000000	100.246244
2038.000000	100.203596
2037.000000	100.153001
2036.000000	100.138530
2035.000000	100.171770
2034.000000	100.226428
2033.000000	100.257816
2032.000000	100.240785
2031.000000	100.195316
2030.000000	100.163663
2029.000000	100.161079
2028.000000	100.162024
2027.000000	100.140774
2026.000000	100.109013
2025.000000	100.097534
2024.000000	100.113847
2023.000000	100.138656
2022.000000	100.157831
2021.000000	100.174433
2020.000000	100.189066
2019.000000	100.190969
2018.000000	100.176941
2017.000000	100.163729
2016.000000	100.167997
2015.000000	100.185364
2014.000000	100.202699
2013.000000	100.219182
2012.000000	100.243198
2011.000000	100.276375
2010.000000	100.311412
2009.000000	100.339523
2008.000000	100.348642
2007.000000	100.322608
2006.000000	100.261145
2005.000000	100.199477
2004.000000	100.185342
2003.000000	100.229696
2002.000000	100.294439
2001.000000	100.331420
2000.000000	100.325458
1999.000000	100.297056
1998.000000	100.274350
1997.000000	100.274265
1996.000000	100.300341
1995.000000	100.341764
1994.000000	100.373693
1993.000000	100.370938
1992.000000	100.331090
1991.000000	100.277269
1990.000000	100.232831
1989.000000	100.203429
1988.000000	100.183384
1987.000000	100.166333
1986.000000	100.146992
1985.000000	100.122068
1984.000000	100.094537
1983.000000	100.071120
1982.000000	100.052852
1981.000000	100.033505
1980.000000	100.011094
1979.000000	99.998367
1978.000000	100.017149
1977.000000	100.078663
1976.000000	100.168280
1975.000000	100.252292
1974.000000	100.300895
1973.000000	100.307672
1972.000000	100.290623
1971.000000	100.272624
1970.000000	100.263925
1969.000000	100.266473
1968.000000	100.284470
1967.000000	100.317951
1966.000000	100.350465
1965.000000	100.359756
1964.000000	100.342096
1963.000000	100.314484
1962.000000	100.294569
1961.000000	100.285759
1960.000000	100.279040
1959.000000	100.263241
1958.000000	100.234653
1957.000000	100.203213
1956.000000	100.187677
1955.000000	100.197490
1954.000000	100.221004
1953.000000	100.238134
1952.000000	100.242602
1951.000000	100.243511
1950.000000	100.247395
1949.000000	100.250009
1948.000000	100.246803
1947.000000	100.240230
1946.000000	100.232106
1945.000000	100.218569
1944.000000	100.199461
1943.000000	100.186358
1942.000000	100.191590
1941.000000	100.211662
1940.000000	100.232887
1939.000000	100.248204
1938.000000	100.258861
1937.000000	100.266798
1936.000000	100.272378
1935.000000	100.276643
1934.000000	100.280531
1933.000000	100.282012
1932.000000	100.277477
1931.000000	100.266692
1930.000000	100.254916
1929.000000	100.248654
1928.000000	100.250439
1927.000000	100.258022
1926.000000	100.267258
1925.000000	100.274741
1924.000000	100.277678
1923.000000	100.274090
1922.000000	100.264957
1921.000000	100.254740
1920.000000	100.248389
1919.000000	100.247946
1918.000000	100.251964
1917.000000	100.256659
1916.000000	100.257171
1915.000000	100.248799
1914.000000	100.229501
1913.000000	100.204896
1912.000000	100.187428
1911.000000	100.185160
1910.000000	100.193981
1909.000000	100.204211
1908.000000	100.212995
1907.000000	100.223790
1906.000000	100.234841
1905.000000	100.237466
1904.000000	100.227801
1903.000000	100.214175
1902.000000	100.208038
1901.000000	100.210765
1900.000000	100.214627
1899.000000	100.213920
1898.000000	100.209901
1897.000000	100.206598
1896.000000	100.205878
1895.000000	100.207492
1894.000000	100.211722
1893.000000	100.220025
1892.000000	100.233315
1891.000000	100.249110
1890.000000	100.260014
1889.000000	100.258957
1888.000000	100.247822
1887.000000	100.235468
1886.000000	100.227148
1885.000000	100.221598
1884.000000	100.217258
1883.000000	100.216211
1882.000000	100.220015
1881.000000	100.225051
1880.000000	100.226729
1879.000000	100.226003
1878.000000	100.227313
1877.000000	100.231826
1876.000000	100.236139
1875.000000	100.237260
1874.000000	100.236174
1873.000000	100.236195
1872.000000	100.239936
1871.000000	100.247764
1870.000000	100.256674
1869.000000	100.260707
1868.000000	100.256558
1867.000000	100.249078
1866.000000	100.246219
1865.000000	100.249621
1864.000000	100.253802
1863.000000	100.252164
1862.000000	100.242292
1861.000000	100.227465
1860.000000	100.214142
1859.000000	100.207259
1858.000000	100.207476
1857.000000	100.212480
1856.000000	100.220569
1855.000000	100.231697
1854.000000	100.244056
1853.000000	100.251991
1852.000000	100.251393
1851.000000	100.245327
1850.000000	100.240269
1849.000000	100.239283
1848.000000	100.240619
1847.000000	100.242236
1846.000000	100.245035
1845.000000	100.250989
1844.000000	100.258515
1843.000000	100.262543
1842.000000	100.261303
1841.000000	100.257146
1840.000000	100.252451
1839.000000	100.248099
1838.000000	100.244112
1837.000000	100.241819
1836.000000	100.243753
1835.000000	100.250173
1834.000000	100.256805
1833.000000	100.259037
1832.000000	100.258015
1831.000000	100.258999
1830.000000	100.263365
1829.000000	100.266564
1828.000000	100.266740
1827.000000	100.267700
1826.000000	100.271165
1825.000000	100.273543
1824.000000	100.270651
1823.000000	100.262701
1822.000000	100.253128
1821.000000	100.245270
1820.000000	100.242162
1819.000000	100.244506
1818.000000	100.248590
1817.000000	100.249701
1816.000000	100.247907
1815.000000	100.248696
1814.000000	100.256058
1813.000000	100.267310
1812.000000	100.275661
1811.000000	100.276097
1810.000000	100.269989
1809.000000	100.263025
1808.000000	100.259034
1807.000000	100.258298
1806.000000	100.259283
1805.000000	100.259737
1804.000000	100.257533
1803.000000	100.251639
1802.000000	100.241560
1801.000000	100.227451
1800.000000	100.211683
1799.000000	100.198632
1798.000000	100.192476
1797.000000	100.193580
1796.000000	100.198334
1795.000000	100.203602
1794.000000	100.208325
1793.000000	100.211657
1792.000000	100.212414
1791.000000	100.211480
1790.000000	100.212343
1789.000000	100.216076
1788.000000	100.219233
1787.000000	100.217970
1786.000000	100.212435
1785.000000	100.207550
1784.000000	100.208666
1783.000000	100.216835
1782.000000	100.227438
1781.000000	100.233326
1780.000000	100.231936
1779.000000	100.227988
1778.000000	100.227968
1777.000000	100.233352
1776.000000	100.241381
1775.000000	100.249408
1774.000000	100.254647
1773.000000	100.252864
1772.000000	100.243172
1771.000000	100.232096
1770.000000	100.226537
1769.000000	100.226785
1768.000000	100.229191
1767.000000	100.231244
1766.000000	100.232940
1765.000000	100.234790
1764.000000	100.235814
1763.000000	100.234530
1762.000000	100.230885
1761.000000	100.227303
1760.000000	100.227023
1759.000000	100.230261
1758.000000	100.233732
1757.000000	100.233274
1756.000000	100.229648
1755.000000	100.228006
1754.000000	100.229571
1753.000000	100.229212
1752.000000	100.221720
1751.000000	100.209307
1750.000000	100.198274
1749.000000	100.189070
1748.000000	100.179190
1747.000000	100.171244
1746.000000	100.168670
1745.000000	100.170250
1744.000000	100.172422
1743.000000	100.173102
1742.000000	100.172398
1741.000000	100.170810
1740.000000	100.168110
1739.000000	100.165122
1738.000000	100.163993
1737.000000	100.165411
1736.000000	100.166263
1735.000000	100.162919
1734.000000	100.158513
1733.000000	100.159893
1732.000000	100.168644
1731.000000	100.182033
1730.000000	100.195178
1729.000000	100.201759
1728.000000	100.200548
1727.000000	100.196779
1726.000000	100.195100
1725.000000	100.195076
1724.000000	100.193934
1723.000000	100.190862
1722.000000	100.189210
1721.000000	100.192735
1720.000000	100.202177
1719.000000	100.213395
1718.000000	100.219211
1717.000000	100.219803
1716.000000	100.219572
1715.000000	100.218290
1714.000000	100.215393
1713.000000	100.211087
1712.000000	100.205486
1711.000000	100.199670
1710.000000	100.194947
1709.000000	100.191820
1708.000000	100.190276
1707.000000	100.189660
1706.000000	100.188494
1705.000000	100.186463
1704.000000	100.183738
1703.000000	100.180222
1702.000000	100.173920
1701.000000	100.166430
1700.000000	100.163952
1699.000000	100.168747
1698.000000	100.178772
1697.000000	100.187165
1696.000000	100.185640
1695.000000	100.175078
1694.000000	100.166938
1693.000000	100.167520
1692.000000	100.172183
1691.000000	100.174298
1690.000000	100.170733
1689.000000	100.163503
1688.000000	100.158302
1687.000000	100.159909
1686.000000	100.167824
1685.000000	100.176599
1684.000000	100.174079
1683.000000	100.158943
1682.000000	100.147604
1681.000000	100.144822
1680.000000	100.142102
1679.000000	100.133815
1678.000000	100.122111
1677.000000	100.112167
1676.000000	100.107887
1675.000000	100.109462
1674.000000	100.111701
1673.000000	100.110548
1672.000000	100.106673
1671.000000	100.102567
1670.000000	100.101222
1669.000000	100.099729
1668.000000	100.092700
1667.000000	100.082139
1666.000000	100.072243
1665.000000	100.064735
1664.000000	100.060069
1663.000000	100.057083
1662.000000	100.052576
1661.000000	100.044138
1660.000000	100.034697
1659.000000	100.028835
1658.000000	100.029355
1657.000000	100.034492
1656.000000	100.041628
1655.000000	100.045698
1654.000000	100.043276
1653.000000	100.032140
1652.000000	100.014062
1651.000000	100.001745
1650.000000	99.997305
1649.000000	99.995709
1648.000000	99.993348
1647.000000	99.990427
1646.000000	99.988186
1645.000000	99.986192
1644.000000	99.986699
1643.000000	99.991495
1642.000000	99.998656
1641.000000	100.004146
1640.000000	100.003953
1639.000000	99.997486
1638.000000	99.987536
1637.000000	99.979293
1636.000000	99.980359
1635.000000	99.989605
1634.000000	99.996856
1633.000000	100.000423
1632.000000	100.002130
1631.000000	100.002762
1630.000000	100.004795
1629.000000	100.009257
1628.000000	100.014755
1627.000000	100.019093
1626.000000	100.021551
1625.000000	100.022200
1624.000000	100.022252
1623.000000	100.024097
1622.000000	100.028384
1621.000000	100.032919
1620.000000	100.037011
1619.000000	100.041663
1618.000000	100.047722
1617.000000	100.055221
1616.000000	100.061579
1615.000000	100.065345
1614.000000	100.068111
1613.000000	100.070299
1612.000000	100.071770
1611.000000	100.074976
1610.000000	100.082853
1609.000000	100.094800
1608.000000	100.107299
1607.000000	100.117199
1606.000000	100.121964
1605.000000	100.120492
1604.000000	100.115828
1603.000000	100.113270
1602.000000	100.114723
1601.000000	100.117258
1600.000000	100.118310
1599.000000	100.119067
1598.000000	100.121181
1597.000000	100.124325
1596.000000	100.127819
1595.000000	100.131854
1594.000000	100.135593
1593.000000	100.136247
1592.000000	100.132687
1591.000000	100.127640
1590.000000	100.123997
1589.000000	100.121019
1588.000000	100.117207
1587.000000	100.114611
1586.000000	100.116438
1585.000000	100.121307
1584.000000	100.124334
1583.000000	100.122733
1582.000000	100.117074
1581.000000	100.109923
1580.000000	100.104719
1579.000000	100.104403
1578.000000	100.108746
1577.000000	100.114496
1576.000000	100.118251
1575.000000	100.119294
1574.000000	100.118984
1573.000000	100.117715
1572.000000	100.114650
1571.000000	100.109201
1570.000000	100.101982
1569.000000	100.092910
1568.000000	100.084224
1567.000000	100.079752
1566.000000	100.078549
1565.000000	100.075243
1564.000000	100.067737
1563.000000	100.060136
1562.000000	100.056639
1561.000000	100.056608
1560.000000	100.057085
1559.000000	100.053412
1558.000000	100.043725
1557.000000	100.032813
1556.000000	100.027906
1555.000000	100.027301
1554.000000	100.023451
1553.000000	100.016239
1552.000000	100.007065
1551.000000	99.996533
1550.000000	99.982365
1549.000000	99.965713
1548.000000	99.950668
1547.000000	99.941434
1546.000000	99.938308
1545.000000	99.937958
1544.000000	99.934779
1543.000000	99.923252
1542.000000	99.900969
1541.000000	99.874009
1540.000000	99.859686
1539.000000	99.861567
1538.000000	99.863845
1537.000000	99.860527
1536.000000	99.853488
1535.000000	99.845125
1534.000000	99.840441
1533.000000	99.840331
1532.000000	99.839940
1531.000000	99.836269
1530.000000	99.831792
1529.000000	99.826924
1528.000000	99.818531
1527.000000	99.805164
1526.000000	99.792203
1525.000000	99.786280
1524.000000	99.786673
1523.000000	99.786254
1522.000000	99.780694
1521.000000	99.774237
1520.000000	99.770898
1519.000000	99.770206
1518.000000	99.770181
1517.000000	99.766126
1516.000000	99.753376
1515.000000	99.733789
1514.000000	99.715033
1513.000000	99.702736
1512.000000	99.697320
1511.000000	99.693501
1510.000000	99.686496
1509.000000	99.676732
1508.000000	99.671984
1507.000000	99.679501
1506.000000	99.677404
1505.000000	99.652281
1504.000000	99.626431
1503.000000	99.607705
1502.000000	99.590080
1501.000000	99.571773
1500.000000	99.554570
1499.000000	99.542504
1498.000000	99.533604
1497.000000	99.525869
1496.000000	99.520261
1495.000000	99.517130
1494.000000	99.515704
1493.000000	99.515920
1492.000000	99.517491
1491.000000	99.517534
1490.000000	99.510130
1489.000000	99.494012
1488.000000	99.474202
1487.000000	99.454932
1486.000000	99.438115
1485.000000	99.422619
1484.000000	99.407206
1483.000000	99.392772
1482.000000	99.379399
1481.000000	99.366140
1480.000000	99.352369
1479.000000	99.338777
1478.000000	99.326260
1477.000000	99.315337
1476.000000	99.305857
1475.000000	99.296028
1474.000000	99.281728
1473.000000	99.259921
1472.000000	99.234930
1471.000000	99.213864
1470.000000	99.199115
1469.000000	99.188072
1468.000000	99.176708
1467.000000	99.163516
1466.000000	99.150806
1465.000000	99.141738
1464.000000	99.135762
1463.000000	99.128864
1462.000000	99.119586
1461.000000	99.108720
1460.000000	99.096950
1459.000000	99.084367
1458.000000	99.073875
1457.000000	99.073336
1456.000000	99.078223
1455.000000	99.076134
1454.000000	99.066336
1453.000000	99.053304
1452.000000	99.040690
1451.000000	99.031418
1450.000000	99.026363
1449.000000	99.025287
1448.000000	99.025039
1447.000000	99.020860
1446.000000	99.011278
1445.000000	98.999921
1444.000000	98.990854
1443.000000	98.984336
1442.000000	98.978451
1441.000000	98.971567
1440.000000	98.963179
1439.000000	98.954501
1438.000000	98.950163
1437.000000	98.956875
1436.000000	98.969066
1435.000000	98.969435
1434.000000	98.953380
1433.000000	98.931077
1432.000000	98.913751
1431.000000	98.906992
1430.000000	98.906494
1429.000000	98.903295
1428.000000	98.893382
1427.000000	98.880214
1426.000000	98.869527
1425.000000	98.863433
1424.000000	98.858297
1423.000000	98.846087
1422.000000	98.824473
1421.000000	98.802263
1420.000000	98.794047
1419.000000	98.803514
1418.000000	98.811469
1417.000000	98.803624
1416.000000	98.786851
1415.000000	98.769100
1414.000000	98.751363
1413.000000	98.733996
1412.000000	98.719245
1411.000000	98.706740
1410.000000	98.691775
1409.000000	98.673783
1408.000000	98.659490
1407.000000	98.654524
1406.000000	98.656382
1405.000000	98.658155
1404.000000	98.657088
1403.000000	98.653814
1402.000000	98.648419
1401.000000	98.642078
1400.000000	98.638369
1399.000000	98.638510
1398.000000	98.637390
1397.000000	98.632072
1396.000000	98.628791
1395.000000	98.634487
1394.000000	98.643379
1393.000000	98.643900
1392.000000	98.635250
1391.000000	98.623755
1390.000000	98.614713
1389.000000	98.612380
1388.000000	98.619503
1387.000000	98.631374
1386.000000	98.636157
1385.000000	98.629643
1384.000000	98.620231
1383.000000	98.616556
1382.000000	98.619172
1381.000000	98.624236
1380.000000	98.630070
1379.000000	98.636481
1378.000000	98.640403
1377.000000	98.638892
1376.000000	98.635475
1375.000000	98.638790
1374.000000	98.652081
1373.000000	98.667878
1372.000000	98.678328
1371.000000	98.683988
1370.000000	98.689180
1369.000000	98.696380
1368.000000	98.706370
1367.000000	98.717934
1366.000000	98.728255
1365.000000	98.736430
1364.000000	98.745192
1363.000000	98.757784
1362.000000	98.771951
1361.000000	98.780895
1360.000000	98.782846
1359.000000	98.782505
1358.000000	98.783821
1357.000000	98.786737
1356.000000	98.789687
1355.000000	98.792258
1354.000000	98.794712
1353.000000	98.797065
1352.000000	98.798684
1351.000000	98.798555
1350.000000	98.796098
1349.000000	98.791641
1348.000000	98.787395
1347.000000	98.786001
1346.000000	98.787780
1345.000000	98.790334
1344.000000	98.791239
1343.000000	98.790435
1342.000000	98.790060
1341.000000	98.792621
1340.000000	98.799089
1339.000000	98.807072
1338.000000	98.811634
1337.000000	98.810794
1336.000000	98.807526
1335.000000	98.804674
1334.000000	98.801430
1333.000000	98.795999
1332.000000	98.789742
1331.000000	98.786906
1330.000000	98.790514
1329.000000	98.799944
1328.000000	98.812483
1327.000000	98.825647
1326.000000	98.837579
1325.000000	98.846728
1324.000000	98.852731
1323.000000	98.856390
1322.000000	98.858671
1321.000000	98.860512
1320.000000	98.863035
1319.000000	98.866666
1318.000000	98.870461
1317.000000	98.873887
1316.000000	98.878431
1315.000000	98.885896
1314.000000	98.895864
1313.000000	98.906236
1312.000000	98.915270
1311.000000	98.921918
1310.000000	98.925448
1309.000000	98.926675
1308.000000	98.928457
1307.000000	98.933162
1306.000000	98.940134
1305.000000	98.946926
1304.000000	98.952756
1303.000000	98.958694
1302.000000	98.965746
1301.000000	98.974727
1300.000000	98.986843
1299.000000	99.001877
1298.000000	99.016596
1297.000000	99.027402
1296.000000	99.034077
1295.000000	99.038910
1294.000000	99.042918
1293.000000	99.045791
1292.000000	99.049077
1291.000000	99.056212
1290.000000	99.068552
1289.000000	99.083539
1288.000000	99.097461
1287.000000	99.108244
1286.000000	99.115283
1285.000000	99.118827
1284.000000	99.120710
1283.000000	99.124017
1282.000000	99.130630
1281.000000	99.139557
1280.000000	99.148428
1279.000000	99.156247
1278.000000	99.164172
1277.000000	99.174165
1276.000000	99.186941
1275.000000	99.200762
1274.000000	99.212236
1273.000000	99.219184
1272.000000	99.223060
1271.000000	99.227941
1270.000000	99.236751
1269.000000	99.248953
1268.000000	99.261792
1267.000000	99.272589
1266.000000	99.279700
1265.000000	99.282815
1264.000000	99.283403
1263.000000	99.284408
1262.000000	99.288629
1261.000000	99.296909
1260.000000	99.307870
1259.000000	99.319252
1258.000000	99.329202
1257.000000	99.336580
1256.000000	99.340660
1255.000000	99.341485
1254.000000	99.340679
1253.000000	99.340798
1252.000000	99.342875
1251.000000	99.345271
1250.000000	99.346028
1249.000000	99.345899
1248.000000	99.347638
1247.000000	99.352360
1246.000000	99.358427
1245.000000	99.364521
1244.000000	99.371527
1243.000000	99.379700
1242.000000	99.385902
1241.000000	99.386400
1240.000000	99.381904
1239.000000	99.377639
1238.000000	99.378105
1237.000000	99.383251
1236.000000	99.390114
1235.000000	99.396362
1234.000000	99.401260
1233.000000	99.404517
1232.000000	99.405910
1231.000000	99.406175
1230.000000	99.407334
1229.000000	99.411398
1228.000000	99.418480
1227.000000	99.426180
1226.000000	99.431201
1225.000000	99.432169
1224.000000	99.431196
1223.000000	99.432431
1222.000000	99.438652
1221.000000	99.448967
1220.000000	99.460024
1219.000000	99.469780
1218.000000	99.479623
1217.000000	99.492047
1216.000000	99.506502
1215.000000	99.518999
1214.000000	99.526404
1213.000000	99.529753
1212.000000	99.532289
1211.000000	99.535608
1210.000000	99.539285
1209.000000	99.543007
1208.000000	99.546885
1207.000000	99.550174
1206.000000	99.551966
1205.000000	99.553149
1204.000000	99.555746
1203.000000	99.560365
1202.000000	99.565978
1201.000000	99.571770
1200.000000	99.577013
1199.000000	99.579446
1198.000000	99.576790
1197.000000	99.570715
1196.000000	99.566651
1195.000000	99.568335
1194.000000	99.574604
1193.000000	99.582460
1192.000000	99.590730
1191.000000	99.599115
1190.000000	99.606209
1189.000000	99.611218
1188.000000	99.616092
1187.000000	99.623322
1186.000000	99.632347
1185.000000	99.640302
1184.000000	99.645558
1183.000000	99.648548
1182.000000	99.650009
1181.000000	99.650725
1180.000000	99.652549
1179.000000	99.657037
1178.000000	99.662749
1177.000000	99.666188
1176.000000	99.665829
1175.000000	99.663339
1174.000000	99.660217
1173.000000	99.655076
1172.000000	99.646050
1171.000000	99.635196
1170.000000	99.628747
1169.000000	99.632250
1168.000000	99.645459
1167.000000	99.661823
1166.000000	99.673227
1165.000000	99.676069
1164.000000	99.673164
1163.000000	99.669951
1162.000000	99.669383
1161.000000	99.670985
1160.000000	99.673834
1159.000000	99.678374
1158.000000	99.684587
1157.000000	99.690136
1156.000000	99.692160
1155.000000	99.690762
1154.000000	99.689305
1153.000000	99.690691
1152.000000	99.694168
1151.000000	99.696513
1150.000000	99.696058
1149.000000	99.694870
1148.000000	99.696777
1147.000000	99.703637
1146.000000	99.713841
1145.000000	99.724111
1144.000000	99.732085
1143.000000	99.736869
1142.000000	99.737886
1141.000000	99.734611
1140.000000	99.728255
1139.000000	99.722953
1138.000000	99.723638
1137.000000	99.731900
1136.000000	99.744596
1135.000000	99.757125
1134.000000	99.767539
1133.000000	99.776816
1132.000000	99.785764
1131.000000	99.793077
1130.000000	99.796526
1129.000000	99.794978
1128.000000	99.788902
1127.000000	99.780148
1126.000000	99.771773
1125.000000	99.766930
1124.000000	99.767021
1123.000000	99.771088
1122.000000	99.777070
1121.000000	99.783110
1120.000000	99.787772
1119.000000	99.790270
1118.000000	99.791222
1117.000000	99.792245
1116.000000	99.794092
1115.000000	99.795835
1114.000000	99.796225
1113.000000	99.794973
1112.000000	99.792654
1111.000000	99.790930
1110.000000	99.793068
1109.000000	99.801762
1108.000000	99.814870
1107.000000	99.824916
1106.000000	99.825460
1105.000000	99.817424
1104.000000	99.807480
1103.000000	99.801623
1102.000000	99.801972
1101.000000	99.808356
1100.000000	99.819131
1099.000000	99.829866
1098.000000	99.835121
1097.000000	99.832197
1096.000000	99.822556
1095.000000	99.809587
1094.000000	99.796868
1093.000000	99.787833
1092.000000	99.784063
1091.000000	99.782971
1090.000000	99.779586
1089.000000	99.772195
1088.000000	99.764467
1087.000000	99.760953
1086.000000	99.762243
1085.000000	99.765833
1084.000000	99.769736
1083.000000	99.773222
1082.000000	99.775512
1081.000000	99.776119
1080.000000	99.775942
1079.000000	99.776040
1078.000000	99.775753
1077.000000	99.773975
1076.000000	99.772056
1075.000000	99.773327
1074.000000	99.778941
1073.000000	99.785723
1072.000000	99.789359
1071.000000	99.789056
1070.000000	99.788144
1069.000000	99.790178
1068.000000	99.795342
1067.000000	99.800748
1066.000000	99.803320
1065.000000	99.801500
1064.000000	99.795039
1063.000000	99.785317
1062.000000	99.776388
1061.000000	99.773559
1060.000000	99.778915
1059.000000	99.788770
1058.000000	99.796985
1057.000000	99.800380
1056.000000	99.799765
1055.000000	99.796979
1054.000000	99.793694
1053.000000	99.792671
1052.000000	99.796738
1051.000000	99.805027
1050.000000	99.812893
1049.000000	99.817565
1048.000000	99.821521
1047.000000	99.828182
1046.000000	99.836315
1045.000000	99.841438
1044.000000	99.841312
1043.000000	99.837478
1042.000000	99.832205
1041.000000	99.826643
1040.000000	99.822014
1039.000000	99.819885
1038.000000	99.820276
1037.000000	99.821500
1036.000000	99.823045
1035.000000	99.826448
1034.000000	99.831889
1033.000000	99.836227
1032.000000	99.837028
1031.000000	99.837165
1030.000000	99.841907
1029.000000	99.851527
1028.000000	99.860158
1027.000000	99.863150
1026.000000	99.862464
1025.000000	99.862688
1024.000000	99.864769
1023.000000	99.867087
1022.000000	99.871012
1021.000000	99.880589
1020.000000	99.896041
1019.000000	99.911227
1018.000000	99.919505
1017.000000	99.920172
1016.000000	99.917562
1015.000000	99.915983
1014.000000	99.917187
1013.000000	99.920857
1012.000000	99.925380
1011.000000	99.928900
1010.000000	99.931370
1009.000000	99.935277
1008.000000	99.943245
1007.000000	99.955351
1006.000000	99.969223
1005.000000	99.981404
1004.000000	99.987975
1003.000000	99.986314
1002.000000	99.978653
1001.000000	99.972392
1000.000000	99.973989
999.000000	99.982499
998.000000	99.991274
997.000000	99.995999
996.000000	99.998707
995.000000	100.003694
994.000000	100.011870
993.000000	100.020475
992.000000	100.026823
991.000000	100.030322
990.000000	100.031195
989.000000	100.029025
988.000000	100.023989
987.000000	100.019167
986.000000	100.019657
985.000000	100.027602
984.000000	100.038611
983.000000	100.045419
982.000000	100.045532
981.000000	100.043367
980.000000	100.043907
979.000000	100.046783
978.000000	100.048932
977.000000	100.050803
976.000000	100.056490
975.000000	100.067857
974.000000	100.081445
973.000000	100.092063
972.000000	100.097559
971.000000	100.099642
970.000000	100.101748
969.000000	100.106757
968.000000	100.115127
967.000000	100.123937
966.000000	100.128249
965.000000	100.124723
964.000000	100.114389
963.000000	100.102148
962.000000	100.093568
961.000000	100.091320
960.000000	100.094173
959.000000	100.099541
958.000000	100.106522
957.000000	100.115374
956.000000	100.124177
955.000000	100.128386
954.000000	100.125360
953.000000	100.117938
952.000000	100.111859
951.000000	100.110449
950.000000	100.113078
949.000000	100.117387
948.000000	100.121234
947.000000	100.123780
946.000000	100.126803
945.000000	100.133900
944.000000	100.145944
943.000000	100.157883
942.000000	100.162684
941.000000	100.158558
940.000000	100.150271
939.000000	100.143990
938.000000	100.142862
937.000000	100.146786
936.000000	100.153563
935.000000	100.159867
934.000000	100.163539
933.000000	100.165357
932.000000	100.166712
931.000000	100.166158
930.000000	100.161162
929.000000	100.153115
928.000000	100.147395
927.000000	100.147738
926.000000	100.153345
925.000000	100.161757
924.000000	100.171041
923.000000	100.178206
922.000000	100.179749
921.000000	100.176432
920.000000	100.174336
919.000000	100.178049
918.000000	100.184880
917.000000	100.189181
916.000000	100.190396
915.000000	100.193135
914.000000	100.200013
913.000000	100.207927
912.000000	100.212402
911.000000	100.213135
910.000000	100.214314
909.000000	100.220356
908.000000	100.231427
907.000000	100.242644
906.000000	100.248265
905.000000	100.247887
904.000000	100.247920
903.000000	100.255280
902.000000	100.270218
901.000000	100.286533
900.000000	100.297725
899.000000	100.301183
898.000000	100.297400
897.000000	100.288848
896.000000	100.281060
895.000000	100.281854
894.000000	100.295878
893.000000	100.319436
892.000000	100.342064
891.000000	100.353655
890.000000	100.350170
889.000000	100.333704
888.000000	100.308972
887.000000	100.279815
886.000000	100.246763
885.000000	100.205292
884.000000	100.147020
883.000000	100.064885
882.000000	99.957534
881.000000	99.828881
880.000000	99.683795
879.000000	99.525578
878.000000	99.356988
877.000000	99.181439
876.000000	99.003670
875.000000	98.830338
874.000000	98.669714
873.000000	98.529198
872.000000	98.415408
871.000000	98.339458
870.000000	98.321533
869.000000	98.384152
868.000000	98.532631
867.000000	98.741699
866.000000	98.965657
865.000000	99.166511
864.000000	99.331542
863.000000	99.466196
862.000000	99.578672
861.000000	99.673344
860.000000	99.752246
859.000000	99.815646
858.000000	99.863397
857.000000	99.898870
856.000000	99.929288
855.000000	99.958944
854.000000	99.984273
853.000000	99.998935
852.000000	100.000721
851.000000	99.990314
850.000000	99.968032
849.000000	99.939055
848.000000	99.919815
847.000000	99.929559
846.000000	99.971241
845.000000	100.026017
844.000000	100.069927
843.000000	100.093066
842.000000	100.101629
841.000000	100.106746
840.000000	100.116058
839.000000	100.132209
838.000000	100.152561
837.000000	100.169634
836.000000	100.176074
835.000000	100.171403
834.000000	100.163090
833.000000	100.160678
832.000000	100.169005
831.000000	100.185378
830.000000	100.201173
829.000000	100.207615
828.000000	100.203505
827.000000	100.197275
826.000000	100.198751
825.000000	100.208594
824.000000	100.218326
823.000000	100.220945
822.000000	100.218195
821.000000	100.217001
820.000000	100.222376
819.000000	100.234341
818.000000	100.247580
817.000000	100.252565
816.000000	100.241396
815.000000	100.216923
814.000000	100.194152
813.000000	100.187748
812.000000	100.198317
811.000000	100.213767
810.000000	100.223145
809.000000	100.225729
808.000000	100.226693
807.000000	100.228975
806.000000	100.232679
805.000000	100.239290
804.000000	100.251982
803.000000	100.270831
802.000000	100.289956
801.000000	100.301331
800.000000	100.302186
799.000000	100.298628
798.000000	100.300165
797.000000	100.309287
796.000000	100.318072
795.000000	100.317626
794.000000	100.309789
793.000000	100.305400
792.000000	100.310558
791.000000	100.319073
790.000000	100.320345
789.000000	100.311198
788.000000	100.297151
787.000000	100.285203
786.000000	100.279373
785.000000	100.280989
784.000000	100.288361
783.000000	100.295987
782.000000	100.297882
781.000000	100.293339
780.000000	100.287995
779.000000	100.288787
778.000000	100.298509
777.000000	100.313814
776.000000	100.326294
775.000000	100.326961
774.000000	100.313530
773.000000	100.293877
772.000000	100.279560
771.000000	100.275459
770.000000	100.278078
769.000000	100.283456
768.000000	100.292018
767.000000	100.303833
766.000000	100.313816
765.000000	100.316141
764.000000	100.311804
763.000000	100.307798
762.000000	100.308774
761.000000	100.312606
760.000000	100.314628
759.000000	100.313764
758.000000	100.313142
757.000000	100.315746
756.000000	100.320498
755.000000	100.322636
754.000000	100.318346
753.000000	100.309820
752.000000	100.304786
751.000000	100.309150
750.000000	100.320052
749.000000	100.327819
748.000000	100.325485
747.000000	100.315003
746.000000	100.303576
745.000000	100.296156
744.000000	100.293553
743.000000	100.296065
742.000000	100.304331
741.000000	100.315552
740.000000	100.323084
739.000000	100.323216
738.000000	100.320085
737.000000	100.319928
736.000000	100.321881
735.000000	100.319401
734.000000	100.310701
733.000000	100.301458
732.000000	100.295189
731.000000	100.287376
730.000000	100.274365
729.000000	100.262982
728.000000	100.263297
727.000000	100.273982
726.000000	100.283096
725.000000	100.284052
724.000000	100.282580
723.000000	100.285119
722.000000	100.287388
721.000000	100.279293
720.000000	100.255959
719.000000	100.216972
718.000000	100.158542
717.000000	100.074214
716.000000	99.964406
715.000000	99.843356
714.000000	99.737530
713.000000	99.677024
712.000000	99.681848
711.000000	99.748083
710.000000	99.846196
709.000000	99.938388
708.000000	100.002415
707.000000	100.040606
706.000000	100.068152
705.000000	100.096065
704.000000	100.124666
703.000000	100.148659
702.000000	100.165109
701.000000	100.176852
700.000000	100.189294
699.000000	100.204181
698.000000	100.216603
697.000000	100.219140
696.000000	100.209294
695.000000	100.191796
694.000000	100.175102
693.000000	100.167314
692.000000	100.173397
691.000000	100.192927
690.000000	100.219515
689.000000	100.244224
688.000000	100.261165
687.000000	100.269922
686.000000	100.274076
685.000000	100.278811
684.000000	100.287894
683.000000	100.299754
682.000000	100.307507
681.000000	100.306821
680.000000	100.301903
679.000000	100.299161
678.000000	100.295850
677.000000	100.282363
676.000000	100.259850
675.000000	100.245363
674.000000	100.252520
673.000000	100.275344
672.000000	100.297317
671.000000	100.312239
670.000000	100.325788
669.000000	100.345421
668.000000	100.359539
667.000000	100.330220
666.000000	100.278517
665.000000	100.247469
664.000000	100.241254
663.000000	100.253890
662.000000	100.276209
661.000000	100.296443
660.000000	100.306770
659.000000	100.306694
658.000000	100.297888
657.000000	100.278342
656.000000	100.247927
655.000000	100.217557
654.000000	100.204391
653.000000	100.214996
652.000000	100.239552
651.000000	100.263381
650.000000	100.278434
649.000000	100.282383
648.000000	100.273230
647.000000	100.252186
646.000000	100.229575
645.000000	100.219840
644.000000	100.228948
643.000000	100.250865
642.000000	100.275569
641.000000	100.296704
640.000000	100.311268
639.000000	100.316208
638.000000	100.310414
637.000000	100.299410
636.000000	100.293740
635.000000	100.299368
634.000000	100.309626
633.000000	100.309925
632.000000	100.292733
631.000000	100.266664
630.000000	100.248391
629.000000	100.245731
628.000000	100.252293
627.000000	100.258188
626.000000	100.260932
625.000000	100.263536
624.000000	100.266781
623.000000	100.269241
622.000000	100.271656
621.000000	100.275421
620.000000	100.278750
619.000000	100.279926
618.000000	100.282956
617.000000	100.292489
616.000000	100.302226
615.000000	100.297925
614.000000	100.275188
613.000000	100.246507
612.000000	100.227315
611.000000	100.219915
610.000000	100.215946
609.000000	100.210898
608.000000	100.209334
607.000000	100.216991
606.000000	100.233043
605.000000	100.252316
604.000000	100.272105
603.000000	100.294318
602.000000	100.320975
601.000000	100.346851
600.000000	100.357720
599.000000	100.342574
598.000000	100.309418
597.000000	100.282549
596.000000	100.279659
595.000000	100.295233
594.000000	100.309592
593.000000	100.311763
592.000000	100.308281
591.000000	100.309215
590.000000	100.312706
589.000000	100.307519
588.000000	100.287171
587.000000	100.258821
586.000000	100.239644
585.000000	100.242626
584.000000	100.263252
583.000000	100.283282
582.000000	100.289004
581.000000	100.282977
580.000000	100.275471
579.000000	100.270514
578.000000	100.267392
577.000000	100.270573
576.000000	100.285443
575.000000	100.304835
574.000000	100.313560
573.000000	100.309386
572.000000	100.304471
571.000000	100.303371
570.000000	100.294809
569.000000	100.272705
568.000000	100.252415
567.000000	100.251148
566.000000	100.262714
565.000000	100.268400
564.000000	100.265502
563.000000	100.267277
562.000000	100.276752
561.000000	100.279358
560.000000	100.265922
559.000000	100.247741
558.000000	100.239864
557.000000	100.240169
556.000000	100.235040
555.000000	100.221736
554.000000	100.216567
553.000000	100.237596
552.000000	100.282457
551.000000	100.324865
550.000000	100.336024
549.000000	100.312982
548.000000	100.281249
547.000000	100.267217
546.000000	100.273230
545.000000	100.283206
544.000000	100.287341
543.000000	100.289869
542.000000	100.296167
541.000000	100.304388
540.000000	100.310113
539.000000	100.311499
538.000000	100.308673
537.000000	100.303916
536.000000	100.301422
535.000000	100.300408
534.000000	100.290995
533.000000	100.265386
532.000000	100.230601
531.000000	100.203969
530.000000	100.195539
529.000000	100.202298
528.000000	100.217077
527.000000	100.232865
526.000000	100.237224
525.000000	100.218788
524.000000	100.187127
523.000000	100.168128
522.000000	100.175739
521.000000	100.198521
520.000000	100.215280
519.000000	100.218012
518.000000	100.213631
517.000000	100.207150
516.000000	100.195086
515.000000	100.176018
514.000000	100.157524
513.000000	100.152050
512.000000	100.169991
511.000000	100.211691
510.000000	100.260612
509.000000	100.290185
508.000000	100.282897
507.000000	100.247708
506.000000	100.213770
505.000000	100.202200
504.000000	100.211820
503.000000	100.230501
502.000000	100.250559
501.000000	100.270056
500.000000	100.283777
499.000000	100.278912
498.000000	100.243730
497.000000	100.186159
496.000000	100.139902
495.000000	100.140562
494.000000	100.190386
493.000000	100.250353
492.000000	100.277744
491.000000	100.273449
490.000000	100.275250
489.000000	100.303069
488.000000	100.331525
487.000000	100.325669
486.000000	100.289592
485.000000	100.264165
484.000000	100.272978
483.000000	100.289107
482.000000	100.273680
481.000000	100.228575
480.000000	100.192228
479.000000	100.195320
478.000000	100.231982
477.000000	100.273708
476.000000	100.301457
475.000000	100.317487
474.000000	100.331534
473.000000	100.346031
472.000000	100.354035
471.000000	100.348564
470.000000	100.327821
469.000000	100.292275
468.000000	100.243278
467.000000	100.188835
466.000000	100.148872
465.000000	100.146944
464.000000	100.191853
463.000000	100.263563
462.000000	100.327955
461.000000	100.357256
460.000000	100.365608
459.000000	100.348613
458.000000	100.261901
457.000000	100.278431
456.000000	100.314848
455.000000	100.342855
454.000000	100.326396
453.000000	100.284384
452.000000	100.263930
451.000000	100.288711
450.000000	100.328002
