PE IR       SUBTECH     SPECTRUM    ASCII       PEDS        4.00        
   -1
POD9-1C-C001_1.ASC
23/09/08
14:36:32.00
23/09/08
14:52:56.00
uco
Sample 001 By uco Date Friday, September 08 2023
450.000000
#HDR
-1
-1
#GR
cm-1
%T
1.0
0.0
4000.000000
-1.000000
3551
8
98.641305
88.681514
#DATA
4000.000000	98.590659
3999.000000	98.585113
3998.000000	98.583291
3997.000000	98.584091
3996.000000	98.587758
3995.000000	98.593169
3994.000000	98.597793
3993.000000	98.599008
3992.000000	98.595628
3991.000000	98.588455
3990.000000	98.579801
3989.000000	98.572338
3988.000000	98.567788
3987.000000	98.565948
3986.000000	98.564944
3985.000000	98.562989
3984.000000	98.560066
3983.000000	98.557819
3982.000000	98.557405
3981.000000	98.557717
3980.000000	98.556324
3979.000000	98.552305
3978.000000	98.547615
3977.000000	98.545353
3976.000000	98.546895
3975.000000	98.550787
3974.000000	98.554499
3973.000000	98.556623
3972.000000	98.557337
3971.000000	98.557350
3970.000000	98.556856
3969.000000	98.555640
3968.000000	98.553489
3967.000000	98.550511
3966.000000	98.547272
3965.000000	98.544770
3964.000000	98.543924
3963.000000	98.544785
3962.000000	98.546367
3961.000000	98.547434
3960.000000	98.547750
3959.000000	98.547916
3958.000000	98.547974
3957.000000	98.547078
3956.000000	98.544542
3955.000000	98.541097
3954.000000	98.538356
3953.000000	98.537060
3952.000000	98.536589
3951.000000	98.536180
3950.000000	98.536581
3949.000000	98.539647
3948.000000	98.545952
3947.000000	98.553172
3946.000000	98.557087
3945.000000	98.554564
3944.000000	98.545953
3943.000000	98.535078
3942.000000	98.527015
3941.000000	98.524374
3940.000000	98.525911
3939.000000	98.528694
3938.000000	98.530415
3937.000000	98.530563
3936.000000	98.530091
3935.000000	98.530667
3934.000000	98.533684
3933.000000	98.538719
3932.000000	98.543519
3931.000000	98.545472
3930.000000	98.543968
3929.000000	98.540358
3928.000000	98.535645
3927.000000	98.530517
3926.000000	98.526188
3925.000000	98.524226
3924.000000	98.524858
3923.000000	98.526278
3922.000000	98.526783
3921.000000	98.527060
3920.000000	98.529047
3919.000000	98.533226
3918.000000	98.537633
3917.000000	98.540149
3916.000000	98.540804
3915.000000	98.540547
3914.000000	98.539289
3913.000000	98.536170
3912.000000	98.531252
3911.000000	98.526108
3910.000000	98.522421
3909.000000	98.520771
3908.000000	98.520333
3907.000000	98.520896
3906.000000	98.524400
3905.000000	98.533501
3904.000000	98.546926
3903.000000	98.557148
3902.000000	98.556295
3901.000000	98.544677
3900.000000	98.530289
3899.000000	98.521276
3898.000000	98.519294
3897.000000	98.520307
3896.000000	98.520878
3895.000000	98.520800
3894.000000	98.520899
3893.000000	98.521998
3892.000000	98.525522
3891.000000	98.533816
3890.000000	98.546262
3889.000000	98.557595
3888.000000	98.562442
3887.000000	98.559618
3886.000000	98.552400
3885.000000	98.545815
3884.000000	98.540659
3883.000000	98.533072
3882.000000	98.520519
3881.000000	98.506675
3880.000000	98.499876
3879.000000	98.504228
3878.000000	98.513937
3877.000000	98.520801
3876.000000	98.521899
3875.000000	98.520672
3874.000000	98.523158
3873.000000	98.530721
3872.000000	98.537929
3871.000000	98.538929
3870.000000	98.534755
3869.000000	98.531843
3868.000000	98.531902
3867.000000	98.531267
3866.000000	98.528850
3865.000000	98.527318
3864.000000	98.528514
3863.000000	98.531165
3862.000000	98.532744
3861.000000	98.532260
3860.000000	98.529554
3859.000000	98.525973
3858.000000	98.523124
3857.000000	98.521757
3856.000000	98.520469
3855.000000	98.517083
3854.000000	98.513777
3853.000000	98.515457
3852.000000	98.520655
3851.000000	98.523889
3850.000000	98.524075
3849.000000	98.523479
3848.000000	98.523405
3847.000000	98.523020
3846.000000	98.521321
3845.000000	98.518836
3844.000000	98.517678
3843.000000	98.520128
3842.000000	98.526321
3841.000000	98.533830
3840.000000	98.539638
3839.000000	98.542791
3838.000000	98.544026
3837.000000	98.544954
3836.000000	98.546618
3835.000000	98.548407
3834.000000	98.548678
3833.000000	98.545864
3832.000000	98.539322
3831.000000	98.530031
3830.000000	98.518801
3829.000000	98.505820
3828.000000	98.492625
3827.000000	98.484239
3826.000000	98.486100
3825.000000	98.497941
3824.000000	98.513135
3823.000000	98.523757
3822.000000	98.526223
3821.000000	98.524328
3820.000000	98.524727
3819.000000	98.527614
3818.000000	98.528006
3817.000000	98.524347
3816.000000	98.518253
3815.000000	98.511480
3814.000000	98.503283
3813.000000	98.493827
3812.000000	98.487640
3811.000000	98.488847
3810.000000	98.496304
3809.000000	98.504681
3808.000000	98.510595
3807.000000	98.515877
3806.000000	98.523333
3805.000000	98.530473
3804.000000	98.532706
3803.000000	98.529124
3802.000000	98.522907
3801.000000	98.518385
3800.000000	98.516080
3799.000000	98.510522
3798.000000	98.499362
3797.000000	98.486949
3796.000000	98.479464
3795.000000	98.478037
3794.000000	98.478490
3793.000000	98.477259
3792.000000	98.474832
3791.000000	98.473392
3790.000000	98.474263
3789.000000	98.477221
3788.000000	98.480378
3787.000000	98.481006
3786.000000	98.477622
3785.000000	98.472171
3784.000000	98.469140
3783.000000	98.471305
3782.000000	98.477209
3781.000000	98.483897
3780.000000	98.490049
3779.000000	98.495974
3778.000000	98.500985
3777.000000	98.502243
3776.000000	98.498005
3775.000000	98.490631
3774.000000	98.484804
3773.000000	98.483404
3772.000000	98.486385
3771.000000	98.492734
3770.000000	98.501529
3769.000000	98.511427
3768.000000	98.519209
3767.000000	98.521528
3766.000000	98.517642
3765.000000	98.510230
3764.000000	98.503242
3763.000000	98.499037
3762.000000	98.498321
3761.000000	98.501676
3760.000000	98.507927
3759.000000	98.513518
3758.000000	98.515944
3757.000000	98.516503
3756.000000	98.517879
3755.000000	98.521975
3754.000000	98.531463
3753.000000	98.549684
3752.000000	98.574701
3751.000000	98.595550
3750.000000	98.604052
3749.000000	98.605558
3748.000000	98.606553
3747.000000	98.605250
3746.000000	98.596818
3745.000000	98.581251
3744.000000	98.567718
3743.000000	98.561056
3742.000000	98.555946
3741.000000	98.551749
3740.000000	98.553216
3739.000000	98.562528
3738.000000	98.575133
3737.000000	98.583167
3736.000000	98.580865
3735.000000	98.569046
3734.000000	98.555817
3733.000000	98.547012
3732.000000	98.542227
3731.000000	98.539164
3730.000000	98.536331
3729.000000	98.533910
3728.000000	98.533127
3727.000000	98.534543
3726.000000	98.536829
3725.000000	98.537750
3724.000000	98.536951
3723.000000	98.535737
3722.000000	98.534900
3721.000000	98.533106
3720.000000	98.528762
3719.000000	98.523427
3718.000000	98.521072
3717.000000	98.524408
3716.000000	98.532158
3715.000000	98.540795
3714.000000	98.548315
3713.000000	98.554001
3712.000000	98.555482
3711.000000	98.550341
3710.000000	98.541367
3709.000000	98.534706
3708.000000	98.532581
3707.000000	98.533228
3706.000000	98.534674
3705.000000	98.535784
3704.000000	98.536554
3703.000000	98.538188
3702.000000	98.541544
3701.000000	98.546075
3700.000000	98.549110
3699.000000	98.547885
3698.000000	98.542496
3697.000000	98.536249
3696.000000	98.532801
3695.000000	98.533258
3694.000000	98.536811
3693.000000	98.542820
3692.000000	98.550967
3691.000000	98.558903
3690.000000	98.561384
3689.000000	98.554967
3688.000000	98.543702
3687.000000	98.533251
3686.000000	98.524378
3685.000000	98.517525
3684.000000	98.515270
3683.000000	98.518855
3682.000000	98.525164
3681.000000	98.530465
3680.000000	98.535418
3679.000000	98.543374
3678.000000	98.554758
3677.000000	98.564324
3676.000000	98.564976
3675.000000	98.558358
3674.000000	98.554312
3673.000000	98.553688
3672.000000	98.553053
3671.000000	98.551347
3670.000000	98.547760
3669.000000	98.543114
3668.000000	98.539090
3667.000000	98.534831
3666.000000	98.529567
3665.000000	98.523468
3664.000000	98.517008
3663.000000	98.510679
3662.000000	98.505031
3661.000000	98.500512
3660.000000	98.497165
3659.000000	98.494754
3658.000000	98.493740
3657.000000	98.495402
3656.000000	98.500555
3655.000000	98.506188
3654.000000	98.506604
3653.000000	98.498483
3652.000000	98.484737
3651.000000	98.474063
3650.000000	98.472670
3649.000000	98.473050
3648.000000	98.465065
3647.000000	98.454350
3646.000000	98.450013
3645.000000	98.451485
3644.000000	98.452404
3643.000000	98.448110
3642.000000	98.438832
3641.000000	98.429122
3640.000000	98.423328
3639.000000	98.422150
3638.000000	98.423696
3637.000000	98.425750
3636.000000	98.427580
3635.000000	98.430284
3634.000000	98.435750
3633.000000	98.444208
3632.000000	98.453039
3631.000000	98.457524
3630.000000	98.452849
3629.000000	98.438040
3628.000000	98.420594
3627.000000	98.408125
3626.000000	98.399639
3625.000000	98.394066
3624.000000	98.392374
3623.000000	98.394650
3622.000000	98.399317
3621.000000	98.404190
3620.000000	98.407157
3619.000000	98.407224
3618.000000	98.405073
3617.000000	98.401428
3616.000000	98.395819
3615.000000	98.387490
3614.000000	98.376677
3613.000000	98.365777
3612.000000	98.358477
3611.000000	98.355252
3610.000000	98.352111
3609.000000	98.343451
3608.000000	98.327477
3607.000000	98.308694
3606.000000	98.292307
3605.000000	98.279512
3604.000000	98.269071
3603.000000	98.260804
3602.000000	98.255553
3601.000000	98.252942
3600.000000	98.250901
3599.000000	98.247590
3598.000000	98.242914
3597.000000	98.237489
3596.000000	98.232035
3595.000000	98.227191
3594.000000	98.224419
3593.000000	98.224278
3592.000000	98.225552
3591.000000	98.225557
3590.000000	98.221795
3589.000000	98.212987
3588.000000	98.200185
3587.000000	98.186277
3586.000000	98.173989
3585.000000	98.162511
3584.000000	98.149456
3583.000000	98.134974
3582.000000	98.121700
3581.000000	98.112275
3580.000000	98.108094
3579.000000	98.108245
3578.000000	98.109205
3577.000000	98.105831
3576.000000	98.094865
3575.000000	98.078108
3574.000000	98.061702
3573.000000	98.051613
3572.000000	98.049130
3571.000000	98.050856
3570.000000	98.051851
3569.000000	98.049109
3568.000000	98.041856
3567.000000	98.029837
3566.000000	98.014092
3565.000000	97.998231
3564.000000	97.985128
3563.000000	97.975460
3562.000000	97.967983
3561.000000	97.960135
3560.000000	97.950047
3559.000000	97.938719
3558.000000	97.928408
3557.000000	97.919518
3556.000000	97.909723
3555.000000	97.896395
3554.000000	97.879411
3553.000000	97.862206
3552.000000	97.849687
3551.000000	97.844452
3550.000000	97.844894
3549.000000	97.847172
3548.000000	97.848210
3547.000000	97.846379
3546.000000	97.840605
3545.000000	97.830296
3544.000000	97.816279
3543.000000	97.800540
3542.000000	97.785112
3541.000000	97.771223
3540.000000	97.759011
3539.000000	97.747832
3538.000000	97.736610
3537.000000	97.724601
3536.000000	97.712431
3535.000000	97.701976
3534.000000	97.694721
3533.000000	97.689942
3532.000000	97.685475
3531.000000	97.679857
3530.000000	97.673615
3529.000000	97.668213
3528.000000	97.664079
3527.000000	97.660239
3526.000000	97.655763
3525.000000	97.650426
3524.000000	97.643899
3523.000000	97.635243
3522.000000	97.623782
3521.000000	97.610108
3520.000000	97.596074
3519.000000	97.583987
3518.000000	97.575338
3517.000000	97.569444
3516.000000	97.564050
3515.000000	97.557423
3514.000000	97.549924
3513.000000	97.542538
3512.000000	97.534536
3511.000000	97.523705
3510.000000	97.509827
3509.000000	97.496719
3508.000000	97.489170
3507.000000	97.488234
3506.000000	97.490941
3505.000000	97.493916
3504.000000	97.495231
3503.000000	97.493236
3502.000000	97.485786
3501.000000	97.471827
3500.000000	97.453215
3499.000000	97.434249
3498.000000	97.419410
3497.000000	97.410843
3496.000000	97.407486
3495.000000	97.406331
3494.000000	97.404631
3493.000000	97.401239
3492.000000	97.396331
3491.000000	97.390489
3490.000000	97.384318
3489.000000	97.378558
3488.000000	97.374046
3487.000000	97.371061
3486.000000	97.368714
3485.000000	97.365282
3484.000000	97.359527
3483.000000	97.351741
3482.000000	97.343711
3481.000000	97.337373
3480.000000	97.333140
3479.000000	97.329595
3478.000000	97.324817
3477.000000	97.317799
3476.000000	97.308450
3475.000000	97.296981
3474.000000	97.284121
3473.000000	97.271793
3472.000000	97.262488
3471.000000	97.257214
3470.000000	97.254378
3469.000000	97.251170
3468.000000	97.245762
3467.000000	97.237987
3466.000000	97.228472
3465.000000	97.218271
3464.000000	97.209446
3463.000000	97.204606
3462.000000	97.204745
3461.000000	97.207527
3460.000000	97.208597
3459.000000	97.205020
3458.000000	97.197442
3457.000000	97.189032
3456.000000	97.182294
3455.000000	97.176559
3454.000000	97.169108
3453.000000	97.158692
3452.000000	97.147563
3451.000000	97.139066
3450.000000	97.133705
3449.000000	97.128542
3448.000000	97.120518
3447.000000	97.109841
3446.000000	97.099835
3445.000000	97.093491
3444.000000	97.090900
3443.000000	97.089766
3442.000000	97.087502
3441.000000	97.082944
3440.000000	97.076420
3439.000000	97.068740
3438.000000	97.060742
3437.000000	97.053563
3436.000000	97.048028
3435.000000	97.042910
3434.000000	97.035168
3433.000000	97.023145
3432.000000	97.009343
3431.000000	96.998306
3430.000000	96.992065
3429.000000	96.988861
3428.000000	96.986082
3427.000000	96.982840
3426.000000	96.979175
3425.000000	96.974483
3424.000000	96.967786
3423.000000	96.958929
3422.000000	96.948636
3421.000000	96.937673
3420.000000	96.926504
3419.000000	96.915526
3418.000000	96.905288
3417.000000	96.896636
3416.000000	96.890979
3415.000000	96.889960
3414.000000	96.894055
3413.000000	96.901024
3412.000000	96.905906
3411.000000	96.903420
3410.000000	96.891598
3409.000000	96.873756
3408.000000	96.856518
3407.000000	96.845194
3406.000000	96.840663
3405.000000	96.840222
3404.000000	96.840582
3403.000000	96.839593
3402.000000	96.836029
3401.000000	96.829040
3400.000000	96.818623
3399.000000	96.806215
3398.000000	96.794345
3397.000000	96.785339
3396.000000	96.779995
3395.000000	96.777184
3394.000000	96.774712
3393.000000	96.770886
3392.000000	96.765533
3391.000000	96.759588
3390.000000	96.753782
3389.000000	96.748040
3388.000000	96.742082
3387.000000	96.736050
3386.000000	96.730210
3385.000000	96.724104
3384.000000	96.716434
3383.000000	96.706035
3382.000000	96.693065
3381.000000	96.679094
3380.000000	96.666162
3379.000000	96.655626
3378.000000	96.647618
3377.000000	96.640924
3376.000000	96.633083
3375.000000	96.621313
3374.000000	96.604506
3373.000000	96.584918
3372.000000	96.567221
3371.000000	96.554921
3370.000000	96.547197
3369.000000	96.539434
3368.000000	96.526956
3367.000000	96.508492
3366.000000	96.486419
3365.000000	96.464271
3364.000000	96.443927
3363.000000	96.424695
3362.000000	96.404599
3361.000000	96.382460
3360.000000	96.358740
3359.000000	96.334415
3358.000000	96.309585
3357.000000	96.283829
3356.000000	96.257797
3355.000000	96.233582
3354.000000	96.212896
3353.000000	96.195027
3352.000000	96.176951
3351.000000	96.155535
3350.000000	96.129697
3349.000000	96.100745
3348.000000	96.070924
3347.000000	96.041738
3346.000000	96.013534
3345.000000	95.986324
3344.000000	95.960656
3343.000000	95.937366
3342.000000	95.916682
3341.000000	95.897825
3340.000000	95.879424
3339.000000	95.860155
3338.000000	95.839063
3337.000000	95.815674
3336.000000	95.789998
3335.000000	95.762335
3334.000000	95.732891
3333.000000	95.701610
3332.000000	95.668721
3331.000000	95.635794
3330.000000	95.606130
3329.000000	95.583401
3328.000000	95.569018
3327.000000	95.560623
3326.000000	95.553542
3325.000000	95.543828
3324.000000	95.530010
3323.000000	95.512644
3322.000000	95.493236
3321.000000	95.473530
3320.000000	95.454682
3319.000000	95.436691
3318.000000	95.419225
3317.000000	95.402973
3316.000000	95.389240
3315.000000	95.377891
3314.000000	95.366915
3313.000000	95.354886
3312.000000	95.342818
3311.000000	95.332728
3310.000000	95.325194
3309.000000	95.319240
3308.000000	95.313890
3307.000000	95.308377
3306.000000	95.301306
3305.000000	95.291281
3304.000000	95.278485
3303.000000	95.264615
3302.000000	95.251250
3301.000000	95.239417
3300.000000	95.230666
3299.000000	95.226566
3298.000000	95.226176
3297.000000	95.225328
3296.000000	95.220289
3295.000000	95.212110
3294.000000	95.206024
3293.000000	95.206123
3292.000000	95.211209
3291.000000	95.216125
3290.000000	95.216693
3289.000000	95.212862
3288.000000	95.207452
3287.000000	95.202912
3286.000000	95.199672
3285.000000	95.196840
3284.000000	95.193520
3283.000000	95.189620
3282.000000	95.186143
3281.000000	95.184891
3280.000000	95.187278
3279.000000	95.193123
3278.000000	95.201125
3277.000000	95.210559
3276.000000	95.221803
3275.000000	95.234595
3274.000000	95.246417
3273.000000	95.253632
3272.000000	95.254517
3271.000000	95.251025
3270.000000	95.247578
3269.000000	95.248105
3268.000000	95.253558
3267.000000	95.261606
3266.000000	95.268783
3265.000000	95.273172
3264.000000	95.275089
3263.000000	95.275811
3262.000000	95.276634
3261.000000	95.279259
3260.000000	95.285579
3259.000000	95.295929
3258.000000	95.308101
3257.000000	95.319138
3256.000000	95.327815
3255.000000	95.334746
3254.000000	95.340759
3253.000000	95.346381
3252.000000	95.352595
3251.000000	95.360388
3250.000000	95.369119
3249.000000	95.376377
3248.000000	95.380210
3247.000000	95.381101
3246.000000	95.381602
3245.000000	95.384435
3244.000000	95.390937
3243.000000	95.400432
3242.000000	95.410436
3241.000000	95.418003
3240.000000	95.421756
3239.000000	95.422954
3238.000000	95.424235
3237.000000	95.427217
3236.000000	95.431230
3235.000000	95.434364
3234.000000	95.435684
3233.000000	95.436277
3232.000000	95.438098
3231.000000	95.441793
3230.000000	95.446154
3229.000000	95.449853
3228.000000	95.453013
3227.000000	95.456618
3226.000000	95.460822
3225.000000	95.464873
3224.000000	95.468730
3223.000000	95.473935
3222.000000	95.482223
3221.000000	95.493286
3220.000000	95.503932
3219.000000	95.509852
3218.000000	95.509061
3217.000000	95.504026
3216.000000	95.499995
3215.000000	95.500421
3214.000000	95.504027
3213.000000	95.507209
3212.000000	95.508706
3211.000000	95.510750
3210.000000	95.515562
3209.000000	95.522416
3208.000000	95.528804
3207.000000	95.533526
3206.000000	95.537641
3205.000000	95.542889
3204.000000	95.549820
3203.000000	95.557117
3202.000000	95.562452
3201.000000	95.564644
3200.000000	95.565432
3199.000000	95.568744
3198.000000	95.577402
3197.000000	95.590701
3196.000000	95.605178
3195.000000	95.617416
3194.000000	95.625906
3193.000000	95.631171
3192.000000	95.634950
3191.000000	95.638922
3190.000000	95.643704
3189.000000	95.648992
3188.000000	95.654570
3187.000000	95.660558
3186.000000	95.666718
3185.000000	95.672850
3184.000000	95.680441
3183.000000	95.692538
3182.000000	95.710499
3181.000000	95.731242
3180.000000	95.749154
3179.000000	95.760686
3178.000000	95.766589
3177.000000	95.769948
3176.000000	95.773385
3175.000000	95.778459
3174.000000	95.786186
3173.000000	95.796700
3172.000000	95.808520
3171.000000	95.819244
3170.000000	95.827558
3169.000000	95.834408
3168.000000	95.842026
3167.000000	95.851700
3166.000000	95.862635
3165.000000	95.873027
3164.000000	95.882194
3163.000000	95.891320
3162.000000	95.901995
3161.000000	95.914183
3160.000000	95.925990
3159.000000	95.935497
3158.000000	95.942862
3157.000000	95.950363
3156.000000	95.960129
3155.000000	95.971765
3154.000000	95.982707
3153.000000	95.991073
3152.000000	95.997760
3151.000000	96.005228
3150.000000	96.014871
3149.000000	96.026137
3148.000000	96.037700
3147.000000	96.048269
3146.000000	96.056433
3145.000000	96.061099
3144.000000	96.062823
3143.000000	96.064201
3142.000000	96.068469
3141.000000	96.077691
3140.000000	96.091810
3139.000000	96.108478
3138.000000	96.123725
3137.000000	96.134108
3136.000000	96.139073
3135.000000	96.141074
3134.000000	96.143089
3133.000000	96.146480
3132.000000	96.151308
3131.000000	96.157429
3130.000000	96.164374
3129.000000	96.170819
3128.000000	96.175424
3127.000000	96.178184
3126.000000	96.180483
3125.000000	96.183820
3124.000000	96.188616
3123.000000	96.193839
3122.000000	96.197500
3121.000000	96.198071
3120.000000	96.196016
3119.000000	96.193810
3118.000000	96.193961
3117.000000	96.196873
3116.000000	96.200417
3115.000000	96.201575
3114.000000	96.198795
3113.000000	96.193168
3112.000000	96.187229
3111.000000	96.182279
3110.000000	96.177340
3109.000000	96.171306
3108.000000	96.165262
3107.000000	96.161296
3106.000000	96.159540
3105.000000	96.158137
3104.000000	96.155853
3103.000000	96.152770
3102.000000	96.148154
3101.000000	96.139933
3100.000000	96.127519
3099.000000	96.113667
3098.000000	96.102159
3097.000000	96.094432
3096.000000	96.089208
3095.000000	96.084231
3094.000000	96.077602
3093.000000	96.068540
3092.000000	96.058246
3091.000000	96.049363
3090.000000	96.043440
3089.000000	96.039233
3088.000000	96.034227
3087.000000	96.027154
3086.000000	96.018300
3085.000000	96.008607
3084.000000	95.999805
3083.000000	95.994543
3082.000000	95.994208
3081.000000	95.996530
3080.000000	95.996926
3079.000000	95.992783
3078.000000	95.985521
3077.000000	95.978314
3076.000000	95.972973
3075.000000	95.969298
3074.000000	95.966405
3073.000000	95.963965
3072.000000	95.962540
3071.000000	95.962901
3070.000000	95.964907
3069.000000	95.967365
3068.000000	95.969546
3067.000000	95.972457
3066.000000	95.977559
3065.000000	95.984256
3064.000000	95.989793
3063.000000	95.992250
3062.000000	95.992955
3061.000000	95.995492
3060.000000	96.002760
3059.000000	96.015161
3058.000000	96.030822
3057.000000	96.046924
3056.000000	96.061324
3055.000000	96.073682
3054.000000	96.085225
3053.000000	96.097066
3052.000000	96.108845
3051.000000	96.119172
3050.000000	96.127252
3049.000000	96.133993
3048.000000	96.141664
3047.000000	96.152561
3046.000000	96.167519
3045.000000	96.185097
3044.000000	96.202210
3043.000000	96.216152
3042.000000	96.226273
3041.000000	96.233907
3040.000000	96.240911
3039.000000	96.248681
3038.000000	96.258110
3037.000000	96.269550
3036.000000	96.282446
3035.000000	96.295524
3034.000000	96.307798
3033.000000	96.319153
3032.000000	96.329540
3031.000000	96.338010
3030.000000	96.343365
3029.000000	96.345948
3028.000000	96.348243
3027.000000	96.353143
3026.000000	96.361784
3025.000000	96.373388
3024.000000	96.386779
3023.000000	96.401290
3022.000000	96.416108
3021.000000	96.429720
3020.000000	96.440559
3019.000000	96.447902
3018.000000	96.451827
3017.000000	96.452700
3016.000000	96.450995
3015.000000	96.447331
3014.000000	96.442308
3013.000000	96.436678
3012.000000	96.431888
3011.000000	96.429890
3010.000000	96.431566
3009.000000	96.435387
3008.000000	96.438321
3007.000000	96.438323
3006.000000	96.435682
3005.000000	96.432056
3004.000000	96.428621
3003.000000	96.425433
3002.000000	96.422261
3001.000000	96.419590
3000.000000	96.418559
2999.000000	96.419893
2998.000000	96.422880
2997.000000	96.425520
2996.000000	96.425827
2995.000000	96.423079
2994.000000	96.417719
2993.000000	96.410166
2992.000000	96.400038
2991.000000	96.386667
2990.000000	96.370253
2989.000000	96.352299
2988.000000	96.335066
2987.000000	96.320570
2986.000000	96.309731
2985.000000	96.301805
2984.000000	96.294381
2983.000000	96.284494
2982.000000	96.270628
2981.000000	96.253972
2980.000000	96.237351
2979.000000	96.222653
2978.000000	96.209429
2977.000000	96.196093
2976.000000	96.181704
2975.000000	96.166041
2974.000000	96.148360
2973.000000	96.127191
2972.000000	96.101672
2971.000000	96.072457
2970.000000	96.041089
2969.000000	96.008837
2968.000000	95.976278
2967.000000	95.943415
2966.000000	95.909831
2965.000000	95.875213
2964.000000	95.840058
2963.000000	95.805531
2962.000000	95.772283
2961.000000	95.739791
2960.000000	95.707419
2959.000000	95.675929
2958.000000	95.647735
2957.000000	95.625852
2956.000000	95.612706
2955.000000	95.609062
2954.000000	95.613043
2953.000000	95.620438
2952.000000	95.626875
2951.000000	95.630320
2950.000000	95.630854
2949.000000	95.628230
2948.000000	95.620376
2947.000000	95.604912
2946.000000	95.581597
2945.000000	95.552373
2944.000000	95.519070
2943.000000	95.481386
2942.000000	95.437468
2941.000000	95.386165
2940.000000	95.328486
2939.000000	95.266666
2938.000000	95.201609
2937.000000	95.131550
2936.000000	95.053543
2935.000000	94.966795
2934.000000	94.874423
2933.000000	94.781646
2932.000000	94.692019
2931.000000	94.605452
2930.000000	94.519736
2929.000000	94.433527
2928.000000	94.347992
2927.000000	94.266555
2926.000000	94.193638
2925.000000	94.133287
2924.000000	94.087692
2923.000000	94.056977
2922.000000	94.040781
2921.000000	94.039957
2920.000000	94.056324
2919.000000	94.090784
2918.000000	94.143053
2917.000000	94.213298
2916.000000	94.302745
2915.000000	94.411265
2914.000000	94.534301
2913.000000	94.663290
2912.000000	94.789231
2911.000000	94.905991
2910.000000	95.010579
2909.000000	95.101867
2908.000000	95.180241
2907.000000	95.247851
2906.000000	95.307945
2905.000000	95.362896
2904.000000	95.413156
2903.000000	95.458296
2902.000000	95.499146
2901.000000	95.538014
2900.000000	95.577418
2899.000000	95.617494
2898.000000	95.655898
2897.000000	95.690209
2896.000000	95.720322
2895.000000	95.748393
2894.000000	95.776800
2893.000000	95.806513
2892.000000	95.836966
2891.000000	95.866620
2890.000000	95.893633
2889.000000	95.916795
2888.000000	95.936264
2887.000000	95.953121
2886.000000	95.968126
2885.000000	95.981513
2884.000000	95.994032
2883.000000	96.007183
2882.000000	96.021334
2881.000000	96.033922
2880.000000	96.040543
2879.000000	96.038569
2878.000000	96.029706
2877.000000	96.018988
2876.000000	96.010947
2875.000000	96.006549
2874.000000	96.003641
2873.000000	96.000279
2872.000000	95.997217
2871.000000	95.996733
2870.000000	95.999525
2869.000000	96.003680
2868.000000	96.006598
2867.000000	96.006295
2866.000000	96.000094
2865.000000	95.983662
2864.000000	95.953521
2863.000000	95.910544
2862.000000	95.859208
2861.000000	95.802753
2860.000000	95.740445
2859.000000	95.670477
2858.000000	95.594472
2857.000000	95.517905
2856.000000	95.446320
2855.000000	95.382330
2854.000000	95.327008
2853.000000	95.283277
2852.000000	95.257343
2851.000000	95.257111
2850.000000	95.288998
2849.000000	95.355419
2848.000000	95.453362
2847.000000	95.574423
2846.000000	95.706595
2845.000000	95.837688
2844.000000	95.958244
2843.000000	96.062956
2842.000000	96.150490
2841.000000	96.222633
2840.000000	96.283350
2839.000000	96.336743
2838.000000	96.384721
2837.000000	96.426448
2836.000000	96.460400
2835.000000	96.486807
2834.000000	96.508082
2833.000000	96.527271
2832.000000	96.546568
2831.000000	96.566773
2830.000000	96.587288
2829.000000	96.606704
2828.000000	96.624135
2827.000000	96.640250
2826.000000	96.656497
2825.000000	96.673124
2824.000000	96.688542
2823.000000	96.700997
2822.000000	96.710460
2821.000000	96.718490
2820.000000	96.726614
2819.000000	96.735361
2818.000000	96.744641
2817.000000	96.754243
2816.000000	96.763768
2815.000000	96.772620
2814.000000	96.780579
2813.000000	96.788239
2812.000000	96.796520
2811.000000	96.805731
2810.000000	96.815200
2809.000000	96.823720
2808.000000	96.830238
2807.000000	96.834437
2806.000000	96.837124
2805.000000	96.839940
2804.000000	96.844177
2803.000000	96.849584
2802.000000	96.854742
2801.000000	96.858858
2800.000000	96.862831
2799.000000	96.868145
2798.000000	96.874967
2797.000000	96.881964
2796.000000	96.887991
2795.000000	96.893380
2794.000000	96.899171
2793.000000	96.905422
2792.000000	96.910845
2791.000000	96.914277
2790.000000	96.916322
2789.000000	96.919222
2788.000000	96.924943
2787.000000	96.933430
2786.000000	96.942870
2785.000000	96.951556
2784.000000	96.959190
2783.000000	96.966367
2782.000000	96.973360
2781.000000	96.979873
2780.000000	96.985759
2779.000000	96.991409
2778.000000	96.997325
2777.000000	97.003565
2776.000000	97.009658
2775.000000	97.014918
2774.000000	97.018973
2773.000000	97.022234
2772.000000	97.025672
2771.000000	97.029853
2770.000000	97.034357
2769.000000	97.038489
2768.000000	97.042283
2767.000000	97.046289
2766.000000	97.050617
2765.000000	97.054914
2764.000000	97.059233
2763.000000	97.064026
2762.000000	97.068978
2761.000000	97.072636
2760.000000	97.073878
2759.000000	97.073426
2758.000000	97.073363
2757.000000	97.075240
2756.000000	97.079017
2755.000000	97.083651
2754.000000	97.088233
2753.000000	97.092409
2752.000000	97.096107
2751.000000	97.099301
2750.000000	97.102138
2749.000000	97.105062
2748.000000	97.108422
2747.000000	97.111976
2746.000000	97.115295
2745.000000	97.118977
2744.000000	97.124902
2743.000000	97.134315
2742.000000	97.145556
2741.000000	97.154500
2740.000000	97.157885
2739.000000	97.156053
2738.000000	97.152323
2737.000000	97.150080
2736.000000	97.150811
2735.000000	97.154445
2734.000000	97.160537
2733.000000	97.168513
2732.000000	97.177015
2731.000000	97.183741
2730.000000	97.186600
2729.000000	97.185394
2728.000000	97.182345
2727.000000	97.180718
2726.000000	97.182584
2725.000000	97.187454
2724.000000	97.192861
2723.000000	97.196476
2722.000000	97.198164
2721.000000	97.200123
2720.000000	97.204691
2719.000000	97.211733
2718.000000	97.218422
2717.000000	97.221822
2716.000000	97.221563
2715.000000	97.219983
2714.000000	97.220030
2713.000000	97.223200
2712.000000	97.228844
2711.000000	97.234842
2710.000000	97.239105
2709.000000	97.240995
2708.000000	97.241436
2707.000000	97.241739
2706.000000	97.242708
2705.000000	97.244924
2704.000000	97.248963
2703.000000	97.254526
2702.000000	97.259905
2701.000000	97.263364
2700.000000	97.265014
2699.000000	97.266616
2698.000000	97.269592
2697.000000	97.273861
2696.000000	97.278478
2695.000000	97.282633
2694.000000	97.285985
2693.000000	97.288731
2692.000000	97.291497
2691.000000	97.294575
2690.000000	97.297217
2689.000000	97.298221
2688.000000	97.297267
2687.000000	97.295233
2686.000000	97.293217
2685.000000	97.291807
2684.000000	97.291129
2683.000000	97.290960
2682.000000	97.290822
2681.000000	97.290569
2680.000000	97.290732
2679.000000	97.291521
2678.000000	97.291777
2677.000000	97.290149
2676.000000	97.287603
2675.000000	97.287524
2674.000000	97.292478
2673.000000	97.301341
2672.000000	97.310134
2671.000000	97.315412
2670.000000	97.316563
2669.000000	97.315446
2668.000000	97.314382
2667.000000	97.314340
2666.000000	97.314637
2665.000000	97.314257
2664.000000	97.313168
2663.000000	97.312023
2662.000000	97.311061
2661.000000	97.310157
2660.000000	97.309717
2659.000000	97.310348
2658.000000	97.311527
2657.000000	97.311930
2656.000000	97.311760
2655.000000	97.313529
2654.000000	97.319306
2653.000000	97.327803
2652.000000	97.335295
2651.000000	97.339213
2650.000000	97.340031
2649.000000	97.339975
2648.000000	97.340949
2647.000000	97.343821
2646.000000	97.348758
2645.000000	97.355620
2644.000000	97.364056
2643.000000	97.373328
2642.000000	97.382097
2641.000000	97.388835
2640.000000	97.393046
2639.000000	97.396100
2638.000000	97.400489
2637.000000	97.407959
2636.000000	97.418155
2635.000000	97.428794
2634.000000	97.437108
2633.000000	97.441545
2632.000000	97.442605
2631.000000	97.442259
2630.000000	97.442624
2629.000000	97.445059
2628.000000	97.449781
2627.000000	97.455653
2626.000000	97.460625
2625.000000	97.463327
2624.000000	97.464488
2623.000000	97.466240
2622.000000	97.469992
2621.000000	97.475562
2620.000000	97.482113
2619.000000	97.488727
2618.000000	97.493790
2617.000000	97.495106
2616.000000	97.491737
2615.000000	97.485428
2614.000000	97.479772
2613.000000	97.478056
2612.000000	97.481560
2611.000000	97.488902
2610.000000	97.496849
2609.000000	97.502801
2608.000000	97.507026
2607.000000	97.511738
2606.000000	97.517739
2605.000000	97.523326
2604.000000	97.527010
2603.000000	97.529836
2602.000000	97.533630
2601.000000	97.537948
2600.000000	97.540664
2599.000000	97.541398
2598.000000	97.542635
2597.000000	97.546717
2596.000000	97.552835
2595.000000	97.558000
2594.000000	97.560492
2593.000000	97.561099
2592.000000	97.560562
2591.000000	97.557286
2590.000000	97.549515
2589.000000	97.539787
2588.000000	97.534998
2587.000000	97.540040
2586.000000	97.552283
2585.000000	97.564032
2584.000000	97.570012
2583.000000	97.570925
2582.000000	97.570232
2581.000000	97.570272
2580.000000	97.572024
2579.000000	97.576100
2578.000000	97.582100
2577.000000	97.588436
2576.000000	97.594528
2575.000000	97.602295
2574.000000	97.613648
2573.000000	97.626808
2572.000000	97.636731
2571.000000	97.639641
2570.000000	97.636162
2569.000000	97.629653
2568.000000	97.622494
2567.000000	97.615234
2566.000000	97.609384
2565.000000	97.609231
2564.000000	97.618594
2563.000000	97.635269
2562.000000	97.650756
2561.000000	97.657155
2560.000000	97.653983
2559.000000	97.647099
2558.000000	97.642195
2557.000000	97.641122
2556.000000	97.643311
2555.000000	97.647651
2554.000000	97.652395
2553.000000	97.655751
2552.000000	97.657888
2551.000000	97.660918
2550.000000	97.665882
2549.000000	97.670789
2548.000000	97.672538
2547.000000	97.669958
2546.000000	97.664581
2545.000000	97.659228
2544.000000	97.656180
2543.000000	97.655894
2542.000000	97.657089
2541.000000	97.658365
2540.000000	97.659271
2539.000000	97.659326
2538.000000	97.657551
2537.000000	97.654790
2536.000000	97.655055
2535.000000	97.661213
2534.000000	97.669573
2533.000000	97.672598
2532.000000	97.668153
2531.000000	97.663085
2530.000000	97.665177
2529.000000	97.674105
2528.000000	97.682608
2527.000000	97.685003
2526.000000	97.681772
2525.000000	97.676490
2524.000000	97.671223
2523.000000	97.665749
2522.000000	97.659905
2521.000000	97.655570
2520.000000	97.656015
2519.000000	97.662902
2518.000000	97.673719
2517.000000	97.682696
2516.000000	97.685183
2515.000000	97.681500
2514.000000	97.677014
2513.000000	97.678342
2512.000000	97.687990
2511.000000	97.701048
2510.000000	97.707916
2509.000000	97.702521
2508.000000	97.688556
2507.000000	97.676354
2506.000000	97.673357
2505.000000	97.678962
2504.000000	97.687759
2503.000000	97.695264
2502.000000	97.699719
2501.000000	97.701100
2500.000000	97.700750
2499.000000	97.701365
2498.000000	97.705618
2497.000000	97.714236
2496.000000	97.725117
2495.000000	97.734023
2494.000000	97.737174
2493.000000	97.734864
2492.000000	97.731991
2491.000000	97.732952
2490.000000	97.736515
2489.000000	97.738024
2488.000000	97.736480
2487.000000	97.736153
2486.000000	97.740520
2485.000000	97.747918
2484.000000	97.754525
2483.000000	97.758723
2482.000000	97.760615
2481.000000	97.760292
2480.000000	97.759302
2479.000000	97.761486
2478.000000	97.768737
2477.000000	97.776866
2476.000000	97.778836
2475.000000	97.772621
2474.000000	97.763794
2473.000000	97.759889
2472.000000	97.763458
2471.000000	97.770551
2470.000000	97.774982
2469.000000	97.774003
2468.000000	97.770311
2467.000000	97.768517
2466.000000	97.769908
2465.000000	97.771771
2464.000000	97.771922
2463.000000	97.771874
2462.000000	97.774507
2461.000000	97.780330
2460.000000	97.787195
2459.000000	97.792182
2458.000000	97.792259
2457.000000	97.785113
2456.000000	97.771903
2455.000000	97.758440
2454.000000	97.750930
2453.000000	97.750345
2452.000000	97.752547
2451.000000	97.753698
2450.000000	97.753888
2449.000000	97.755272
2448.000000	97.758739
2447.000000	97.763244
2446.000000	97.767150
2445.000000	97.769159
2444.000000	97.768570
2443.000000	97.765889
2442.000000	97.763500
2441.000000	97.765199
2440.000000	97.773748
2439.000000	97.787714
2438.000000	97.800927
2437.000000	97.806769
2436.000000	97.804287
2435.000000	97.799475
2434.000000	97.799451
2433.000000	97.805344
2432.000000	97.811280
2431.000000	97.810353
2430.000000	97.801256
2429.000000	97.789392
2428.000000	97.781752
2427.000000	97.780423
2426.000000	97.781319
2425.000000	97.779536
2424.000000	97.775186
2423.000000	97.772899
2422.000000	97.776075
2421.000000	97.783397
2420.000000	97.790988
2419.000000	97.795936
2418.000000	97.797210
2417.000000	97.795351
2416.000000	97.792679
2415.000000	97.792293
2414.000000	97.795223
2413.000000	97.799606
2412.000000	97.803843
2411.000000	97.809056
2410.000000	97.816552
2409.000000	97.824260
2408.000000	97.828402
2407.000000	97.828538
2406.000000	97.828154
2405.000000	97.829480
2404.000000	97.830107
2403.000000	97.826522
2402.000000	97.819825
2401.000000	97.815834
2400.000000	97.819169
2399.000000	97.828090
2398.000000	97.835741
2397.000000	97.836350
2396.000000	97.830131
2395.000000	97.822302
2394.000000	97.817623
2393.000000	97.816136
2392.000000	97.814345
2391.000000	97.810259
2390.000000	97.806330
2389.000000	97.806674
2388.000000	97.811774
2387.000000	97.817396
2386.000000	97.819508
2385.000000	97.819010
2384.000000	97.819961
2383.000000	97.823620
2382.000000	97.826710
2381.000000	97.826430
2380.000000	97.825031
2379.000000	97.827181
2378.000000	97.833671
2377.000000	97.840036
2376.000000	97.841078
2375.000000	97.834509
2374.000000	97.820537
2373.000000	97.801557
2372.000000	97.784129
2371.000000	97.777522
2370.000000	97.786343
2369.000000	97.805365
2368.000000	97.823845
2367.000000	97.833654
2366.000000	97.832171
2365.000000	97.821030
2364.000000	97.805149
2363.000000	97.789856
2362.000000	97.778010
2361.000000	97.769082
2360.000000	97.760420
2359.000000	97.755226
2358.000000	97.758968
2357.000000	97.770206
2356.000000	97.782447
2355.000000	97.786168
2354.000000	97.779776
2353.000000	97.769998
2352.000000	97.766049
2351.000000	97.769044
2350.000000	97.773104
2349.000000	97.775120
2348.000000	97.774009
2347.000000	97.771567
2346.000000	97.771038
2345.000000	97.774347
2344.000000	97.778305
2343.000000	97.774427
2342.000000	97.765692
2341.000000	97.760620
2340.000000	97.761758
2339.000000	97.762945
2338.000000	97.758884
2337.000000	97.753362
2336.000000	97.754216
2335.000000	97.763385
2334.000000	97.772882
2333.000000	97.775867
2332.000000	97.772058
2331.000000	97.767262
2330.000000	97.761597
2329.000000	97.756922
2328.000000	97.751021
2327.000000	97.743674
2326.000000	97.731367
2325.000000	97.715443
2324.000000	97.702631
2323.000000	97.699901
2322.000000	97.708934
2321.000000	97.725307
2320.000000	97.743461
2319.000000	97.760410
2318.000000	97.772845
2317.000000	97.780750
2316.000000	97.784674
2315.000000	97.788188
2314.000000	97.790314
2313.000000	97.790134
2312.000000	97.785747
2311.000000	97.779438
2310.000000	97.773045
2309.000000	97.771373
2308.000000	97.777928
2307.000000	97.793494
2306.000000	97.811319
2305.000000	97.822970
2304.000000	97.824738
2303.000000	97.821261
2302.000000	97.819192
2301.000000	97.822184
2300.000000	97.826844
2299.000000	97.827127
2298.000000	97.817722
2297.000000	97.801266
2296.000000	97.785922
2295.000000	97.780446
2294.000000	97.785610
2293.000000	97.796219
2292.000000	97.806034
2291.000000	97.812432
2290.000000	97.815749
2289.000000	97.818371
2288.000000	97.823395
2287.000000	97.831450
2286.000000	97.839164
2285.000000	97.841604
2284.000000	97.837239
2283.000000	97.828652
2282.000000	97.821293
2281.000000	97.821594
2280.000000	97.833693
2279.000000	97.853386
2278.000000	97.868730
2277.000000	97.871224
2276.000000	97.865698
2275.000000	97.865094
2274.000000	97.876459
2273.000000	97.896907
2272.000000	97.919778
2271.000000	97.938671
2270.000000	97.946493
2269.000000	97.939466
2268.000000	97.923691
2267.000000	97.911092
2266.000000	97.906359
2265.000000	97.903622
2264.000000	97.897088
2263.000000	97.889068
2262.000000	97.884554
2261.000000	97.883892
2260.000000	97.885072
2259.000000	97.888572
2258.000000	97.896403
2257.000000	97.907413
2256.000000	97.916885
2255.000000	97.919685
2254.000000	97.913934
2253.000000	97.904057
2252.000000	97.899486
2251.000000	97.907225
2250.000000	97.924229
2249.000000	97.939717
2248.000000	97.944496
2247.000000	97.936864
2246.000000	97.921815
2245.000000	97.908820
2244.000000	97.907724
2243.000000	97.920527
2242.000000	97.937433
2241.000000	97.946489
2240.000000	97.947188
2239.000000	97.949419
2238.000000	97.959808
2237.000000	97.975617
2236.000000	97.992216
2235.000000	98.009160
2234.000000	98.026311
2233.000000	98.039615
2232.000000	98.043748
2231.000000	98.035612
2230.000000	98.015030
2229.000000	97.987037
2228.000000	97.963071
2227.000000	97.952805
2226.000000	97.953124
2225.000000	97.950672
2224.000000	97.937873
2223.000000	97.921919
2222.000000	97.915604
2221.000000	97.922240
2220.000000	97.931748
2219.000000	97.931125
2218.000000	97.919227
2217.000000	97.912212
2216.000000	97.930395
2215.000000	97.975747
2214.000000	98.025431
2213.000000	98.051397
2212.000000	98.044012
2211.000000	98.014453
2210.000000	97.980910
2209.000000	97.959447
2208.000000	97.959977
2207.000000	97.979179
2206.000000	98.000399
2205.000000	98.009563
2204.000000	98.008521
2203.000000	98.004801
2202.000000	97.994897
2201.000000	97.970727
2200.000000	97.938617
2199.000000	97.916964
2198.000000	97.916440
2197.000000	97.934248
2196.000000	97.964302
2195.000000	97.997959
2194.000000	98.017371
2193.000000	98.007491
2192.000000	97.980068
2191.000000	97.968763
2190.000000	97.993253
2189.000000	98.039756
2188.000000	98.080585
2187.000000	98.101016
2186.000000	98.102115
2185.000000	98.092399
2184.000000	98.086560
2183.000000	98.099900
2182.000000	98.132051
2181.000000	98.161921
2180.000000	98.167098
2179.000000	98.144509
2178.000000	98.109184
2177.000000	98.081315
2176.000000	98.076037
2175.000000	98.095822
2174.000000	98.129853
2173.000000	98.166193
2172.000000	98.202301
2171.000000	98.235252
2170.000000	98.247176
2169.000000	98.215963
2168.000000	98.144475
2167.000000	98.067743
2166.000000	98.026721
2165.000000	98.040299
2164.000000	98.095268
2163.000000	98.152574
2162.000000	98.169341
2161.000000	98.138149
2160.000000	98.111223
2159.000000	98.158486
2158.000000	98.281883
2157.000000	98.401683
2156.000000	98.442585
2155.000000	98.397021
2154.000000	98.302453
2153.000000	98.200774
2152.000000	98.124168
2151.000000	98.090080
2150.000000	98.095235
2149.000000	98.119041
2148.000000	98.139295
2147.000000	98.143648
2146.000000	98.129057
2145.000000	98.099078
2144.000000	98.063857
2143.000000	98.036065
2142.000000	98.024649
2141.000000	98.031979
2140.000000	98.051708
2139.000000	98.067046
2138.000000	98.060000
2137.000000	98.030606
2136.000000	98.002801
2135.000000	98.001966
2134.000000	98.029465
2133.000000	98.065660
2132.000000	98.091270
2131.000000	98.098283
2130.000000	98.087106
2129.000000	98.065269
2128.000000	98.046287
2127.000000	98.039854
2126.000000	98.042985
2125.000000	98.045331
2124.000000	98.040268
2123.000000	98.026586
2122.000000	98.005827
2121.000000	97.985684
2120.000000	97.978992
2119.000000	97.988012
2118.000000	97.994618
2117.000000	97.978847
2116.000000	97.946643
2115.000000	97.926176
2114.000000	97.935396
2113.000000	97.964252
2112.000000	97.990934
2111.000000	98.004249
2110.000000	98.004563
2109.000000	97.993706
2108.000000	97.974399
2107.000000	97.955371
2106.000000	97.949323
2105.000000	97.964019
2104.000000	97.995038
2103.000000	98.025510
2102.000000	98.035891
2101.000000	98.020274
2100.000000	97.993382
2099.000000	97.976607
2098.000000	97.978816
2097.000000	97.994276
2096.000000	98.014557
2095.000000	98.033326
2094.000000	98.043349
2093.000000	98.040927
2092.000000	98.033548
2091.000000	98.032734
2090.000000	98.038380
2089.000000	98.038804
2088.000000	98.027359
2087.000000	98.010525
2086.000000	97.997540
2085.000000	97.990855
2084.000000	97.988988
2083.000000	97.991775
2082.000000	97.999846
2081.000000	98.013520
2080.000000	98.032938
2079.000000	98.054464
2078.000000	98.068744
2077.000000	98.070010
2076.000000	98.066742
2075.000000	98.073696
2074.000000	98.093195
2073.000000	98.113177
2072.000000	98.123581
2071.000000	98.126106
2070.000000	98.128484
2069.000000	98.138589
2068.000000	98.162798
2067.000000	98.198137
2066.000000	98.225519
2065.000000	98.222818
2064.000000	98.189168
2063.000000	98.146864
2062.000000	98.119529
2061.000000	98.118973
2060.000000	98.145348
2059.000000	98.183765
2058.000000	98.204956
2057.000000	98.189018
2056.000000	98.150821
2055.000000	98.124999
2054.000000	98.124100
2053.000000	98.130762
2052.000000	98.133044
2051.000000	98.144495
2050.000000	98.178921
2049.000000	98.221806
2048.000000	98.243641
2047.000000	98.235645
2046.000000	98.216117
2045.000000	98.208611
2044.000000	98.225521
2043.000000	98.262147
2042.000000	98.296468
2041.000000	98.305440
2040.000000	98.291302
2039.000000	98.279388
2038.000000	98.284811
2037.000000	98.297853
2036.000000	98.306531
2035.000000	98.316937
2034.000000	98.339635
2033.000000	98.369238
2032.000000	98.388521
2031.000000	98.384123
2030.000000	98.355566
2029.000000	98.322473
2028.000000	98.319915
2027.000000	98.366056
2026.000000	98.434134
2025.000000	98.474673
2024.000000	98.465915
2023.000000	98.426106
2022.000000	98.380395
2021.000000	98.341386
2020.000000	98.317515
2019.000000	98.311622
2018.000000	98.309257
2017.000000	98.291702
2016.000000	98.263554
2015.000000	98.242522
2014.000000	98.226762
2013.000000	98.202620
2012.000000	98.179071
2011.000000	98.182697
2010.000000	98.215165
2009.000000	98.244385
2008.000000	98.245590
2007.000000	98.227065
2006.000000	98.206374
2005.000000	98.190596
2004.000000	98.187443
2003.000000	98.207513
2002.000000	98.244234
2001.000000	98.271304
2000.000000	98.270933
1999.000000	98.248478
1998.000000	98.216695
1997.000000	98.184063
1996.000000	98.162361
1995.000000	98.165225
1994.000000	98.191206
1993.000000	98.219624
1992.000000	98.231698
1991.000000	98.229950
1990.000000	98.229599
1989.000000	98.243820
1988.000000	98.279955
1987.000000	98.331331
1986.000000	98.370644
1985.000000	98.370766
1984.000000	98.338080
1983.000000	98.308492
1982.000000	98.306425
1981.000000	98.324651
1980.000000	98.346917
1979.000000	98.367509
1978.000000	98.381532
1977.000000	98.376609
1976.000000	98.351030
1975.000000	98.322830
1974.000000	98.309988
1973.000000	98.316946
1972.000000	98.341012
1971.000000	98.375335
1970.000000	98.405050
1969.000000	98.417028
1968.000000	98.416633
1967.000000	98.420629
1966.000000	98.431171
1965.000000	98.434863
1964.000000	98.427582
1963.000000	98.419884
1962.000000	98.418613
1961.000000	98.418893
1960.000000	98.413410
1959.000000	98.397775
1958.000000	98.369303
1957.000000	98.333645
1956.000000	98.308910
1955.000000	98.309640
1954.000000	98.329765
1953.000000	98.352007
1952.000000	98.367614
1951.000000	98.376742
1950.000000	98.376381
1949.000000	98.366330
1948.000000	98.360965
1947.000000	98.373799
1946.000000	98.393130
1945.000000	98.392177
1944.000000	98.363450
1943.000000	98.327738
1942.000000	98.306734
1941.000000	98.301304
1940.000000	98.300508
1939.000000	98.295809
1938.000000	98.283618
1937.000000	98.268518
1936.000000	98.263803
1935.000000	98.276139
1934.000000	98.292391
1933.000000	98.294077
1932.000000	98.282153
1931.000000	98.273914
1930.000000	98.275378
1929.000000	98.278099
1928.000000	98.282080
1927.000000	98.298167
1926.000000	98.327534
1925.000000	98.352323
1924.000000	98.357542
1923.000000	98.347245
1922.000000	98.333523
1921.000000	98.321456
1920.000000	98.312205
1919.000000	98.308079
1918.000000	98.306339
1917.000000	98.297790
1916.000000	98.282460
1915.000000	98.269923
1914.000000	98.264412
1913.000000	98.261456
1912.000000	98.258457
1911.000000	98.260001
1910.000000	98.267138
1909.000000	98.273047
1908.000000	98.275321
1907.000000	98.280011
1906.000000	98.291020
1905.000000	98.301184
1904.000000	98.303040
1903.000000	98.297503
1902.000000	98.288645
1901.000000	98.280467
1900.000000	98.278589
1899.000000	98.285256
1898.000000	98.294651
1897.000000	98.297372
1896.000000	98.293735
1895.000000	98.294067
1894.000000	98.303844
1893.000000	98.318736
1892.000000	98.334292
1891.000000	98.349047
1890.000000	98.358275
1889.000000	98.356726
1888.000000	98.349881
1887.000000	98.346012
1886.000000	98.341797
1885.000000	98.329867
1884.000000	98.315156
1883.000000	98.312348
1882.000000	98.325736
1881.000000	98.345339
1880.000000	98.361519
1879.000000	98.371367
1878.000000	98.373537
1877.000000	98.366344
1876.000000	98.353789
1875.000000	98.345660
1874.000000	98.347905
1873.000000	98.359724
1872.000000	98.380082
1871.000000	98.406862
1870.000000	98.428474
1869.000000	98.427306
1868.000000	98.404521
1867.000000	98.382963
1866.000000	98.372081
1865.000000	98.364635
1864.000000	98.358574
1863.000000	98.358373
1862.000000	98.360777
1861.000000	98.355400
1860.000000	98.342610
1859.000000	98.336119
1858.000000	98.343237
1857.000000	98.355609
1856.000000	98.363843
1855.000000	98.368281
1854.000000	98.371854
1853.000000	98.373794
1852.000000	98.375642
1851.000000	98.378956
1850.000000	98.384228
1849.000000	98.393380
1848.000000	98.411776
1847.000000	98.439135
1846.000000	98.460247
1845.000000	98.456168
1844.000000	98.430836
1843.000000	98.411614
1842.000000	98.407298
1841.000000	98.404128
1840.000000	98.395988
1839.000000	98.389501
1838.000000	98.390316
1837.000000	98.393800
1836.000000	98.396888
1835.000000	98.403821
1834.000000	98.415122
1833.000000	98.423826
1832.000000	98.425557
1831.000000	98.424778
1830.000000	98.430885
1829.000000	98.444444
1828.000000	98.459102
1827.000000	98.468981
1826.000000	98.469473
1825.000000	98.458290
1824.000000	98.440817
1823.000000	98.427235
1822.000000	98.418860
1821.000000	98.410451
1820.000000	98.401427
1819.000000	98.398151
1818.000000	98.403591
1817.000000	98.409724
1816.000000	98.411057
1815.000000	98.412903
1814.000000	98.419280
1813.000000	98.426160
1812.000000	98.427564
1811.000000	98.427514
1810.000000	98.432123
1809.000000	98.436712
1808.000000	98.436261
1807.000000	98.434200
1806.000000	98.434416
1805.000000	98.436297
1804.000000	98.440883
1803.000000	98.451235
1802.000000	98.462134
1801.000000	98.462781
1800.000000	98.451023
1799.000000	98.441547
1798.000000	98.442731
1797.000000	98.446893
1796.000000	98.446564
1795.000000	98.443499
1794.000000	98.440853
1793.000000	98.439546
1792.000000	98.440565
1791.000000	98.448075
1790.000000	98.457248
1789.000000	98.458386
1788.000000	98.454427
1787.000000	98.456993
1786.000000	98.469779
1785.000000	98.484032
1784.000000	98.492758
1783.000000	98.497999
1782.000000	98.500711
1781.000000	98.502435
1780.000000	98.504284
1779.000000	98.509652
1778.000000	98.518040
1777.000000	98.528754
1776.000000	98.547239
1775.000000	98.575252
1774.000000	98.603863
1773.000000	98.619561
1772.000000	98.616458
1771.000000	98.606751
1770.000000	98.600780
1769.000000	98.589742
1768.000000	98.571283
1767.000000	98.559053
1766.000000	98.559889
1765.000000	98.564775
1764.000000	98.563474
1763.000000	98.555546
1762.000000	98.544776
1761.000000	98.534077
1760.000000	98.523154
1759.000000	98.513786
1758.000000	98.501367
1757.000000	98.479803
1756.000000	98.453438
1755.000000	98.433990
1754.000000	98.425367
1753.000000	98.420120
1752.000000	98.409707
1751.000000	98.390356
1750.000000	98.362236
1749.000000	98.322229
1748.000000	98.275910
1747.000000	98.236611
1746.000000	98.208685
1745.000000	98.186268
1744.000000	98.165266
1743.000000	98.152823
1742.000000	98.152426
1741.000000	98.155187
1740.000000	98.158060
1739.000000	98.177189
1738.000000	98.219089
1737.000000	98.268351
1736.000000	98.314067
1735.000000	98.368629
1734.000000	98.440625
1733.000000	98.498920
1732.000000	98.522734
1731.000000	98.526318
1730.000000	98.527027
1729.000000	98.530354
1728.000000	98.536785
1727.000000	98.546130
1726.000000	98.558331
1725.000000	98.571244
1724.000000	98.580395
1723.000000	98.589746
1722.000000	98.602598
1721.000000	98.612058
1720.000000	98.610698
1719.000000	98.606052
1718.000000	98.613810
1717.000000	98.611856
1716.000000	98.570691
1715.000000	98.506749
1714.000000	98.439646
1713.000000	98.372761
1712.000000	98.309121
1711.000000	98.256482
1710.000000	98.218140
1709.000000	98.187789
1708.000000	98.154035
1707.000000	98.109244
1706.000000	98.055862
1705.000000	98.002784
1704.000000	97.964000
1703.000000	97.937207
1702.000000	97.892353
1701.000000	97.790435
1700.000000	97.651400
1699.000000	97.555515
1698.000000	97.488936
1697.000000	97.375241
1696.000000	97.198745
1695.000000	97.042764
1694.000000	96.953203
1693.000000	96.882256
1692.000000	96.795430
1691.000000	96.698991
1690.000000	96.608649
1689.000000	96.530101
1688.000000	96.463101
1687.000000	96.401522
1686.000000	96.322566
1685.000000	96.173189
1684.000000	95.943230
1683.000000	95.747820
1682.000000	95.618029
1681.000000	95.478553
1680.000000	95.309173
1679.000000	95.140490
1678.000000	94.985731
1677.000000	94.808579
1676.000000	94.566241
1675.000000	94.287367
1674.000000	94.053220
1673.000000	93.874607
1672.000000	93.695780
1671.000000	93.473125
1670.000000	93.189274
1669.000000	92.871862
1668.000000	92.587210
1667.000000	92.367377
1666.000000	92.189353
1665.000000	92.004597
1664.000000	91.771584
1663.000000	91.496778
1662.000000	91.234212
1661.000000	91.019931
1660.000000	90.841771
1659.000000	90.688590
1658.000000	90.567613
1657.000000	90.479868
1656.000000	90.406651
1655.000000	90.314635
1654.000000	90.161712
1653.000000	89.950861
1652.000000	89.820655
1651.000000	89.795683
1650.000000	89.795493
1649.000000	89.778932
1648.000000	89.723298
1647.000000	89.627857
1646.000000	89.534246
1645.000000	89.473474
1644.000000	89.428123
1643.000000	89.387018
1642.000000	89.348986
1641.000000	89.311182
1640.000000	89.273105
1639.000000	89.239438
1638.000000	89.205174
1637.000000	89.138355
1636.000000	89.009549
1635.000000	88.866979
1634.000000	88.787642
1633.000000	88.750447
1632.000000	88.719213
1631.000000	88.692569
1630.000000	88.681514
1629.000000	88.692517
1628.000000	88.730240
1627.000000	88.800133
1626.000000	88.901530
1625.000000	89.031691
1624.000000	89.193686
1623.000000	89.390825
1622.000000	89.604492
1621.000000	89.810761
1620.000000	90.003997
1619.000000	90.196950
1618.000000	90.417759
1617.000000	90.689395
1616.000000	90.985826
1615.000000	91.250025
1614.000000	91.467420
1613.000000	91.663742
1612.000000	91.866191
1611.000000	92.081529
1610.000000	92.298311
1609.000000	92.510623
1608.000000	92.720720
1607.000000	92.921524
1606.000000	93.099931
1605.000000	93.260904
1604.000000	93.418124
1603.000000	93.571442
1602.000000	93.710953
1601.000000	93.836444
1600.000000	93.954779
1599.000000	94.063618
1598.000000	94.157401
1597.000000	94.241289
1596.000000	94.322335
1595.000000	94.393300
1594.000000	94.442859
1593.000000	94.477891
1592.000000	94.512055
1591.000000	94.540608
1590.000000	94.548491
1589.000000	94.538678
1588.000000	94.527056
1587.000000	94.514141
1586.000000	94.486349
1585.000000	94.441274
1584.000000	94.388963
1583.000000	94.325049
1582.000000	94.240535
1581.000000	94.148526
1580.000000	94.071987
1579.000000	94.005447
1578.000000	93.916266
1577.000000	93.776618
1576.000000	93.602956
1575.000000	93.448787
1574.000000	93.332516
1573.000000	93.236346
1572.000000	93.138960
1571.000000	93.012356
1570.000000	92.828720
1569.000000	92.614178
1568.000000	92.430739
1567.000000	92.274153
1566.000000	92.102794
1565.000000	91.907132
1564.000000	91.724271
1563.000000	91.586882
1562.000000	91.488044
1561.000000	91.388780
1560.000000	91.227312
1559.000000	90.936908
1558.000000	90.634622
1557.000000	90.473562
1556.000000	90.358337
1555.000000	90.225444
1554.000000	90.083054
1553.000000	89.963474
1552.000000	89.870561
1551.000000	89.783682
1550.000000	89.692975
1549.000000	89.611723
1548.000000	89.558201
1547.000000	89.530225
1546.000000	89.515250
1545.000000	89.503109
1544.000000	89.491372
1543.000000	89.484432
1542.000000	89.488550
1541.000000	89.492874
1540.000000	89.480183
1539.000000	89.483480
1538.000000	89.537423
1537.000000	89.613151
1536.000000	89.692611
1535.000000	89.782443
1534.000000	89.895118
1533.000000	90.023456
1532.000000	90.142775
1531.000000	90.251948
1530.000000	90.363557
1529.000000	90.484046
1528.000000	90.612970
1527.000000	90.748646
1526.000000	90.884833
1525.000000	91.008960
1524.000000	91.116967
1523.000000	91.224843
1522.000000	91.347768
1521.000000	91.466096
1520.000000	91.559115
1519.000000	91.640944
1518.000000	91.730767
1517.000000	91.831178
1516.000000	91.929752
1515.000000	92.024007
1514.000000	92.118818
1513.000000	92.217307
1512.000000	92.322354
1511.000000	92.441797
1510.000000	92.577530
1509.000000	92.719854
1508.000000	92.854794
1507.000000	92.967457
1506.000000	93.051217
1505.000000	93.124396
1504.000000	93.183346
1503.000000	93.239849
1502.000000	93.308370
1501.000000	93.386634
1500.000000	93.463766
1499.000000	93.537781
1498.000000	93.617333
1497.000000	93.695823
1496.000000	93.757996
1495.000000	93.813862
1494.000000	93.875220
1493.000000	93.936779
1492.000000	93.992816
1491.000000	94.048789
1490.000000	94.104009
1489.000000	94.132161
1488.000000	94.123642
1487.000000	94.109581
1486.000000	94.107605
1485.000000	94.106352
1484.000000	94.096572
1483.000000	94.078085
1482.000000	94.053569
1481.000000	94.018869
1480.000000	93.975341
1479.000000	93.931998
1478.000000	93.889465
1477.000000	93.836976
1476.000000	93.772287
1475.000000	93.708633
1474.000000	93.635839
1473.000000	93.509400
1472.000000	93.318908
1471.000000	93.132170
1470.000000	92.985421
1469.000000	92.861254
1468.000000	92.745526
1467.000000	92.637455
1466.000000	92.528374
1465.000000	92.403896
1464.000000	92.274779
1463.000000	92.170858
1462.000000	92.097899
1461.000000	92.039361
1460.000000	91.983007
1459.000000	91.917474
1458.000000	91.812893
1457.000000	91.639838
1456.000000	91.461354
1455.000000	91.344426
1454.000000	91.266917
1453.000000	91.202062
1452.000000	91.147399
1451.000000	91.112094
1450.000000	91.095856
1449.000000	91.087867
1448.000000	91.082796
1447.000000	91.086249
1446.000000	91.097828
1445.000000	91.114007
1444.000000	91.135528
1443.000000	91.168232
1442.000000	91.213744
1441.000000	91.267895
1440.000000	91.328798
1439.000000	91.398471
1438.000000	91.479610
1437.000000	91.564860
1436.000000	91.638182
1435.000000	91.691625
1434.000000	91.735018
1433.000000	91.777544
1432.000000	91.820106
1431.000000	91.856851
1430.000000	91.882914
1429.000000	91.898542
1428.000000	91.909110
1427.000000	91.920369
1426.000000	91.930060
1425.000000	91.935269
1424.000000	91.936726
1423.000000	91.941640
1422.000000	91.956814
1421.000000	91.977647
1420.000000	91.992032
1419.000000	91.991839
1418.000000	91.984390
1417.000000	91.975440
1416.000000	91.961673
1415.000000	91.945500
1414.000000	91.933516
1413.000000	91.926661
1412.000000	91.917718
1411.000000	91.898703
1410.000000	91.868769
1409.000000	91.830897
1408.000000	91.787938
1407.000000	91.743995
1406.000000	91.699608
1405.000000	91.654437
1404.000000	91.612999
1403.000000	91.584683
1402.000000	91.573551
1401.000000	91.575021
1400.000000	91.584226
1399.000000	91.598469
1398.000000	91.614391
1397.000000	91.626103
1396.000000	91.630186
1395.000000	91.628881
1394.000000	91.629126
1393.000000	91.639223
1392.000000	91.662080
1391.000000	91.698704
1390.000000	91.746207
1389.000000	91.795507
1388.000000	91.836520
1387.000000	91.865452
1386.000000	91.884653
1385.000000	91.899238
1384.000000	91.914934
1383.000000	91.936956
1382.000000	91.966650
1381.000000	91.999788
1380.000000	92.033678
1379.000000	92.070735
1378.000000	92.115039
1377.000000	92.169829
1376.000000	92.238346
1375.000000	92.319890
1374.000000	92.404838
1373.000000	92.484185
1372.000000	92.560625
1371.000000	92.642910
1370.000000	92.734302
1369.000000	92.833655
1368.000000	92.937912
1367.000000	93.044109
1366.000000	93.151251
1365.000000	93.261497
1364.000000	93.377806
1363.000000	93.495696
1362.000000	93.599982
1361.000000	93.681318
1360.000000	93.745587
1359.000000	93.800617
1358.000000	93.846490
1357.000000	93.880786
1356.000000	93.904286
1355.000000	93.918098
1354.000000	93.919563
1353.000000	93.905566
1352.000000	93.878339
1351.000000	93.843922
1350.000000	93.803668
1349.000000	93.756945
1348.000000	93.704672
1347.000000	93.648881
1346.000000	93.589658
1345.000000	93.527947
1344.000000	93.468801
1343.000000	93.417901
1342.000000	93.375009
1341.000000	93.334652
1340.000000	93.292875
1339.000000	93.251387
1338.000000	93.216232
1337.000000	93.194315
1336.000000	93.192758
1335.000000	93.217390
1334.000000	93.267699
1333.000000	93.336437
1332.000000	93.414828
1331.000000	93.496533
1330.000000	93.577612
1329.000000	93.656269
1328.000000	93.732147
1327.000000	93.803633
1326.000000	93.866089
1325.000000	93.915735
1324.000000	93.952042
1323.000000	93.976415
1322.000000	93.990925
1321.000000	93.998846
1320.000000	94.004060
1319.000000	94.008887
1318.000000	94.014178
1317.000000	94.022654
1316.000000	94.039802
1315.000000	94.069501
1314.000000	94.110132
1313.000000	94.156884
1312.000000	94.207006
1311.000000	94.260410
1310.000000	94.315987
1309.000000	94.370251
1308.000000	94.419919
1307.000000	94.464026
1306.000000	94.502685
1305.000000	94.537016
1304.000000	94.569189
1303.000000	94.601439
1302.000000	94.633802
1301.000000	94.663849
1300.000000	94.688901
1299.000000	94.708202
1298.000000	94.722036
1297.000000	94.729443
1296.000000	94.728326
1295.000000	94.717391
1294.000000	94.697775
1293.000000	94.671476
1292.000000	94.638423
1291.000000	94.595953
1290.000000	94.541336
1289.000000	94.475852
1288.000000	94.406117
1287.000000	94.340377
1286.000000	94.282866
1285.000000	94.232469
1284.000000	94.186958
1283.000000	94.146554
1282.000000	94.113250
1281.000000	94.088903
1280.000000	94.075918
1279.000000	94.076484
1278.000000	94.089873
1277.000000	94.111982
1276.000000	94.138281
1275.000000	94.165773
1274.000000	94.191481
1273.000000	94.211669
1272.000000	94.224153
1271.000000	94.230043
1270.000000	94.231744
1269.000000	94.230250
1268.000000	94.225240
1267.000000	94.215744
1266.000000	94.200006
1265.000000	94.175875
1264.000000	94.143629
1263.000000	94.107379
1262.000000	94.071039
1261.000000	94.033800
1260.000000	93.991591
1259.000000	93.941841
1258.000000	93.885136
1257.000000	93.822554
1256.000000	93.754858
1255.000000	93.683451
1254.000000	93.609240
1253.000000	93.530566
1252.000000	93.444473
1251.000000	93.350644
1250.000000	93.251989
1249.000000	93.151336
1248.000000	93.049424
1247.000000	92.945370
1246.000000	92.837945
1245.000000	92.726334
1244.000000	92.611612
1243.000000	92.497658
1242.000000	92.389610
1241.000000	92.291662
1240.000000	92.206416
1239.000000	92.134373
1238.000000	92.072997
1237.000000	92.020121
1236.000000	91.978863
1235.000000	91.956496
1234.000000	91.958372
1233.000000	91.984640
1232.000000	92.034756
1231.000000	92.109965
1230.000000	92.210332
1229.000000	92.333860
1228.000000	92.477667
1227.000000	92.638177
1226.000000	92.809419
1225.000000	92.985072
1224.000000	93.163049
1223.000000	93.343608
1222.000000	93.523425
1221.000000	93.694348
1220.000000	93.848686
1219.000000	93.982984
1218.000000	94.097284
1217.000000	94.192129
1216.000000	94.266942
1215.000000	94.320709
1214.000000	94.351834
1213.000000	94.359483
1212.000000	94.344905
1211.000000	94.311789
1210.000000	94.265398
1209.000000	94.209835
1208.000000	94.147785
1207.000000	94.081801
1206.000000	94.015387
1205.000000	93.953667
1204.000000	93.904143
1203.000000	93.875613
1202.000000	93.874455
1201.000000	93.902185
1200.000000	93.955576
1199.000000	94.029460
1198.000000	94.118886
1197.000000	94.220411
1196.000000	94.331761
1195.000000	94.448631
1194.000000	94.564462
1193.000000	94.674574
1192.000000	94.779492
1191.000000	94.882402
1190.000000	94.984231
1189.000000	95.082526
1188.000000	95.173781
1187.000000	95.255247
1186.000000	95.325380
1185.000000	95.385241
1184.000000	95.438506
1183.000000	95.488432
1182.000000	95.534721
1181.000000	95.574217
1180.000000	95.605553
1179.000000	95.631121
1178.000000	95.654276
1177.000000	95.676333
1176.000000	95.696724
1175.000000	95.714900
1174.000000	95.730797
1173.000000	95.744797
1172.000000	95.758223
1171.000000	95.772426
1170.000000	95.786392
1169.000000	95.796373
1168.000000	95.799462
1167.000000	95.796912
1166.000000	95.792385
1165.000000	95.788134
1164.000000	95.784864
1163.000000	95.784534
1162.000000	95.790344
1161.000000	95.804086
1160.000000	95.825880
1159.000000	95.856631
1158.000000	95.898372
1157.000000	95.950828
1156.000000	96.010206
1155.000000	96.072201
1154.000000	96.134934
1153.000000	96.198055
1152.000000	96.260205
1151.000000	96.319392
1150.000000	96.375184
1149.000000	96.428996
1148.000000	96.482169
1147.000000	96.534815
1146.000000	96.585731
1145.000000	96.632607
1144.000000	96.673745
1143.000000	96.711328
1142.000000	96.751946
1141.000000	96.801035
1140.000000	96.856675
1139.000000	96.910961
1138.000000	96.957263
1137.000000	96.994594
1136.000000	97.025510
1135.000000	97.053013
1134.000000	97.080000
1133.000000	97.108014
1132.000000	97.134797
1131.000000	97.154877
1130.000000	97.164690
1129.000000	97.166828
1128.000000	97.168181
1127.000000	97.174518
1126.000000	97.186612
1125.000000	97.200180
1124.000000	97.209517
1123.000000	97.212137
1122.000000	97.210594
1121.000000	97.209160
1120.000000	97.209050
1119.000000	97.207825
1118.000000	97.202560
1117.000000	97.192321
1116.000000	97.178150
1115.000000	97.162316
1114.000000	97.147314
1113.000000	97.133966
1112.000000	97.120731
1111.000000	97.106044
1110.000000	97.090656
1109.000000	97.076521
1108.000000	97.063486
1107.000000	97.049132
1106.000000	97.031344
1105.000000	97.009887
1104.000000	96.986123
1103.000000	96.962359
1102.000000	96.940601
1101.000000	96.920708
1100.000000	96.899862
1099.000000	96.876516
1098.000000	96.851658
1097.000000	96.825734
1096.000000	96.795605
1095.000000	96.757096
1094.000000	96.710044
1093.000000	96.657515
1092.000000	96.599134
1091.000000	96.528511
1090.000000	96.438604
1089.000000	96.329963
1088.000000	96.212442
1087.000000	96.098121
1086.000000	95.992452
1085.000000	95.892949
1084.000000	95.797646
1083.000000	95.712747
1082.000000	95.650454
1081.000000	95.619555
1080.000000	95.621477
1079.000000	95.652806
1078.000000	95.707388
1077.000000	95.776624
1076.000000	95.850239
1075.000000	95.920334
1074.000000	95.984266
1073.000000	96.043465
1072.000000	96.099619
1071.000000	96.151256
1070.000000	96.192458
1069.000000	96.215186
1068.000000	96.215715
1067.000000	96.199784
1066.000000	96.180279
1065.000000	96.167814
1064.000000	96.164877
1063.000000	96.169276
1062.000000	96.178756
1061.000000	96.190080
1060.000000	96.197448
1059.000000	96.198154
1058.000000	96.199117
1057.000000	96.212668
1056.000000	96.243320
1055.000000	96.281962
1054.000000	96.315200
1053.000000	96.337815
1052.000000	96.353753
1051.000000	96.367643
1050.000000	96.380145
1049.000000	96.391325
1048.000000	96.403665
1047.000000	96.419116
1046.000000	96.435463
1045.000000	96.447837
1044.000000	96.452670
1043.000000	96.449299
1042.000000	96.438137
1041.000000	96.418427
1040.000000	96.387760
1039.000000	96.342988
1038.000000	96.282968
1037.000000	96.210830
1036.000000	96.133535
1035.000000	96.058180
1034.000000	95.989108
1033.000000	95.929786
1032.000000	95.886924
1031.000000	95.869659
1030.000000	95.882499
1029.000000	95.922054
1028.000000	95.980562
1027.000000	96.051010
1026.000000	96.128067
1025.000000	96.206981
1024.000000	96.284598
1023.000000	96.359268
1022.000000	96.428645
1021.000000	96.488933
1020.000000	96.538270
1019.000000	96.579049
1018.000000	96.614801
1017.000000	96.645865
1016.000000	96.671348
1015.000000	96.694783
1014.000000	96.723835
1013.000000	96.763443
1012.000000	96.812315
1011.000000	96.867154
1010.000000	96.926259
1009.000000	96.986834
1008.000000	97.042624
1007.000000	97.089620
1006.000000	97.133350
1005.000000	97.185213
1004.000000	97.250000
1003.000000	97.319895
1002.000000	97.383083
1001.000000	97.436221
1000.000000	97.486542
999.000000	97.542896
998.000000	97.606260
997.000000	97.668973
996.000000	97.722051
995.000000	97.763538
994.000000	97.799785
993.000000	97.838139
992.000000	97.879673
991.000000	97.920050
990.000000	97.955807
989.000000	97.986424
988.000000	98.010930
987.000000	98.027407
986.000000	98.036827
985.000000	98.043297
984.000000	98.047690
983.000000	98.044366
982.000000	98.027807
981.000000	97.999847
980.000000	97.967375
979.000000	97.934378
978.000000	97.900490
977.000000	97.866845
976.000000	97.838843
975.000000	97.820921
974.000000	97.810701
973.000000	97.801834
972.000000	97.792228
971.000000	97.787626
970.000000	97.795746
969.000000	97.818006
968.000000	97.848762
967.000000	97.881646
966.000000	97.915115
965.000000	97.950614
964.000000	97.986868
963.000000	98.018794
962.000000	98.042479
961.000000	98.059358
960.000000	98.073956
959.000000	98.089032
958.000000	98.104327
957.000000	98.118878
956.000000	98.132393
955.000000	98.144354
954.000000	98.153589
953.000000	98.159515
952.000000	98.163302
951.000000	98.167159
950.000000	98.172225
949.000000	98.176956
948.000000	98.177239
947.000000	98.168963
946.000000	98.151183
945.000000	98.126845
944.000000	98.100594
943.000000	98.076567
942.000000	98.058238
941.000000	98.048640
940.000000	98.048983
939.000000	98.056970
938.000000	98.068087
937.000000	98.079544
936.000000	98.092317
935.000000	98.109101
934.000000	98.131086
933.000000	98.157786
932.000000	98.188847
931.000000	98.223919
930.000000	98.259882
929.000000	98.289757
928.000000	98.306723
927.000000	98.310493
926.000000	98.308817
925.000000	98.311272
924.000000	98.321380
923.000000	98.335045
922.000000	98.346115
921.000000	98.351886
920.000000	98.353482
919.000000	98.353848
918.000000	98.357439
917.000000	98.369964
916.000000	98.394722
915.000000	98.428238
914.000000	98.461292
913.000000	98.485721
912.000000	98.499671
911.000000	98.506511
910.000000	98.511137
909.000000	98.518117
908.000000	98.531063
907.000000	98.550201
906.000000	98.570300
905.000000	98.583125
904.000000	98.583905
903.000000	98.575428
902.000000	98.565645
901.000000	98.561444
900.000000	98.564172
899.000000	98.570156
898.000000	98.574734
897.000000	98.576531
896.000000	98.578158
895.000000	98.583024
894.000000	98.591617
893.000000	98.601572
892.000000	98.611066
891.000000	98.620898
890.000000	98.632073
889.000000	98.641305
888.000000	98.640617
887.000000	98.622336
886.000000	98.584577
885.000000	98.529882
884.000000	98.457572
883.000000	98.359921
882.000000	98.226499
881.000000	98.051995
880.000000	97.837236
879.000000	97.584055
878.000000	97.294469
877.000000	96.976566
876.000000	96.650168
875.000000	96.345056
874.000000	96.099215
873.000000	95.959244
872.000000	95.972573
871.000000	96.156482
870.000000	96.468148
869.000000	96.819698
868.000000	97.132056
867.000000	97.376696
866.000000	97.568568
865.000000	97.730336
864.000000	97.868892
863.000000	97.977530
862.000000	98.048583
861.000000	98.083498
860.000000	98.095466
859.000000	98.102830
858.000000	98.117406
857.000000	98.137920
856.000000	98.156561
855.000000	98.169360
854.000000	98.177521
853.000000	98.182616
852.000000	98.185469
851.000000	98.188699
850.000000	98.195644
849.000000	98.207508
848.000000	98.225280
847.000000	98.253240
846.000000	98.295250
845.000000	98.346989
844.000000	98.396392
843.000000	98.433590
842.000000	98.458298
841.000000	98.476351
840.000000	98.492073
839.000000	98.505575
838.000000	98.515204
837.000000	98.520259
836.000000	98.522074
835.000000	98.524153
834.000000	98.531101
833.000000	98.545956
832.000000	98.567401
831.000000	98.589358
830.000000	98.604240
829.000000	98.608681
828.000000	98.607163
827.000000	98.608540
826.000000	98.617283
825.000000	98.628192
824.000000	98.630597
823.000000	98.618637
822.000000	98.597316
821.000000	98.577871
820.000000	98.566725
819.000000	98.558987
818.000000	98.544426
817.000000	98.520699
816.000000	98.498228
815.000000	98.489791
814.000000	98.497746
813.000000	98.514848
812.000000	98.534355
811.000000	98.552976
810.000000	98.566106
809.000000	98.568778
808.000000	98.563510
807.000000	98.560679
806.000000	98.567807
805.000000	98.582497
804.000000	98.597414
803.000000	98.607232
802.000000	98.609411
801.000000	98.604104
800.000000	98.595913
799.000000	98.590596
798.000000	98.587685
797.000000	98.581265
796.000000	98.569389
795.000000	98.556880
794.000000	98.546854
793.000000	98.536537
792.000000	98.524877
791.000000	98.517881
790.000000	98.521604
789.000000	98.533849
788.000000	98.545618
787.000000	98.546858
786.000000	98.530183
785.000000	98.496454
784.000000	98.459094
783.000000	98.435732
782.000000	98.431733
781.000000	98.437311
780.000000	98.442695
779.000000	98.447976
778.000000	98.455143
777.000000	98.460296
776.000000	98.460144
775.000000	98.458224
774.000000	98.457737
773.000000	98.455228
772.000000	98.448303
771.000000	98.442257
770.000000	98.441207
769.000000	98.439224
768.000000	98.429398
767.000000	98.416677
766.000000	98.411867
765.000000	98.416021
764.000000	98.419720
763.000000	98.415656
762.000000	98.403894
761.000000	98.386791
760.000000	98.366803
759.000000	98.348543
758.000000	98.336028
757.000000	98.327536
756.000000	98.318168
755.000000	98.306860
754.000000	98.296467
753.000000	98.288389
752.000000	98.281259
751.000000	98.273519
750.000000	98.263827
749.000000	98.250522
748.000000	98.233550
747.000000	98.214883
746.000000	98.195090
745.000000	98.172883
744.000000	98.150112
743.000000	98.132598
742.000000	98.123022
741.000000	98.117507
740.000000	98.111446
739.000000	98.102812
738.000000	98.087221
737.000000	98.057859
736.000000	98.015745
735.000000	97.973576
734.000000	97.942325
733.000000	97.918277
732.000000	97.888397
731.000000	97.844619
730.000000	97.789065
729.000000	97.730576
728.000000	97.680488
727.000000	97.645830
726.000000	97.621051
725.000000	97.590819
724.000000	97.546115
723.000000	97.493166
722.000000	97.443290
721.000000	97.399405
720.000000	97.355760
719.000000	97.304697
718.000000	97.240219
717.000000	97.160796
716.000000	97.072080
715.000000	96.983002
714.000000	96.899130
713.000000	96.826034
712.000000	96.776756
711.000000	96.762863
710.000000	96.775362
709.000000	96.788631
708.000000	96.788144
707.000000	96.782115
706.000000	96.780212
705.000000	96.776000
704.000000	96.760855
703.000000	96.741580
702.000000	96.730777
701.000000	96.728249
700.000000	96.724032
699.000000	96.712105
698.000000	96.692074
697.000000	96.664333
696.000000	96.632640
695.000000	96.604634
694.000000	96.582728
693.000000	96.562461
692.000000	96.545065
691.000000	96.539919
690.000000	96.546599
689.000000	96.546260
688.000000	96.521736
687.000000	96.477365
686.000000	96.428015
685.000000	96.381775
684.000000	96.343487
683.000000	96.320023
682.000000	96.309138
681.000000	96.295339
680.000000	96.268406
679.000000	96.234799
678.000000	96.200684
677.000000	96.159096
676.000000	96.107949
675.000000	96.063234
674.000000	96.040453
673.000000	96.036349
672.000000	96.041353
671.000000	96.054391
670.000000	96.068505
669.000000	96.051368
668.000000	95.977473
667.000000	95.884110
666.000000	95.830739
665.000000	95.817901
664.000000	95.811383
663.000000	95.791587
662.000000	95.758805
661.000000	95.721477
660.000000	95.687736
659.000000	95.663779
658.000000	95.647151
657.000000	95.627040
656.000000	95.602356
655.000000	95.588210
654.000000	95.592841
653.000000	95.601597
652.000000	95.597786
651.000000	95.584816
650.000000	95.574549
649.000000	95.567074
648.000000	95.558078
647.000000	95.551686
646.000000	95.549148
645.000000	95.538075
644.000000	95.511571
643.000000	95.485137
642.000000	95.476605
641.000000	95.480910
640.000000	95.482779
639.000000	95.482428
638.000000	95.486507
637.000000	95.485470
636.000000	95.463715
635.000000	95.427444
634.000000	95.399602
633.000000	95.388149
632.000000	95.379672
631.000000	95.363495
630.000000	95.344680
629.000000	95.333679
628.000000	95.337139
627.000000	95.356472
626.000000	95.383281
625.000000	95.400556
624.000000	95.400227
623.000000	95.390872
622.000000	95.379533
621.000000	95.358536
620.000000	95.324132
619.000000	95.295209
618.000000	95.294154
617.000000	95.314742
616.000000	95.328390
615.000000	95.320337
614.000000	95.300455
613.000000	95.282757
612.000000	95.271297
611.000000	95.262923
610.000000	95.248730
609.000000	95.217248
608.000000	95.170321
607.000000	95.131566
606.000000	95.124801
605.000000	95.146766
604.000000	95.172910
603.000000	95.184708
602.000000	95.183101
601.000000	95.182487
600.000000	95.201066
599.000000	95.246205
598.000000	95.301888
597.000000	95.342629
596.000000	95.365200
595.000000	95.390725
594.000000	95.429255
593.000000	95.460094
592.000000	95.461434
591.000000	95.442699
590.000000	95.427650
589.000000	95.421545
588.000000	95.416269
587.000000	95.412043
586.000000	95.413485
585.000000	95.415681
584.000000	95.411172
583.000000	95.399865
582.000000	95.378529
581.000000	95.337681
580.000000	95.285518
579.000000	95.253314
578.000000	95.255209
577.000000	95.261374
576.000000	95.233365
575.000000	95.172390
574.000000	95.107218
573.000000	95.047042
572.000000	94.980711
571.000000	94.908883
570.000000	94.845712
569.000000	94.796842
568.000000	94.760008
567.000000	94.738210
566.000000	94.729022
565.000000	94.713839
564.000000	94.682657
563.000000	94.654326
562.000000	94.650000
561.000000	94.660447
560.000000	94.663334
559.000000	94.656889
558.000000	94.649589
557.000000	94.635236
556.000000	94.609835
555.000000	94.598617
554.000000	94.631994
553.000000	94.704153
552.000000	94.786433
551.000000	94.867328
550.000000	94.949753
549.000000	95.022935
548.000000	95.069593
547.000000	95.095128
546.000000	95.123137
545.000000	95.162448
544.000000	95.198211
543.000000	95.209587
542.000000	95.182653
541.000000	95.119412
540.000000	95.046527
539.000000	94.997169
538.000000	94.970030
537.000000	94.926991
536.000000	94.848832
535.000000	94.766329
534.000000	94.711744
533.000000	94.667501
532.000000	94.598533
531.000000	94.508702
530.000000	94.429358
529.000000	94.377008
528.000000	94.359724
527.000000	94.398524
526.000000	94.498882
525.000000	94.620257
524.000000	94.724930
523.000000	94.826266
522.000000	94.943519
521.000000	95.050132
520.000000	95.108197
519.000000	95.129634
518.000000	95.162264
517.000000	95.226586
516.000000	95.313835
515.000000	95.424232
514.000000	95.550304
513.000000	95.650416
512.000000	95.690310
511.000000	95.697516
510.000000	95.730272
509.000000	95.800332
508.000000	95.870665
507.000000	95.917579
506.000000	95.951287
505.000000	95.980563
504.000000	96.000841
503.000000	96.015939
502.000000	96.035195
501.000000	96.050582
500.000000	96.052868
499.000000	96.062412
498.000000	96.108498
497.000000	96.188665
496.000000	96.274024
495.000000	96.341844
494.000000	96.377006
493.000000	96.364469
492.000000	96.317041
491.000000	96.289680
490.000000	96.326715
489.000000	96.409967
488.000000	96.492162
487.000000	96.555285
486.000000	96.608029
485.000000	96.652285
484.000000	96.685520
483.000000	96.721148
482.000000	96.770724
481.000000	96.819911
480.000000	96.847289
479.000000	96.849385
478.000000	96.832516
477.000000	96.809181
476.000000	96.819223
475.000000	96.917514
474.000000	97.106755
473.000000	97.301919
472.000000	97.414170
471.000000	97.459102
470.000000	97.502942
469.000000	97.549406
468.000000	97.569206
467.000000	97.575392
466.000000	97.601575
465.000000	97.638626
464.000000	97.665211
463.000000	97.704489
462.000000	97.785188
461.000000	97.879109
460.000000	97.942861
459.000000	97.993981
458.000000	98.078818
457.000000	98.180805
456.000000	98.257464
455.000000	98.333998
454.000000	98.441226
453.000000	98.530422
452.000000	98.538631
451.000000	98.518373
450.000000	98.587158
