PE IR       SUBTECH     SPECTRUM    ASCII       PEDS        4.00        
   -1
Agneau_UK-1-C001_1.ASC
23/09/13
10:24:49.00
23/09/13
11:33:37.00
uco
Sample 001 By uco Date Wednesday, September 13 2023
450.000000
#HDR
-1
-1
#GR
cm-1
%T
1.0
0.0
4000.000000
-1.000000
3551
8
99.899042
95.644824
#DATA
4000.000000	99.769910
3999.000000	99.773203
3998.000000	99.775458
3997.000000	99.774172
3996.000000	99.769330
3995.000000	99.763338
3994.000000	99.759205
3993.000000	99.759259
3992.000000	99.764152
3991.000000	99.772526
3990.000000	99.781353
3989.000000	99.787203
3988.000000	99.787675
3987.000000	99.782366
3986.000000	99.772978
3985.000000	99.762427
3984.000000	99.753541
3983.000000	99.748016
3982.000000	99.746214
3981.000000	99.747590
3980.000000	99.751241
3979.000000	99.756291
3978.000000	99.761861
3977.000000	99.766801
3976.000000	99.769558
3975.000000	99.768714
3974.000000	99.764167
3973.000000	99.757777
3972.000000	99.752436
3971.000000	99.750061
3970.000000	99.750373
3969.000000	99.751367
3968.000000	99.750881
3967.000000	99.748182
3966.000000	99.744509
3965.000000	99.742299
3964.000000	99.743543
3963.000000	99.748516
3962.000000	99.755727
3961.000000	99.762893
3960.000000	99.768143
3959.000000	99.770244
3958.000000	99.768687
3957.000000	99.764022
3956.000000	99.757581
3955.000000	99.750767
3954.000000	99.744513
3953.000000	99.739465
3952.000000	99.736416
3951.000000	99.736274
3950.000000	99.739591
3949.000000	99.745361
3948.000000	99.750569
3947.000000	99.751813
3946.000000	99.747478
3945.000000	99.738842
3944.000000	99.729620
3943.000000	99.724010
3942.000000	99.723860
3941.000000	99.727089
3940.000000	99.729655
3939.000000	99.729142
3938.000000	99.726755
3937.000000	99.725864
3936.000000	99.728079
3935.000000	99.731422
3934.000000	99.732618
3933.000000	99.730808
3932.000000	99.728729
3931.000000	99.729510
3930.000000	99.733077
3929.000000	99.736239
3928.000000	99.735990
3927.000000	99.732578
3926.000000	99.729025
3925.000000	99.728427
3924.000000	99.731766
3923.000000	99.737887
3922.000000	99.744839
3921.000000	99.751040
3920.000000	99.755737
3919.000000	99.758810
3918.000000	99.759684
3917.000000	99.757270
3916.000000	99.751520
3915.000000	99.744217
3914.000000	99.737943
3913.000000	99.734357
3912.000000	99.733466
3911.000000	99.733249
3910.000000	99.730918
3909.000000	99.725005
3908.000000	99.716647
3907.000000	99.709469
3906.000000	99.708059
3905.000000	99.715365
3904.000000	99.729995
3903.000000	99.746445
3902.000000	99.759453
3901.000000	99.766772
3900.000000	99.767932
3899.000000	99.764336
3898.000000	99.758874
3897.000000	99.753539
3896.000000	99.748254
3895.000000	99.742381
3894.000000	99.737296
3893.000000	99.735895
3892.000000	99.738278
3891.000000	99.739613
3890.000000	99.736865
3889.000000	99.733037
3888.000000	99.732591
3887.000000	99.736093
3886.000000	99.739806
3885.000000	99.739920
3884.000000	99.736829
3883.000000	99.733815
3882.000000	99.732848
3881.000000	99.732833
3880.000000	99.730104
3879.000000	99.722451
3878.000000	99.712221
3877.000000	99.703668
3876.000000	99.699104
3875.000000	99.698327
3874.000000	99.700305
3873.000000	99.704914
3872.000000	99.712285
3871.000000	99.719595
3870.000000	99.721780
3869.000000	99.718491
3868.000000	99.715584
3867.000000	99.716646
3866.000000	99.718862
3865.000000	99.719220
3864.000000	99.720058
3863.000000	99.725589
3862.000000	99.735535
3861.000000	99.744740
3860.000000	99.747421
3859.000000	99.741221
3858.000000	99.728326
3857.000000	99.713866
3856.000000	99.703563
3855.000000	99.700954
3854.000000	99.709071
3853.000000	99.722988
3852.000000	99.732734
3851.000000	99.737876
3850.000000	99.741035
3849.000000	99.740957
3848.000000	99.736687
3847.000000	99.728976
3846.000000	99.719633
3845.000000	99.710675
3844.000000	99.703273
3843.000000	99.697753
3842.000000	99.695249
3841.000000	99.696990
3840.000000	99.702093
3839.000000	99.707308
3838.000000	99.710171
3837.000000	99.711704
3836.000000	99.713894
3835.000000	99.716521
3834.000000	99.718114
3833.000000	99.717377
3832.000000	99.713395
3831.000000	99.707095
3830.000000	99.701928
3829.000000	99.702429
3828.000000	99.710218
3827.000000	99.721161
3826.000000	99.728336
3825.000000	99.728166
3824.000000	99.721889
3823.000000	99.711672
3822.000000	99.701370
3821.000000	99.696464
3820.000000	99.698746
3819.000000	99.706706
3818.000000	99.718495
3817.000000	99.730361
3816.000000	99.737047
3815.000000	99.738152
3814.000000	99.739005
3813.000000	99.742949
3812.000000	99.747841
3811.000000	99.750170
3810.000000	99.749322
3809.000000	99.746364
3808.000000	99.740434
3807.000000	99.729361
3806.000000	99.715305
3805.000000	99.705157
3804.000000	99.703974
3803.000000	99.710180
3802.000000	99.717792
3801.000000	99.722096
3800.000000	99.725427
3799.000000	99.731753
3798.000000	99.740146
3797.000000	99.746011
3796.000000	99.746613
3795.000000	99.743959
3794.000000	99.741806
3793.000000	99.741761
3792.000000	99.742919
3791.000000	99.744212
3790.000000	99.745503
3789.000000	99.746542
3788.000000	99.746000
3787.000000	99.742966
3786.000000	99.738697
3785.000000	99.735828
3784.000000	99.735653
3783.000000	99.737115
3782.000000	99.738463
3781.000000	99.739239
3780.000000	99.740404
3779.000000	99.742331
3778.000000	99.744252
3777.000000	99.745607
3776.000000	99.746288
3775.000000	99.746381
3774.000000	99.747512
3773.000000	99.752260
3772.000000	99.760404
3771.000000	99.767011
3770.000000	99.766867
3769.000000	99.760842
3768.000000	99.754289
3767.000000	99.750245
3766.000000	99.747155
3765.000000	99.743098
3764.000000	99.739954
3763.000000	99.741380
3762.000000	99.747855
3761.000000	99.755499
3760.000000	99.759313
3759.000000	99.756535
3758.000000	99.749227
3757.000000	99.743279
3756.000000	99.743210
3755.000000	99.748021
3754.000000	99.752763
3753.000000	99.753616
3752.000000	99.752511
3751.000000	99.753915
3750.000000	99.756183
3749.000000	99.755149
3748.000000	99.751898
3747.000000	99.750122
3746.000000	99.749246
3745.000000	99.743622
3744.000000	99.732649
3743.000000	99.727163
3742.000000	99.734736
3741.000000	99.750177
3740.000000	99.762846
3739.000000	99.766380
3738.000000	99.761103
3737.000000	99.751671
3736.000000	99.743401
3735.000000	99.739902
3734.000000	99.743511
3733.000000	99.753113
3732.000000	99.762759
3731.000000	99.767793
3730.000000	99.769158
3729.000000	99.769678
3728.000000	99.768407
3727.000000	99.761264
3726.000000	99.747125
3725.000000	99.731727
3724.000000	99.722897
3723.000000	99.724256
3722.000000	99.733895
3721.000000	99.746063
3720.000000	99.755196
3719.000000	99.758790
3718.000000	99.758023
3717.000000	99.756223
3716.000000	99.756262
3715.000000	99.757724
3714.000000	99.756264
3713.000000	99.748261
3712.000000	99.737099
3711.000000	99.731345
3710.000000	99.735224
3709.000000	99.745872
3708.000000	99.757200
3707.000000	99.764526
3706.000000	99.767259
3705.000000	99.767586
3704.000000	99.768443
3703.000000	99.771656
3702.000000	99.776760
3701.000000	99.780881
3700.000000	99.781516
3699.000000	99.778697
3698.000000	99.773433
3697.000000	99.765969
3696.000000	99.756544
3695.000000	99.746029
3694.000000	99.735196
3693.000000	99.725051
3692.000000	99.718454
3691.000000	99.720444
3690.000000	99.732854
3689.000000	99.747389
3688.000000	99.752297
3687.000000	99.746825
3686.000000	99.739001
3685.000000	99.734367
3684.000000	99.733020
3683.000000	99.732369
3682.000000	99.730321
3681.000000	99.724979
3680.000000	99.714165
3679.000000	99.698648
3678.000000	99.684920
3677.000000	99.681190
3676.000000	99.689144
3675.000000	99.698632
3674.000000	99.701860
3673.000000	99.702347
3672.000000	99.702959
3671.000000	99.699756
3670.000000	99.691532
3669.000000	99.686222
3668.000000	99.691446
3667.000000	99.704882
3666.000000	99.719552
3665.000000	99.730715
3664.000000	99.737132
3663.000000	99.738562
3662.000000	99.734633
3661.000000	99.725888
3660.000000	99.714645
3659.000000	99.704525
3658.000000	99.698736
3657.000000	99.697525
3656.000000	99.696339
3655.000000	99.690202
3654.000000	99.679895
3653.000000	99.670067
3652.000000	99.664988
3651.000000	99.668156
3650.000000	99.679306
3649.000000	99.687362
3648.000000	99.682246
3647.000000	99.670119
3646.000000	99.661796
3645.000000	99.661180
3644.000000	99.666791
3643.000000	99.674900
3642.000000	99.681951
3641.000000	99.686062
3640.000000	99.686350
3639.000000	99.681881
3638.000000	99.673089
3637.000000	99.662825
3636.000000	99.654681
3635.000000	99.650573
3634.000000	99.651058
3633.000000	99.656473
3632.000000	99.666028
3631.000000	99.676258
3630.000000	99.682370
3629.000000	99.681976
3628.000000	99.676894
3627.000000	99.672287
3626.000000	99.670017
3625.000000	99.667246
3624.000000	99.660540
3623.000000	99.650064
3622.000000	99.639482
3621.000000	99.632402
3620.000000	99.628560
3619.000000	99.623856
3618.000000	99.615993
3617.000000	99.608450
3616.000000	99.605018
3615.000000	99.604835
3614.000000	99.604918
3613.000000	99.604778
3612.000000	99.606944
3611.000000	99.611943
3610.000000	99.614869
3609.000000	99.609286
3608.000000	99.595124
3607.000000	99.580680
3606.000000	99.574904
3605.000000	99.579148
3604.000000	99.587326
3603.000000	99.592240
3602.000000	99.590931
3601.000000	99.585402
3600.000000	99.579712
3599.000000	99.576480
3598.000000	99.575166
3597.000000	99.573206
3596.000000	99.567567
3595.000000	99.557080
3594.000000	99.544827
3593.000000	99.535744
3592.000000	99.530999
3591.000000	99.527249
3590.000000	99.521208
3589.000000	99.513541
3588.000000	99.507148
3587.000000	99.502016
3586.000000	99.497249
3585.000000	99.493254
3584.000000	99.489215
3583.000000	99.483428
3582.000000	99.476441
3581.000000	99.471007
3580.000000	99.468499
3579.000000	99.466356
3578.000000	99.460832
3577.000000	99.451635
3576.000000	99.442179
3575.000000	99.435717
3574.000000	99.432269
3573.000000	99.429271
3572.000000	99.423609
3571.000000	99.413769
3570.000000	99.400818
3569.000000	99.388063
3568.000000	99.378495
3567.000000	99.372442
3566.000000	99.370331
3565.000000	99.374922
3564.000000	99.384740
3563.000000	99.393132
3562.000000	99.395006
3561.000000	99.391067
3560.000000	99.385458
3559.000000	99.380966
3558.000000	99.377111
3557.000000	99.372345
3556.000000	99.366526
3555.000000	99.361381
3554.000000	99.358896
3553.000000	99.358899
3552.000000	99.358100
3551.000000	99.353014
3550.000000	99.343831
3549.000000	99.334168
3548.000000	99.327918
3547.000000	99.326540
3546.000000	99.328506
3545.000000	99.331123
3544.000000	99.332713
3543.000000	99.332654
3542.000000	99.330552
3541.000000	99.325270
3540.000000	99.315133
3539.000000	99.300267
3538.000000	99.284378
3537.000000	99.272522
3536.000000	99.266009
3535.000000	99.261576
3534.000000	99.256197
3533.000000	99.250355
3532.000000	99.246098
3531.000000	99.243958
3530.000000	99.242551
3529.000000	99.239752
3528.000000	99.233603
3527.000000	99.223786
3526.000000	99.213052
3525.000000	99.205344
3524.000000	99.202044
3523.000000	99.201498
3522.000000	99.202275
3521.000000	99.204412
3520.000000	99.206829
3519.000000	99.206453
3518.000000	99.201324
3517.000000	99.192917
3516.000000	99.183825
3515.000000	99.174635
3514.000000	99.165024
3513.000000	99.156387
3512.000000	99.151514
3511.000000	99.152230
3510.000000	99.157898
3509.000000	99.165364
3508.000000	99.170122
3507.000000	99.169252
3506.000000	99.164166
3505.000000	99.159643
3504.000000	99.158654
3503.000000	99.158849
3502.000000	99.155992
3501.000000	99.149186
3500.000000	99.140364
3499.000000	99.130937
3498.000000	99.121617
3497.000000	99.113886
3496.000000	99.109499
3495.000000	99.108550
3494.000000	99.109268
3493.000000	99.109470
3492.000000	99.107676
3491.000000	99.104021
3490.000000	99.100705
3489.000000	99.099863
3488.000000	99.100076
3487.000000	99.096923
3486.000000	99.088489
3485.000000	99.078611
3484.000000	99.073047
3483.000000	99.073546
3482.000000	99.076734
3481.000000	99.077998
3480.000000	99.075012
3479.000000	99.068231
3478.000000	99.059968
3477.000000	99.053307
3476.000000	99.050592
3475.000000	99.052200
3474.000000	99.056627
3473.000000	99.061113
3472.000000	99.062156
3471.000000	99.057342
3470.000000	99.048210
3469.000000	99.040114
3468.000000	99.037716
3467.000000	99.040827
3466.000000	99.044982
3465.000000	99.045111
3464.000000	99.038182
3463.000000	99.024485
3462.000000	99.008207
3461.000000	98.995414
3460.000000	98.989357
3459.000000	98.988005
3458.000000	98.987011
3457.000000	98.984245
3456.000000	98.980539
3455.000000	98.977612
3454.000000	98.976608
3453.000000	98.977475
3452.000000	98.978417
3451.000000	98.976731
3450.000000	98.971799
3449.000000	98.966469
3448.000000	98.964057
3447.000000	98.964402
3446.000000	98.964437
3445.000000	98.961924
3444.000000	98.956758
3443.000000	98.949814
3442.000000	98.942704
3441.000000	98.937900
3440.000000	98.936701
3439.000000	98.937201
3438.000000	98.935988
3437.000000	98.932044
3436.000000	98.927459
3435.000000	98.924344
3434.000000	98.922313
3433.000000	98.919326
3432.000000	98.914309
3431.000000	98.908494
3430.000000	98.904840
3429.000000	98.905740
3428.000000	98.910421
3427.000000	98.914788
3426.000000	98.914555
3425.000000	98.908817
3424.000000	98.900282
3423.000000	98.892362
3422.000000	98.886345
3421.000000	98.880747
3420.000000	98.872956
3419.000000	98.862121
3418.000000	98.850942
3417.000000	98.843980
3416.000000	98.843674
3415.000000	98.848006
3414.000000	98.852191
3413.000000	98.852365
3412.000000	98.847737
3411.000000	98.840340
3410.000000	98.833333
3409.000000	98.828552
3408.000000	98.824875
3407.000000	98.819713
3406.000000	98.812527
3405.000000	98.805840
3404.000000	98.801972
3403.000000	98.799875
3402.000000	98.796556
3401.000000	98.790811
3400.000000	98.784313
3399.000000	98.779251
3398.000000	98.775925
3397.000000	98.772582
3396.000000	98.767058
3395.000000	98.758761
3394.000000	98.749584
3393.000000	98.742577
3392.000000	98.739125
3391.000000	98.737519
3390.000000	98.734502
3389.000000	98.728156
3388.000000	98.719646
3387.000000	98.712766
3386.000000	98.711244
3385.000000	98.715139
3384.000000	98.719876
3383.000000	98.720131
3382.000000	98.714824
3381.000000	98.707263
3380.000000	98.700645
3379.000000	98.694773
3378.000000	98.687376
3377.000000	98.677062
3376.000000	98.664550
3375.000000	98.652264
3374.000000	98.643062
3373.000000	98.638033
3372.000000	98.634901
3371.000000	98.629654
3370.000000	98.620246
3369.000000	98.607795
3368.000000	98.594306
3367.000000	98.581033
3366.000000	98.569501
3365.000000	98.561868
3364.000000	98.558665
3363.000000	98.557366
3362.000000	98.554455
3361.000000	98.548218
3360.000000	98.538934
3359.000000	98.527717
3358.000000	98.516218
3357.000000	98.506346
3356.000000	98.498776
3355.000000	98.492001
3354.000000	98.483835
3353.000000	98.473602
3352.000000	98.462264
3351.000000	98.450813
3350.000000	98.439166
3349.000000	98.426425
3348.000000	98.412219
3347.000000	98.398045
3346.000000	98.386657
3345.000000	98.379040
3344.000000	98.372282
3343.000000	98.362033
3342.000000	98.347406
3341.000000	98.332000
3340.000000	98.319889
3339.000000	98.312087
3338.000000	98.307012
3337.000000	98.302525
3336.000000	98.296872
3335.000000	98.289216
3334.000000	98.280205
3333.000000	98.271037
3332.000000	98.261511
3331.000000	98.250374
3330.000000	98.237758
3329.000000	98.225565
3328.000000	98.214988
3327.000000	98.205503
3326.000000	98.196907
3325.000000	98.190236
3324.000000	98.185429
3323.000000	98.179957
3322.000000	98.171552
3321.000000	98.160775
3320.000000	98.149421
3319.000000	98.137931
3318.000000	98.126076
3317.000000	98.115044
3316.000000	98.106889
3315.000000	98.102360
3314.000000	98.100845
3313.000000	98.101924
3312.000000	98.105228
3311.000000	98.109068
3310.000000	98.110744
3309.000000	98.108645
3308.000000	98.103443
3307.000000	98.097225
3306.000000	98.091880
3305.000000	98.087966
3304.000000	98.084398
3303.000000	98.079380
3302.000000	98.072136
3301.000000	98.063679
3300.000000	98.055772
3299.000000	98.049565
3298.000000	98.045222
3297.000000	98.041957
3296.000000	98.038327
3295.000000	98.033351
3294.000000	98.027673
3293.000000	98.023077
3292.000000	98.020829
3291.000000	98.021220
3290.000000	98.024277
3289.000000	98.029460
3288.000000	98.034660
3287.000000	98.037231
3286.000000	98.036629
3285.000000	98.034829
3284.000000	98.033859
3283.000000	98.034037
3282.000000	98.034637
3281.000000	98.034778
3280.000000	98.033311
3279.000000	98.029736
3278.000000	98.025926
3277.000000	98.025408
3276.000000	98.030025
3275.000000	98.038273
3274.000000	98.047144
3273.000000	98.053989
3272.000000	98.056714
3271.000000	98.054695
3270.000000	98.050571
3269.000000	98.048830
3268.000000	98.051155
3267.000000	98.054721
3266.000000	98.056264
3265.000000	98.056226
3264.000000	98.057320
3263.000000	98.060712
3262.000000	98.065593
3261.000000	98.071338
3260.000000	98.077909
3259.000000	98.084390
3258.000000	98.088837
3257.000000	98.089994
3256.000000	98.088617
3255.000000	98.087363
3254.000000	98.089343
3253.000000	98.095942
3252.000000	98.105735
3251.000000	98.116120
3250.000000	98.125965
3249.000000	98.135391
3248.000000	98.143220
3247.000000	98.146912
3246.000000	98.145740
3245.000000	98.142263
3244.000000	98.139565
3243.000000	98.138543
3242.000000	98.138864
3241.000000	98.140662
3240.000000	98.143782
3239.000000	98.146857
3238.000000	98.148740
3237.000000	98.149985
3236.000000	98.151897
3235.000000	98.155240
3234.000000	98.160588
3233.000000	98.168127
3232.000000	98.175912
3231.000000	98.180099
3230.000000	98.179021
3229.000000	98.175958
3228.000000	98.176050
3227.000000	98.180980
3226.000000	98.188104
3225.000000	98.193977
3224.000000	98.197188
3223.000000	98.198300
3222.000000	98.198523
3221.000000	98.198535
3220.000000	98.197863
3219.000000	98.195717
3218.000000	98.192828
3217.000000	98.191610
3216.000000	98.193989
3215.000000	98.199919
3214.000000	98.208379
3213.000000	98.218366
3212.000000	98.228035
3211.000000	98.234470
3210.000000	98.235969
3209.000000	98.233882
3208.000000	98.230952
3207.000000	98.228670
3206.000000	98.227413
3205.000000	98.228209
3204.000000	98.232625
3203.000000	98.241044
3202.000000	98.252082
3201.000000	98.263409
3200.000000	98.272468
3199.000000	98.277290
3198.000000	98.277807
3197.000000	98.276192
3196.000000	98.275208
3195.000000	98.276420
3194.000000	98.280115
3193.000000	98.285662
3192.000000	98.291301
3191.000000	98.294944
3190.000000	98.296359
3189.000000	98.297802
3188.000000	98.301658
3187.000000	98.308390
3186.000000	98.317374
3185.000000	98.328184
3184.000000	98.339745
3183.000000	98.349689
3182.000000	98.356405
3181.000000	98.360947
3180.000000	98.365320
3179.000000	98.369538
3178.000000	98.372050
3177.000000	98.372684
3176.000000	98.373337
3175.000000	98.375756
3174.000000	98.379939
3173.000000	98.384743
3172.000000	98.388780
3171.000000	98.390916
3170.000000	98.391171
3169.000000	98.391333
3168.000000	98.393660
3167.000000	98.398735
3166.000000	98.405405
3165.000000	98.412853
3164.000000	98.421792
3163.000000	98.433228
3162.000000	98.446441
3161.000000	98.458599
3160.000000	98.466527
3159.000000	98.469307
3158.000000	98.469280
3157.000000	98.469939
3156.000000	98.472598
3155.000000	98.475832
3154.000000	98.478404
3153.000000	98.481518
3152.000000	98.487197
3151.000000	98.495297
3150.000000	98.503311
3149.000000	98.508888
3148.000000	98.511723
3147.000000	98.513496
3146.000000	98.516812
3145.000000	98.523661
3144.000000	98.533681
3143.000000	98.543850
3142.000000	98.550618
3141.000000	98.552622
3140.000000	98.551427
3139.000000	98.550132
3138.000000	98.551373
3137.000000	98.555637
3136.000000	98.560779
3135.000000	98.563713
3134.000000	98.563289
3133.000000	98.561091
3132.000000	98.559279
3131.000000	98.558739
3130.000000	98.559978
3129.000000	98.564212
3128.000000	98.571989
3127.000000	98.581435
3126.000000	98.589600
3125.000000	98.595283
3124.000000	98.599129
3123.000000	98.601333
3122.000000	98.600932
3121.000000	98.597553
3120.000000	98.592353
3119.000000	98.586747
3118.000000	98.581254
3117.000000	98.576139
3116.000000	98.572327
3115.000000	98.571175
3114.000000	98.573511
3113.000000	98.578800
3112.000000	98.584770
3111.000000	98.588061
3110.000000	98.586249
3109.000000	98.579530
3108.000000	98.570193
3107.000000	98.560699
3106.000000	98.552848
3105.000000	98.548088
3104.000000	98.547188
3103.000000	98.549199
3102.000000	98.551705
3101.000000	98.552659
3100.000000	98.551614
3099.000000	98.549283
3098.000000	98.546680
3097.000000	98.544649
3096.000000	98.543220
3095.000000	98.541067
3094.000000	98.536539
3093.000000	98.529598
3092.000000	98.522014
3091.000000	98.515291
3090.000000	98.509123
3089.000000	98.502473
3088.000000	98.495773
3087.000000	98.491331
3086.000000	98.491502
3085.000000	98.496496
3084.000000	98.503581
3083.000000	98.508424
3082.000000	98.507928
3081.000000	98.502585
3080.000000	98.495906
3079.000000	98.491136
3078.000000	98.488576
3077.000000	98.486426
3076.000000	98.483754
3075.000000	98.481796
3074.000000	98.482317
3073.000000	98.485487
3072.000000	98.489916
3071.000000	98.494082
3070.000000	98.496913
3069.000000	98.497184
3068.000000	98.493562
3067.000000	98.486079
3066.000000	98.477137
3065.000000	98.470269
3064.000000	98.467803
3063.000000	98.469989
3062.000000	98.476002
3061.000000	98.484966
3060.000000	98.495829
3059.000000	98.506959
3058.000000	98.516456
3057.000000	98.522960
3056.000000	98.526284
3055.000000	98.527550
3054.000000	98.528735
3053.000000	98.531602
3052.000000	98.536665
3051.000000	98.543096
3050.000000	98.549657
3049.000000	98.555819
3048.000000	98.561999
3047.000000	98.568658
3046.000000	98.575091
3045.000000	98.579357
3044.000000	98.580026
3043.000000	98.578197
3042.000000	98.577306
3041.000000	98.580463
3040.000000	98.588154
3039.000000	98.598500
3038.000000	98.608933
3037.000000	98.617404
3036.000000	98.623089
3035.000000	98.627140
3034.000000	98.632210
3033.000000	98.639954
3032.000000	98.648996
3031.000000	98.656162
3030.000000	98.659694
3029.000000	98.660582
3028.000000	98.661121
3027.000000	98.663040
3026.000000	98.666716
3025.000000	98.671021
3024.000000	98.673886
3023.000000	98.674105
3022.000000	98.672798
3021.000000	98.672449
3020.000000	98.674338
3019.000000	98.677476
3018.000000	98.679964
3017.000000	98.680612
3016.000000	98.679301
3015.000000	98.676812
3014.000000	98.674537
3013.000000	98.673404
3012.000000	98.672671
3011.000000	98.670407
3010.000000	98.665470
3009.000000	98.658649
3008.000000	98.652100
3007.000000	98.648358
3006.000000	98.649395
3005.000000	98.655049
3004.000000	98.661893
3003.000000	98.665008
3002.000000	98.661898
3001.000000	98.654578
3000.000000	98.647679
2999.000000	98.645077
2998.000000	98.647881
2997.000000	98.654163
2996.000000	98.659675
2995.000000	98.659938
2994.000000	98.653087
2993.000000	98.641035
2992.000000	98.627618
2991.000000	98.615564
2990.000000	98.605004
2989.000000	98.594072
2988.000000	98.580784
2987.000000	98.565009
2986.000000	98.548863
2985.000000	98.534736
2984.000000	98.523015
2983.000000	98.512445
2982.000000	98.502375
2981.000000	98.493234
2980.000000	98.484493
2979.000000	98.473690
2978.000000	98.458580
2977.000000	98.439415
2976.000000	98.418104
2975.000000	98.395763
2974.000000	98.372133
2973.000000	98.347017
2972.000000	98.321183
2971.000000	98.295459
2970.000000	98.269215
2969.000000	98.239899
2968.000000	98.204670
2967.000000	98.163440
2966.000000	98.120420
2965.000000	98.081451
2964.000000	98.048776
2963.000000	98.019105
2962.000000	97.987474
2961.000000	97.952586
2960.000000	97.917561
2959.000000	97.886158
2958.000000	97.859902
2957.000000	97.839038
2956.000000	97.824934
2955.000000	97.819856
2954.000000	97.824079
2953.000000	97.834003
2952.000000	97.843871
2951.000000	97.849764
2950.000000	97.851327
2949.000000	97.849706
2948.000000	97.844484
2947.000000	97.833460
2946.000000	97.814865
2945.000000	97.788421
2944.000000	97.754290
2943.000000	97.712001
2942.000000	97.661176
2941.000000	97.602624
2940.000000	97.538309
2939.000000	97.470383
2938.000000	97.400023
2937.000000	97.326750
2936.000000	97.248788
2935.000000	97.164820
2934.000000	97.075424
2933.000000	96.982349
2932.000000	96.886936
2931.000000	96.790322
2930.000000	96.694883
2929.000000	96.603494
2928.000000	96.516919
2927.000000	96.433668
2926.000000	96.353582
2925.000000	96.280435
2924.000000	96.219478
2923.000000	96.173444
2922.000000	96.142156
2921.000000	96.125426
2920.000000	96.125167
2919.000000	96.144815
2918.000000	96.188157
2917.000000	96.258350
2916.000000	96.356342
2915.000000	96.479039
2914.000000	96.618644
2913.000000	96.764360
2912.000000	96.905545
2911.000000	97.035141
2910.000000	97.150866
2909.000000	97.253190
2908.000000	97.342340
2907.000000	97.417778
2906.000000	97.480570
2905.000000	97.534607
2904.000000	97.584277
2903.000000	97.631339
2902.000000	97.674159
2901.000000	97.710647
2900.000000	97.740757
2899.000000	97.767092
2898.000000	97.793932
2897.000000	97.824973
2896.000000	97.861062
2895.000000	97.899715
2894.000000	97.937287
2893.000000	97.971571
2892.000000	98.002204
2891.000000	98.029361
2890.000000	98.053261
2889.000000	98.075050
2888.000000	98.096997
2887.000000	98.120807
2886.000000	98.145772
2885.000000	98.168912
2884.000000	98.187110
2883.000000	98.199245
2882.000000	98.206608
2881.000000	98.211533
2880.000000	98.215415
2879.000000	98.217704
2878.000000	98.216573
2877.000000	98.210557
2876.000000	98.199834
2875.000000	98.186281
2874.000000	98.172547
2873.000000	98.160767
2872.000000	98.151783
2871.000000	98.145323
2870.000000	98.140761
2869.000000	98.137495
2868.000000	98.134458
2867.000000	98.129317
2866.000000	98.118289
2865.000000	98.097178
2864.000000	98.063206
2863.000000	98.016581
2862.000000	97.960296
2861.000000	97.897825
2860.000000	97.830554
2859.000000	97.757275
2858.000000	97.676107
2857.000000	97.587137
2856.000000	97.493862
2855.000000	97.402760
2854.000000	97.321817
2853.000000	97.258510
2852.000000	97.218770
2851.000000	97.207994
2850.000000	97.232135
2849.000000	97.296416
2848.000000	97.401334
2847.000000	97.539444
2846.000000	97.696112
2845.000000	97.853987
2844.000000	97.998178
2843.000000	98.120415
2842.000000	98.220392
2841.000000	98.303181
2840.000000	98.374420
2839.000000	98.436606
2838.000000	98.489308
2837.000000	98.531912
2836.000000	98.565469
2835.000000	98.592330
2834.000000	98.615065
2833.000000	98.635781
2832.000000	98.655657
2831.000000	98.674560
2830.000000	98.691384
2829.000000	98.705462
2828.000000	98.717645
2827.000000	98.729753
2826.000000	98.742988
2825.000000	98.757099
2824.000000	98.770972
2823.000000	98.783468
2822.000000	98.793679
2821.000000	98.801261
2820.000000	98.807338
2819.000000	98.814657
2818.000000	98.825486
2817.000000	98.838796
2816.000000	98.850373
2815.000000	98.856615
2814.000000	98.858040
2813.000000	98.858305
2812.000000	98.860200
2811.000000	98.863460
2810.000000	98.866299
2809.000000	98.867890
2808.000000	98.868885
2807.000000	98.870414
2806.000000	98.873350
2805.000000	98.878020
2804.000000	98.883941
2803.000000	98.890065
2802.000000	98.895829
2801.000000	98.901753
2800.000000	98.908487
2799.000000	98.915442
2798.000000	98.921026
2797.000000	98.924322
2796.000000	98.926084
2795.000000	98.927889
2794.000000	98.930627
2793.000000	98.934088
2792.000000	98.937756
2791.000000	98.941594
2790.000000	98.945851
2789.000000	98.950289
2788.000000	98.954140
2787.000000	98.957098
2786.000000	98.959991
2785.000000	98.963796
2784.000000	98.968025
2783.000000	98.970894
2782.000000	98.971545
2781.000000	98.971574
2780.000000	98.973553
2779.000000	98.978106
2778.000000	98.983152
2777.000000	98.986271
2776.000000	98.987338
2775.000000	98.988426
2774.000000	98.991402
2773.000000	98.996139
2772.000000	99.001075
2771.000000	99.004951
2770.000000	99.007574
2769.000000	99.009229
2768.000000	99.010195
2767.000000	99.011122
2766.000000	99.013282
2765.000000	99.017712
2764.000000	99.024170
2763.000000	99.031338
2762.000000	99.038030
2761.000000	99.043781
2760.000000	99.048362
2759.000000	99.051356
2758.000000	99.052469
2757.000000	99.051916
2756.000000	99.050452
2755.000000	99.049430
2754.000000	99.050727
2753.000000	99.055671
2752.000000	99.063353
2751.000000	99.070499
2750.000000	99.073730
2749.000000	99.072083
2748.000000	99.067426
2747.000000	99.062941
2746.000000	99.061339
2745.000000	99.063526
2744.000000	99.067998
2743.000000	99.072027
2742.000000	99.074394
2741.000000	99.076735
2740.000000	99.081237
2739.000000	99.087244
2738.000000	99.091411
2737.000000	99.091604
2736.000000	99.089571
2735.000000	99.089007
2734.000000	99.091632
2733.000000	99.095903
2732.000000	99.099211
2731.000000	99.100643
2730.000000	99.101613
2729.000000	99.104237
2728.000000	99.109045
2727.000000	99.114050
2726.000000	99.116199
2725.000000	99.114041
2724.000000	99.109042
2723.000000	99.104283
2722.000000	99.102149
2721.000000	99.103203
2720.000000	99.106512
2719.000000	99.110394
2718.000000	99.113231
2717.000000	99.114571
2716.000000	99.115754
2715.000000	99.118728
2714.000000	99.123616
2713.000000	99.127795
2712.000000	99.128154
2711.000000	99.124493
2710.000000	99.120211
2709.000000	99.119335
2708.000000	99.123101
2707.000000	99.129546
2706.000000	99.135770
2705.000000	99.139895
2704.000000	99.141329
2703.000000	99.140516
2702.000000	99.138935
2701.000000	99.138443
2700.000000	99.139886
2699.000000	99.142744
2698.000000	99.146355
2697.000000	99.150496
2696.000000	99.154221
2695.000000	99.155444
2694.000000	99.153135
2693.000000	99.149168
2692.000000	99.146301
2691.000000	99.144637
2690.000000	99.142015
2689.000000	99.138007
2688.000000	99.135377
2687.000000	99.136567
2686.000000	99.140270
2685.000000	99.142770
2684.000000	99.141685
2683.000000	99.137386
2682.000000	99.131886
2681.000000	99.127833
2680.000000	99.127688
2679.000000	99.131949
2678.000000	99.138022
2677.000000	99.142092
2676.000000	99.142464
2675.000000	99.140463
2674.000000	99.138368
2673.000000	99.137509
2672.000000	99.138214
2671.000000	99.140250
2670.000000	99.142792
2669.000000	99.144831
2668.000000	99.146162
2667.000000	99.147366
2666.000000	99.148490
2665.000000	99.148515
2664.000000	99.146750
2663.000000	99.144136
2662.000000	99.142322
2661.000000	99.141636
2660.000000	99.140702
2659.000000	99.138112
2658.000000	99.133939
2657.000000	99.129421
2656.000000	99.125694
2655.000000	99.123316
2654.000000	99.122860
2653.000000	99.125228
2652.000000	99.130773
2651.000000	99.138265
2650.000000	99.145269
2649.000000	99.149919
2648.000000	99.152360
2647.000000	99.154399
2646.000000	99.157807
2645.000000	99.162802
2644.000000	99.167892
2643.000000	99.171264
2642.000000	99.172620
2641.000000	99.173499
2640.000000	99.175375
2639.000000	99.177714
2638.000000	99.178808
2637.000000	99.178569
2636.000000	99.179301
2635.000000	99.183032
2634.000000	99.188997
2633.000000	99.194649
2632.000000	99.198557
2631.000000	99.201341
2630.000000	99.204094
2629.000000	99.206995
2628.000000	99.209460
2627.000000	99.210863
2626.000000	99.210991
2625.000000	99.210306
2624.000000	99.209881
2623.000000	99.210815
2622.000000	99.213759
2621.000000	99.218902
2620.000000	99.225686
2619.000000	99.232271
2618.000000	99.236364
2617.000000	99.237622
2616.000000	99.238750
2615.000000	99.243217
2614.000000	99.252052
2613.000000	99.263286
2612.000000	99.273809
2611.000000	99.280951
2610.000000	99.283096
2609.000000	99.280309
2608.000000	99.274515
2607.000000	99.268365
2606.000000	99.263915
2605.000000	99.262265
2604.000000	99.263366
2603.000000	99.265612
2602.000000	99.267017
2601.000000	99.267819
2600.000000	99.270442
2599.000000	99.275560
2598.000000	99.279838
2597.000000	99.279631
2596.000000	99.275703
2595.000000	99.272077
2594.000000	99.271395
2593.000000	99.273741
2592.000000	99.278852
2591.000000	99.286162
2590.000000	99.293019
2589.000000	99.296146
2588.000000	99.295452
2587.000000	99.293892
2586.000000	99.293432
2585.000000	99.293982
2584.000000	99.296373
2583.000000	99.302650
2582.000000	99.311758
2581.000000	99.318039
2580.000000	99.316658
2579.000000	99.309433
2578.000000	99.303594
2577.000000	99.305430
2576.000000	99.315622
2575.000000	99.329174
2574.000000	99.339050
2573.000000	99.341216
2572.000000	99.337331
2571.000000	99.332165
2570.000000	99.328651
2569.000000	99.326644
2568.000000	99.325653
2567.000000	99.326024
2566.000000	99.327315
2565.000000	99.328384
2564.000000	99.330018
2563.000000	99.334631
2562.000000	99.341798
2561.000000	99.346385
2560.000000	99.343115
2559.000000	99.331861
2558.000000	99.317628
2557.000000	99.307202
2556.000000	99.306220
2555.000000	99.316161
2554.000000	99.331556
2553.000000	99.342334
2552.000000	99.342259
2551.000000	99.334953
2550.000000	99.330025
2549.000000	99.333792
2548.000000	99.344824
2547.000000	99.356807
2546.000000	99.363588
2545.000000	99.362356
2544.000000	99.354703
2543.000000	99.345449
2542.000000	99.339385
2541.000000	99.338540
2540.000000	99.342132
2539.000000	99.347870
2538.000000	99.352764
2537.000000	99.354486
2536.000000	99.353770
2535.000000	99.354596
2534.000000	99.360227
2533.000000	99.369254
2532.000000	99.376817
2531.000000	99.379596
2530.000000	99.378552
2529.000000	99.377065
2528.000000	99.377489
2527.000000	99.379257
2526.000000	99.379355
2525.000000	99.374767
2524.000000	99.365557
2523.000000	99.355954
2522.000000	99.351772
2521.000000	99.356032
2520.000000	99.366633
2519.000000	99.377979
2518.000000	99.384986
2517.000000	99.386248
2516.000000	99.383750
2515.000000	99.379785
2514.000000	99.374912
2513.000000	99.369473
2512.000000	99.365828
2511.000000	99.366761
2510.000000	99.371475
2509.000000	99.375208
2508.000000	99.374116
2507.000000	99.369346
2506.000000	99.365218
2505.000000	99.364525
2504.000000	99.366820
2503.000000	99.370483
2502.000000	99.374747
2501.000000	99.379588
2500.000000	99.384714
2499.000000	99.389134
2498.000000	99.391539
2497.000000	99.391089
2496.000000	99.388081
2495.000000	99.383960
2494.000000	99.380633
2493.000000	99.379694
2492.000000	99.381801
2491.000000	99.386303
2490.000000	99.391740
2489.000000	99.397197
2488.000000	99.402683
2487.000000	99.407525
2486.000000	99.409291
2485.000000	99.406069
2484.000000	99.399948
2483.000000	99.396359
2482.000000	99.398848
2481.000000	99.405450
2480.000000	99.411049
2479.000000	99.412787
2478.000000	99.412181
2477.000000	99.412231
2476.000000	99.413798
2475.000000	99.415432
2474.000000	99.416341
2473.000000	99.418237
2472.000000	99.423280
2471.000000	99.430514
2470.000000	99.435591
2469.000000	99.434500
2468.000000	99.426832
2467.000000	99.415314
2466.000000	99.403417
2465.000000	99.394113
2464.000000	99.389274
2463.000000	99.388539
2462.000000	99.389403
2461.000000	99.389803
2460.000000	99.390279
2459.000000	99.392475
2458.000000	99.396239
2457.000000	99.399778
2456.000000	99.402494
2455.000000	99.405934
2454.000000	99.411210
2453.000000	99.416558
2452.000000	99.418511
2451.000000	99.415622
2450.000000	99.410669
2449.000000	99.408450
2448.000000	99.410983
2447.000000	99.415563
2446.000000	99.418489
2445.000000	99.419715
2444.000000	99.421935
2443.000000	99.425769
2442.000000	99.428588
2441.000000	99.428343
2440.000000	99.425605
2439.000000	99.420979
2438.000000	99.413818
2437.000000	99.405433
2436.000000	99.400681
2435.000000	99.403483
2434.000000	99.412419
2433.000000	99.423004
2432.000000	99.432641
2431.000000	99.441085
2430.000000	99.447481
2429.000000	99.449633
2428.000000	99.445952
2427.000000	99.436934
2426.000000	99.425639
2425.000000	99.417137
2424.000000	99.415104
2423.000000	99.417585
2422.000000	99.418666
2421.000000	99.416073
2420.000000	99.414371
2419.000000	99.418467
2418.000000	99.426772
2417.000000	99.433676
2416.000000	99.436446
2415.000000	99.436523
2414.000000	99.435959
2413.000000	99.435839
2412.000000	99.436951
2411.000000	99.439245
2410.000000	99.441607
2409.000000	99.443990
2408.000000	99.447866
2407.000000	99.452726
2406.000000	99.455009
2405.000000	99.453198
2404.000000	99.450979
2403.000000	99.452064
2402.000000	99.454847
2401.000000	99.456058
2400.000000	99.456738
2399.000000	99.459769
2398.000000	99.463545
2397.000000	99.463375
2396.000000	99.458381
2395.000000	99.452331
2394.000000	99.447959
2393.000000	99.444692
2392.000000	99.441678
2391.000000	99.439226
2390.000000	99.436897
2389.000000	99.433661
2388.000000	99.430529
2387.000000	99.429671
2386.000000	99.431837
2385.000000	99.436602
2384.000000	99.444657
2383.000000	99.457541
2382.000000	99.474340
2381.000000	99.492322
2380.000000	99.508896
2379.000000	99.520346
2378.000000	99.521009
2377.000000	99.507399
2376.000000	99.483348
2375.000000	99.457696
2374.000000	99.438932
2373.000000	99.433574
2372.000000	99.445218
2371.000000	99.468886
2370.000000	99.491001
2369.000000	99.501652
2368.000000	99.501480
2367.000000	99.494747
2366.000000	99.482198
2365.000000	99.465882
2364.000000	99.453396
2363.000000	99.448383
2362.000000	99.444825
2361.000000	99.435524
2360.000000	99.419865
2359.000000	99.402401
2358.000000	99.390372
2357.000000	99.393018
2356.000000	99.409755
2355.000000	99.427872
2354.000000	99.443001
2353.000000	99.461588
2352.000000	99.477765
2351.000000	99.473922
2350.000000	99.447756
2349.000000	99.415131
2348.000000	99.395091
2347.000000	99.396968
2346.000000	99.406794
2345.000000	99.396399
2344.000000	99.362123
2343.000000	99.332004
2342.000000	99.328662
2341.000000	99.348420
2340.000000	99.370424
2339.000000	99.378492
2338.000000	99.373821
2337.000000	99.366541
2336.000000	99.363728
2335.000000	99.368372
2334.000000	99.383868
2333.000000	99.409650
2332.000000	99.433501
2331.000000	99.439562
2330.000000	99.422223
2329.000000	99.387039
2328.000000	99.342751
2327.000000	99.298195
2326.000000	99.264072
2325.000000	99.249622
2324.000000	99.256913
2323.000000	99.279083
2322.000000	99.301669
2321.000000	99.309444
2320.000000	99.296921
2319.000000	99.272253
2318.000000	99.249104
2317.000000	99.236895
2316.000000	99.240023
2315.000000	99.259626
2314.000000	99.290059
2313.000000	99.318174
2312.000000	99.332701
2311.000000	99.334233
2310.000000	99.331408
2309.000000	99.329626
2308.000000	99.328776
2307.000000	99.328848
2306.000000	99.331498
2305.000000	99.336706
2304.000000	99.342495
2303.000000	99.347848
2302.000000	99.352621
2301.000000	99.355776
2300.000000	99.357340
2299.000000	99.360097
2298.000000	99.365819
2297.000000	99.371829
2296.000000	99.373834
2295.000000	99.371173
2294.000000	99.366141
2293.000000	99.360132
2292.000000	99.353684
2291.000000	99.348872
2290.000000	99.348202
2289.000000	99.351618
2288.000000	99.356897
2287.000000	99.361725
2286.000000	99.363662
2285.000000	99.360540
2284.000000	99.354055
2283.000000	99.350606
2282.000000	99.356047
2281.000000	99.371091
2280.000000	99.393031
2279.000000	99.418141
2278.000000	99.440259
2277.000000	99.452182
2276.000000	99.452513
2275.000000	99.448093
2274.000000	99.446446
2273.000000	99.448225
2272.000000	99.448973
2271.000000	99.444707
2270.000000	99.434342
2269.000000	99.421063
2268.000000	99.412423
2267.000000	99.413541
2266.000000	99.418860
2265.000000	99.417528
2264.000000	99.409320
2263.000000	99.407289
2262.000000	99.421029
2261.000000	99.444858
2260.000000	99.466064
2259.000000	99.477395
2258.000000	99.477380
2257.000000	99.467466
2256.000000	99.455194
2255.000000	99.451760
2254.000000	99.459379
2253.000000	99.467912
2252.000000	99.470252
2251.000000	99.472784
2250.000000	99.483087
2249.000000	99.495352
2248.000000	99.496887
2247.000000	99.484242
2246.000000	99.465225
2245.000000	99.449282
2244.000000	99.442233
2243.000000	99.445353
2242.000000	99.453438
2241.000000	99.457772
2240.000000	99.455455
2239.000000	99.451015
2238.000000	99.446496
2237.000000	99.438463
2236.000000	99.428205
2235.000000	99.424267
2234.000000	99.428952
2233.000000	99.432962
2232.000000	99.430628
2231.000000	99.429555
2230.000000	99.436251
2229.000000	99.443475
2228.000000	99.443631
2227.000000	99.444962
2226.000000	99.460699
2225.000000	99.487591
2224.000000	99.507312
2223.000000	99.505937
2222.000000	99.483860
2221.000000	99.452719
2220.000000	99.430936
2219.000000	99.434574
2218.000000	99.461859
2217.000000	99.490447
2216.000000	99.498081
2215.000000	99.481954
2214.000000	99.452894
2213.000000	99.421289
2212.000000	99.397962
2211.000000	99.397439
2210.000000	99.425278
2209.000000	99.465353
2208.000000	99.490969
2207.000000	99.488216
2206.000000	99.463651
2205.000000	99.435670
2204.000000	99.423712
2203.000000	99.436002
2202.000000	99.458979
2201.000000	99.466972
2200.000000	99.451681
2199.000000	99.433605
2198.000000	99.434663
2197.000000	99.448904
2196.000000	99.452333
2195.000000	99.434547
2194.000000	99.408117
2193.000000	99.391349
2192.000000	99.391449
2191.000000	99.400202
2190.000000	99.399272
2189.000000	99.377292
2188.000000	99.350858
2187.000000	99.359135
2186.000000	99.424099
2185.000000	99.519833
2184.000000	99.591850
2183.000000	99.606206
2182.000000	99.572656
2181.000000	99.526881
2180.000000	99.500980
2179.000000	99.506019
2178.000000	99.532353
2177.000000	99.562605
2176.000000	99.584741
2175.000000	99.593650
2174.000000	99.586764
2173.000000	99.568929
2172.000000	99.557555
2171.000000	99.566833
2170.000000	99.587127
2169.000000	99.594060
2168.000000	99.579491
2167.000000	99.558057
2166.000000	99.541181
2165.000000	99.523136
2164.000000	99.497493
2163.000000	99.469932
2162.000000	99.450034
2161.000000	99.450505
2160.000000	99.496945
2159.000000	99.606788
2158.000000	99.745969
2157.000000	99.845785
2156.000000	99.874282
2155.000000	99.850866
2154.000000	99.799083
2153.000000	99.729186
2152.000000	99.658174
2151.000000	99.609009
2150.000000	99.587437
2149.000000	99.583087
2148.000000	99.593350
2147.000000	99.622370
2146.000000	99.657427
2145.000000	99.674460
2144.000000	99.672081
2143.000000	99.672994
2142.000000	99.686166
2141.000000	99.693488
2140.000000	99.681667
2139.000000	99.663952
2138.000000	99.658687
2137.000000	99.665131
2136.000000	99.670409
2135.000000	99.665413
2134.000000	99.646254
2133.000000	99.615109
2132.000000	99.586816
2131.000000	99.580496
2130.000000	99.598035
2129.000000	99.620468
2128.000000	99.628491
2127.000000	99.617522
2126.000000	99.592572
2125.000000	99.561515
2124.000000	99.536152
2123.000000	99.526136
2122.000000	99.526664
2121.000000	99.522574
2120.000000	99.508850
2119.000000	99.496193
2118.000000	99.492567
2117.000000	99.491571
2116.000000	99.484786
2115.000000	99.474843
2114.000000	99.469298
2113.000000	99.470745
2112.000000	99.478673
2111.000000	99.491733
2110.000000	99.502702
2109.000000	99.501496
2108.000000	99.489642
2107.000000	99.481509
2106.000000	99.484559
2105.000000	99.489344
2104.000000	99.485807
2103.000000	99.477332
2102.000000	99.470001
2101.000000	99.459903
2100.000000	99.442824
2099.000000	99.427415
2098.000000	99.426283
2097.000000	99.439420
2096.000000	99.457017
2095.000000	99.473804
2094.000000	99.490723
2093.000000	99.506160
2092.000000	99.514394
2091.000000	99.511476
2090.000000	99.498029
2089.000000	99.479317
2088.000000	99.464448
2087.000000	99.459623
2086.000000	99.460243
2085.000000	99.455783
2084.000000	99.444239
2083.000000	99.434776
2082.000000	99.433981
2081.000000	99.437993
2080.000000	99.440588
2079.000000	99.440507
2078.000000	99.438200
2077.000000	99.434405
2076.000000	99.435040
2075.000000	99.447422
2074.000000	99.468777
2073.000000	99.488242
2072.000000	99.501580
2071.000000	99.512560
2070.000000	99.518929
2069.000000	99.512671
2068.000000	99.497811
2067.000000	99.491147
2066.000000	99.499491
2065.000000	99.510707
2064.000000	99.513157
2063.000000	99.508614
2062.000000	99.500370
2061.000000	99.487531
2060.000000	99.477213
2059.000000	99.482229
2058.000000	99.498310
2057.000000	99.502490
2056.000000	99.483353
2055.000000	99.454677
2054.000000	99.429956
2053.000000	99.404713
2052.000000	99.377224
2051.000000	99.365291
2050.000000	99.383928
2049.000000	99.419327
2048.000000	99.444907
2047.000000	99.454510
2046.000000	99.458232
2045.000000	99.459586
2044.000000	99.461355
2043.000000	99.477627
2042.000000	99.515034
2041.000000	99.553530
2040.000000	99.568425
2039.000000	99.561008
2038.000000	99.548273
2037.000000	99.538709
2036.000000	99.537315
2035.000000	99.557598
2034.000000	99.605373
2033.000000	99.660613
2032.000000	99.696568
2031.000000	99.708795
2030.000000	99.711562
2029.000000	99.719538
2028.000000	99.741815
2027.000000	99.774738
2026.000000	99.793377
2025.000000	99.771180
2024.000000	99.714679
2023.000000	99.657351
2022.000000	99.617740
2021.000000	99.589569
2020.000000	99.570218
2019.000000	99.567134
2018.000000	99.573685
2017.000000	99.571636
2016.000000	99.564584
2015.000000	99.573391
2014.000000	99.595488
2013.000000	99.606480
2012.000000	99.603055
2011.000000	99.606481
2010.000000	99.618688
2009.000000	99.615608
2008.000000	99.595610
2007.000000	99.590808
2006.000000	99.613064
2005.000000	99.632621
2004.000000	99.627439
2003.000000	99.613194
2002.000000	99.609238
2001.000000	99.613169
2000.000000	99.621645
1999.000000	99.641907
1998.000000	99.668818
1997.000000	99.677407
1996.000000	99.655674
1995.000000	99.623137
1994.000000	99.605373
1993.000000	99.608611
1992.000000	99.623002
1991.000000	99.630558
1990.000000	99.606695
1989.000000	99.541992
1988.000000	99.470370
1987.000000	99.444866
1986.000000	99.476221
1985.000000	99.524071
1984.000000	99.554221
1983.000000	99.571170
1982.000000	99.584247
1981.000000	99.583593
1980.000000	99.570061
1979.000000	99.571479
1978.000000	99.602821
1977.000000	99.638713
1976.000000	99.654888
1975.000000	99.661598
1974.000000	99.668506
1973.000000	99.661994
1972.000000	99.640841
1971.000000	99.629782
1970.000000	99.637173
1969.000000	99.637580
1968.000000	99.616584
1967.000000	99.599107
1966.000000	99.608131
1965.000000	99.629955
1964.000000	99.646847
1963.000000	99.668029
1962.000000	99.705305
1961.000000	99.746729
1960.000000	99.774817
1959.000000	99.789484
1958.000000	99.796361
1957.000000	99.795019
1956.000000	99.790411
1955.000000	99.790934
1954.000000	99.787546
1953.000000	99.759126
1952.000000	99.707655
1951.000000	99.664942
1950.000000	99.653429
1949.000000	99.663268
1948.000000	99.675452
1947.000000	99.683329
1946.000000	99.683520
1945.000000	99.669839
1944.000000	99.647808
1943.000000	99.634439
1942.000000	99.631609
1941.000000	99.623035
1940.000000	99.605583
1939.000000	99.595513
1938.000000	99.600489
1937.000000	99.608485
1936.000000	99.611146
1935.000000	99.619033
1934.000000	99.641468
1933.000000	99.668369
1932.000000	99.685850
1931.000000	99.694346
1930.000000	99.696885
1929.000000	99.690113
1928.000000	99.676250
1927.000000	99.667932
1926.000000	99.672427
1925.000000	99.681772
1924.000000	99.687580
1923.000000	99.688804
1922.000000	99.681403
1921.000000	99.660204
1920.000000	99.633096
1919.000000	99.618202
1918.000000	99.617428
1917.000000	99.610405
1916.000000	99.590591
1915.000000	99.577354
1914.000000	99.585127
1913.000000	99.604997
1912.000000	99.620554
1911.000000	99.628637
1910.000000	99.632251
1909.000000	99.629644
1908.000000	99.622448
1907.000000	99.620448
1906.000000	99.626579
1905.000000	99.628336
1904.000000	99.617654
1903.000000	99.603638
1902.000000	99.596782
1901.000000	99.596447
1900.000000	99.599287
1899.000000	99.607778
1898.000000	99.622136
1897.000000	99.633542
1896.000000	99.637229
1895.000000	99.640840
1894.000000	99.649572
1893.000000	99.656146
1892.000000	99.653928
1891.000000	99.648354
1890.000000	99.646663
1889.000000	99.646225
1888.000000	99.642944
1887.000000	99.637843
1886.000000	99.629832
1885.000000	99.616743
1884.000000	99.605853
1883.000000	99.609910
1882.000000	99.627516
1881.000000	99.641871
1880.000000	99.643179
1879.000000	99.639641
1878.000000	99.641962
1877.000000	99.647304
1876.000000	99.648294
1875.000000	99.647571
1874.000000	99.650729
1873.000000	99.655362
1872.000000	99.658030
1871.000000	99.663452
1870.000000	99.677576
1869.000000	99.693152
1868.000000	99.697983
1867.000000	99.692447
1866.000000	99.679632
1865.000000	99.659170
1864.000000	99.639394
1863.000000	99.635220
1862.000000	99.649198
1861.000000	99.664597
1860.000000	99.665122
1859.000000	99.653097
1858.000000	99.641204
1857.000000	99.637234
1856.000000	99.642777
1855.000000	99.657693
1854.000000	99.676693
1853.000000	99.690192
1852.000000	99.692543
1851.000000	99.684630
1850.000000	99.673445
1849.000000	99.668641
1848.000000	99.677927
1847.000000	99.698609
1846.000000	99.715587
1845.000000	99.713702
1844.000000	99.696825
1843.000000	99.686334
1842.000000	99.688558
1841.000000	99.691025
1840.000000	99.689074
1839.000000	99.690648
1838.000000	99.698580
1837.000000	99.703539
1836.000000	99.701811
1835.000000	99.701668
1834.000000	99.706072
1833.000000	99.708351
1832.000000	99.706151
1831.000000	99.709663
1830.000000	99.724434
1829.000000	99.733490
1828.000000	99.722027
1827.000000	99.698018
1826.000000	99.679749
1825.000000	99.677175
1824.000000	99.685557
1823.000000	99.696699
1822.000000	99.704969
1821.000000	99.707588
1820.000000	99.706603
1819.000000	99.707911
1818.000000	99.712863
1817.000000	99.714091
1816.000000	99.709609
1815.000000	99.706575
1814.000000	99.708727
1813.000000	99.711750
1812.000000	99.711726
1811.000000	99.713226
1810.000000	99.717048
1809.000000	99.713549
1808.000000	99.700746
1807.000000	99.689772
1806.000000	99.687073
1805.000000	99.685097
1804.000000	99.678556
1803.000000	99.675287
1802.000000	99.684593
1801.000000	99.700936
1800.000000	99.710605
1799.000000	99.713500
1798.000000	99.716973
1797.000000	99.721610
1796.000000	99.725588
1795.000000	99.729065
1794.000000	99.732804
1793.000000	99.733498
1792.000000	99.724698
1791.000000	99.710979
1790.000000	99.701789
1789.000000	99.696138
1788.000000	99.691180
1787.000000	99.690042
1786.000000	99.695485
1785.000000	99.703593
1784.000000	99.711670
1783.000000	99.719722
1782.000000	99.725887
1781.000000	99.728527
1780.000000	99.727877
1779.000000	99.730664
1778.000000	99.741286
1777.000000	99.757125
1776.000000	99.773301
1775.000000	99.783591
1774.000000	99.786790
1773.000000	99.788235
1772.000000	99.789001
1771.000000	99.785657
1770.000000	99.774259
1769.000000	99.750808
1768.000000	99.724115
1767.000000	99.711309
1766.000000	99.714987
1765.000000	99.720568
1764.000000	99.717929
1763.000000	99.712020
1762.000000	99.709100
1761.000000	99.704578
1760.000000	99.692331
1759.000000	99.673578
1758.000000	99.649423
1757.000000	99.622408
1756.000000	99.596712
1755.000000	99.573858
1754.000000	99.549598
1753.000000	99.522614
1752.000000	99.505003
1751.000000	99.509511
1750.000000	99.523696
1749.000000	99.516014
1748.000000	99.477501
1747.000000	99.427078
1746.000000	99.383832
1745.000000	99.351628
1744.000000	99.327533
1743.000000	99.312652
1742.000000	99.304410
1741.000000	99.294057
1740.000000	99.285456
1739.000000	99.295883
1738.000000	99.321203
1737.000000	99.336386
1736.000000	99.334358
1735.000000	99.353365
1734.000000	99.424068
1733.000000	99.502110
1732.000000	99.541395
1731.000000	99.549195
1730.000000	99.545787
1729.000000	99.543884
1728.000000	99.547790
1727.000000	99.557677
1726.000000	99.572733
1725.000000	99.587762
1724.000000	99.595853
1723.000000	99.601005
1722.000000	99.607043
1721.000000	99.606428
1720.000000	99.591875
1719.000000	99.576499
1718.000000	99.579601
1717.000000	99.581488
1716.000000	99.554905
1715.000000	99.508779
1714.000000	99.457502
1713.000000	99.405158
1712.000000	99.355796
1711.000000	99.315805
1710.000000	99.288945
1709.000000	99.273021
1708.000000	99.261150
1707.000000	99.251052
1706.000000	99.247524
1705.000000	99.246761
1704.000000	99.239460
1703.000000	99.216177
1702.000000	99.173446
1701.000000	99.125721
1700.000000	99.097825
1699.000000	99.093586
1698.000000	99.078550
1697.000000	99.016860
1696.000000	98.921895
1695.000000	98.846508
1694.000000	98.805672
1693.000000	98.765862
1692.000000	98.712135
1691.000000	98.661836
1690.000000	98.629391
1689.000000	98.607485
1688.000000	98.579876
1687.000000	98.539496
1686.000000	98.491639
1685.000000	98.444049
1684.000000	98.393939
1683.000000	98.341783
1682.000000	98.286917
1681.000000	98.214334
1680.000000	98.128355
1679.000000	98.048251
1678.000000	97.976061
1677.000000	97.899836
1676.000000	97.818372
1675.000000	97.747897
1674.000000	97.693657
1673.000000	97.638423
1672.000000	97.567064
1671.000000	97.487973
1670.000000	97.409025
1669.000000	97.322153
1668.000000	97.229377
1667.000000	97.144582
1666.000000	97.069595
1665.000000	96.994244
1664.000000	96.915719
1663.000000	96.842561
1662.000000	96.774311
1661.000000	96.701141
1660.000000	96.620351
1659.000000	96.543869
1658.000000	96.483816
1657.000000	96.434819
1656.000000	96.378592
1655.000000	96.312879
1654.000000	96.277446
1653.000000	96.279930
1652.000000	96.277630
1651.000000	96.259000
1650.000000	96.220651
1649.000000	96.165276
1648.000000	96.120534
1647.000000	96.104835
1646.000000	96.098666
1645.000000	96.069891
1644.000000	96.020619
1643.000000	95.967916
1642.000000	95.923161
1641.000000	95.890295
1640.000000	95.866271
1639.000000	95.847812
1638.000000	95.832634
1637.000000	95.822534
1636.000000	95.817256
1635.000000	95.807417
1634.000000	95.787024
1633.000000	95.750047
1632.000000	95.701649
1631.000000	95.661546
1630.000000	95.644824
1629.000000	95.651140
1628.000000	95.669154
1627.000000	95.688532
1626.000000	95.707022
1625.000000	95.732420
1624.000000	95.780897
1623.000000	95.857089
1622.000000	95.934293
1621.000000	95.985761
1620.000000	96.013091
1619.000000	96.038673
1618.000000	96.095645
1617.000000	96.200790
1616.000000	96.321251
1615.000000	96.412392
1614.000000	96.470699
1613.000000	96.518104
1612.000000	96.578912
1611.000000	96.663575
1610.000000	96.760475
1609.000000	96.853082
1608.000000	96.937664
1607.000000	97.016814
1606.000000	97.088321
1605.000000	97.152873
1604.000000	97.216584
1603.000000	97.283443
1602.000000	97.348954
1601.000000	97.405984
1600.000000	97.455175
1599.000000	97.501518
1598.000000	97.546016
1597.000000	97.585604
1596.000000	97.619522
1595.000000	97.649522
1594.000000	97.674577
1593.000000	97.692837
1592.000000	97.706434
1591.000000	97.718563
1590.000000	97.727754
1589.000000	97.730994
1588.000000	97.728394
1587.000000	97.721626
1586.000000	97.709470
1585.000000	97.692253
1584.000000	97.672791
1583.000000	97.647788
1582.000000	97.612529
1581.000000	97.571133
1580.000000	97.533258
1579.000000	97.501968
1578.000000	97.476206
1577.000000	97.456785
1576.000000	97.442080
1575.000000	97.424609
1574.000000	97.396020
1573.000000	97.352680
1572.000000	97.300653
1571.000000	97.259188
1570.000000	97.239706
1569.000000	97.227869
1568.000000	97.203833
1567.000000	97.163232
1566.000000	97.112566
1565.000000	97.062658
1564.000000	97.022025
1563.000000	96.981702
1562.000000	96.929573
1561.000000	96.862679
1560.000000	96.821571
1559.000000	96.825178
1558.000000	96.808632
1557.000000	96.754922
1556.000000	96.676527
1555.000000	96.577885
1554.000000	96.483041
1553.000000	96.402249
1552.000000	96.330107
1551.000000	96.261762
1550.000000	96.203743
1549.000000	96.154466
1548.000000	96.106318
1547.000000	96.057132
1546.000000	96.018606
1545.000000	96.003648
1544.000000	96.001420
1543.000000	95.989724
1542.000000	95.965683
1541.000000	95.946455
1540.000000	95.949024
1539.000000	95.967770
1538.000000	95.982352
1537.000000	95.975861
1536.000000	95.952388
1535.000000	95.941702
1534.000000	95.979418
1533.000000	96.052844
1532.000000	96.108274
1531.000000	96.133703
1530.000000	96.149693
1529.000000	96.170566
1528.000000	96.204284
1527.000000	96.254927
1526.000000	96.316218
1525.000000	96.367946
1524.000000	96.397074
1523.000000	96.421452
1522.000000	96.474979
1521.000000	96.546305
1520.000000	96.592004
1519.000000	96.608845
1518.000000	96.623646
1517.000000	96.652767
1516.000000	96.686949
1515.000000	96.710201
1514.000000	96.723399
1513.000000	96.737843
1512.000000	96.768195
1511.000000	96.819716
1510.000000	96.884286
1509.000000	96.953733
1508.000000	97.042346
1507.000000	97.151918
1506.000000	97.236970
1505.000000	97.280994
1504.000000	97.298713
1503.000000	97.304879
1502.000000	97.318373
1501.000000	97.347702
1500.000000	97.390846
1499.000000	97.442781
1498.000000	97.506247
1497.000000	97.575416
1496.000000	97.634221
1495.000000	97.678830
1494.000000	97.710877
1493.000000	97.729826
1492.000000	97.747951
1491.000000	97.794522
1490.000000	97.874598
1489.000000	97.939716
1488.000000	97.957292
1487.000000	97.952623
1486.000000	97.948575
1485.000000	97.943898
1484.000000	97.935198
1483.000000	97.925984
1482.000000	97.921836
1481.000000	97.915236
1480.000000	97.896381
1479.000000	97.868537
1478.000000	97.842386
1477.000000	97.820145
1476.000000	97.795800
1475.000000	97.765217
1474.000000	97.725958
1473.000000	97.667857
1472.000000	97.586778
1471.000000	97.504921
1470.000000	97.433210
1469.000000	97.359600
1468.000000	97.281951
1467.000000	97.213082
1466.000000	97.163442
1465.000000	97.130288
1464.000000	97.103985
1463.000000	97.084131
1462.000000	97.071137
1461.000000	97.057868
1460.000000	97.040771
1459.000000	97.025674
1458.000000	97.021630
1457.000000	97.008107
1456.000000	96.969818
1455.000000	96.930455
1454.000000	96.898058
1453.000000	96.867743
1452.000000	96.844369
1451.000000	96.832280
1450.000000	96.829251
1449.000000	96.828124
1448.000000	96.829532
1447.000000	96.837091
1446.000000	96.847444
1445.000000	96.856276
1444.000000	96.863714
1443.000000	96.877584
1442.000000	96.902660
1441.000000	96.931103
1440.000000	96.949822
1439.000000	96.956858
1438.000000	96.970495
1437.000000	97.013080
1436.000000	97.078909
1435.000000	97.140141
1434.000000	97.182921
1433.000000	97.210014
1432.000000	97.232656
1431.000000	97.261892
1430.000000	97.299154
1429.000000	97.334566
1428.000000	97.359977
1427.000000	97.375995
1426.000000	97.387198
1425.000000	97.402292
1424.000000	97.422216
1423.000000	97.437301
1422.000000	97.439711
1421.000000	97.432214
1420.000000	97.431226
1419.000000	97.449306
1418.000000	97.472678
1417.000000	97.479435
1416.000000	97.467393
1415.000000	97.449727
1414.000000	97.438097
1413.000000	97.432173
1412.000000	97.425242
1411.000000	97.415677
1410.000000	97.406741
1409.000000	97.396567
1408.000000	97.382134
1407.000000	97.367322
1406.000000	97.357146
1405.000000	97.351696
1404.000000	97.347051
1403.000000	97.342995
1402.000000	97.340125
1401.000000	97.337632
1400.000000	97.340288
1399.000000	97.353352
1398.000000	97.371808
1397.000000	97.384192
1396.000000	97.388015
1395.000000	97.389700
1394.000000	97.392770
1393.000000	97.394798
1392.000000	97.392606
1391.000000	97.388534
1390.000000	97.387169
1389.000000	97.390425
1388.000000	97.398831
1387.000000	97.410105
1386.000000	97.416273
1385.000000	97.412080
1384.000000	97.403853
1383.000000	97.405977
1382.000000	97.424342
1381.000000	97.447889
1380.000000	97.466059
1379.000000	97.481436
1378.000000	97.499630
1377.000000	97.520195
1376.000000	97.544690
1375.000000	97.579586
1374.000000	97.621770
1373.000000	97.656630
1372.000000	97.679558
1371.000000	97.700456
1370.000000	97.727350
1369.000000	97.760326
1368.000000	97.795027
1367.000000	97.829328
1366.000000	97.862586
1365.000000	97.894223
1364.000000	97.928827
1363.000000	97.971184
1362.000000	98.012832
1361.000000	98.039865
1360.000000	98.052721
1359.000000	98.062434
1358.000000	98.073995
1357.000000	98.083088
1356.000000	98.086890
1355.000000	98.089054
1354.000000	98.090198
1353.000000	98.082701
1352.000000	98.063714
1351.000000	98.041557
1350.000000	98.022267
1349.000000	98.003103
1348.000000	97.980474
1347.000000	97.957563
1346.000000	97.936605
1345.000000	97.912963
1344.000000	97.883667
1343.000000	97.854313
1342.000000	97.831553
1341.000000	97.815084
1340.000000	97.800991
1339.000000	97.787921
1338.000000	97.776045
1337.000000	97.763803
1336.000000	97.752534
1335.000000	97.748648
1334.000000	97.754849
1333.000000	97.766203
1332.000000	97.779314
1331.000000	97.797135
1330.000000	97.820429
1329.000000	97.843166
1328.000000	97.861635
1327.000000	97.878946
1326.000000	97.895896
1325.000000	97.907663
1324.000000	97.912946
1323.000000	97.918613
1322.000000	97.929238
1321.000000	97.940120
1320.000000	97.946339
1319.000000	97.950894
1318.000000	97.957216
1317.000000	97.962026
1316.000000	97.963533
1315.000000	97.967548
1314.000000	97.977825
1313.000000	97.988340
1312.000000	97.993740
1311.000000	97.999460
1310.000000	98.012677
1309.000000	98.030554
1308.000000	98.046029
1307.000000	98.058368
1306.000000	98.070324
1305.000000	98.081519
1304.000000	98.090789
1303.000000	98.100386
1302.000000	98.111059
1301.000000	98.118882
1300.000000	98.122756
1299.000000	98.128481
1298.000000	98.139084
1297.000000	98.148271
1296.000000	98.150242
1295.000000	98.148414
1294.000000	98.147585
1293.000000	98.144589
1292.000000	98.134155
1291.000000	98.117293
1290.000000	98.096585
1289.000000	98.070451
1288.000000	98.039784
1287.000000	98.013204
1286.000000	97.997230
1285.000000	97.987082
1284.000000	97.974630
1283.000000	97.959090
1282.000000	97.943829
1281.000000	97.929817
1280.000000	97.918801
1279.000000	97.915305
1278.000000	97.918934
1277.000000	97.921812
1276.000000	97.919954
1275.000000	97.919407
1274.000000	97.925255
1273.000000	97.932759
1272.000000	97.935378
1271.000000	97.933394
1270.000000	97.928295
1269.000000	97.917795
1268.000000	97.903250
1267.000000	97.892573
1266.000000	97.888366
1265.000000	97.881878
1264.000000	97.866276
1263.000000	97.846804
1262.000000	97.829994
1261.000000	97.812925
1260.000000	97.792021
1259.000000	97.772084
1258.000000	97.757142
1257.000000	97.741783
1256.000000	97.721038
1255.000000	97.699278
1254.000000	97.680908
1253.000000	97.661397
1252.000000	97.635986
1251.000000	97.608509
1250.000000	97.583267
1249.000000	97.556931
1248.000000	97.526624
1247.000000	97.497203
1246.000000	97.472390
1245.000000	97.447238
1244.000000	97.417482
1243.000000	97.387563
1242.000000	97.361388
1241.000000	97.334899
1240.000000	97.306394
1239.000000	97.284046
1238.000000	97.273387
1237.000000	97.266878
1236.000000	97.255770
1235.000000	97.243626
1234.000000	97.238856
1233.000000	97.242029
1232.000000	97.250538
1231.000000	97.267348
1230.000000	97.295428
1229.000000	97.330854
1228.000000	97.369541
1227.000000	97.413911
1226.000000	97.465220
1225.000000	97.517285
1224.000000	97.565516
1223.000000	97.613782
1222.000000	97.665200
1221.000000	97.714750
1220.000000	97.758249
1219.000000	97.799688
1218.000000	97.842125
1217.000000	97.879840
1216.000000	97.907607
1215.000000	97.929448
1214.000000	97.949872
1213.000000	97.964881
1212.000000	97.969546
1211.000000	97.966674
1210.000000	97.960127
1209.000000	97.947142
1208.000000	97.925886
1207.000000	97.902835
1206.000000	97.884751
1205.000000	97.870664
1204.000000	97.858651
1203.000000	97.852433
1202.000000	97.854691
1201.000000	97.862571
1200.000000	97.875510
1199.000000	97.897875
1198.000000	97.927764
1197.000000	97.954439
1196.000000	97.974309
1195.000000	97.997852
1194.000000	98.032673
1193.000000	98.070821
1192.000000	98.101793
1191.000000	98.127575
1190.000000	98.155472
1189.000000	98.185798
1188.000000	98.215804
1187.000000	98.246305
1186.000000	98.275220
1185.000000	98.294107
1184.000000	98.300008
1183.000000	98.302193
1182.000000	98.309121
1181.000000	98.317598
1180.000000	98.323045
1179.000000	98.329786
1178.000000	98.341443
1177.000000	98.351852
1176.000000	98.355409
1175.000000	98.356745
1174.000000	98.361196
1173.000000	98.365320
1172.000000	98.365388
1171.000000	98.365382
1170.000000	98.368284
1169.000000	98.369652
1168.000000	98.367938
1167.000000	98.370135
1166.000000	98.378792
1165.000000	98.385209
1164.000000	98.384615
1163.000000	98.385709
1162.000000	98.395168
1161.000000	98.405560
1160.000000	98.409681
1159.000000	98.414450
1158.000000	98.428703
1157.000000	98.448690
1156.000000	98.467936
1155.000000	98.490273
1154.000000	98.520672
1153.000000	98.553445
1152.000000	98.581449
1151.000000	98.607646
1150.000000	98.636521
1149.000000	98.663888
1148.000000	98.686042
1147.000000	98.708887
1146.000000	98.737458
1145.000000	98.766409
1144.000000	98.790557
1143.000000	98.813763
1142.000000	98.838246
1141.000000	98.857196
1140.000000	98.868420
1139.000000	98.883033
1138.000000	98.909485
1137.000000	98.940274
1136.000000	98.964683
1135.000000	98.982810
1134.000000	98.997088
1133.000000	99.003125
1132.000000	99.000759
1131.000000	99.001514
1130.000000	99.012524
1129.000000	99.024671
1128.000000	99.027729
1127.000000	99.025308
1126.000000	99.023605
1125.000000	99.019035
1124.000000	99.009852
1123.000000	99.006754
1122.000000	99.017762
1121.000000	99.033796
1120.000000	99.042287
1119.000000	99.043824
1118.000000	99.043377
1117.000000	99.037424
1116.000000	99.022986
1115.000000	99.007584
1114.000000	98.997381
1113.000000	98.986759
1112.000000	98.971836
1111.000000	98.961871
1110.000000	98.964833
1109.000000	98.973932
1108.000000	98.980164
1107.000000	98.985420
1106.000000	98.991189
1105.000000	98.989202
1104.000000	98.976801
1103.000000	98.967400
1102.000000	98.971298
1101.000000	98.978849
1100.000000	98.976407
1099.000000	98.966279
1098.000000	98.956462
1097.000000	98.945215
1096.000000	98.929942
1095.000000	98.918293
1094.000000	98.915232
1093.000000	98.910459
1092.000000	98.892499
1091.000000	98.864234
1090.000000	98.832861
1089.000000	98.797461
1088.000000	98.758161
1087.000000	98.723227
1086.000000	98.694726
1085.000000	98.661632
1084.000000	98.620119
1083.000000	98.585624
1082.000000	98.571430
1081.000000	98.570290
1080.000000	98.571360
1079.000000	98.579358
1078.000000	98.601208
1077.000000	98.629212
1076.000000	98.652964
1075.000000	98.675021
1074.000000	98.700463
1073.000000	98.724291
1072.000000	98.742412
1071.000000	98.760999
1070.000000	98.781936
1069.000000	98.793249
1068.000000	98.787820
1067.000000	98.777902
1066.000000	98.778311
1065.000000	98.787815
1064.000000	98.798714
1063.000000	98.810244
1062.000000	98.820699
1061.000000	98.821455
1060.000000	98.811204
1059.000000	98.802361
1058.000000	98.802676
1057.000000	98.805135
1056.000000	98.805202
1055.000000	98.810646
1054.000000	98.823245
1053.000000	98.829352
1052.000000	98.821619
1051.000000	98.812786
1050.000000	98.813937
1049.000000	98.817312
1048.000000	98.814232
1047.000000	98.810576
1046.000000	98.811312
1045.000000	98.809276
1044.000000	98.801732
1043.000000	98.798829
1042.000000	98.804283
1041.000000	98.806676
1040.000000	98.800869
1039.000000	98.796728
1038.000000	98.795237
1037.000000	98.778295
1036.000000	98.737522
1035.000000	98.691595
1034.000000	98.659513
1033.000000	98.637474
1032.000000	98.617327
1031.000000	98.605421
1030.000000	98.604714
1029.000000	98.599798
1028.000000	98.579503
1027.000000	98.556754
1026.000000	98.547174
1025.000000	98.545509
1024.000000	98.540135
1023.000000	98.532686
1022.000000	98.525979
1021.000000	98.511264
1020.000000	98.486139
1019.000000	98.468165
1018.000000	98.472358
1017.000000	98.490871
1016.000000	98.511684
1015.000000	98.539521
1014.000000	98.581964
1013.000000	98.631167
1012.000000	98.676748
1011.000000	98.721761
1010.000000	98.770751
1009.000000	98.817407
1008.000000	98.857567
1007.000000	98.898626
1006.000000	98.942761
1005.000000	98.977506
1004.000000	98.995906
1003.000000	99.010024
1002.000000	99.031908
1001.000000	99.058393
1000.000000	99.085949
999.000000	99.121326
998.000000	99.163921
997.000000	99.197273
996.000000	99.212868
995.000000	99.224764
994.000000	99.246390
993.000000	99.270621
992.000000	99.287255
991.000000	99.301191
990.000000	99.318719
989.000000	99.333484
988.000000	99.341534
987.000000	99.352649
986.000000	99.371862
985.000000	99.386670
984.000000	99.387375
983.000000	99.383116
982.000000	99.384001
981.000000	99.384989
980.000000	99.380957
979.000000	99.379575
978.000000	99.384923
977.000000	99.386862
976.000000	99.380216
975.000000	99.376327
974.000000	99.382088
973.000000	99.387675
972.000000	99.388139
971.000000	99.395775
970.000000	99.415827
969.000000	99.432033
968.000000	99.433261
967.000000	99.433127
966.000000	99.445961
965.000000	99.463448
964.000000	99.473665
963.000000	99.482274
962.000000	99.496118
961.000000	99.505300
960.000000	99.502119
959.000000	99.499601
958.000000	99.511188
957.000000	99.528328
956.000000	99.537080
955.000000	99.541280
954.000000	99.550852
953.000000	99.563116
952.000000	99.572542
951.000000	99.583623
950.000000	99.597469
949.000000	99.602002
948.000000	99.590984
947.000000	99.576826
946.000000	99.569707
945.000000	99.562152
944.000000	99.549001
943.000000	99.542629
942.000000	99.551555
941.000000	99.562832
940.000000	99.563592
939.000000	99.561352
938.000000	99.566516
937.000000	99.572866
936.000000	99.573221
935.000000	99.575906
934.000000	99.588017
933.000000	99.599811
932.000000	99.603205
931.000000	99.608029
930.000000	99.622913
929.000000	99.638193
928.000000	99.644054
927.000000	99.647649
926.000000	99.655557
925.000000	99.658401
924.000000	99.649606
923.000000	99.641140
922.000000	99.643317
921.000000	99.647788
920.000000	99.646910
919.000000	99.650396
918.000000	99.665237
917.000000	99.678795
916.000000	99.680473
915.000000	99.681073
914.000000	99.692925
913.000000	99.708867
912.000000	99.718980
911.000000	99.729046
910.000000	99.744704
909.000000	99.755697
908.000000	99.753948
907.000000	99.748830
906.000000	99.748018
905.000000	99.742849
904.000000	99.729180
903.000000	99.721824
902.000000	99.730502
901.000000	99.742699
900.000000	99.747141
899.000000	99.752574
898.000000	99.765001
897.000000	99.770409
896.000000	99.759994
895.000000	99.750478
894.000000	99.758186
893.000000	99.773877
892.000000	99.782882
891.000000	99.788173
890.000000	99.794236
889.000000	99.790642
888.000000	99.773112
887.000000	99.758515
886.000000	99.758061
885.000000	99.756986
884.000000	99.742302
883.000000	99.727181
882.000000	99.725632
881.000000	99.725939
880.000000	99.712261
879.000000	99.689617
878.000000	99.663545
877.000000	99.619544
876.000000	99.549260
875.000000	99.475510
874.000000	99.425166
873.000000	99.398634
872.000000	99.388787
871.000000	99.405513
870.000000	99.455447
869.000000	99.519508
868.000000	99.575086
867.000000	99.621368
866.000000	99.662954
865.000000	99.690976
864.000000	99.701755
863.000000	99.710902
862.000000	99.727418
861.000000	99.735927
860.000000	99.725720
859.000000	99.712758
858.000000	99.712001
857.000000	99.712534
856.000000	99.703172
855.000000	99.697437
854.000000	99.708147
853.000000	99.721377
852.000000	99.720604
851.000000	99.714895
850.000000	99.718487
849.000000	99.725044
848.000000	99.725622
847.000000	99.730287
846.000000	99.747952
845.000000	99.766276
844.000000	99.773438
843.000000	99.778040
842.000000	99.786963
841.000000	99.787344
840.000000	99.772141
839.000000	99.759296
838.000000	99.763817
837.000000	99.773806
836.000000	99.775029
835.000000	99.774279
834.000000	99.778598
833.000000	99.777521
832.000000	99.767323
831.000000	99.765821
830.000000	99.780995
829.000000	99.792038
828.000000	99.784261
827.000000	99.773975
826.000000	99.774938
825.000000	99.772944
824.000000	99.759915
823.000000	99.757589
822.000000	99.776974
821.000000	99.791529
820.000000	99.781049
819.000000	99.766336
818.000000	99.770703
817.000000	99.780860
816.000000	99.775648
815.000000	99.763079
814.000000	99.759212
813.000000	99.757025
812.000000	99.745345
811.000000	99.733630
810.000000	99.731995
809.000000	99.731441
808.000000	99.727100
807.000000	99.733418
806.000000	99.753517
805.000000	99.763456
804.000000	99.750721
803.000000	99.737568
802.000000	99.742816
801.000000	99.753343
800.000000	99.757064
799.000000	99.768486
798.000000	99.794035
797.000000	99.808203
796.000000	99.794152
795.000000	99.774130
794.000000	99.770252
793.000000	99.768962
792.000000	99.753048
791.000000	99.734626
790.000000	99.727065
789.000000	99.717795
788.000000	99.699080
787.000000	99.692372
786.000000	99.711050
785.000000	99.730873
784.000000	99.728769
783.000000	99.720656
782.000000	99.729735
781.000000	99.747270
780.000000	99.756219
779.000000	99.764558
778.000000	99.782694
777.000000	99.794837
776.000000	99.785198
775.000000	99.767832
774.000000	99.760501
773.000000	99.754209
772.000000	99.738048
771.000000	99.727707
770.000000	99.738852
769.000000	99.757032
768.000000	99.764009
767.000000	99.769414
766.000000	99.786892
765.000000	99.803248
764.000000	99.800608
763.000000	99.786499
762.000000	99.774415
761.000000	99.758754
760.000000	99.735604
759.000000	99.723190
758.000000	99.733522
757.000000	99.747827
756.000000	99.746398
755.000000	99.738572
754.000000	99.738544
753.000000	99.738142
752.000000	99.729456
751.000000	99.726539
750.000000	99.737983
749.000000	99.745617
748.000000	99.737508
747.000000	99.732825
746.000000	99.746440
745.000000	99.758334
744.000000	99.748403
743.000000	99.732527
742.000000	99.732297
741.000000	99.737225
740.000000	99.728903
739.000000	99.716452
738.000000	99.715142
737.000000	99.715121
736.000000	99.702520
735.000000	99.688273
734.000000	99.685384
733.000000	99.681767
732.000000	99.665467
731.000000	99.653249
730.000000	99.662693
729.000000	99.676582
728.000000	99.668306
727.000000	99.640904
726.000000	99.610841
725.000000	99.578485
724.000000	99.543386
723.000000	99.521908
722.000000	99.520804
721.000000	99.518647
720.000000	99.502307
719.000000	99.493872
718.000000	99.513201
717.000000	99.543035
716.000000	99.558391
715.000000	99.563253
714.000000	99.570234
713.000000	99.571276
712.000000	99.558877
711.000000	99.550689
710.000000	99.561271
709.000000	99.574041
708.000000	99.570868
707.000000	99.566065
706.000000	99.577955
705.000000	99.594296
704.000000	99.597557
703.000000	99.593875
702.000000	99.590702
701.000000	99.574595
700.000000	99.539277
699.000000	99.510587
698.000000	99.509434
697.000000	99.517349
696.000000	99.512484
695.000000	99.507542
694.000000	99.525365
693.000000	99.559327
692.000000	99.585392
691.000000	99.598350
690.000000	99.603744
689.000000	99.599868
688.000000	99.592638
687.000000	99.597962
686.000000	99.610795
685.000000	99.601247
684.000000	99.562434
683.000000	99.533703
682.000000	99.546797
681.000000	99.580435
680.000000	99.594493
679.000000	99.584242
678.000000	99.570735
677.000000	99.554948
676.000000	99.530252
675.000000	99.511924
674.000000	99.512617
673.000000	99.519322
672.000000	99.528671
671.000000	99.575785
670.000000	99.688783
669.000000	99.831720
668.000000	99.870747
667.000000	99.742244
666.000000	99.617419
665.000000	99.540803
664.000000	99.466804
663.000000	99.415669
662.000000	99.410814
661.000000	99.426535
660.000000	99.426337
659.000000	99.421633
658.000000	99.434665
657.000000	99.445365
656.000000	99.438637
655.000000	99.448023
654.000000	99.490532
653.000000	99.519038
652.000000	99.497962
651.000000	99.460824
650.000000	99.447745
649.000000	99.443464
648.000000	99.429606
647.000000	99.430502
646.000000	99.455708
645.000000	99.465516
644.000000	99.439222
643.000000	99.415019
642.000000	99.424728
641.000000	99.444951
640.000000	99.454348
639.000000	99.477605
638.000000	99.522362
637.000000	99.540736
636.000000	99.505292
635.000000	99.459626
634.000000	99.445510
633.000000	99.442989
632.000000	99.428125
631.000000	99.425319
630.000000	99.449693
629.000000	99.461787
628.000000	99.435894
627.000000	99.412426
626.000000	99.427094
625.000000	99.448903
624.000000	99.443532
623.000000	99.435479
622.000000	99.453719
621.000000	99.473224
620.000000	99.466176
619.000000	99.456604
618.000000	99.472203
617.000000	99.492479
616.000000	99.495908
615.000000	99.506676
614.000000	99.540895
613.000000	99.564054
612.000000	99.552485
611.000000	99.540523
610.000000	99.555631
609.000000	99.567388
608.000000	99.550800
607.000000	99.538774
606.000000	99.555448
605.000000	99.564298
604.000000	99.537288
603.000000	99.510993
602.000000	99.518389
601.000000	99.528462
600.000000	99.510939
599.000000	99.494719
598.000000	99.506345
597.000000	99.514593
596.000000	99.495992
595.000000	99.487612
594.000000	99.518086
593.000000	99.545605
592.000000	99.525154
591.000000	99.481690
590.000000	99.454369
589.000000	99.431782
588.000000	99.402716
587.000000	99.402933
586.000000	99.451832
585.000000	99.504266
584.000000	99.522826
583.000000	99.537377
582.000000	99.575756
581.000000	99.603071
580.000000	99.587325
579.000000	99.559891
578.000000	99.554228
577.000000	99.554142
576.000000	99.553283
575.000000	99.587717
574.000000	99.653413
573.000000	99.677417
572.000000	99.627870
571.000000	99.567856
570.000000	99.552232
569.000000	99.546643
568.000000	99.513555
567.000000	99.489568
566.000000	99.503189
565.000000	99.507915
564.000000	99.470250
563.000000	99.434544
562.000000	99.433109
561.000000	99.421819
560.000000	99.374663
559.000000	99.351235
558.000000	99.391271
557.000000	99.435206
556.000000	99.428635
555.000000	99.414244
554.000000	99.436908
553.000000	99.452985
552.000000	99.420740
551.000000	99.385057
550.000000	99.385509
549.000000	99.373786
548.000000	99.319994
547.000000	99.302207
546.000000	99.386624
545.000000	99.502979
544.000000	99.549258
543.000000	99.532171
542.000000	99.507078
541.000000	99.470262
540.000000	99.406029
539.000000	99.358004
538.000000	99.357792
537.000000	99.357791
536.000000	99.321224
535.000000	99.300446
534.000000	99.341278
533.000000	99.396160
532.000000	99.415637
531.000000	99.431580
530.000000	99.465805
529.000000	99.461997
528.000000	99.396519
527.000000	99.356301
526.000000	99.404127
525.000000	99.452510
524.000000	99.408952
523.000000	99.331189
522.000000	99.313426
521.000000	99.342042
520.000000	99.359044
519.000000	99.377107
518.000000	99.427299
517.000000	99.464426
516.000000	99.447624
515.000000	99.426597
514.000000	99.442223
513.000000	99.449605
512.000000	99.418130
511.000000	99.406498
510.000000	99.457672
509.000000	99.517296
508.000000	99.542477
507.000000	99.580040
506.000000	99.644340
505.000000	99.648391
504.000000	99.558028
503.000000	99.486964
502.000000	99.529775
501.000000	99.606320
500.000000	99.617086
499.000000	99.607209
498.000000	99.641177
497.000000	99.669642
496.000000	99.636996
495.000000	99.602972
494.000000	99.631570
493.000000	99.661205
492.000000	99.616550
491.000000	99.552187
490.000000	99.549676
489.000000	99.579337
488.000000	99.594625
487.000000	99.638421
486.000000	99.737125
485.000000	99.802463
484.000000	99.768766
483.000000	99.719998
482.000000	99.733056
481.000000	99.740961
480.000000	99.687089
479.000000	99.659370
478.000000	99.733914
477.000000	99.816095
476.000000	99.790548
475.000000	99.708694
474.000000	99.675908
473.000000	99.668517
472.000000	99.626177
471.000000	99.617519
470.000000	99.698797
469.000000	99.762944
468.000000	99.707641
467.000000	99.610861
466.000000	99.597825
465.000000	99.641810
464.000000	99.666139
463.000000	99.698086
462.000000	99.758327
461.000000	99.747140
460.000000	99.616187
459.000000	99.523320
458.000000	99.637060
457.000000	99.836479
456.000000	99.899042
455.000000	99.856053
454.000000	99.819848
453.000000	99.770392
452.000000	99.677762
451.000000	99.659223
450.000000	99.790439
