PE IR       SUBTECH     SPECTRUM    ASCII       PEDS        4.00        
   -1
Veau_UK-1-F001_1.ASC
23/09/13
10:40:06.00
23/09/13
11:33:37.00
uco
Sample 001 By uco Date Wednesday, September 13 2023
450.000000
#HDR
-1
-1
#GR
cm-1
%T
1.0
0.0
4000.000000
-1.000000
3551
8
99.702766
91.723002
#DATA
4000.000000	99.545825
3999.000000	99.544295
3998.000000	99.545443
3997.000000	99.547640
3996.000000	99.532131
3995.000000	99.531186
3994.000000	99.532893
3993.000000	99.537627
3992.000000	99.544477
3991.000000	99.552054
3990.000000	99.558569
3989.000000	99.561968
3988.000000	99.560511
3987.000000	99.553936
3986.000000	99.544128
3985.000000	99.534234
3984.000000	99.526809
3983.000000	99.522477
3982.000000	99.520147
3981.000000	99.518386
3980.000000	99.516683
3979.000000	99.515647
3978.000000	99.515829
3977.000000	99.516441
3976.000000	99.515697
3975.000000	99.512811
3974.000000	99.509523
3973.000000	99.508862
3972.000000	99.512162
3971.000000	99.517652
3970.000000	99.522240
3969.000000	99.524024
3968.000000	99.522818
3967.000000	99.519348
3966.000000	99.514806
3965.000000	99.511037
3964.000000	99.509834
3963.000000	99.511486
3962.000000	99.514391
3961.000000	99.516297
3960.000000	99.516079
3959.000000	99.513657
3958.000000	99.509060
3957.000000	99.502554
3956.000000	99.495045
3955.000000	99.488100
3954.000000	99.483184
3953.000000	99.481154
3952.000000	99.482340
3951.000000	99.486348
3950.000000	99.491897
3949.000000	99.496768
3948.000000	99.498882
3947.000000	99.497720
3946.000000	99.494040
3945.000000	99.489185
3944.000000	99.484780
3943.000000	99.482022
3942.000000	99.480928
3941.000000	99.479462
3940.000000	99.475184
3939.000000	99.468669
3938.000000	99.464479
3937.000000	99.467828
3936.000000	99.478865
3935.000000	99.491648
3934.000000	99.498873
3933.000000	99.497102
3932.000000	99.488947
3931.000000	99.479970
3930.000000	99.474291
3929.000000	99.472694
3928.000000	99.473782
3927.000000	99.476851
3926.000000	99.482004
3925.000000	99.488576
3924.000000	99.494891
3923.000000	99.499998
3922.000000	99.504584
3921.000000	99.509590
3920.000000	99.513892
3919.000000	99.514466
3918.000000	99.509244
3917.000000	99.500162
3916.000000	99.491984
3915.000000	99.487501
3914.000000	99.486097
3913.000000	99.485963
3912.000000	99.486290
3911.000000	99.486450
3910.000000	99.485336
3909.000000	99.482451
3908.000000	99.478930
3907.000000	99.478140
3906.000000	99.483971
3905.000000	99.497356
3904.000000	99.513388
3903.000000	99.523506
3902.000000	99.522998
3901.000000	99.515063
3900.000000	99.506216
3899.000000	99.500953
3898.000000	99.499172
3897.000000	99.497486
3896.000000	99.493584
3895.000000	99.487990
3894.000000	99.483499
3893.000000	99.483234
3892.000000	99.487564
3891.000000	99.492624
3890.000000	99.493407
3889.000000	99.487973
3888.000000	99.478751
3887.000000	99.471066
3886.000000	99.469818
3885.000000	99.475617
3884.000000	99.483343
3883.000000	99.486806
3882.000000	99.483698
3881.000000	99.475810
3880.000000	99.466608
3879.000000	99.458301
3878.000000	99.450146
3877.000000	99.441469
3876.000000	99.434047
3875.000000	99.431428
3874.000000	99.436283
3873.000000	99.447135
3872.000000	99.458901
3871.000000	99.467199
3870.000000	99.472333
3869.000000	99.477968
3868.000000	99.484377
3867.000000	99.487473
3866.000000	99.484366
3865.000000	99.477214
3864.000000	99.472292
3863.000000	99.474196
3862.000000	99.481591
3861.000000	99.489290
3860.000000	99.492448
3859.000000	99.490254
3858.000000	99.485655
3857.000000	99.483198
3856.000000	99.485536
3855.000000	99.491017
3854.000000	99.497566
3853.000000	99.502351
3852.000000	99.501063
3851.000000	99.492854
3850.000000	99.481530
3849.000000	99.470605
3848.000000	99.462213
3847.000000	99.456834
3846.000000	99.454577
3845.000000	99.455662
3844.000000	99.459745
3843.000000	99.465779
3842.000000	99.473139
3841.000000	99.480959
3840.000000	99.487377
3839.000000	99.490396
3838.000000	99.489732
3837.000000	99.487748
3836.000000	99.485978
3835.000000	99.483656
3834.000000	99.480071
3833.000000	99.475473
3832.000000	99.469727
3831.000000	99.462447
3830.000000	99.453896
3829.000000	99.446307
3828.000000	99.442779
3827.000000	99.444925
3826.000000	99.451895
3825.000000	99.460747
3824.000000	99.468192
3823.000000	99.471443
3822.000000	99.471144
3821.000000	99.472296
3820.000000	99.476934
3819.000000	99.480697
3818.000000	99.480047
3817.000000	99.476562
3816.000000	99.473342
3815.000000	99.471815
3814.000000	99.470187
3813.000000	99.466797
3812.000000	99.463014
3811.000000	99.460978
3810.000000	99.462052
3809.000000	99.466521
3808.000000	99.473695
3807.000000	99.481955
3806.000000	99.489224
3805.000000	99.493223
3804.000000	99.492702
3803.000000	99.486630
3802.000000	99.476434
3801.000000	99.468204
3800.000000	99.466466
3799.000000	99.467291
3798.000000	99.465930
3797.000000	99.461668
3796.000000	99.456529
3795.000000	99.452582
3794.000000	99.450382
3793.000000	99.450234
3792.000000	99.452332
3791.000000	99.455378
3790.000000	99.457035
3789.000000	99.455752
3788.000000	99.451253
3787.000000	99.444627
3786.000000	99.438061
3785.000000	99.433745
3784.000000	99.432131
3783.000000	99.431618
3782.000000	99.430704
3781.000000	99.430312
3780.000000	99.433134
3779.000000	99.439989
3778.000000	99.447962
3777.000000	99.452772
3776.000000	99.452274
3775.000000	99.447296
3774.000000	99.441109
3773.000000	99.437933
3772.000000	99.440670
3771.000000	99.449259
3770.000000	99.460736
3769.000000	99.471183
3768.000000	99.477431
3767.000000	99.478661
3766.000000	99.476271
3765.000000	99.472575
3764.000000	99.469226
3763.000000	99.466163
3762.000000	99.462468
3761.000000	99.457700
3760.000000	99.452484
3759.000000	99.448194
3758.000000	99.447397
3757.000000	99.452979
3756.000000	99.465247
3755.000000	99.481632
3754.000000	99.499554
3753.000000	99.518046
3752.000000	99.535959
3751.000000	99.550227
3750.000000	99.558884
3749.000000	99.563780
3748.000000	99.566161
3747.000000	99.564248
3746.000000	99.554188
3745.000000	99.534946
3744.000000	99.515286
3743.000000	99.505359
3742.000000	99.504876
3741.000000	99.510140
3740.000000	99.517643
3739.000000	99.523404
3738.000000	99.523920
3737.000000	99.520546
3736.000000	99.518218
3735.000000	99.519635
3734.000000	99.524166
3733.000000	99.528389
3732.000000	99.527919
3731.000000	99.520851
3730.000000	99.509213
3729.000000	99.497454
3728.000000	99.489083
3727.000000	99.485046
3726.000000	99.483625
3725.000000	99.482197
3724.000000	99.479671
3723.000000	99.477847
3722.000000	99.480442
3721.000000	99.487924
3720.000000	99.496127
3719.000000	99.499671
3718.000000	99.496820
3717.000000	99.490654
3716.000000	99.485637
3715.000000	99.483983
3714.000000	99.483803
3713.000000	99.480830
3712.000000	99.473415
3711.000000	99.466085
3710.000000	99.465043
3709.000000	99.472115
3708.000000	99.483296
3707.000000	99.492944
3706.000000	99.498355
3705.000000	99.499498
3704.000000	99.497912
3703.000000	99.495544
3702.000000	99.494464
3701.000000	99.495505
3700.000000	99.496620
3699.000000	99.494489
3698.000000	99.488262
3697.000000	99.480472
3696.000000	99.474203
3695.000000	99.469942
3694.000000	99.466283
3693.000000	99.463743
3692.000000	99.465954
3691.000000	99.476303
3690.000000	99.491263
3689.000000	99.499637
3688.000000	99.494030
3687.000000	99.478755
3686.000000	99.462920
3685.000000	99.453018
3684.000000	99.451168
3683.000000	99.454776
3682.000000	99.458767
3681.000000	99.459278
3680.000000	99.455917
3679.000000	99.451423
3678.000000	99.449831
3677.000000	99.453236
3676.000000	99.460074
3675.000000	99.465952
3674.000000	99.468559
3673.000000	99.466884
3672.000000	99.460376
3671.000000	99.447480
3670.000000	99.430450
3669.000000	99.419192
3668.000000	99.419635
3667.000000	99.426076
3666.000000	99.430865
3665.000000	99.430630
3664.000000	99.426078
3663.000000	99.419701
3662.000000	99.414082
3661.000000	99.411032
3660.000000	99.410525
3659.000000	99.411122
3658.000000	99.411337
3657.000000	99.410323
3656.000000	99.407335
3655.000000	99.401232
3654.000000	99.392584
3653.000000	99.385057
3652.000000	99.384405
3651.000000	99.394818
3650.000000	99.410829
3649.000000	99.414004
3648.000000	99.395870
3647.000000	99.371897
3646.000000	99.357497
3645.000000	99.353684
3644.000000	99.354637
3643.000000	99.355140
3642.000000	99.352651
3641.000000	99.346949
3640.000000	99.338461
3639.000000	99.328227
3638.000000	99.318999
3637.000000	99.313626
3636.000000	99.312588
3635.000000	99.314634
3634.000000	99.319812
3633.000000	99.329036
3632.000000	99.340159
3631.000000	99.345908
3630.000000	99.338311
3629.000000	99.318955
3628.000000	99.302499
3627.000000	99.298850
3626.000000	99.302300
3625.000000	99.304891
3624.000000	99.302546
3623.000000	99.295265
3622.000000	99.286264
3621.000000	99.278896
3620.000000	99.272283
3619.000000	99.262392
3618.000000	99.249169
3617.000000	99.238103
3616.000000	99.232737
3615.000000	99.230989
3614.000000	99.228673
3613.000000	99.224257
3612.000000	99.219564
3611.000000	99.214685
3610.000000	99.206075
3609.000000	99.191438
3608.000000	99.175085
3607.000000	99.164985
3606.000000	99.164267
3605.000000	99.168516
3604.000000	99.170105
3603.000000	99.163812
3602.000000	99.149783
3601.000000	99.132762
3600.000000	99.118357
3599.000000	99.109140
3598.000000	99.103562
3597.000000	99.098336
3596.000000	99.090734
3595.000000	99.080078
3594.000000	99.069322
3593.000000	99.062454
3592.000000	99.059836
3591.000000	99.057527
3590.000000	99.050851
3589.000000	99.037693
3588.000000	99.019390
3587.000000	99.000465
3586.000000	98.988181
3585.000000	98.985001
3584.000000	98.985957
3583.000000	98.985325
3582.000000	98.981642
3581.000000	98.976226
3580.000000	98.969506
3579.000000	98.959836
3578.000000	98.946737
3577.000000	98.933204
3576.000000	98.923059
3575.000000	98.916962
3574.000000	98.912131
3573.000000	98.905842
3572.000000	98.896896
3571.000000	98.885550
3570.000000	98.873401
3569.000000	98.863671
3568.000000	98.857703
3567.000000	98.851822
3566.000000	98.843175
3565.000000	98.835106
3564.000000	98.829011
3563.000000	98.821881
3562.000000	98.812006
3561.000000	98.801519
3560.000000	98.793229
3559.000000	98.787370
3558.000000	98.781982
3557.000000	98.775789
3556.000000	98.769013
3555.000000	98.762329
3554.000000	98.755887
3553.000000	98.749485
3552.000000	98.742632
3551.000000	98.734796
3550.000000	98.726144
3549.000000	98.717827
3548.000000	98.710971
3547.000000	98.704856
3546.000000	98.697089
3545.000000	98.686493
3544.000000	98.674156
3543.000000	98.660800
3542.000000	98.646151
3541.000000	98.630631
3540.000000	98.615677
3539.000000	98.602557
3538.000000	98.591305
3537.000000	98.581071
3536.000000	98.570768
3535.000000	98.559955
3534.000000	98.549412
3533.000000	98.540634
3532.000000	98.534902
3531.000000	98.532372
3530.000000	98.531793
3529.000000	98.530765
3528.000000	98.526768
3527.000000	98.518903
3526.000000	98.508584
3525.000000	98.497327
3524.000000	98.484684
3523.000000	98.470011
3522.000000	98.455464
3521.000000	98.444737
3520.000000	98.438712
3519.000000	98.434497
3518.000000	98.428682
3517.000000	98.420151
3516.000000	98.409761
3515.000000	98.398577
3514.000000	98.387705
3513.000000	98.378284
3512.000000	98.370799
3511.000000	98.364942
3510.000000	98.360214
3509.000000	98.355550
3508.000000	98.348507
3507.000000	98.337075
3506.000000	98.323105
3505.000000	98.312418
3504.000000	98.309267
3503.000000	98.311177
3502.000000	98.311442
3501.000000	98.305629
3500.000000	98.293699
3499.000000	98.277996
3498.000000	98.262068
3497.000000	98.249940
3496.000000	98.244291
3495.000000	98.244755
3494.000000	98.248185
3493.000000	98.250145
3492.000000	98.246554
3491.000000	98.236136
3490.000000	98.222231
3489.000000	98.210340
3488.000000	98.202705
3487.000000	98.196763
3486.000000	98.189774
3485.000000	98.182863
3484.000000	98.178901
3483.000000	98.178046
3482.000000	98.177328
3481.000000	98.174130
3480.000000	98.168222
3479.000000	98.160529
3478.000000	98.151578
3477.000000	98.141519
3476.000000	98.130766
3475.000000	98.120566
3474.000000	98.112908
3473.000000	98.108835
3472.000000	98.106459
3471.000000	98.102008
3470.000000	98.093885
3469.000000	98.084606
3468.000000	98.077962
3467.000000	98.075197
3466.000000	98.074380
3465.000000	98.072265
3464.000000	98.065764
3463.000000	98.053291
3462.000000	98.036655
3461.000000	98.020738
3460.000000	98.009494
3459.000000	98.002595
3458.000000	97.996955
3457.000000	97.990753
3456.000000	97.984415
3455.000000	97.978587
3454.000000	97.973194
3453.000000	97.968368
3452.000000	97.964776
3451.000000	97.962198
3450.000000	97.959106
3449.000000	97.954321
3448.000000	97.948728
3447.000000	97.944917
3446.000000	97.944780
3445.000000	97.946801
3444.000000	97.946006
3443.000000	97.937612
3442.000000	97.921476
3441.000000	97.902662
3440.000000	97.886799
3439.000000	97.875669
3438.000000	97.867742
3437.000000	97.861552
3436.000000	97.856852
3435.000000	97.853139
3434.000000	97.848809
3433.000000	97.842209
3432.000000	97.833413
3431.000000	97.824741
3430.000000	97.819882
3429.000000	97.821401
3428.000000	97.828008
3427.000000	97.834682
3426.000000	97.836073
3425.000000	97.829912
3424.000000	97.817331
3423.000000	97.801255
3422.000000	97.785171
3421.000000	97.772020
3420.000000	97.762672
3419.000000	97.755840
3418.000000	97.750290
3417.000000	97.746285
3416.000000	97.744295
3415.000000	97.743321
3414.000000	97.741535
3413.000000	97.737884
3412.000000	97.732177
3411.000000	97.724499
3410.000000	97.715536
3409.000000	97.706669
3408.000000	97.698507
3407.000000	97.690008
3406.000000	97.679947
3405.000000	97.668788
3404.000000	97.658300
3403.000000	97.650016
3402.000000	97.644756
3401.000000	97.642414
3400.000000	97.641436
3399.000000	97.639490
3398.000000	97.635743
3397.000000	97.631598
3396.000000	97.628155
3395.000000	97.624093
3394.000000	97.617461
3393.000000	97.608654
3392.000000	97.599943
3391.000000	97.592447
3390.000000	97.585155
3389.000000	97.577103
3388.000000	97.569219
3387.000000	97.563400
3386.000000	97.560160
3385.000000	97.557515
3384.000000	97.552388
3383.000000	97.543386
3382.000000	97.531976
3381.000000	97.520425
3380.000000	97.509125
3379.000000	97.496835
3378.000000	97.483312
3377.000000	97.470219
3376.000000	97.459267
3375.000000	97.450666
3374.000000	97.443540
3373.000000	97.436530
3372.000000	97.427721
3371.000000	97.415614
3370.000000	97.400965
3369.000000	97.386357
3368.000000	97.373234
3367.000000	97.360664
3366.000000	97.347728
3365.000000	97.335433
3364.000000	97.324763
3363.000000	97.314252
3362.000000	97.301035
3361.000000	97.283530
3360.000000	97.261944
3359.000000	97.237224
3358.000000	97.211262
3357.000000	97.187626
3356.000000	97.170009
3355.000000	97.159126
3354.000000	97.151826
3353.000000	97.143506
3352.000000	97.130933
3351.000000	97.113110
3350.000000	97.090677
3349.000000	97.065340
3348.000000	97.039669
3347.000000	97.016649
3346.000000	96.998231
3345.000000	96.983583
3344.000000	96.969110
3343.000000	96.951066
3342.000000	96.928492
3341.000000	96.903275
3340.000000	96.877994
3339.000000	96.854515
3338.000000	96.833887
3337.000000	96.815981
3336.000000	96.799316
3335.000000	96.782586
3334.000000	96.766373
3333.000000	96.752027
3332.000000	96.738921
3331.000000	96.724697
3330.000000	96.708388
3329.000000	96.691647
3328.000000	96.676491
3327.000000	96.663482
3326.000000	96.652551
3325.000000	96.643611
3324.000000	96.635220
3323.000000	96.624223
3322.000000	96.608521
3321.000000	96.589508
3320.000000	96.570942
3319.000000	96.556146
3318.000000	96.546471
3317.000000	96.540879
3316.000000	96.536100
3315.000000	96.528642
3314.000000	96.518173
3313.000000	96.508208
3312.000000	96.502212
3311.000000	96.499760
3310.000000	96.497552
3309.000000	96.493495
3308.000000	96.488609
3307.000000	96.485162
3306.000000	96.483913
3305.000000	96.483142
3304.000000	96.479791
3303.000000	96.471811
3302.000000	96.459918
3301.000000	96.447046
3300.000000	96.436088
3299.000000	96.428471
3298.000000	96.424260
3297.000000	96.422240
3296.000000	96.420052
3295.000000	96.415692
3294.000000	96.409305
3293.000000	96.402584
3292.000000	96.396451
3291.000000	96.390704
3290.000000	96.385843
3289.000000	96.383264
3288.000000	96.383028
3287.000000	96.383169
3286.000000	96.382280
3285.000000	96.381399
3284.000000	96.382479
3283.000000	96.386131
3282.000000	96.391450
3281.000000	96.396986
3280.000000	96.401182
3279.000000	96.403208
3278.000000	96.404212
3277.000000	96.406717
3276.000000	96.412120
3275.000000	96.419648
3274.000000	96.427891
3273.000000	96.435721
3272.000000	96.441506
3271.000000	96.443611
3270.000000	96.442802
3269.000000	96.442343
3268.000000	96.444425
3267.000000	96.447840
3266.000000	96.450249
3265.000000	96.451509
3264.000000	96.453533
3263.000000	96.458115
3262.000000	96.465990
3261.000000	96.476757
3260.000000	96.488330
3259.000000	96.497472
3258.000000	96.502336
3257.000000	96.504226
3256.000000	96.506190
3255.000000	96.510527
3254.000000	96.517966
3253.000000	96.528165
3252.000000	96.540220
3251.000000	96.553350
3250.000000	96.567556
3249.000000	96.582628
3248.000000	96.596448
3247.000000	96.605928
3246.000000	96.610212
3245.000000	96.611679
3244.000000	96.613256
3243.000000	96.616189
3242.000000	96.620856
3241.000000	96.627552
3240.000000	96.635374
3239.000000	96.642264
3238.000000	96.647447
3237.000000	96.652376
3236.000000	96.658190
3235.000000	96.664093
3234.000000	96.669533
3233.000000	96.675777
3232.000000	96.683490
3231.000000	96.690408
3230.000000	96.693946
3229.000000	96.695067
3228.000000	96.697282
3227.000000	96.702367
3226.000000	96.709186
3225.000000	96.716396
3224.000000	96.724205
3223.000000	96.733048
3222.000000	96.741838
3221.000000	96.748245
3220.000000	96.750447
3219.000000	96.748982
3218.000000	96.747071
3217.000000	96.748382
3216.000000	96.753996
3215.000000	96.761992
3214.000000	96.770392
3213.000000	96.779286
3212.000000	96.789250
3211.000000	96.798934
3210.000000	96.805830
3209.000000	96.809171
3208.000000	96.810735
3207.000000	96.812925
3206.000000	96.816915
3205.000000	96.822707
3204.000000	96.830146
3203.000000	96.839555
3202.000000	96.851201
3201.000000	96.863820
3200.000000	96.873985
3199.000000	96.878362
3198.000000	96.877279
3197.000000	96.875222
3196.000000	96.877111
3195.000000	96.884409
3194.000000	96.895033
3193.000000	96.905701
3192.000000	96.914007
3191.000000	96.919645
3190.000000	96.924665
3189.000000	96.931796
3188.000000	96.941720
3187.000000	96.952739
3186.000000	96.963511
3185.000000	96.975053
3184.000000	96.989094
3183.000000	97.005443
3182.000000	97.022056
3181.000000	97.037214
3180.000000	97.050791
3179.000000	97.063705
3178.000000	97.076666
3177.000000	97.089156
3176.000000	97.099510
3175.000000	97.106751
3174.000000	97.112296
3173.000000	97.118794
3172.000000	97.127059
3171.000000	97.135442
3170.000000	97.142797
3169.000000	97.150390
3168.000000	97.159861
3167.000000	97.170595
3166.000000	97.180634
3165.000000	97.189475
3164.000000	97.198610
3163.000000	97.209689
3162.000000	97.223070
3161.000000	97.237794
3160.000000	97.252070
3159.000000	97.264192
3158.000000	97.273925
3157.000000	97.282781
3156.000000	97.292421
3155.000000	97.303172
3154.000000	97.314636
3153.000000	97.326808
3152.000000	97.339489
3151.000000	97.351003
3150.000000	97.358802
3149.000000	97.361957
3148.000000	97.362842
3147.000000	97.366116
3146.000000	97.375406
3145.000000	97.390245
3144.000000	97.406202
3143.000000	97.418817
3142.000000	97.427252
3141.000000	97.433491
3140.000000	97.438780
3139.000000	97.442794
3138.000000	97.446258
3137.000000	97.452013
3136.000000	97.462430
3135.000000	97.476894
3134.000000	97.492442
3133.000000	97.505455
3132.000000	97.512574
3131.000000	97.512255
3130.000000	97.507122
3129.000000	97.503271
3128.000000	97.505420
3127.000000	97.513146
3126.000000	97.522917
3125.000000	97.532606
3124.000000	97.542206
3123.000000	97.551286
3122.000000	97.558291
3121.000000	97.562484
3120.000000	97.564570
3119.000000	97.565016
3118.000000	97.563128
3117.000000	97.558228
3116.000000	97.550734
3115.000000	97.542113
3114.000000	97.534718
3113.000000	97.531441
3112.000000	97.533985
3111.000000	97.540677
3110.000000	97.546786
3109.000000	97.547749
3108.000000	97.542200
3107.000000	97.532155
3106.000000	97.521136
3105.000000	97.512121
3104.000000	97.506295
3103.000000	97.502820
3102.000000	97.499785
3101.000000	97.495732
3100.000000	97.490645
3099.000000	97.485827
3098.000000	97.482666
3097.000000	97.480910
3096.000000	97.478166
3095.000000	97.472002
3094.000000	97.462840
3093.000000	97.453729
3092.000000	97.446815
3091.000000	97.441200
3090.000000	97.434982
3089.000000	97.428321
3088.000000	97.423435
3087.000000	97.422138
3086.000000	97.424281
3085.000000	97.427858
3084.000000	97.429726
3083.000000	97.427220
3082.000000	97.420520
3081.000000	97.413072
3080.000000	97.408219
3079.000000	97.405443
3078.000000	97.401132
3077.000000	97.393173
3076.000000	97.383905
3075.000000	97.378480
3074.000000	97.380771
3073.000000	97.390560
3072.000000	97.403923
3071.000000	97.416237
3070.000000	97.425146
3069.000000	97.430560
3068.000000	97.432228
3067.000000	97.429046
3066.000000	97.421633
3065.000000	97.414289
3064.000000	97.412411
3063.000000	97.418121
3062.000000	97.429468
3061.000000	97.443357
3060.000000	97.457867
3059.000000	97.472191
3058.000000	97.486015
3057.000000	97.499409
3056.000000	97.512425
3055.000000	97.524440
3054.000000	97.534400
3053.000000	97.541767
3052.000000	97.547088
3051.000000	97.552046
3050.000000	97.559181
3049.000000	97.570541
3048.000000	97.585585
3047.000000	97.601089
3046.000000	97.614265
3045.000000	97.625648
3044.000000	97.637976
3043.000000	97.652621
3042.000000	97.668009
3041.000000	97.681308
3040.000000	97.690734
3039.000000	97.696669
3038.000000	97.701609
3037.000000	97.708891
3036.000000	97.720418
3035.000000	97.735392
3034.000000	97.751591
3033.000000	97.767272
3032.000000	97.781027
3031.000000	97.790846
3030.000000	97.795469
3029.000000	97.797063
3028.000000	97.800919
3027.000000	97.811127
3026.000000	97.826657
3025.000000	97.842062
3024.000000	97.852021
3023.000000	97.855534
3022.000000	97.856322
3021.000000	97.859485
3020.000000	97.867234
3019.000000	97.877504
3018.000000	97.886688
3017.000000	97.893293
3016.000000	97.898395
3015.000000	97.903130
3014.000000	97.907085
3013.000000	97.909418
3012.000000	97.910551
3011.000000	97.912033
3010.000000	97.915068
3009.000000	97.919493
3008.000000	97.924085
3007.000000	97.927723
3006.000000	97.930329
3005.000000	97.932486
3004.000000	97.933948
3003.000000	97.933221
3002.000000	97.929426
3001.000000	97.924300
3000.000000	97.921237
2999.000000	97.922018
2998.000000	97.924995
2997.000000	97.926651
2996.000000	97.924381
2995.000000	97.917818
2994.000000	97.908304
2993.000000	97.897535
2992.000000	97.886306
2991.000000	97.874137
2990.000000	97.860209
2989.000000	97.844559
2988.000000	97.828171
2987.000000	97.812130
2986.000000	97.797265
2985.000000	97.784445
2984.000000	97.774394
2983.000000	97.766964
2982.000000	97.761253
2981.000000	97.756606
2980.000000	97.752687
2979.000000	97.748159
2978.000000	97.740420
2977.000000	97.727883
2976.000000	97.712162
2975.000000	97.696722
2974.000000	97.683087
2973.000000	97.669411
2972.000000	97.653374
2971.000000	97.635358
2970.000000	97.617455
2969.000000	97.599653
2968.000000	97.578794
2967.000000	97.552165
2966.000000	97.521278
2965.000000	97.490990
2964.000000	97.465106
2963.000000	97.443721
2962.000000	97.424573
2961.000000	97.405929
2960.000000	97.387763
2959.000000	97.370942
2958.000000	97.356302
2957.000000	97.344638
2956.000000	97.337327
2955.000000	97.336289
2954.000000	97.342583
2953.000000	97.354649
2952.000000	97.368306
2951.000000	97.379254
2950.000000	97.385422
2949.000000	97.386847
2948.000000	97.383922
2947.000000	97.376808
2946.000000	97.366135
2945.000000	97.352792
2944.000000	97.336812
2943.000000	97.317506
2942.000000	97.295160
2941.000000	97.271501
2940.000000	97.247827
2939.000000	97.223375
2938.000000	97.195960
2937.000000	97.163590
2936.000000	97.125097
2935.000000	97.080408
2934.000000	97.031323
2933.000000	96.981499
2932.000000	96.934414
2931.000000	96.890923
2930.000000	96.848790
2929.000000	96.804196
2928.000000	96.753907
2927.000000	96.697583
2926.000000	96.638837
2925.000000	96.583150
2924.000000	96.533326
2923.000000	96.487433
2922.000000	96.442197
2921.000000	96.398096
2920.000000	96.360852
2919.000000	96.338806
2918.000000	96.340150
2917.000000	96.371451
2916.000000	96.435573
2915.000000	96.529397
2914.000000	96.643656
2913.000000	96.765924
2912.000000	96.884388
2911.000000	96.990767
2910.000000	97.081536
2909.000000	97.157114
2908.000000	97.219592
2907.000000	97.270894
2906.000000	97.313131
2905.000000	97.349265
2904.000000	97.381762
2903.000000	97.410964
2902.000000	97.435289
2901.000000	97.454783
2900.000000	97.472153
2899.000000	97.490453
2898.000000	97.511021
2897.000000	97.533741
2896.000000	97.558350
2895.000000	97.584378
2894.000000	97.610603
2893.000000	97.635556
2892.000000	97.658304
2891.000000	97.678213
2890.000000	97.694621
2889.000000	97.707609
2888.000000	97.718587
2887.000000	97.728949
2886.000000	97.738278
2885.000000	97.744879
2884.000000	97.748248
2883.000000	97.750054
2882.000000	97.752347
2881.000000	97.755548
2880.000000	97.758626
2879.000000	97.760586
2878.000000	97.760959
2877.000000	97.759151
2876.000000	97.754466
2875.000000	97.747418
2874.000000	97.740609
2873.000000	97.737260
2872.000000	97.738452
2871.000000	97.742241
2870.000000	97.745879
2869.000000	97.748653
2868.000000	97.751942
2867.000000	97.756822
2866.000000	97.762348
2865.000000	97.766163
2864.000000	97.765903
2863.000000	97.759817
2862.000000	97.746987
2861.000000	97.727686
2860.000000	97.702827
2859.000000	97.672165
2858.000000	97.633609
2857.000000	97.585333
2856.000000	97.528372
2855.000000	97.466116
2854.000000	97.401747
2853.000000	97.337719
2852.000000	97.278954
2851.000000	97.235806
2850.000000	97.221901
2849.000000	97.247697
2848.000000	97.314438
2847.000000	97.412916
2846.000000	97.527317
2845.000000	97.641373
2844.000000	97.743198
2843.000000	97.827419
2842.000000	97.894599
2841.000000	97.948871
2840.000000	97.995218
2839.000000	98.036956
2838.000000	98.074544
2837.000000	98.106324
2836.000000	98.130652
2835.000000	98.147781
2834.000000	98.160109
2833.000000	98.170539
2832.000000	98.180480
2831.000000	98.189545
2830.000000	98.197266
2829.000000	98.204822
2828.000000	98.214246
2827.000000	98.225825
2826.000000	98.237309
2825.000000	98.246472
2824.000000	98.253821
2823.000000	98.261626
2822.000000	98.270670
2821.000000	98.279443
2820.000000	98.286723
2819.000000	98.293334
2818.000000	98.300298
2817.000000	98.306462
2816.000000	98.309623
2815.000000	98.309821
2814.000000	98.310056
2813.000000	98.313194
2812.000000	98.319067
2811.000000	98.325165
2810.000000	98.329569
2809.000000	98.332461
2808.000000	98.334991
2807.000000	98.337556
2806.000000	98.339599
2805.000000	98.340708
2804.000000	98.341310
2803.000000	98.342148
2802.000000	98.343553
2801.000000	98.345771
2800.000000	98.349693
2799.000000	98.356230
2798.000000	98.364432
2797.000000	98.371050
2796.000000	98.373142
2795.000000	98.371326
2794.000000	98.369654
2793.000000	98.372082
2792.000000	98.379458
2791.000000	98.389775
2790.000000	98.400219
2789.000000	98.408475
2788.000000	98.413149
2787.000000	98.414445
2786.000000	98.414507
2785.000000	98.416070
2784.000000	98.420255
2783.000000	98.425919
2782.000000	98.431239
2781.000000	98.435570
2780.000000	98.439648
2779.000000	98.444328
2778.000000	98.449300
2777.000000	98.452955
2776.000000	98.453760
2775.000000	98.452266
2774.000000	98.451601
2773.000000	98.455094
2772.000000	98.462893
2771.000000	98.471366
2770.000000	98.476450
2769.000000	98.477431
2768.000000	98.477180
2767.000000	98.478987
2766.000000	98.483623
2765.000000	98.489354
2764.000000	98.494290
2763.000000	98.498403
2762.000000	98.503351
2761.000000	98.510370
2760.000000	98.518474
2759.000000	98.525038
2758.000000	98.528272
2757.000000	98.528801
2756.000000	98.528753
2755.000000	98.529959
2754.000000	98.533402
2753.000000	98.539502
2752.000000	98.547543
2751.000000	98.554860
2750.000000	98.557972
2749.000000	98.555497
2748.000000	98.549826
2747.000000	98.545458
2746.000000	98.545577
2745.000000	98.549970
2744.000000	98.555758
2743.000000	98.560127
2742.000000	98.562811
2741.000000	98.565995
2740.000000	98.571501
2739.000000	98.578296
2738.000000	98.583411
2737.000000	98.585273
2736.000000	98.585248
2735.000000	98.585618
2734.000000	98.586981
2733.000000	98.588390
2732.000000	98.589415
2731.000000	98.591081
2730.000000	98.594742
2729.000000	98.600563
2728.000000	98.607112
2727.000000	98.612155
2726.000000	98.614014
2725.000000	98.612731
2724.000000	98.610157
2723.000000	98.608769
2722.000000	98.610088
2721.000000	98.613805
2720.000000	98.618051
2719.000000	98.620815
2718.000000	98.621801
2717.000000	98.623025
2716.000000	98.626962
2715.000000	98.633759
2714.000000	98.640726
2713.000000	98.644843
2712.000000	98.645373
2711.000000	98.643922
2710.000000	98.642736
2709.000000	98.643492
2708.000000	98.647037
2707.000000	98.653218
2706.000000	98.660758
2705.000000	98.667807
2704.000000	98.672938
2703.000000	98.675762
2702.000000	98.676815
2701.000000	98.676927
2700.000000	98.676586
2699.000000	98.675910
2698.000000	98.675279
2697.000000	98.675393
2696.000000	98.676118
2695.000000	98.675950
2694.000000	98.673837
2693.000000	98.671254
2692.000000	98.670954
2691.000000	98.673484
2690.000000	98.676485
2689.000000	98.677866
2688.000000	98.677950
2687.000000	98.677693
2686.000000	98.676613
2685.000000	98.674001
2684.000000	98.670791
2683.000000	98.668487
2682.000000	98.667273
2681.000000	98.666957
2680.000000	98.668683
2679.000000	98.673306
2678.000000	98.678493
2677.000000	98.680101
2676.000000	98.677162
2675.000000	98.673542
2674.000000	98.673667
2673.000000	98.677753
2672.000000	98.681937
2671.000000	98.682145
2670.000000	98.677359
2669.000000	98.670230
2668.000000	98.665278
2667.000000	98.665634
2666.000000	98.670538
2665.000000	98.676134
2664.000000	98.678936
2663.000000	98.678245
2662.000000	98.675501
2661.000000	98.672388
2660.000000	98.669913
2659.000000	98.668342
2658.000000	98.667371
2657.000000	98.666757
2656.000000	98.667074
2655.000000	98.669307
2654.000000	98.673584
2653.000000	98.679074
2652.000000	98.685248
2651.000000	98.692322
2650.000000	98.700117
2649.000000	98.707566
2648.000000	98.714071
2647.000000	98.720444
2646.000000	98.727505
2645.000000	98.734260
2644.000000	98.738431
2643.000000	98.738765
2642.000000	98.736414
2641.000000	98.734219
2640.000000	98.734814
2639.000000	98.738975
2638.000000	98.745437
2637.000000	98.752529
2636.000000	98.759941
2635.000000	98.768192
2634.000000	98.776370
2633.000000	98.781539
2632.000000	98.781308
2631.000000	98.776660
2630.000000	98.771733
2629.000000	98.770993
2628.000000	98.776349
2627.000000	98.785863
2626.000000	98.794738
2625.000000	98.798687
2624.000000	98.797668
2623.000000	98.796244
2622.000000	98.799575
2621.000000	98.808870
2620.000000	98.820701
2619.000000	98.830168
2618.000000	98.834627
2617.000000	98.835314
2616.000000	98.836198
2615.000000	98.840842
2614.000000	98.849575
2613.000000	98.859512
2612.000000	98.867365
2611.000000	98.871949
2610.000000	98.874057
2609.000000	98.874871
2608.000000	98.875098
2607.000000	98.875171
2606.000000	98.875582
2605.000000	98.876797
2604.000000	98.878968
2603.000000	98.881733
2602.000000	98.884613
2601.000000	98.887791
2600.000000	98.891899
2599.000000	98.896455
2598.000000	98.899048
2597.000000	98.897190
2596.000000	98.891008
2595.000000	98.883419
2594.000000	98.877944
2593.000000	98.876891
2592.000000	98.880818
2591.000000	98.888261
2590.000000	98.896281
2589.000000	98.902683
2588.000000	98.907740
2587.000000	98.912681
2586.000000	98.917080
2585.000000	98.919699
2584.000000	98.921715
2583.000000	98.926660
2582.000000	98.936039
2581.000000	98.946659
2580.000000	98.953531
2579.000000	98.954751
2578.000000	98.952779
2577.000000	98.951639
2576.000000	98.953504
2575.000000	98.957346
2574.000000	98.960494
2573.000000	98.961687
2572.000000	98.962285
2571.000000	98.963947
2570.000000	98.965914
2569.000000	98.965992
2568.000000	98.963718
2567.000000	98.960760
2566.000000	98.958500
2565.000000	98.957248
2564.000000	98.957944
2563.000000	98.962082
2562.000000	98.968786
2561.000000	98.973774
2560.000000	98.972957
2559.000000	98.966618
2558.000000	98.959372
2557.000000	98.956732
2556.000000	98.961674
2555.000000	98.972907
2554.000000	98.985416
2553.000000	98.993565
2552.000000	98.994905
2551.000000	98.991346
2550.000000	98.987226
2549.000000	98.986907
2548.000000	98.992987
2547.000000	99.004169
2546.000000	99.014459
2545.000000	99.017091
2544.000000	99.011139
2543.000000	99.003073
2542.000000	99.000209
2541.000000	99.003307
2540.000000	99.006887
2539.000000	99.006273
2538.000000	99.002614
2537.000000	99.000892
2536.000000	99.004405
2535.000000	99.012230
2534.000000	99.021508
2533.000000	99.030572
2532.000000	99.038969
2531.000000	99.045244
2530.000000	99.046647
2529.000000	99.041957
2528.000000	99.033806
2527.000000	99.027108
2526.000000	99.025068
2525.000000	99.026746
2524.000000	99.027948
2523.000000	99.024731
2522.000000	99.017434
2521.000000	99.011497
2520.000000	99.012689
2519.000000	99.020707
2518.000000	99.029043
2517.000000	99.032178
2516.000000	99.031155
2515.000000	99.030659
2514.000000	99.032754
2513.000000	99.036102
2512.000000	99.039861
2511.000000	99.044933
2510.000000	99.051108
2509.000000	99.055647
2508.000000	99.055774
2507.000000	99.051248
2506.000000	99.044038
2505.000000	99.036790
2504.000000	99.031943
2503.000000	99.031098
2502.000000	99.034327
2501.000000	99.039937
2500.000000	99.044768
2499.000000	99.045208
2498.000000	99.039778
2497.000000	99.031578
2496.000000	99.026591
2495.000000	99.028136
2494.000000	99.033755
2493.000000	99.038608
2492.000000	99.040493
2491.000000	99.040453
2490.000000	99.040441
2489.000000	99.042274
2488.000000	99.047152
2487.000000	99.053657
2486.000000	99.057569
2485.000000	99.056325
2484.000000	99.052942
2483.000000	99.052930
2482.000000	99.057924
2481.000000	99.065001
2480.000000	99.071552
2479.000000	99.077790
2478.000000	99.084152
2477.000000	99.089126
2476.000000	99.090910
2475.000000	99.089839
2474.000000	99.088348
2473.000000	99.089038
2472.000000	99.092452
2471.000000	99.095779
2470.000000	99.094623
2469.000000	99.087667
2468.000000	99.079141
2467.000000	99.075155
2466.000000	99.077538
2465.000000	99.081890
2464.000000	99.081228
2463.000000	99.071348
2462.000000	99.054599
2461.000000	99.039717
2460.000000	99.035678
2459.000000	99.043490
2458.000000	99.055310
2457.000000	99.062958
2456.000000	99.065681
2455.000000	99.067662
2454.000000	99.070417
2453.000000	99.071579
2452.000000	99.070228
2451.000000	99.069649
2450.000000	99.073702
2449.000000	99.082153
2448.000000	99.090094
2447.000000	99.091635
2446.000000	99.085306
2445.000000	99.076358
2444.000000	99.071901
2443.000000	99.073064
2442.000000	99.074327
2441.000000	99.071476
2440.000000	99.066724
2439.000000	99.064046
2438.000000	99.063603
2437.000000	99.064042
2436.000000	99.066585
2435.000000	99.072482
2434.000000	99.079369
2433.000000	99.084881
2432.000000	99.091388
2431.000000	99.101898
2430.000000	99.112927
2429.000000	99.117046
2428.000000	99.112191
2427.000000	99.103919
2426.000000	99.098434
2425.000000	99.097522
2424.000000	99.100153
2423.000000	99.104738
2422.000000	99.109209
2421.000000	99.111962
2420.000000	99.113082
2419.000000	99.112543
2418.000000	99.108270
2417.000000	99.099133
2416.000000	99.088921
2415.000000	99.083723
2414.000000	99.085522
2413.000000	99.091126
2412.000000	99.096803
2411.000000	99.101192
2410.000000	99.104442
2409.000000	99.107467
2408.000000	99.111568
2407.000000	99.116329
2406.000000	99.118830
2405.000000	99.117263
2404.000000	99.113879
2403.000000	99.111790
2402.000000	99.110710
2401.000000	99.108857
2400.000000	99.106996
2399.000000	99.107009
2398.000000	99.108219
2397.000000	99.108931
2396.000000	99.110190
2395.000000	99.114109
2394.000000	99.119414
2393.000000	99.122472
2392.000000	99.121837
2391.000000	99.118595
2390.000000	99.112988
2389.000000	99.104345
2388.000000	99.094159
2387.000000	99.085266
2386.000000	99.079368
2385.000000	99.077205
2384.000000	99.080082
2383.000000	99.088851
2382.000000	99.101257
2381.000000	99.114538
2380.000000	99.127820
2379.000000	99.138788
2378.000000	99.140993
2377.000000	99.128728
2376.000000	99.104173
2375.000000	99.075756
2374.000000	99.052478
2373.000000	99.042139
2372.000000	99.049737
2371.000000	99.070356
2370.000000	99.089619
2369.000000	99.098719
2368.000000	99.101170
2367.000000	99.101965
2366.000000	99.098717
2365.000000	99.089938
2364.000000	99.081791
2363.000000	99.076135
2362.000000	99.063602
2361.000000	99.036906
2360.000000	99.003202
2359.000000	98.976860
2358.000000	98.967380
2357.000000	98.977615
2356.000000	98.998219
2355.000000	99.014376
2354.000000	99.028721
2353.000000	99.054952
2352.000000	99.083425
2351.000000	99.084536
2350.000000	99.050244
2349.000000	99.001107
2348.000000	98.965732
2347.000000	98.961781
2346.000000	98.977604
2345.000000	98.978313
2344.000000	98.950147
2343.000000	98.918251
2342.000000	98.908694
2341.000000	98.922072
2340.000000	98.939969
2339.000000	98.947491
2338.000000	98.947277
2337.000000	98.949126
2336.000000	98.955648
2335.000000	98.964398
2334.000000	98.978520
2333.000000	99.002679
2332.000000	99.028196
2331.000000	99.037229
2330.000000	99.021809
2329.000000	98.988610
2328.000000	98.948467
2327.000000	98.907803
2326.000000	98.872114
2325.000000	98.849025
2324.000000	98.844666
2323.000000	98.858404
2322.000000	98.877926
2321.000000	98.886021
2320.000000	98.875598
2319.000000	98.856557
2318.000000	98.845374
2317.000000	98.850630
2316.000000	98.870796
2315.000000	98.898773
2314.000000	98.924449
2313.000000	98.938175
2312.000000	98.938157
2311.000000	98.933216
2310.000000	98.933988
2309.000000	98.942491
2308.000000	98.953429
2307.000000	98.962009
2306.000000	98.967000
2305.000000	98.969936
2304.000000	98.974534
2303.000000	98.984159
2302.000000	98.996211
2301.000000	99.002561
2300.000000	98.999830
2299.000000	98.995052
2298.000000	98.997003
2297.000000	99.005275
2296.000000	99.011693
2295.000000	99.010461
2294.000000	99.002616
2293.000000	98.992236
2292.000000	98.982462
2291.000000	98.975373
2290.000000	98.973130
2289.000000	98.978036
2288.000000	98.990442
2287.000000	99.005211
2286.000000	99.012420
2285.000000	99.006903
2284.000000	98.997461
2283.000000	99.000346
2282.000000	99.022120
2281.000000	99.053947
2280.000000	99.083350
2279.000000	99.104546
2278.000000	99.115637
2277.000000	99.114869
2276.000000	99.104227
2275.000000	99.090492
2274.000000	99.079284
2273.000000	99.072300
2272.000000	99.070689
2271.000000	99.073493
2270.000000	99.072753
2269.000000	99.060463
2268.000000	99.042758
2267.000000	99.036680
2266.000000	99.048871
2265.000000	99.067660
2264.000000	99.080677
2263.000000	99.089291
2262.000000	99.099832
2261.000000	99.111645
2260.000000	99.121277
2259.000000	99.129692
2258.000000	99.137990
2257.000000	99.143879
2256.000000	99.148094
2255.000000	99.155586
2254.000000	99.165156
2253.000000	99.167968
2252.000000	99.162536
2251.000000	99.159985
2250.000000	99.167091
2249.000000	99.175503
2248.000000	99.175902
2247.000000	99.173153
2246.000000	99.177464
2245.000000	99.187683
2244.000000	99.192900
2243.000000	99.185013
2242.000000	99.163600
2241.000000	99.135368
2240.000000	99.114020
2239.000000	99.111893
2238.000000	99.125538
2237.000000	99.136978
2236.000000	99.133660
2235.000000	99.119090
2234.000000	99.102009
2233.000000	99.088458
2232.000000	99.087989
2231.000000	99.110637
2230.000000	99.148237
2229.000000	99.173231
2228.000000	99.168414
2227.000000	99.147253
2226.000000	99.135086
2225.000000	99.142075
2224.000000	99.163431
2223.000000	99.191645
2222.000000	99.215711
2221.000000	99.220970
2220.000000	99.204979
2219.000000	99.184917
2218.000000	99.177283
2217.000000	99.179238
2216.000000	99.179408
2215.000000	99.175315
2214.000000	99.167645
2213.000000	99.149266
2212.000000	99.116569
2211.000000	99.084474
2210.000000	99.074685
2209.000000	99.091236
2208.000000	99.117037
2207.000000	99.131614
2206.000000	99.126440
2205.000000	99.109047
2204.000000	99.098029
2203.000000	99.106260
2202.000000	99.123835
2201.000000	99.126797
2200.000000	99.107642
2199.000000	99.085213
2198.000000	99.078455
2197.000000	99.084464
2196.000000	99.090810
2195.000000	99.095011
2194.000000	99.099619
2193.000000	99.099462
2192.000000	99.087059
2191.000000	99.064411
2190.000000	99.041107
2189.000000	99.027984
2188.000000	99.036455
2187.000000	99.072766
2186.000000	99.127174
2185.000000	99.179305
2184.000000	99.219430
2183.000000	99.252623
2182.000000	99.278461
2181.000000	99.285483
2180.000000	99.272524
2179.000000	99.255051
2178.000000	99.241833
2177.000000	99.224200
2176.000000	99.196622
2175.000000	99.171107
2174.000000	99.164245
2173.000000	99.183475
2172.000000	99.227068
2171.000000	99.279243
2170.000000	99.305885
2169.000000	99.281379
2168.000000	99.228530
2167.000000	99.205506
2166.000000	99.240440
2165.000000	99.298810
2164.000000	99.325522
2163.000000	99.301924
2162.000000	99.252335
2161.000000	99.221432
2160.000000	99.254264
2159.000000	99.360657
2158.000000	99.485745
2157.000000	99.559354
2156.000000	99.577440
2155.000000	99.585968
2154.000000	99.601537
2153.000000	99.599984
2152.000000	99.570200
2151.000000	99.531656
2150.000000	99.497399
2149.000000	99.459937
2148.000000	99.421898
2147.000000	99.403911
2146.000000	99.409847
2145.000000	99.414966
2144.000000	99.402187
2143.000000	99.383032
2142.000000	99.370394
2141.000000	99.357066
2140.000000	99.334994
2139.000000	99.314461
2138.000000	99.309862
2137.000000	99.321742
2136.000000	99.341754
2135.000000	99.360818
2134.000000	99.366615
2133.000000	99.350406
2132.000000	99.323385
2131.000000	99.310074
2130.000000	99.319225
2129.000000	99.333714
2128.000000	99.332067
2127.000000	99.308330
2126.000000	99.269475
2125.000000	99.227536
2124.000000	99.197815
2123.000000	99.190550
2122.000000	99.198445
2121.000000	99.202451
2120.000000	99.193934
2119.000000	99.180856
2118.000000	99.170533
2117.000000	99.160084
2116.000000	99.147660
2115.000000	99.139176
2114.000000	99.137494
2113.000000	99.137128
2112.000000	99.136388
2111.000000	99.142909
2110.000000	99.159615
2109.000000	99.176383
2108.000000	99.183463
2107.000000	99.183417
2106.000000	99.182289
2105.000000	99.178874
2104.000000	99.169998
2103.000000	99.157168
2102.000000	99.142140
2101.000000	99.125067
2100.000000	99.112143
2099.000000	99.114960
2098.000000	99.136536
2097.000000	99.166786
2096.000000	99.196137
2095.000000	99.223289
2094.000000	99.245954
2093.000000	99.257033
2092.000000	99.255772
2091.000000	99.251099
2090.000000	99.248597
2089.000000	99.244304
2088.000000	99.235025
2087.000000	99.224353
2086.000000	99.215169
2085.000000	99.206851
2084.000000	99.201542
2083.000000	99.201131
2082.000000	99.197037
2081.000000	99.178006
2080.000000	99.150962
2079.000000	99.137877
2078.000000	99.146920
2077.000000	99.163392
2076.000000	99.175176
2075.000000	99.189361
2074.000000	99.215118
2073.000000	99.245831
2072.000000	99.268117
2071.000000	99.275376
2070.000000	99.265806
2069.000000	99.243567
2068.000000	99.227614
2067.000000	99.239076
2066.000000	99.271383
2065.000000	99.291413
2064.000000	99.281669
2063.000000	99.261262
2062.000000	99.253321
2061.000000	99.255789
2060.000000	99.256529
2059.000000	99.255276
2058.000000	99.255338
2057.000000	99.251682
2056.000000	99.242964
2055.000000	99.239654
2054.000000	99.246229
2053.000000	99.250140
2052.000000	99.241276
2051.000000	99.226799
2050.000000	99.215652
2049.000000	99.205837
2048.000000	99.200754
2047.000000	99.217860
2046.000000	99.260980
2045.000000	99.304715
2044.000000	99.328311
2043.000000	99.344669
2042.000000	99.376558
2041.000000	99.424118
2040.000000	99.473116
2039.000000	99.513614
2038.000000	99.532304
2037.000000	99.512777
2036.000000	99.466281
2035.000000	99.435705
2034.000000	99.444432
2033.000000	99.464795
2032.000000	99.459156
2031.000000	99.428038
2030.000000	99.398197
2029.000000	99.391865
2028.000000	99.423337
2027.000000	99.495244
2026.000000	99.581151
2025.000000	99.635762
2024.000000	99.638326
2023.000000	99.604679
2022.000000	99.552789
2021.000000	99.490441
2020.000000	99.436631
2019.000000	99.414079
2018.000000	99.414861
2017.000000	99.411182
2016.000000	99.405697
2015.000000	99.424525
2014.000000	99.457619
2013.000000	99.459927
2012.000000	99.419729
2011.000000	99.377653
2010.000000	99.364594
2009.000000	99.367998
2008.000000	99.375038
2007.000000	99.399025
2006.000000	99.439343
2005.000000	99.462972
2004.000000	99.453945
2003.000000	99.440136
2002.000000	99.450814
2001.000000	99.483353
2000.000000	99.522727
1999.000000	99.560103
1998.000000	99.580724
1997.000000	99.567065
1996.000000	99.529671
1995.000000	99.503593
1994.000000	99.502168
1993.000000	99.500761
1992.000000	99.478471
1991.000000	99.447555
1990.000000	99.423046
1989.000000	99.400924
1988.000000	99.386551
1987.000000	99.404879
1986.000000	99.460672
1985.000000	99.518992
1984.000000	99.545534
1983.000000	99.541036
1982.000000	99.519720
1981.000000	99.484879
1980.000000	99.443868
1979.000000	99.416742
1978.000000	99.409634
1977.000000	99.406497
1976.000000	99.406082
1975.000000	99.430320
1974.000000	99.478147
1973.000000	99.514773
1972.000000	99.521927
1971.000000	99.516393
1970.000000	99.508507
1969.000000	99.486743
1968.000000	99.457008
1967.000000	99.453466
1966.000000	99.488108
1965.000000	99.530702
1964.000000	99.556680
1963.000000	99.571848
1962.000000	99.579784
1961.000000	99.567610
1960.000000	99.538963
1959.000000	99.523130
1958.000000	99.533466
1957.000000	99.549854
1956.000000	99.554057
1955.000000	99.550056
1954.000000	99.540333
1953.000000	99.514646
1952.000000	99.475640
1951.000000	99.446417
1950.000000	99.438350
1949.000000	99.436507
1948.000000	99.428052
1947.000000	99.420133
1946.000000	99.418625
1945.000000	99.414161
1944.000000	99.402227
1943.000000	99.395637
1942.000000	99.402951
1941.000000	99.416878
1940.000000	99.434169
1939.000000	99.460632
1938.000000	99.491426
1937.000000	99.509229
1936.000000	99.509209
1935.000000	99.505842
1934.000000	99.505109
1933.000000	99.491692
1932.000000	99.456860
1931.000000	99.418426
1930.000000	99.398384
1929.000000	99.398218
1928.000000	99.405233
1927.000000	99.409554
1926.000000	99.407807
1925.000000	99.402221
1924.000000	99.402858
1923.000000	99.415757
1922.000000	99.427523
1921.000000	99.422213
1920.000000	99.407236
1919.000000	99.404512
1918.000000	99.415858
1917.000000	99.416858
1916.000000	99.398699
1915.000000	99.381557
1914.000000	99.380591
1913.000000	99.389608
1912.000000	99.397258
1911.000000	99.401814
1910.000000	99.403455
1909.000000	99.399547
1908.000000	99.395713
1907.000000	99.402710
1906.000000	99.416331
1905.000000	99.418690
1904.000000	99.405398
1903.000000	99.392476
1902.000000	99.391217
1901.000000	99.394945
1900.000000	99.395854
1899.000000	99.398022
1898.000000	99.405807
1897.000000	99.413570
1896.000000	99.416381
1895.000000	99.418203
1894.000000	99.422091
1893.000000	99.425273
1892.000000	99.427129
1891.000000	99.430261
1890.000000	99.430289
1889.000000	99.418572
1888.000000	99.401674
1887.000000	99.395175
1886.000000	99.399225
1885.000000	99.402962
1884.000000	99.406920
1883.000000	99.422220
1882.000000	99.447008
1881.000000	99.464073
1880.000000	99.465931
1879.000000	99.463601
1878.000000	99.466017
1877.000000	99.467939
1876.000000	99.465427
1875.000000	99.465790
1874.000000	99.472669
1873.000000	99.477055
1872.000000	99.471390
1871.000000	99.459857
1870.000000	99.450222
1869.000000	99.443169
1868.000000	99.439502
1867.000000	99.446009
1866.000000	99.458085
1865.000000	99.460349
1864.000000	99.450532
1863.000000	99.442365
1862.000000	99.444469
1861.000000	99.449796
1860.000000	99.450882
1859.000000	99.450728
1858.000000	99.452097
1857.000000	99.451926
1856.000000	99.451590
1855.000000	99.457551
1854.000000	99.466786
1853.000000	99.465766
1852.000000	99.448793
1851.000000	99.426166
1850.000000	99.412961
1849.000000	99.418429
1848.000000	99.444783
1847.000000	99.484007
1846.000000	99.515690
1845.000000	99.519380
1844.000000	99.499332
1843.000000	99.482600
1842.000000	99.481619
1841.000000	99.484983
1840.000000	99.484109
1839.000000	99.483990
1838.000000	99.487719
1837.000000	99.487351
1836.000000	99.478983
1835.000000	99.471261
1834.000000	99.470393
1833.000000	99.472000
1832.000000	99.471373
1831.000000	99.474179
1830.000000	99.483943
1829.000000	99.488360
1828.000000	99.481874
1827.000000	99.473397
1826.000000	99.467766
1825.000000	99.462806
1824.000000	99.459809
1823.000000	99.465763
1822.000000	99.477644
1821.000000	99.482741
1820.000000	99.478944
1819.000000	99.479226
1818.000000	99.490651
1817.000000	99.501748
1816.000000	99.501863
1815.000000	99.495546
1814.000000	99.489835
1813.000000	99.483646
1812.000000	99.476348
1811.000000	99.474492
1810.000000	99.478051
1809.000000	99.476039
1808.000000	99.466689
1807.000000	99.461263
1806.000000	99.463352
1805.000000	99.462639
1804.000000	99.454007
1803.000000	99.447306
1802.000000	99.451719
1801.000000	99.460042
1800.000000	99.462891
1799.000000	99.466403
1798.000000	99.476826
1797.000000	99.488914
1796.000000	99.498504
1795.000000	99.507521
1794.000000	99.515386
1793.000000	99.515170
1792.000000	99.502583
1791.000000	99.486094
1790.000000	99.475113
1789.000000	99.467226
1788.000000	99.460306
1787.000000	99.460502
1786.000000	99.470192
1785.000000	99.479621
1784.000000	99.480741
1783.000000	99.478087
1782.000000	99.478008
1781.000000	99.480407
1780.000000	99.484654
1779.000000	99.494762
1778.000000	99.510769
1777.000000	99.526017
1776.000000	99.536860
1775.000000	99.543271
1774.000000	99.543139
1773.000000	99.534028
1772.000000	99.518625
1771.000000	99.507666
1770.000000	99.507409
1769.000000	99.507613
1768.000000	99.499762
1767.000000	99.490891
1766.000000	99.488976
1765.000000	99.490215
1764.000000	99.487923
1763.000000	99.485437
1762.000000	99.488142
1761.000000	99.490518
1760.000000	99.488653
1759.000000	99.487099
1758.000000	99.485218
1757.000000	99.479015
1756.000000	99.470495
1755.000000	99.467486
1754.000000	99.468976
1753.000000	99.464045
1752.000000	99.452387
1751.000000	99.448506
1750.000000	99.455929
1749.000000	99.457259
1748.000000	99.443522
1747.000000	99.426794
1746.000000	99.418779
1745.000000	99.416148
1744.000000	99.412637
1743.000000	99.410920
1742.000000	99.412155
1741.000000	99.406806
1740.000000	99.392891
1739.000000	99.389196
1738.000000	99.407660
1737.000000	99.435101
1736.000000	99.452053
1735.000000	99.468090
1734.000000	99.500795
1733.000000	99.525231
1732.000000	99.530345
1731.000000	99.534013
1730.000000	99.538030
1729.000000	99.537998
1728.000000	99.535145
1727.000000	99.538161
1726.000000	99.549238
1725.000000	99.559706
1724.000000	99.560628
1723.000000	99.556522
1722.000000	99.555559
1721.000000	99.555278
1720.000000	99.547456
1719.000000	99.540411
1718.000000	99.550986
1717.000000	99.550456
1716.000000	99.513408
1715.000000	99.467866
1714.000000	99.427455
1713.000000	99.382490
1712.000000	99.332983
1711.000000	99.287790
1710.000000	99.249391
1709.000000	99.209072
1708.000000	99.158591
1707.000000	99.098022
1706.000000	99.029676
1705.000000	98.954640
1704.000000	98.890722
1703.000000	98.847674
1702.000000	98.794293
1701.000000	98.675962
1700.000000	98.511705
1699.000000	98.398356
1698.000000	98.348652
1697.000000	98.279669
1696.000000	98.145402
1695.000000	97.999759
1694.000000	97.903572
1693.000000	97.838314
1692.000000	97.766856
1691.000000	97.685063
1690.000000	97.606012
1689.000000	97.534467
1688.000000	97.467709
1687.000000	97.400947
1686.000000	97.314154
1685.000000	97.174090
1684.000000	96.990064
1683.000000	96.835764
1682.000000	96.739500
1681.000000	96.647449
1680.000000	96.526363
1679.000000	96.397577
1678.000000	96.278359
1677.000000	96.148347
1676.000000	95.974440
1675.000000	95.774304
1674.000000	95.601999
1673.000000	95.469352
1672.000000	95.339824
1671.000000	95.182009
1670.000000	94.985543
1669.000000	94.765158
1668.000000	94.562459
1667.000000	94.408365
1666.000000	94.290655
1665.000000	94.169381
1664.000000	94.011964
1663.000000	93.823926
1662.000000	93.639867
1661.000000	93.481246
1660.000000	93.343128
1659.000000	93.221627
1658.000000	93.118987
1657.000000	93.035298
1656.000000	92.955762
1655.000000	92.858298
1654.000000	92.729484
1653.000000	92.579649
1652.000000	92.463393
1651.000000	92.423112
1650.000000	92.422800
1649.000000	92.408337
1648.000000	92.364823
1647.000000	92.304535
1646.000000	92.251261
1645.000000	92.211070
1644.000000	92.183643
1643.000000	92.164260
1642.000000	92.146987
1641.000000	92.121931
1640.000000	92.089046
1639.000000	92.059764
1638.000000	92.036353
1637.000000	92.000988
1636.000000	91.934389
1635.000000	91.853915
1634.000000	91.800815
1633.000000	91.776923
1632.000000	91.761819
1631.000000	91.751287
1630.000000	91.748335
1629.000000	91.754686
1628.000000	91.771202
1627.000000	91.802582
1626.000000	91.852598
1625.000000	91.921364
1624.000000	92.014217
1623.000000	92.135109
1622.000000	92.266514
1621.000000	92.388995
1620.000000	92.501956
1619.000000	92.615596
1618.000000	92.748452
1617.000000	92.915616
1616.000000	93.096331
1615.000000	93.257229
1614.000000	93.397934
1613.000000	93.533491
1612.000000	93.676533
1611.000000	93.832001
1610.000000	93.992808
1609.000000	94.149981
1608.000000	94.301573
1607.000000	94.446549
1606.000000	94.580414
1605.000000	94.703575
1604.000000	94.821750
1603.000000	94.936319
1602.000000	95.042131
1601.000000	95.137854
1600.000000	95.228762
1599.000000	95.316446
1598.000000	95.395924
1597.000000	95.463956
1596.000000	95.523132
1595.000000	95.574341
1594.000000	95.614086
1593.000000	95.643655
1592.000000	95.669877
1591.000000	95.693603
1590.000000	95.707085
1589.000000	95.706204
1588.000000	95.694708
1587.000000	95.675015
1586.000000	95.645376
1585.000000	95.607469
1584.000000	95.564081
1583.000000	95.508137
1582.000000	95.431246
1581.000000	95.343512
1580.000000	95.266544
1579.000000	95.203922
1578.000000	95.135462
1577.000000	95.041549
1576.000000	94.931890
1575.000000	94.838103
1574.000000	94.775562
1573.000000	94.730336
1572.000000	94.677838
1571.000000	94.599899
1570.000000	94.492133
1569.000000	94.375077
1568.000000	94.275521
1567.000000	94.191209
1566.000000	94.097103
1565.000000	93.985789
1564.000000	93.877942
1563.000000	93.794110
1562.000000	93.727167
1561.000000	93.637775
1560.000000	93.491003
1559.000000	93.294797
1558.000000	93.103217
1557.000000	92.987872
1556.000000	92.918386
1555.000000	92.828381
1554.000000	92.717801
1553.000000	92.599548
1552.000000	92.492508
1551.000000	92.393186
1550.000000	92.302300
1549.000000	92.222379
1548.000000	92.156163
1547.000000	92.098133
1546.000000	92.041808
1545.000000	91.987333
1544.000000	91.934612
1543.000000	91.879876
1542.000000	91.820382
1541.000000	91.760260
1540.000000	91.723002
1539.000000	91.732664
1538.000000	91.785077
1537.000000	91.853732
1536.000000	91.919804
1535.000000	91.991596
1534.000000	92.094570
1533.000000	92.224516
1532.000000	92.341526
1531.000000	92.439464
1530.000000	92.531580
1529.000000	92.622469
1528.000000	92.717670
1527.000000	92.826272
1526.000000	92.945368
1525.000000	93.053122
1524.000000	93.137947
1523.000000	93.218624
1522.000000	93.324387
1521.000000	93.435885
1520.000000	93.515448
1519.000000	93.579692
1518.000000	93.657565
1517.000000	93.750625
1516.000000	93.840963
1515.000000	93.921648
1514.000000	94.003418
1513.000000	94.088136
1512.000000	94.176745
1511.000000	94.274709
1510.000000	94.385122
1509.000000	94.502587
1508.000000	94.637722
1507.000000	94.800292
1506.000000	94.938870
1505.000000	95.030489
1504.000000	95.105636
1503.000000	95.182152
1502.000000	95.270229
1501.000000	95.363640
1500.000000	95.454911
1499.000000	95.546208
1498.000000	95.650338
1497.000000	95.760415
1496.000000	95.854788
1495.000000	95.936302
1494.000000	96.016138
1493.000000	96.087050
1492.000000	96.144410
1491.000000	96.210994
1490.000000	96.305515
1489.000000	96.391517
1488.000000	96.437064
1487.000000	96.464274
1486.000000	96.489240
1485.000000	96.502989
1484.000000	96.499837
1483.000000	96.487925
1482.000000	96.475024
1481.000000	96.452781
1480.000000	96.413531
1479.000000	96.365222
1478.000000	96.316283
1477.000000	96.263157
1476.000000	96.203237
1475.000000	96.143111
1474.000000	96.081602
1473.000000	95.995326
1472.000000	95.878301
1471.000000	95.773224
1470.000000	95.703026
1469.000000	95.644765
1468.000000	95.579967
1467.000000	95.510538
1466.000000	95.440993
1465.000000	95.366628
1464.000000	95.289435
1463.000000	95.229030
1462.000000	95.191326
1461.000000	95.159975
1460.000000	95.120067
1459.000000	95.068598
1458.000000	95.003620
1457.000000	94.902885
1456.000000	94.784553
1455.000000	94.712057
1454.000000	94.687649
1453.000000	94.673534
1452.000000	94.656631
1451.000000	94.645230
1450.000000	94.649119
1449.000000	94.661988
1448.000000	94.678300
1447.000000	94.701878
1446.000000	94.735383
1445.000000	94.773225
1444.000000	94.811363
1443.000000	94.854631
1442.000000	94.906648
1441.000000	94.961641
1440.000000	95.011908
1439.000000	95.057927
1438.000000	95.110219
1437.000000	95.179162
1436.000000	95.255506
1435.000000	95.325926
1434.000000	95.392203
1433.000000	95.451370
1432.000000	95.497761
1431.000000	95.535240
1430.000000	95.571711
1429.000000	95.604507
1428.000000	95.625375
1427.000000	95.635537
1426.000000	95.640991
1425.000000	95.646395
1424.000000	95.652670
1423.000000	95.660654
1422.000000	95.671710
1421.000000	95.679901
1420.000000	95.681716
1419.000000	95.686986
1418.000000	95.700597
1417.000000	95.713952
1416.000000	95.719219
1415.000000	95.716277
1414.000000	95.709937
1413.000000	95.700680
1412.000000	95.685050
1411.000000	95.663099
1410.000000	95.638442
1409.000000	95.609379
1408.000000	95.572770
1407.000000	95.533803
1406.000000	95.500630
1405.000000	95.473777
1404.000000	95.450070
1403.000000	95.434429
1402.000000	95.430401
1401.000000	95.430909
1400.000000	95.432642
1399.000000	95.443329
1398.000000	95.466588
1397.000000	95.491556
1396.000000	95.506221
1395.000000	95.510945
1394.000000	95.515491
1393.000000	95.525746
1392.000000	95.539770
1391.000000	95.556241
1390.000000	95.574449
1389.000000	95.590783
1388.000000	95.603566
1387.000000	95.615781
1386.000000	95.628418
1385.000000	95.637658
1384.000000	95.642079
1383.000000	95.648533
1382.000000	95.663606
1381.000000	95.683099
1380.000000	95.701021
1379.000000	95.720064
1378.000000	95.744218
1377.000000	95.770365
1376.000000	95.796647
1375.000000	95.830434
1374.000000	95.876400
1373.000000	95.926732
1372.000000	95.975872
1371.000000	96.028360
1370.000000	96.088415
1369.000000	96.154886
1368.000000	96.223004
1367.000000	96.290096
1366.000000	96.354937
1365.000000	96.415458
1364.000000	96.474902
1363.000000	96.539051
1362.000000	96.601498
1361.000000	96.649770
1360.000000	96.683762
1359.000000	96.711827
1358.000000	96.736592
1357.000000	96.752949
1356.000000	96.757591
1355.000000	96.753679
1354.000000	96.742743
1353.000000	96.720291
1352.000000	96.686489
1351.000000	96.649474
1350.000000	96.612455
1349.000000	96.569761
1348.000000	96.517637
1347.000000	96.461490
1346.000000	96.406247
1345.000000	96.349813
1344.000000	96.291539
1343.000000	96.237855
1342.000000	96.193010
1341.000000	96.152736
1340.000000	96.112214
1339.000000	96.074847
1338.000000	96.047734
1337.000000	96.031761
1336.000000	96.025789
1335.000000	96.034092
1334.000000	96.059310
1333.000000	96.095852
1332.000000	96.137570
1331.000000	96.184804
1330.000000	96.238125
1329.000000	96.292408
1328.000000	96.342840
1327.000000	96.388560
1326.000000	96.426320
1325.000000	96.449978
1324.000000	96.460042
1323.000000	96.467189
1322.000000	96.479981
1321.000000	96.495391
1320.000000	96.506323
1319.000000	96.512030
1318.000000	96.515430
1317.000000	96.517411
1316.000000	96.520993
1315.000000	96.533842
1314.000000	96.559327
1313.000000	96.590798
1312.000000	96.621529
1311.000000	96.653317
1310.000000	96.688619
1309.000000	96.722281
1308.000000	96.749055
1307.000000	96.771668
1306.000000	96.794391
1305.000000	96.815896
1304.000000	96.834125
1303.000000	96.851944
1302.000000	96.870671
1301.000000	96.885247
1300.000000	96.892714
1299.000000	96.898646
1298.000000	96.907298
1297.000000	96.912594
1296.000000	96.907024
1295.000000	96.892695
1294.000000	96.875807
1293.000000	96.855883
1292.000000	96.828488
1291.000000	96.793097
1290.000000	96.751003
1289.000000	96.701881
1288.000000	96.649315
1287.000000	96.602885
1286.000000	96.567331
1285.000000	96.536134
1284.000000	96.502475
1283.000000	96.469062
1282.000000	96.441236
1281.000000	96.419071
1280.000000	96.403555
1279.000000	96.400944
1278.000000	96.412836
1277.000000	96.429876
1276.000000	96.442856
1275.000000	96.452650
1274.000000	96.462867
1273.000000	96.471408
1272.000000	96.475947
1271.000000	96.479119
1270.000000	96.481020
1269.000000	96.475372
1268.000000	96.460038
1267.000000	96.442274
1266.000000	96.426905
1265.000000	96.408055
1264.000000	96.380077
1263.000000	96.347286
1262.000000	96.314740
1261.000000	96.279518
1260.000000	96.239327
1259.000000	96.199425
1258.000000	96.162732
1257.000000	96.123017
1256.000000	96.076237
1255.000000	96.027533
1254.000000	95.979651
1253.000000	95.925674
1252.000000	95.861050
1251.000000	95.791674
1250.000000	95.721631
1249.000000	95.644721
1248.000000	95.557641
1247.000000	95.470243
1246.000000	95.392559
1245.000000	95.321520
1244.000000	95.250073
1243.000000	95.179222
1242.000000	95.111669
1241.000000	95.044509
1240.000000	94.978433
1239.000000	94.923549
1238.000000	94.885544
1237.000000	94.857174
1236.000000	94.832715
1235.000000	94.819889
1234.000000	94.828232
1233.000000	94.855712
1232.000000	94.897228
1231.000000	94.954511
1230.000000	95.028243
1229.000000	95.112138
1228.000000	95.203295
1227.000000	95.308246
1226.000000	95.429265
1225.000000	95.555780
1224.000000	95.678712
1223.000000	95.801626
1222.000000	95.928657
1221.000000	96.052395
1220.000000	96.163187
1219.000000	96.260065
1218.000000	96.344097
1217.000000	96.410818
1216.000000	96.458808
1215.000000	96.496029
1214.000000	96.526638
1213.000000	96.541720
1212.000000	96.532598
1211.000000	96.504803
1210.000000	96.469286
1209.000000	96.427837
1208.000000	96.378646
1207.000000	96.327407
1206.000000	96.282136
1205.000000	96.244581
1204.000000	96.216073
1203.000000	96.203579
1202.000000	96.211348
1201.000000	96.235509
1200.000000	96.273780
1199.000000	96.330807
1198.000000	96.405492
1197.000000	96.484691
1196.000000	96.559226
1195.000000	96.634806
1194.000000	96.718205
1193.000000	96.803084
1192.000000	96.879434
1191.000000	96.947479
1190.000000	97.012501
1189.000000	97.074662
1188.000000	97.133072
1187.000000	97.191119
1186.000000	97.248568
1185.000000	97.297368
1184.000000	97.333357
1183.000000	97.363543
1182.000000	97.394356
1181.000000	97.421996
1180.000000	97.442764
1179.000000	97.462049
1178.000000	97.484043
1177.000000	97.503751
1176.000000	97.518068
1175.000000	97.533634
1174.000000	97.554456
1173.000000	97.572787
1172.000000	97.581578
1171.000000	97.585052
1170.000000	97.588387
1169.000000	97.588235
1168.000000	97.582491
1167.000000	97.577527
1166.000000	97.576016
1165.000000	97.570164
1164.000000	97.557599
1163.000000	97.551271
1162.000000	97.561510
1161.000000	97.580424
1160.000000	97.596033
1159.000000	97.610436
1158.000000	97.632322
1157.000000	97.662445
1156.000000	97.698641
1155.000000	97.744045
1154.000000	97.798602
1153.000000	97.853026
1152.000000	97.901703
1151.000000	97.951155
1150.000000	98.005804
1149.000000	98.057443
1148.000000	98.099178
1147.000000	98.137121
1146.000000	98.177153
1145.000000	98.212995
1144.000000	98.238998
1143.000000	98.261813
1142.000000	98.288121
1141.000000	98.313177
1140.000000	98.332980
1139.000000	98.354564
1138.000000	98.382126
1137.000000	98.406401
1136.000000	98.420334
1135.000000	98.432289
1134.000000	98.450782
1133.000000	98.469043
1132.000000	98.478326
1131.000000	98.483777
1130.000000	98.493096
1129.000000	98.501703
1128.000000	98.502916
1127.000000	98.501452
1126.000000	98.503110
1125.000000	98.502801
1124.000000	98.496678
1123.000000	98.494342
1122.000000	98.504607
1121.000000	98.519414
1120.000000	98.525331
1119.000000	98.521226
1118.000000	98.513131
1117.000000	98.502830
1116.000000	98.492826
1115.000000	98.489931
1114.000000	98.492159
1113.000000	98.484757
1112.000000	98.461390
1111.000000	98.435921
1110.000000	98.421758
1109.000000	98.413943
1108.000000	98.403544
1107.000000	98.394528
1106.000000	98.392213
1105.000000	98.390308
1104.000000	98.383655
1103.000000	98.378647
1102.000000	98.377294
1101.000000	98.366053
1100.000000	98.335968
1099.000000	98.300133
1098.000000	98.274010
1097.000000	98.254742
1096.000000	98.233416
1095.000000	98.212281
1094.000000	98.193704
1093.000000	98.167133
1092.000000	98.124024
1091.000000	98.072417
1090.000000	98.021069
1089.000000	97.962942
1088.000000	97.889762
1087.000000	97.808979
1086.000000	97.731446
1085.000000	97.656541
1084.000000	97.584498
1083.000000	97.528189
1082.000000	97.496471
1081.000000	97.479861
1080.000000	97.469340
1079.000000	97.474860
1078.000000	97.508630
1077.000000	97.563981
1076.000000	97.624805
1075.000000	97.683565
1074.000000	97.737335
1073.000000	97.780711
1072.000000	97.815178
1071.000000	97.850701
1070.000000	97.886406
1069.000000	97.905331
1068.000000	97.900181
1067.000000	97.887082
1066.000000	97.882122
1065.000000	97.880817
1064.000000	97.873657
1063.000000	97.864219
1062.000000	97.858085
1061.000000	97.850895
1060.000000	97.840787
1059.000000	97.836415
1058.000000	97.840380
1057.000000	97.841388
1056.000000	97.833712
1055.000000	97.826154
1054.000000	97.821042
1053.000000	97.805250
1052.000000	97.774632
1051.000000	97.746271
1050.000000	97.731449
1049.000000	97.719113
1048.000000	97.701208
1047.000000	97.690338
1046.000000	97.696330
1045.000000	97.709044
1044.000000	97.719438
1043.000000	97.733884
1042.000000	97.753122
1041.000000	97.759917
1040.000000	97.743993
1039.000000	97.716905
1038.000000	97.687094
1037.000000	97.642554
1036.000000	97.576211
1035.000000	97.505777
1034.000000	97.449398
1033.000000	97.402938
1032.000000	97.359551
1031.000000	97.329986
1030.000000	97.322852
1029.000000	97.325307
1028.000000	97.322703
1027.000000	97.319224
1026.000000	97.320901
1025.000000	97.317924
1024.000000	97.301591
1023.000000	97.279427
1022.000000	97.256332
1021.000000	97.221697
1020.000000	97.173487
1019.000000	97.134630
1018.000000	97.126435
1017.000000	97.145042
1016.000000	97.182032
1015.000000	97.245332
1014.000000	97.340907
1013.000000	97.453117
1012.000000	97.563844
1011.000000	97.673907
1010.000000	97.788249
1009.000000	97.898712
1008.000000	97.997624
1007.000000	98.091049
1006.000000	98.182893
1005.000000	98.263633
1004.000000	98.328523
1003.000000	98.388759
1002.000000	98.451029
1001.000000	98.505982
1000.000000	98.550556
999.000000	98.600244
998.000000	98.663436
997.000000	98.725189
996.000000	98.772536
995.000000	98.815059
994.000000	98.863469
993.000000	98.908731
992.000000	98.940903
991.000000	98.968322
990.000000	99.000439
989.000000	99.030129
988.000000	99.050775
987.000000	99.071325
986.000000	99.096510
985.000000	99.111450
984.000000	99.104856
983.000000	99.089636
982.000000	99.082758
981.000000	99.082133
980.000000	99.079592
979.000000	99.077779
978.000000	99.076668
977.000000	99.063211
976.000000	99.032400
975.000000	99.001377
974.000000	98.985740
973.000000	98.980577
972.000000	98.979531
971.000000	98.991081
970.000000	99.018550
969.000000	99.045770
968.000000	99.061514
967.000000	99.077219
966.000000	99.102940
965.000000	99.126999
964.000000	99.139042
963.000000	99.150746
962.000000	99.173379
961.000000	99.195532
960.000000	99.205008
959.000000	99.212222
958.000000	99.229787
957.000000	99.248316
956.000000	99.254926
955.000000	99.258019
954.000000	99.271043
953.000000	99.288698
952.000000	99.299979
951.000000	99.308509
950.000000	99.319090
949.000000	99.321206
948.000000	99.306321
947.000000	99.286246
946.000000	99.274707
945.000000	99.266211
944.000000	99.251056
943.000000	99.233817
942.000000	99.219725
941.000000	99.200987
940.000000	99.175579
939.000000	99.160844
938.000000	99.169672
937.000000	99.190161
936.000000	99.207201
935.000000	99.224976
934.000000	99.250138
933.000000	99.272947
932.000000	99.285089
931.000000	99.297273
930.000000	99.319226
929.000000	99.340910
928.000000	99.352118
927.000000	99.361717
926.000000	99.377870
925.000000	99.389275
924.000000	99.386117
923.000000	99.381284
922.000000	99.389902
921.000000	99.405819
920.000000	99.417513
919.000000	99.428764
918.000000	99.444605
917.000000	99.456025
916.000000	99.458601
915.000000	99.467039
914.000000	99.491525
913.000000	99.517643
912.000000	99.529142
911.000000	99.531260
910.000000	99.533680
909.000000	99.531225
908.000000	99.521521
907.000000	99.519964
906.000000	99.535661
905.000000	99.552547
904.000000	99.554937
903.000000	99.551363
902.000000	99.552815
901.000000	99.550378
900.000000	99.536210
899.000000	99.525015
898.000000	99.530492
897.000000	99.541375
896.000000	99.543053
895.000000	99.542942
894.000000	99.552095
893.000000	99.562099
892.000000	99.562738
891.000000	99.562238
890.000000	99.568526
889.000000	99.570377
888.000000	99.558415
887.000000	99.542811
886.000000	99.530329
885.000000	99.507406
884.000000	99.468636
883.000000	99.436181
882.000000	99.425817
881.000000	99.418173
880.000000	99.390258
879.000000	99.351413
878.000000	99.319803
877.000000	99.288391
876.000000	99.244115
875.000000	99.199201
874.000000	99.172929
873.000000	99.163053
872.000000	99.162438
871.000000	99.182024
870.000000	99.229763
869.000000	99.287773
868.000000	99.335846
867.000000	99.377467
866.000000	99.420023
865.000000	99.452004
864.000000	99.464055
863.000000	99.469651
862.000000	99.480797
861.000000	99.485033
860.000000	99.470821
859.000000	99.452512
858.000000	99.446683
857.000000	99.446364
856.000000	99.442231
855.000000	99.444891
854.000000	99.461139
853.000000	99.472631
852.000000	99.463758
851.000000	99.448314
850.000000	99.443769
849.000000	99.443436
848.000000	99.437825
847.000000	99.438816
846.000000	99.457059
845.000000	99.479702
844.000000	99.494508
843.000000	99.511096
842.000000	99.535123
841.000000	99.548819
840.000000	99.542183
839.000000	99.535564
838.000000	99.545695
837.000000	99.556464
836.000000	99.550443
835.000000	99.540938
834.000000	99.545166
833.000000	99.553110
832.000000	99.552192
831.000000	99.555404
830.000000	99.574193
829.000000	99.589504
828.000000	99.581591
827.000000	99.564158
826.000000	99.557033
825.000000	99.551422
824.000000	99.534536
823.000000	99.520593
822.000000	99.523149
821.000000	99.526602
820.000000	99.517080
819.000000	99.510336
818.000000	99.518538
817.000000	99.520997
816.000000	99.499927
815.000000	99.476899
814.000000	99.480995
813.000000	99.504120
812.000000	99.518970
811.000000	99.518638
810.000000	99.510985
809.000000	99.496997
808.000000	99.481213
807.000000	99.480462
806.000000	99.497721
805.000000	99.511574
804.000000	99.512672
803.000000	99.521026
802.000000	99.546031
801.000000	99.563769
800.000000	99.559076
799.000000	99.554449
798.000000	99.568079
797.000000	99.579075
796.000000	99.565720
795.000000	99.544204
794.000000	99.536775
793.000000	99.533634
792.000000	99.518517
791.000000	99.501640
790.000000	99.496647
789.000000	99.494059
788.000000	99.486234
787.000000	99.488566
786.000000	99.507850
785.000000	99.520691
784.000000	99.511798
783.000000	99.502890
782.000000	99.514845
781.000000	99.532213
780.000000	99.534718
779.000000	99.532776
778.000000	99.541081
777.000000	99.547122
776.000000	99.537640
775.000000	99.527493
774.000000	99.530895
773.000000	99.532041
772.000000	99.516038
771.000000	99.501667
770.000000	99.511473
769.000000	99.534482
768.000000	99.549205
767.000000	99.558419
766.000000	99.571450
765.000000	99.577308
764.000000	99.565171
763.000000	99.548598
762.000000	99.541872
761.000000	99.536254
760.000000	99.524274
759.000000	99.520674
758.000000	99.533694
757.000000	99.543563
756.000000	99.534987
755.000000	99.523402
754.000000	99.524723
753.000000	99.528677
752.000000	99.526526
751.000000	99.532707
750.000000	99.552826
749.000000	99.563418
748.000000	99.551871
747.000000	99.542508
746.000000	99.554273
745.000000	99.566325
744.000000	99.557067
743.000000	99.543232
742.000000	99.546418
741.000000	99.553428
740.000000	99.544337
739.000000	99.530321
738.000000	99.528706
737.000000	99.529068
736.000000	99.516399
735.000000	99.500901
734.000000	99.493595
733.000000	99.481316
732.000000	99.456664
731.000000	99.442988
730.000000	99.455651
729.000000	99.465906
728.000000	99.441278
727.000000	99.394604
726.000000	99.357148
725.000000	99.332610
724.000000	99.311893
723.000000	99.302074
722.000000	99.305707
721.000000	99.300218
720.000000	99.273411
719.000000	99.250572
718.000000	99.253936
717.000000	99.265899
716.000000	99.262015
715.000000	99.250237
714.000000	99.246170
713.000000	99.239104
712.000000	99.216581
711.000000	99.194990
710.000000	99.190753
709.000000	99.188065
708.000000	99.168270
707.000000	99.146511
706.000000	99.142660
705.000000	99.145063
704.000000	99.137423
703.000000	99.128898
702.000000	99.129670
701.000000	99.126376
700.000000	99.109447
699.000000	99.098032
698.000000	99.104703
697.000000	99.107726
696.000000	99.092351
695.000000	99.080633
694.000000	99.094644
693.000000	99.119120
692.000000	99.127790
691.000000	99.124010
690.000000	99.119411
689.000000	99.107535
688.000000	99.089169
687.000000	99.085261
686.000000	99.098586
685.000000	99.096964
684.000000	99.061669
683.000000	99.022255
682.000000	99.010458
681.000000	99.014495
680.000000	99.007824
679.000000	98.992772
678.000000	98.982976
677.000000	98.963587
676.000000	98.920888
675.000000	98.878259
674.000000	98.857140
673.000000	98.843164
672.000000	98.830989
671.000000	98.862490
670.000000	98.971341
669.000000	99.118182
668.000000	99.159506
667.000000	99.023383
666.000000	98.891276
665.000000	98.816622
664.000000	98.752394
663.000000	98.718911
662.000000	98.731379
661.000000	98.749824
660.000000	98.732868
659.000000	98.706513
658.000000	98.710058
657.000000	98.721180
656.000000	98.710704
655.000000	98.708704
654.000000	98.739465
653.000000	98.758798
652.000000	98.729689
651.000000	98.688869
650.000000	98.680718
649.000000	98.685394
648.000000	98.675964
647.000000	98.675576
646.000000	98.698444
645.000000	98.707416
644.000000	98.681777
643.000000	98.659462
642.000000	98.669587
641.000000	98.683551
640.000000	98.679484
639.000000	98.689323
638.000000	98.726976
637.000000	98.743507
636.000000	98.708675
635.000000	98.666050
634.000000	98.656559
633.000000	98.658397
632.000000	98.650565
631.000000	98.663709
630.000000	98.712728
629.000000	98.751252
628.000000	98.749973
627.000000	98.748221
626.000000	98.771534
625.000000	98.775449
624.000000	98.731275
623.000000	98.688716
622.000000	98.693905
621.000000	98.714955
620.000000	98.709674
619.000000	98.697580
618.000000	98.705873
617.000000	98.710510
616.000000	98.694247
615.000000	98.699106
614.000000	98.754009
613.000000	98.816085
612.000000	98.841606
611.000000	98.849861
610.000000	98.860851
609.000000	98.844661
608.000000	98.791584
607.000000	98.758712
606.000000	98.779583
605.000000	98.805575
604.000000	98.798266
603.000000	98.799555
602.000000	98.846320
601.000000	98.895793
600.000000	98.905836
599.000000	98.908278
598.000000	98.935442
597.000000	98.951023
596.000000	98.926787
595.000000	98.907369
594.000000	98.930422
593.000000	98.953569
592.000000	98.932580
591.000000	98.903661
590.000000	98.911748
589.000000	98.933754
588.000000	98.945149
587.000000	98.980094
586.000000	99.055585
585.000000	99.112993
584.000000	99.106291
583.000000	99.075395
582.000000	99.062105
581.000000	99.036059
580.000000	98.975523
579.000000	98.935863
578.000000	98.958877
577.000000	98.997908
576.000000	99.006006
575.000000	99.014919
574.000000	99.051114
573.000000	99.062217
572.000000	99.009843
571.000000	98.944414
570.000000	98.916321
569.000000	98.892811
568.000000	98.842405
567.000000	98.809490
566.000000	98.818310
565.000000	98.801875
564.000000	98.715418
563.000000	98.624279
562.000000	98.595532
561.000000	98.596023
560.000000	98.581700
559.000000	98.589476
558.000000	98.646151
557.000000	98.688987
556.000000	98.673260
555.000000	98.661344
554.000000	98.707039
553.000000	98.752335
552.000000	98.737674
551.000000	98.709192
550.000000	98.718382
549.000000	98.720137
548.000000	98.682040
547.000000	98.684715
546.000000	98.795142
545.000000	98.935779
544.000000	99.000456
543.000000	98.997678
542.000000	98.972508
541.000000	98.899609
540.000000	98.767296
539.000000	98.663263
538.000000	98.657172
537.000000	98.685954
536.000000	98.663928
535.000000	98.615344
534.000000	98.589905
533.000000	98.552183
532.000000	98.472250
531.000000	98.420816
530.000000	98.453309
529.000000	98.502939
528.000000	98.501893
527.000000	98.503470
526.000000	98.568732
525.000000	98.629030
524.000000	98.610289
523.000000	98.572776
522.000000	98.591330
521.000000	98.626399
520.000000	98.621333
519.000000	98.625159
518.000000	98.696286
517.000000	98.774792
516.000000	98.800869
515.000000	98.840348
514.000000	98.950527
513.000000	99.057424
512.000000	99.080173
511.000000	99.064463
510.000000	99.083411
509.000000	99.109824
508.000000	99.104957
507.000000	99.120405
506.000000	99.187595
505.000000	99.229551
504.000000	99.202657
503.000000	99.196843
502.000000	99.273615
501.000000	99.331215
500.000000	99.287601
499.000000	99.226979
498.000000	99.231709
497.000000	99.242039
496.000000	99.197050
495.000000	99.170172
494.000000	99.227050
493.000000	99.280550
492.000000	99.242612
491.000000	99.194869
490.000000	99.239331
489.000000	99.314300
488.000000	99.326868
487.000000	99.321451
486.000000	99.370425
485.000000	99.426619
484.000000	99.432514
483.000000	99.450892
482.000000	99.518088
481.000000	99.531643
480.000000	99.441167
479.000000	99.379971
478.000000	99.451821
477.000000	99.535882
476.000000	99.480005
475.000000	99.343482
474.000000	99.268525
473.000000	99.252766
472.000000	99.237327
471.000000	99.284873
470.000000	99.424783
469.000000	99.498931
468.000000	99.380372
467.000000	99.194126
466.000000	99.140019
465.000000	99.209828
464.000000	99.292380
463.000000	99.383978
462.000000	99.490703
461.000000	99.506003
460.000000	99.394492
459.000000	99.343789
458.000000	99.511536
457.000000	99.702766
456.000000	99.678072
455.000000	99.563325
454.000000	99.542835
453.000000	99.557053
452.000000	99.477433
451.000000	99.393865
450.000000	99.449929
