PE IR       SUBTECH     SPECTRUM    ASCII       PEDS        4.00        
   -1
Veau_Al-1-F001_1.ASC
23/09/13
10:48:45.00
23/09/13
11:33:37.00
uco
Sample 001 By uco Date Wednesday, September 13 2023
450.000000
#HDR
-1
-1
#GR
cm-1
%T
1.0
0.0
4000.000000
-1.000000
3551
8
98.987545
84.716882
#DATA
4000.000000	98.834398
3999.000000	98.833140
3998.000000	98.836994
3997.000000	98.842667
3996.000000	98.846750
3995.000000	98.848963
3994.000000	98.851580
3993.000000	98.828504
3992.000000	98.834343
3991.000000	98.840605
3990.000000	98.845911
3989.000000	98.848966
3988.000000	98.848567
3987.000000	98.843870
3986.000000	98.835571
3985.000000	98.826092
3984.000000	98.818208
3983.000000	98.813282
3982.000000	98.810800
3981.000000	98.809433
3980.000000	98.808440
3979.000000	98.808153
3978.000000	98.809189
3977.000000	98.811436
3976.000000	98.813835
3975.000000	98.815107
3974.000000	98.814778
3973.000000	98.813472
3972.000000	98.812357
3971.000000	98.812260
3970.000000	98.813201
3969.000000	98.814227
3968.000000	98.813555
3967.000000	98.809866
3966.000000	98.803879
3965.000000	98.798538
3964.000000	98.797040
3963.000000	98.800443
3962.000000	98.807065
3961.000000	98.813962
3960.000000	98.819035
3959.000000	98.821265
3958.000000	98.820119
3957.000000	98.815448
3956.000000	98.807542
3955.000000	98.797577
3954.000000	98.787871
3953.000000	98.781763
3952.000000	98.782352
3951.000000	98.790354
3950.000000	98.802921
3949.000000	98.814128
3948.000000	98.818317
3947.000000	98.814073
3946.000000	98.804476
3945.000000	98.794591
3944.000000	98.788554
3943.000000	98.787011
3942.000000	98.786998
3941.000000	98.784388
3940.000000	98.777416
3939.000000	98.768050
3938.000000	98.760861
3937.000000	98.760218
3936.000000	98.766583
3935.000000	98.776132
3934.000000	98.783874
3933.000000	98.786904
3932.000000	98.785748
3931.000000	98.782613
3930.000000	98.779234
3929.000000	98.775719
3928.000000	98.771322
3927.000000	98.767086
3926.000000	98.765981
3925.000000	98.770408
3924.000000	98.779708
3923.000000	98.790957
3922.000000	98.801409
3921.000000	98.809552
3920.000000	98.814564
3919.000000	98.815985
3918.000000	98.813588
3917.000000	98.807928
3916.000000	98.800521
3915.000000	98.792564
3914.000000	98.784503
3913.000000	98.776637
3912.000000	98.769892
3911.000000	98.764594
3910.000000	98.760129
3909.000000	98.755913
3908.000000	98.752688
3907.000000	98.753609
3906.000000	98.762774
3905.000000	98.781391
3904.000000	98.803610
3903.000000	98.818871
3902.000000	98.821564
3901.000000	98.815070
3900.000000	98.805628
3899.000000	98.797448
3898.000000	98.791621
3897.000000	98.787499
3896.000000	98.784711
3895.000000	98.783179
3894.000000	98.783465
3893.000000	98.786181
3892.000000	98.790094
3891.000000	98.791670
3890.000000	98.790019
3889.000000	98.787939
3888.000000	98.787953
3887.000000	98.790167
3886.000000	98.792421
3885.000000	98.792204
3884.000000	98.789092
3883.000000	98.784466
3882.000000	98.779572
3881.000000	98.774573
3880.000000	98.767926
3879.000000	98.758853
3878.000000	98.749363
3877.000000	98.742381
3876.000000	98.739714
3875.000000	98.742516
3874.000000	98.751133
3873.000000	98.763617
3872.000000	98.776256
3871.000000	98.784994
3870.000000	98.787635
3869.000000	98.786499
3868.000000	98.785973
3867.000000	98.786103
3866.000000	98.782717
3865.000000	98.774174
3864.000000	98.764704
3863.000000	98.760142
3862.000000	98.762164
3861.000000	98.767297
3860.000000	98.770162
3859.000000	98.768219
3858.000000	98.763024
3857.000000	98.759104
3856.000000	98.760968
3855.000000	98.768670
3854.000000	98.780998
3853.000000	98.788185
3852.000000	98.782504
3851.000000	98.772513
3850.000000	98.766103
3849.000000	98.762076
3848.000000	98.758185
3847.000000	98.753586
3846.000000	98.749554
3845.000000	98.748540
3844.000000	98.751975
3843.000000	98.758692
3842.000000	98.766160
3841.000000	98.771733
3840.000000	98.774180
3839.000000	98.773693
3838.000000	98.770696
3837.000000	98.766781
3836.000000	98.764020
3835.000000	98.763572
3834.000000	98.765533
3833.000000	98.768173
3832.000000	98.767435
3831.000000	98.760659
3830.000000	98.750127
3829.000000	98.742387
3828.000000	98.742669
3827.000000	98.750542
3826.000000	98.761217
3825.000000	98.770172
3824.000000	98.775696
3823.000000	98.776393
3822.000000	98.773075
3821.000000	98.768513
3820.000000	98.763139
3819.000000	98.758455
3818.000000	98.757553
3817.000000	98.761080
3816.000000	98.764605
3815.000000	98.764304
3814.000000	98.762087
3813.000000	98.761506
3812.000000	98.763314
3811.000000	98.766001
3810.000000	98.768660
3809.000000	98.771174
3808.000000	98.773162
3807.000000	98.773592
3806.000000	98.772624
3805.000000	98.771550
3804.000000	98.770467
3803.000000	98.766463
3802.000000	98.758400
3801.000000	98.750057
3800.000000	98.748564
3799.000000	98.755463
3798.000000	98.765929
3797.000000	98.773356
3796.000000	98.773547
3795.000000	98.767238
3794.000000	98.758989
3793.000000	98.753438
3792.000000	98.751835
3791.000000	98.751945
3790.000000	98.750846
3789.000000	98.747484
3788.000000	98.742361
3787.000000	98.736698
3786.000000	98.732081
3785.000000	98.730032
3784.000000	98.730814
3783.000000	98.732780
3782.000000	98.733481
3781.000000	98.731970
3780.000000	98.730226
3779.000000	98.730680
3778.000000	98.733859
3777.000000	98.738382
3776.000000	98.742123
3775.000000	98.743433
3774.000000	98.743299
3773.000000	98.745160
3772.000000	98.751466
3771.000000	98.761014
3770.000000	98.769999
3769.000000	98.775681
3768.000000	98.777489
3767.000000	98.775250
3766.000000	98.768131
3765.000000	98.757270
3764.000000	98.747361
3763.000000	98.742825
3762.000000	98.743857
3761.000000	98.747453
3760.000000	98.751139
3759.000000	98.753749
3758.000000	98.755986
3757.000000	98.760361
3756.000000	98.768573
3755.000000	98.779891
3754.000000	98.793508
3753.000000	98.810553
3752.000000	98.831549
3751.000000	98.849853
3750.000000	98.854727
3749.000000	98.847664
3748.000000	98.838780
3747.000000	98.832729
3746.000000	98.825561
3745.000000	98.810446
3744.000000	98.788657
3743.000000	98.773778
3742.000000	98.775185
3741.000000	98.789809
3740.000000	98.808588
3739.000000	98.823723
3738.000000	98.830664
3737.000000	98.831139
3736.000000	98.832283
3735.000000	98.839974
3734.000000	98.853257
3733.000000	98.863143
3732.000000	98.860031
3731.000000	98.844265
3730.000000	98.825533
3729.000000	98.812935
3728.000000	98.808132
3727.000000	98.806830
3726.000000	98.804086
3725.000000	98.798886
3724.000000	98.793290
3723.000000	98.789182
3722.000000	98.787484
3721.000000	98.787571
3720.000000	98.788769
3719.000000	98.790710
3718.000000	98.793524
3717.000000	98.797633
3716.000000	98.802686
3715.000000	98.806581
3714.000000	98.805083
3713.000000	98.795097
3712.000000	98.780018
3711.000000	98.768301
3710.000000	98.765923
3709.000000	98.773120
3708.000000	98.785120
3707.000000	98.796304
3706.000000	98.804119
3705.000000	98.808650
3704.000000	98.811289
3703.000000	98.812852
3702.000000	98.811681
3701.000000	98.804141
3700.000000	98.788987
3699.000000	98.769820
3698.000000	98.752141
3697.000000	98.739756
3696.000000	98.733148
3695.000000	98.729858
3694.000000	98.727475
3693.000000	98.727137
3692.000000	98.734261
3691.000000	98.753885
3690.000000	98.780726
3689.000000	98.796001
3688.000000	98.787951
3687.000000	98.767701
3686.000000	98.751896
3685.000000	98.746762
3684.000000	98.749523
3683.000000	98.753297
3682.000000	98.751656
3681.000000	98.741841
3680.000000	98.725535
3679.000000	98.707748
3678.000000	98.694887
3677.000000	98.691696
3676.000000	98.699142
3675.000000	98.709103
3674.000000	98.714662
3673.000000	98.716779
3672.000000	98.716443
3671.000000	98.709125
3670.000000	98.692147
3669.000000	98.671879
3668.000000	98.658480
3667.000000	98.654160
3666.000000	98.654533
3665.000000	98.654330
3664.000000	98.650241
3663.000000	98.641274
3662.000000	98.629268
3661.000000	98.617747
3660.000000	98.608730
3659.000000	98.601906
3658.000000	98.596425
3657.000000	98.592457
3656.000000	98.589373
3655.000000	98.585339
3654.000000	98.580360
3653.000000	98.576056
3652.000000	98.574488
3651.000000	98.578407
3650.000000	98.585927
3649.000000	98.581608
3648.000000	98.556477
3647.000000	98.525883
3646.000000	98.505748
3645.000000	98.496946
3644.000000	98.492723
3643.000000	98.486189
3642.000000	98.474183
3641.000000	98.458292
3640.000000	98.441495
3639.000000	98.425086
3638.000000	98.409365
3637.000000	98.395107
3636.000000	98.383455
3635.000000	98.375507
3634.000000	98.373166
3633.000000	98.378152
3632.000000	98.388772
3631.000000	98.398004
3630.000000	98.397218
3629.000000	98.383312
3628.000000	98.361872
3627.000000	98.343625
3626.000000	98.332030
3625.000000	98.323253
3624.000000	98.312029
3623.000000	98.295952
3622.000000	98.275978
3621.000000	98.255141
3620.000000	98.236173
3619.000000	98.219218
3618.000000	98.202873
3617.000000	98.188233
3616.000000	98.176852
3615.000000	98.167346
3614.000000	98.156932
3613.000000	98.144780
3612.000000	98.133112
3611.000000	98.123241
3610.000000	98.112451
3609.000000	98.097029
3608.000000	98.077910
3607.000000	98.060569
3606.000000	98.049550
3605.000000	98.044455
3604.000000	98.040554
3603.000000	98.032694
3602.000000	98.017900
3601.000000	97.996423
3600.000000	97.971738
3599.000000	97.948703
3598.000000	97.929902
3597.000000	97.914299
3596.000000	97.898251
3595.000000	97.878733
3594.000000	97.857268
3593.000000	97.838845
3592.000000	97.826785
3591.000000	97.819676
3590.000000	97.813584
3589.000000	97.805339
3588.000000	97.792410
3587.000000	97.771491
3586.000000	97.745174
3585.000000	97.720191
3584.000000	97.698629
3583.000000	97.678074
3582.000000	97.656733
3581.000000	97.635307
3580.000000	97.615457
3579.000000	97.597373
3578.000000	97.580069
3577.000000	97.563260
3576.000000	97.547579
3575.000000	97.532992
3574.000000	97.518299
3573.000000	97.502415
3572.000000	97.484536
3571.000000	97.464187
3570.000000	97.442044
3569.000000	97.421618
3568.000000	97.406584
3567.000000	97.394701
3566.000000	97.381025
3565.000000	97.367078
3564.000000	97.354678
3563.000000	97.340925
3562.000000	97.322793
3561.000000	97.301148
3560.000000	97.279475
3559.000000	97.260441
3558.000000	97.244036
3557.000000	97.228876
3556.000000	97.213717
3555.000000	97.197807
3554.000000	97.180651
3553.000000	97.162261
3552.000000	97.142969
3551.000000	97.123153
3550.000000	97.103057
3549.000000	97.082863
3548.000000	97.063076
3547.000000	97.044091
3546.000000	97.025447
3545.000000	97.006592
3544.000000	96.987782
3543.000000	96.968810
3542.000000	96.948540
3541.000000	96.925554
3540.000000	96.898999
3539.000000	96.869845
3538.000000	96.841409
3537.000000	96.817988
3536.000000	96.801103
3535.000000	96.788039
3534.000000	96.774460
3533.000000	96.757649
3532.000000	96.737386
3531.000000	96.715173
3530.000000	96.693827
3529.000000	96.676566
3528.000000	96.664777
3527.000000	96.656555
3526.000000	96.648179
3525.000000	96.636419
3524.000000	96.619662
3523.000000	96.598473
3522.000000	96.575515
3521.000000	96.553608
3520.000000	96.533344
3519.000000	96.513670
3518.000000	96.494288
3517.000000	96.476394
3516.000000	96.460783
3515.000000	96.446245
3514.000000	96.430971
3513.000000	96.414598
3512.000000	96.398512
3511.000000	96.384798
3510.000000	96.374644
3509.000000	96.366485
3508.000000	96.355888
3507.000000	96.339285
3506.000000	96.318513
3505.000000	96.300828
3504.000000	96.292237
3503.000000	96.290633
3502.000000	96.287857
3501.000000	96.277819
3500.000000	96.259936
3499.000000	96.236427
3498.000000	96.210105
3497.000000	96.184168
3496.000000	96.161893
3495.000000	96.145217
3494.000000	96.133773
3493.000000	96.125279
3492.000000	96.116752
3491.000000	96.106297
3490.000000	96.094173
3489.000000	96.081407
3488.000000	96.067363
3487.000000	96.050184
3486.000000	96.029977
3485.000000	96.009808
3484.000000	95.992550
3483.000000	95.978078
3482.000000	95.964658
3481.000000	95.951996
3480.000000	95.940930
3479.000000	95.930716
3478.000000	95.918836
3477.000000	95.903977
3476.000000	95.887984
3475.000000	95.874319
3474.000000	95.864631
3473.000000	95.856641
3472.000000	95.845231
3471.000000	95.826544
3470.000000	95.802157
3469.000000	95.778790
3468.000000	95.763062
3467.000000	95.756294
3466.000000	95.754077
3465.000000	95.749969
3464.000000	95.739078
3463.000000	95.720014
3462.000000	95.695620
3461.000000	95.671414
3460.000000	95.651463
3459.000000	95.635319
3458.000000	95.619677
3457.000000	95.602885
3456.000000	95.586704
3455.000000	95.574208
3454.000000	95.566912
3453.000000	95.563754
3452.000000	95.561766
3451.000000	95.557398
3450.000000	95.548651
3449.000000	95.536597
3448.000000	95.524457
3447.000000	95.514629
3446.000000	95.506623
3445.000000	95.497439
3444.000000	95.483592
3443.000000	95.463619
3442.000000	95.439864
3441.000000	95.417489
3440.000000	95.400286
3439.000000	95.387632
3438.000000	95.376175
3437.000000	95.364085
3436.000000	95.352371
3435.000000	95.342572
3434.000000	95.334427
3433.000000	95.326207
3432.000000	95.316979
3431.000000	95.307764
3430.000000	95.300748
3429.000000	95.296834
3428.000000	95.293770
3427.000000	95.287463
3426.000000	95.275615
3425.000000	95.259629
3424.000000	95.242584
3423.000000	95.226422
3422.000000	95.211779
3421.000000	95.199010
3420.000000	95.187720
3419.000000	95.176212
3418.000000	95.163372
3417.000000	95.150652
3416.000000	95.140594
3415.000000	95.133304
3414.000000	95.125786
3413.000000	95.115137
3412.000000	95.101402
3411.000000	95.087119
3410.000000	95.074921
3409.000000	95.065681
3408.000000	95.058123
3407.000000	95.050115
3406.000000	95.040614
3405.000000	95.030388
3404.000000	95.020498
3403.000000	95.010797
3402.000000	95.000653
3401.000000	94.990426
3400.000000	94.981339
3399.000000	94.974028
3398.000000	94.967915
3397.000000	94.961689
3396.000000	94.953899
3395.000000	94.943604
3394.000000	94.931395
3393.000000	94.919497
3392.000000	94.909832
3391.000000	94.901854
3390.000000	94.892901
3389.000000	94.880911
3388.000000	94.866618
3387.000000	94.853012
3386.000000	94.842485
3385.000000	94.834226
3384.000000	94.824745
3383.000000	94.811631
3382.000000	94.796383
3381.000000	94.782419
3380.000000	94.770481
3379.000000	94.757227
3378.000000	94.738897
3377.000000	94.715205
3376.000000	94.689214
3375.000000	94.664448
3374.000000	94.642727
3373.000000	94.623809
3372.000000	94.605930
3371.000000	94.586874
3370.000000	94.565202
3369.000000	94.540532
3368.000000	94.512934
3367.000000	94.483004
3366.000000	94.452621
3365.000000	94.424376
3364.000000	94.399364
3363.000000	94.376141
3362.000000	94.352145
3361.000000	94.325303
3360.000000	94.294146
3359.000000	94.258014
3358.000000	94.218381
3357.000000	94.178975
3356.000000	94.142948
3355.000000	94.109801
3354.000000	94.075945
3353.000000	94.038277
3352.000000	93.996662
3351.000000	93.953331
3350.000000	93.910746
3349.000000	93.870097
3348.000000	93.831303
3347.000000	93.794204
3346.000000	93.759388
3345.000000	93.727417
3344.000000	93.697262
3343.000000	93.666243
3342.000000	93.631987
3341.000000	93.594172
3340.000000	93.554450
3339.000000	93.515270
3338.000000	93.478481
3337.000000	93.444002
3336.000000	93.409785
3335.000000	93.374117
3334.000000	93.338081
3333.000000	93.304511
3332.000000	93.274294
3331.000000	93.245231
3330.000000	93.214981
3329.000000	93.183842
3328.000000	93.153909
3327.000000	93.126769
3326.000000	93.102784
3325.000000	93.081304
3324.000000	93.060379
3323.000000	93.037285
3322.000000	93.010943
3321.000000	92.983471
3320.000000	92.958293
3319.000000	92.937185
3318.000000	92.919825
3317.000000	92.905307
3316.000000	92.892803
3315.000000	92.881024
3314.000000	92.868577
3313.000000	92.855526
3312.000000	92.843898
3311.000000	92.836242
3310.000000	92.833448
3309.000000	92.833500
3308.000000	92.832419
3307.000000	92.827106
3306.000000	92.817552
3305.000000	92.805894
3304.000000	92.793375
3303.000000	92.779169
3302.000000	92.762561
3301.000000	92.745526
3300.000000	92.732169
3299.000000	92.725547
3298.000000	92.725122
3297.000000	92.726893
3296.000000	92.726408
3295.000000	92.722381
3294.000000	92.717271
3293.000000	92.713874
3292.000000	92.711974
3291.000000	92.709583
3290.000000	92.706819
3289.000000	92.706314
3288.000000	92.709279
3287.000000	92.713121
3286.000000	92.714223
3285.000000	92.712029
3284.000000	92.709650
3283.000000	92.711102
3282.000000	92.718051
3281.000000	92.728351
3280.000000	92.737715
3279.000000	92.743918
3278.000000	92.749297
3277.000000	92.757906
3276.000000	92.770580
3275.000000	92.784890
3274.000000	92.799552
3273.000000	92.815594
3272.000000	92.832482
3271.000000	92.846321
3270.000000	92.853976
3269.000000	92.856675
3268.000000	92.857752
3267.000000	92.859111
3266.000000	92.862000
3265.000000	92.869162
3264.000000	92.883014
3263.000000	92.902381
3262.000000	92.923530
3261.000000	92.944116
3260.000000	92.964185
3259.000000	92.983604
3258.000000	93.000794
3257.000000	93.014559
3256.000000	93.025751
3255.000000	93.036636
3254.000000	93.049120
3253.000000	93.063711
3252.000000	93.079870
3251.000000	93.097289
3250.000000	93.116651
3249.000000	93.138059
3248.000000	93.158696
3247.000000	93.173836
3246.000000	93.181298
3245.000000	93.184043
3244.000000	93.187327
3243.000000	93.194219
3242.000000	93.204834
3241.000000	93.218353
3240.000000	93.234107
3239.000000	93.251367
3238.000000	93.269369
3237.000000	93.287211
3236.000000	93.303080
3235.000000	93.314847
3234.000000	93.322368
3233.000000	93.327974
3232.000000	93.333685
3231.000000	93.339207
3230.000000	93.344193
3229.000000	93.350924
3228.000000	93.362428
3227.000000	93.378422
3226.000000	93.395115
3225.000000	93.408953
3224.000000	93.419231
3223.000000	93.427376
3222.000000	93.435164
3221.000000	93.443622
3220.000000	93.452308
3219.000000	93.459545
3218.000000	93.464390
3217.000000	93.468340
3216.000000	93.474385
3215.000000	93.484437
3214.000000	93.498157
3213.000000	93.513767
3212.000000	93.529104
3211.000000	93.542374
3210.000000	93.553155
3209.000000	93.562762
3208.000000	93.572805
3207.000000	93.583653
3206.000000	93.595126
3205.000000	93.608127
3204.000000	93.624223
3203.000000	93.643471
3202.000000	93.663867
3201.000000	93.683206
3200.000000	93.700509
3199.000000	93.715349
3198.000000	93.726846
3197.000000	93.734563
3196.000000	93.740415
3195.000000	93.748713
3194.000000	93.763299
3193.000000	93.784233
3192.000000	93.807549
3191.000000	93.828950
3190.000000	93.847612
3189.000000	93.865868
3188.000000	93.885638
3187.000000	93.906546
3186.000000	93.927662
3185.000000	93.949501
3184.000000	93.973098
3183.000000	93.997902
3182.000000	94.021689
3181.000000	94.042495
3180.000000	94.060296
3179.000000	94.077075
3178.000000	94.095416
3177.000000	94.116212
3176.000000	94.137443
3175.000000	94.156015
3174.000000	94.171140
3173.000000	94.185100
3172.000000	94.200422
3171.000000	94.217408
3170.000000	94.235117
3169.000000	94.253291
3168.000000	94.272085
3167.000000	94.290941
3166.000000	94.309550
3165.000000	94.329484
3164.000000	94.352915
3163.000000	94.379315
3162.000000	94.404630
3161.000000	94.424586
3160.000000	94.438403
3159.000000	94.449133
3158.000000	94.460909
3157.000000	94.476187
3156.000000	94.495113
3155.000000	94.516783
3154.000000	94.540553
3153.000000	94.565807
3152.000000	94.590943
3151.000000	94.613661
3150.000000	94.632730
3149.000000	94.648968
3148.000000	94.664183
3147.000000	94.679743
3146.000000	94.696295
3145.000000	94.713983
3144.000000	94.732336
3143.000000	94.750707
3142.000000	94.769208
3141.000000	94.788335
3140.000000	94.807080
3139.000000	94.822536
3138.000000	94.832592
3137.000000	94.838685
3136.000000	94.845088
3135.000000	94.855659
3134.000000	94.871475
3133.000000	94.890685
3132.000000	94.909751
3131.000000	94.925386
3130.000000	94.936492
3129.000000	94.944494
3128.000000	94.951643
3127.000000	94.959320
3126.000000	94.968260
3125.000000	94.979423
3124.000000	94.993347
3123.000000	95.008749
3122.000000	95.022808
3121.000000	95.032992
3120.000000	95.038172
3119.000000	95.038566
3118.000000	95.035577
3117.000000	95.031415
3116.000000	95.027584
3115.000000	95.023783
3114.000000	95.019247
3113.000000	95.014967
3112.000000	95.013279
3111.000000	95.014760
3110.000000	95.016491
3109.000000	95.014084
3108.000000	95.005211
3107.000000	94.991205
3106.000000	94.975997
3105.000000	94.963529
3104.000000	94.955259
3103.000000	94.949376
3102.000000	94.942696
3101.000000	94.933503
3100.000000	94.922339
3099.000000	94.910474
3098.000000	94.898526
3097.000000	94.886565
3096.000000	94.874602
3095.000000	94.862621
3094.000000	94.850711
3093.000000	94.839242
3092.000000	94.828347
3091.000000	94.817323
3090.000000	94.805401
3089.000000	94.793180
3088.000000	94.782575
3087.000000	94.774989
3086.000000	94.770220
3085.000000	94.767240
3084.000000	94.765052
3083.000000	94.762469
3082.000000	94.758124
3081.000000	94.751805
3080.000000	94.745202
3079.000000	94.740276
3078.000000	94.736955
3077.000000	94.733488
3076.000000	94.729216
3075.000000	94.726071
3074.000000	94.726706
3073.000000	94.731741
3072.000000	94.739751
3071.000000	94.749441
3070.000000	94.760637
3069.000000	94.772613
3068.000000	94.782700
3067.000000	94.788083
3066.000000	94.788960
3065.000000	94.788968
3064.000000	94.792166
3063.000000	94.800410
3062.000000	94.813792
3061.000000	94.832371
3060.000000	94.856424
3059.000000	94.885340
3058.000000	94.916825
3057.000000	94.947350
3056.000000	94.973657
3055.000000	94.994671
3054.000000	95.012356
3053.000000	95.030165
3052.000000	95.050440
3051.000000	95.073388
3050.000000	95.098044
3049.000000	95.123197
3048.000000	95.147375
3047.000000	95.169266
3046.000000	95.188969
3045.000000	95.208275
3044.000000	95.229402
3043.000000	95.253848
3042.000000	95.282146
3041.000000	95.313254
3040.000000	95.343730
3039.000000	95.369213
3038.000000	95.388107
3037.000000	95.403346
3036.000000	95.419687
3035.000000	95.439620
3034.000000	95.462109
3033.000000	95.484353
3032.000000	95.503858
3031.000000	95.519774
3030.000000	95.533532
3029.000000	95.548054
3028.000000	95.565614
3027.000000	95.586226
3026.000000	95.608188
3025.000000	95.629561
3024.000000	95.648835
3023.000000	95.665208
3022.000000	95.679312
3021.000000	95.693306
3020.000000	95.709086
3019.000000	95.726364
3018.000000	95.743106
3017.000000	95.757433
3016.000000	95.768422
3015.000000	95.775861
3014.000000	95.780537
3013.000000	95.784561
3012.000000	95.789998
3011.000000	95.796851
3010.000000	95.803170
3009.000000	95.807313
3008.000000	95.809629
3007.000000	95.811946
3006.000000	95.815932
3005.000000	95.821689
3004.000000	95.827318
3003.000000	95.830218
3002.000000	95.829549
3001.000000	95.827201
3000.000000	95.825720
2999.000000	95.825670
2998.000000	95.825738
2997.000000	95.824711
2996.000000	95.821791
2995.000000	95.815314
2994.000000	95.803041
2993.000000	95.784584
2992.000000	95.762402
2991.000000	95.739417
2990.000000	95.716413
2989.000000	95.692436
2988.000000	95.667323
2987.000000	95.642701
2986.000000	95.620337
2985.000000	95.600106
2984.000000	95.580284
2983.000000	95.560027
2982.000000	95.540988
2981.000000	95.525570
2980.000000	95.513346
2979.000000	95.500210
2978.000000	95.482020
2977.000000	95.458565
2976.000000	95.433062
2975.000000	95.408152
2974.000000	95.383545
2973.000000	95.357320
2972.000000	95.328130
2971.000000	95.295582
2970.000000	95.259444
2969.000000	95.219289
2968.000000	95.174912
2967.000000	95.127201
2966.000000	95.078793
2965.000000	95.033220
2964.000000	94.992019
2963.000000	94.952856
2962.000000	94.911821
2961.000000	94.868086
2960.000000	94.825141
2959.000000	94.786971
2958.000000	94.754636
2957.000000	94.727528
2956.000000	94.706818
2955.000000	94.695723
2954.000000	94.696300
2953.000000	94.706884
2952.000000	94.722418
2951.000000	94.736793
2950.000000	94.745181
2949.000000	94.745674
2948.000000	94.739151
2947.000000	94.727305
2946.000000	94.710489
2945.000000	94.687288
2944.000000	94.655841
2943.000000	94.615022
2942.000000	94.564949
2941.000000	94.507033
2940.000000	94.443560
2939.000000	94.376550
2938.000000	94.306727
2937.000000	94.234009
2936.000000	94.158566
2935.000000	94.080847
2934.000000	94.000687
2933.000000	93.917348
2932.000000	93.830856
2931.000000	93.742470
2930.000000	93.653347
2929.000000	93.563164
2928.000000	93.470951
2927.000000	93.377614
2926.000000	93.287192
2925.000000	93.205235
2924.000000	93.135430
2923.000000	93.077808
2922.000000	93.030369
2921.000000	92.992842
2920.000000	92.969729
2919.000000	92.969932
2918.000000	93.003730
2917.000000	93.079011
2916.000000	93.198118
2915.000000	93.356275
2914.000000	93.541826
2913.000000	93.738975
2912.000000	93.931904
2911.000000	94.108962
2910.000000	94.264559
2909.000000	94.398316
2908.000000	94.512853
2907.000000	94.611431
2906.000000	94.696630
2905.000000	94.769826
2904.000000	94.831536
2903.000000	94.882897
2902.000000	94.926104
2901.000000	94.964989
2900.000000	95.003310
2899.000000	95.042898
2898.000000	95.083666
2897.000000	95.124918
2896.000000	95.166455
2895.000000	95.208011
2894.000000	95.248353
2893.000000	95.285685
2892.000000	95.319023
2891.000000	95.348566
2890.000000	95.374700
2889.000000	95.397426
2888.000000	95.417166
2887.000000	95.435337
2886.000000	95.453134
2885.000000	95.469759
2884.000000	95.482644
2883.000000	95.489910
2882.000000	95.492464
2881.000000	95.493455
2880.000000	95.495467
2879.000000	95.498073
2878.000000	95.497966
2877.000000	95.491713
2876.000000	95.479046
2875.000000	95.463804
2874.000000	95.451592
2873.000000	95.445901
2872.000000	95.446143
2871.000000	95.449355
2870.000000	95.453712
2869.000000	95.460131
2868.000000	95.470255
2867.000000	95.483065
2866.000000	95.493734
2865.000000	95.495970
2864.000000	95.485338
2863.000000	95.460884
2862.000000	95.424475
2861.000000	95.379095
2860.000000	95.327060
2859.000000	95.268450
2858.000000	95.200936
2857.000000	95.121987
2856.000000	95.032039
2855.000000	94.935434
2854.000000	94.838892
2853.000000	94.750030
2852.000000	94.678624
2851.000000	94.638848
2850.000000	94.647278
2849.000000	94.715786
2848.000000	94.843627
2847.000000	95.015346
2846.000000	95.206460
2845.000000	95.393055
2844.000000	95.559074
2843.000000	95.698842
2842.000000	95.815027
2841.000000	95.913854
2840.000000	96.000624
2839.000000	96.077220
2838.000000	96.142762
2837.000000	96.196197
2836.000000	96.238330
2835.000000	96.271817
2834.000000	96.299960
2833.000000	96.325481
2832.000000	96.349744
2831.000000	96.372557
2830.000000	96.392913
2829.000000	96.410644
2828.000000	96.427166
2827.000000	96.444149
2826.000000	96.461752
2825.000000	96.478945
2824.000000	96.495511
2823.000000	96.512535
2822.000000	96.530454
2821.000000	96.547610
2820.000000	96.561717
2819.000000	96.572506
2818.000000	96.581952
2817.000000	96.591918
2816.000000	96.602253
2815.000000	96.611364
2814.000000	96.618172
2813.000000	96.623154
2812.000000	96.627781
2811.000000	96.633294
2810.000000	96.639936
2809.000000	96.647053
2808.000000	96.653828
2807.000000	96.659964
2806.000000	96.665853
2805.000000	96.672137
2804.000000	96.679107
2803.000000	96.686536
2802.000000	96.694167
2801.000000	96.702354
2800.000000	96.711869
2799.000000	96.722796
2798.000000	96.733870
2797.000000	96.743443
2796.000000	96.751081
2795.000000	96.757774
2794.000000	96.764599
2793.000000	96.771843
2792.000000	96.779601
2791.000000	96.788323
2790.000000	96.797971
2789.000000	96.807094
2788.000000	96.813831
2787.000000	96.818050
2786.000000	96.821877
2785.000000	96.827771
2784.000000	96.836340
2783.000000	96.846199
2782.000000	96.855511
2781.000000	96.863355
2780.000000	96.869905
2779.000000	96.875829
2778.000000	96.881747
2777.000000	96.888137
2776.000000	96.895475
2775.000000	96.904209
2774.000000	96.914350
2773.000000	96.925114
2772.000000	96.935156
2771.000000	96.943430
2770.000000	96.949968
2769.000000	96.955909
2768.000000	96.962703
2767.000000	96.971098
2766.000000	96.980673
2765.000000	96.990336
2764.000000	96.999360
2763.000000	97.007969
2762.000000	97.016876
2761.000000	97.026213
2760.000000	97.034950
2759.000000	97.041486
2758.000000	97.044906
2757.000000	97.045671
2756.000000	97.045182
2755.000000	97.044995
2754.000000	97.046672
2753.000000	97.051918
2752.000000	97.061707
2751.000000	97.074623
2750.000000	97.086710
2749.000000	97.094162
2748.000000	97.096689
2747.000000	97.097861
2746.000000	97.101759
2745.000000	97.109345
2744.000000	97.118111
2743.000000	97.124914
2742.000000	97.128983
2741.000000	97.132426
2740.000000	97.138136
2739.000000	97.147035
2738.000000	97.157013
2737.000000	97.164598
2736.000000	97.167992
2735.000000	97.168589
2734.000000	97.169421
2733.000000	97.172237
2732.000000	97.176480
2731.000000	97.181152
2730.000000	97.186823
2729.000000	97.194871
2728.000000	97.204842
2727.000000	97.213795
2726.000000	97.219069
2725.000000	97.221215
2724.000000	97.223386
2723.000000	97.227963
2722.000000	97.234554
2721.000000	97.241198
2720.000000	97.246571
2719.000000	97.250664
2718.000000	97.254051
2717.000000	97.257255
2716.000000	97.260605
2715.000000	97.264193
2714.000000	97.267890
2713.000000	97.271501
2712.000000	97.274790
2711.000000	97.277387
2710.000000	97.279101
2709.000000	97.280419
2708.000000	97.282289
2707.000000	97.285240
2706.000000	97.289047
2705.000000	97.293353
2704.000000	97.298201
2703.000000	97.303767
2702.000000	97.309941
2701.000000	97.316301
2700.000000	97.322204
2699.000000	97.327059
2698.000000	97.331016
2697.000000	97.335162
2696.000000	97.340280
2695.000000	97.345573
2694.000000	97.349583
2693.000000	97.352147
2692.000000	97.354100
2691.000000	97.355166
2690.000000	97.354189
2689.000000	97.352118
2688.000000	97.352579
2687.000000	97.357740
2686.000000	97.364950
2685.000000	97.369248
2684.000000	97.368266
2683.000000	97.363123
2682.000000	97.355897
2681.000000	97.348746
2680.000000	97.344803
2679.000000	97.346783
2678.000000	97.353688
2677.000000	97.360843
2676.000000	97.364380
2675.000000	97.364692
2674.000000	97.365011
2673.000000	97.367811
2672.000000	97.373081
2671.000000	97.378666
2670.000000	97.381340
2669.000000	97.378679
2668.000000	97.371285
2667.000000	97.362924
2666.000000	97.357659
2665.000000	97.356864
2664.000000	97.359159
2663.000000	97.362478
2662.000000	97.365629
2661.000000	97.368514
2660.000000	97.371734
2659.000000	97.375924
2658.000000	97.380885
2657.000000	97.385331
2656.000000	97.387882
2655.000000	97.388468
2654.000000	97.388709
2653.000000	97.390929
2652.000000	97.396535
2651.000000	97.404999
2650.000000	97.414343
2649.000000	97.422833
2648.000000	97.430167
2647.000000	97.436898
2646.000000	97.443103
2645.000000	97.448117
2644.000000	97.451317
2643.000000	97.452680
2642.000000	97.452984
2641.000000	97.454128
2640.000000	97.458703
2639.000000	97.467989
2638.000000	97.480225
2637.000000	97.491771
2636.000000	97.500244
2635.000000	97.505873
2634.000000	97.509973
2633.000000	97.513272
2632.000000	97.516122
2631.000000	97.519294
2630.000000	97.523696
2629.000000	97.529511
2628.000000	97.535957
2627.000000	97.541781
2626.000000	97.546048
2625.000000	97.548844
2624.000000	97.551389
2623.000000	97.555400
2622.000000	97.562364
2621.000000	97.572950
2620.000000	97.586062
2619.000000	97.598363
2618.000000	97.606356
2617.000000	97.610121
2616.000000	97.613889
2615.000000	97.621557
2614.000000	97.632537
2613.000000	97.643274
2612.000000	97.651890
2611.000000	97.659570
2610.000000	97.668109
2609.000000	97.677918
2608.000000	97.687807
2607.000000	97.695063
2606.000000	97.696577
2605.000000	97.691901
2604.000000	97.684745
2603.000000	97.679561
2602.000000	97.677340
2601.000000	97.676825
2600.000000	97.678438
2599.000000	97.683733
2598.000000	97.691385
2597.000000	97.697326
2596.000000	97.699706
2595.000000	97.700937
2594.000000	97.704112
2593.000000	97.709820
2592.000000	97.716959
2591.000000	97.724025
2590.000000	97.729040
2589.000000	97.731082
2588.000000	97.732781
2587.000000	97.738351
2586.000000	97.747884
2585.000000	97.756390
2584.000000	97.760082
2583.000000	97.761046
2582.000000	97.763587
2581.000000	97.768435
2580.000000	97.773227
2579.000000	97.777268
2578.000000	97.782830
2577.000000	97.791616
2576.000000	97.801880
2575.000000	97.809811
2574.000000	97.813390
2573.000000	97.814552
2572.000000	97.817098
2571.000000	97.822198
2570.000000	97.826970
2569.000000	97.828669
2568.000000	97.829002
2567.000000	97.831999
2566.000000	97.838361
2565.000000	97.844674
2564.000000	97.848324
2563.000000	97.850289
2562.000000	97.852219
2561.000000	97.853376
2560.000000	97.851821
2559.000000	97.847072
2558.000000	97.840681
2557.000000	97.835614
2556.000000	97.835286
2555.000000	97.841136
2554.000000	97.850476
2553.000000	97.858518
2552.000000	97.863233
2551.000000	97.866691
2550.000000	97.871521
2549.000000	97.878210
2548.000000	97.886190
2547.000000	97.894854
2546.000000	97.902295
2545.000000	97.905381
2544.000000	97.902891
2543.000000	97.897256
2542.000000	97.891919
2541.000000	97.888117
2540.000000	97.885141
2539.000000	97.882540
2538.000000	97.881109
2537.000000	97.882681
2536.000000	97.889461
2535.000000	97.902256
2534.000000	97.918540
2533.000000	97.933111
2532.000000	97.941435
2531.000000	97.942256
2530.000000	97.937487
2529.000000	97.930866
2528.000000	97.926233
2527.000000	97.924962
2526.000000	97.924544
2525.000000	97.921254
2524.000000	97.914776
2523.000000	97.909191
2522.000000	97.909056
2521.000000	97.915431
2520.000000	97.925654
2519.000000	97.935903
2518.000000	97.943792
2517.000000	97.949474
2516.000000	97.954322
2515.000000	97.958286
2514.000000	97.959523
2513.000000	97.957540
2512.000000	97.955378
2511.000000	97.956771
2510.000000	97.961927
2509.000000	97.967636
2508.000000	97.970765
2507.000000	97.970180
2506.000000	97.966635
2505.000000	97.963208
2504.000000	97.964738
2503.000000	97.973757
2502.000000	97.986943
2501.000000	97.997840
2500.000000	98.002872
2499.000000	98.002840
2498.000000	97.999542
2497.000000	97.993985
2496.000000	97.987776
2495.000000	97.983091
2494.000000	97.980409
2493.000000	97.978514
2492.000000	97.977441
2491.000000	97.979598
2490.000000	97.987146
2489.000000	97.999284
2488.000000	98.012225
2487.000000	98.021077
2486.000000	98.022748
2485.000000	98.018825
2484.000000	98.015126
2483.000000	98.016594
2482.000000	98.022867
2481.000000	98.030027
2480.000000	98.035578
2479.000000	98.039926
2478.000000	98.043980
2477.000000	98.047555
2476.000000	98.049762
2475.000000	98.049541
2474.000000	98.046678
2473.000000	98.043360
2472.000000	98.042773
2471.000000	98.044240
2470.000000	98.042126
2469.000000	98.032660
2468.000000	98.020288
2467.000000	98.014119
2466.000000	98.018986
2465.000000	98.032194
2464.000000	98.047148
2463.000000	98.056996
2462.000000	98.056851
2461.000000	98.047213
2460.000000	98.035186
2459.000000	98.028763
2458.000000	98.029681
2457.000000	98.034047
2456.000000	98.038732
2455.000000	98.043698
2454.000000	98.048716
2453.000000	98.051784
2452.000000	98.051533
2451.000000	98.048891
2450.000000	98.046137
2449.000000	98.045724
2448.000000	98.048937
2447.000000	98.053849
2446.000000	98.056330
2445.000000	98.055357
2444.000000	98.055355
2443.000000	98.060652
2442.000000	98.069604
2441.000000	98.076949
2440.000000	98.079609
2439.000000	98.077274
2438.000000	98.070585
2437.000000	98.063004
2436.000000	98.061323
2435.000000	98.068844
2434.000000	98.079978
2433.000000	98.086622
2432.000000	98.088074
2431.000000	98.089494
2430.000000	98.092483
2429.000000	98.093477
2428.000000	98.090820
2427.000000	98.087485
2426.000000	98.086366
2425.000000	98.087662
2424.000000	98.091035
2423.000000	98.095965
2422.000000	98.100192
2421.000000	98.101918
2420.000000	98.103028
2419.000000	98.106002
2418.000000	98.108818
2417.000000	98.107849
2416.000000	98.105051
2415.000000	98.106867
2414.000000	98.115683
2413.000000	98.126750
2412.000000	98.133752
2411.000000	98.133682
2410.000000	98.126874
2409.000000	98.116831
2408.000000	98.109704
2407.000000	98.109471
2406.000000	98.113601
2405.000000	98.117028
2404.000000	98.119289
2403.000000	98.123663
2402.000000	98.130791
2401.000000	98.138157
2400.000000	98.144789
2399.000000	98.151245
2398.000000	98.155796
2397.000000	98.156014
2396.000000	98.153752
2395.000000	98.153124
2394.000000	98.153601
2393.000000	98.150803
2392.000000	98.144307
2391.000000	98.139281
2390.000000	98.139002
2389.000000	98.140478
2388.000000	98.139222
2387.000000	98.133656
2386.000000	98.124908
2385.000000	98.115791
2384.000000	98.111342
2383.000000	98.117258
2382.000000	98.134739
2381.000000	98.160167
2380.000000	98.188311
2379.000000	98.213086
2378.000000	98.226879
2377.000000	98.223064
2376.000000	98.200766
2375.000000	98.165125
2374.000000	98.126001
2373.000000	98.097526
2372.000000	98.092212
2371.000000	98.107240
2370.000000	98.122844
2369.000000	98.123530
2368.000000	98.113341
2367.000000	98.104953
2366.000000	98.100814
2365.000000	98.094539
2364.000000	98.084238
2363.000000	98.071596
2362.000000	98.055893
2361.000000	98.036940
2360.000000	98.017743
2359.000000	98.002870
2358.000000	97.997078
2357.000000	98.006171
2356.000000	98.026488
2355.000000	98.043203
2354.000000	98.055417
2353.000000	98.077448
2352.000000	98.105218
2351.000000	98.112190
2350.000000	98.087111
2349.000000	98.046230
2348.000000	98.014812
2347.000000	98.009690
2346.000000	98.021218
2345.000000	98.017832
2344.000000	97.988248
2343.000000	97.956961
2342.000000	97.949952
2341.000000	97.966463
2340.000000	97.983477
2339.000000	97.983295
2338.000000	97.972328
2337.000000	97.968221
2336.000000	97.978675
2335.000000	97.999760
2334.000000	98.028319
2333.000000	98.062634
2332.000000	98.091414
2331.000000	98.098565
2330.000000	98.078176
2329.000000	98.038956
2328.000000	97.993211
2327.000000	97.950433
2326.000000	97.918982
2325.000000	97.905902
2324.000000	97.914303
2323.000000	97.940609
2322.000000	97.973507
2321.000000	97.996763
2320.000000	97.999554
2319.000000	97.984060
2318.000000	97.961618
2317.000000	97.944375
2316.000000	97.940939
2315.000000	97.954619
2314.000000	97.978958
2313.000000	98.000211
2312.000000	98.009102
2311.000000	98.010097
2310.000000	98.014296
2309.000000	98.025630
2308.000000	98.038376
2307.000000	98.045581
2306.000000	98.045734
2305.000000	98.042620
2304.000000	98.042212
2303.000000	98.047831
2302.000000	98.056283
2301.000000	98.060604
2300.000000	98.058827
2299.000000	98.056508
2298.000000	98.058269
2297.000000	98.062144
2296.000000	98.064031
2295.000000	98.064253
2294.000000	98.064969
2293.000000	98.064531
2292.000000	98.058800
2291.000000	98.046963
2290.000000	98.033800
2289.000000	98.026688
2288.000000	98.030908
2287.000000	98.044494
2286.000000	98.057734
2285.000000	98.061805
2284.000000	98.059380
2283.000000	98.061452
2282.000000	98.073565
2281.000000	98.091349
2280.000000	98.110430
2279.000000	98.131824
2278.000000	98.154511
2277.000000	98.171992
2276.000000	98.181155
2275.000000	98.187431
2274.000000	98.196469
2273.000000	98.207010
2272.000000	98.215218
2271.000000	98.218890
2270.000000	98.214777
2269.000000	98.200779
2268.000000	98.184313
2267.000000	98.178523
2266.000000	98.185012
2265.000000	98.190400
2264.000000	98.186255
2263.000000	98.182367
2262.000000	98.192350
2261.000000	98.214718
2260.000000	98.236058
2259.000000	98.246197
2258.000000	98.243853
2257.000000	98.234942
2256.000000	98.231861
2255.000000	98.245614
2254.000000	98.270845
2253.000000	98.286714
2252.000000	98.281108
2251.000000	98.267035
2250.000000	98.266517
2249.000000	98.284978
2248.000000	98.308386
2247.000000	98.321041
2246.000000	98.319101
2245.000000	98.309800
2244.000000	98.303825
2243.000000	98.306074
2242.000000	98.311307
2241.000000	98.311429
2240.000000	98.306558
2239.000000	98.303472
2238.000000	98.305022
2237.000000	98.309491
2236.000000	98.318044
2235.000000	98.331442
2234.000000	98.340842
2233.000000	98.335593
2232.000000	98.320195
2231.000000	98.308537
2230.000000	98.300753
2229.000000	98.283923
2228.000000	98.259667
2227.000000	98.252023
2226.000000	98.279062
2225.000000	98.330347
2224.000000	98.379196
2223.000000	98.404168
2222.000000	98.394659
2221.000000	98.354470
2220.000000	98.309431
2219.000000	98.293481
2218.000000	98.314677
2217.000000	98.345458
2216.000000	98.353803
2215.000000	98.332598
2214.000000	98.293452
2213.000000	98.249850
2212.000000	98.217076
2211.000000	98.212206
2210.000000	98.239422
2209.000000	98.282420
2208.000000	98.319020
2207.000000	98.336283
2206.000000	98.329745
2205.000000	98.303494
2204.000000	98.276768
2203.000000	98.273554
2202.000000	98.295835
2201.000000	98.318482
2200.000000	98.317842
2199.000000	98.294815
2198.000000	98.265924
2197.000000	98.246184
2196.000000	98.244272
2195.000000	98.258780
2194.000000	98.274578
2193.000000	98.276967
2192.000000	98.272679
2191.000000	98.281133
2190.000000	98.304582
2189.000000	98.326906
2188.000000	98.343043
2187.000000	98.366599
2186.000000	98.403272
2185.000000	98.439849
2184.000000	98.465920
2183.000000	98.483827
2182.000000	98.491321
2181.000000	98.480990
2180.000000	98.464052
2179.000000	98.466556
2178.000000	98.493546
2177.000000	98.521119
2176.000000	98.528708
2175.000000	98.516385
2174.000000	98.490224
2173.000000	98.459584
2172.000000	98.448713
2171.000000	98.474999
2170.000000	98.512356
2169.000000	98.511534
2168.000000	98.467636
2167.000000	98.431769
2166.000000	98.441070
2165.000000	98.472173
2164.000000	98.481217
2163.000000	98.458978
2162.000000	98.426558
2161.000000	98.412744
2160.000000	98.456187
2159.000000	98.584651
2158.000000	98.759987
2157.000000	98.892966
2156.000000	98.939764
2155.000000	98.929956
2154.000000	98.899139
2153.000000	98.853016
2152.000000	98.794723
2151.000000	98.738231
2150.000000	98.687261
2149.000000	98.635133
2148.000000	98.592192
2147.000000	98.581300
2146.000000	98.599818
2145.000000	98.616208
2144.000000	98.612183
2143.000000	98.599933
2142.000000	98.591585
2141.000000	98.581286
2140.000000	98.565288
2139.000000	98.553183
2138.000000	98.549645
2137.000000	98.547167
2136.000000	98.544401
2135.000000	98.551369
2134.000000	98.569802
2133.000000	98.587559
2132.000000	98.596695
2131.000000	98.598668
2130.000000	98.590202
2129.000000	98.563164
2128.000000	98.520300
2127.000000	98.474087
2126.000000	98.429614
2125.000000	98.385311
2124.000000	98.349857
2123.000000	98.338236
2122.000000	98.348029
2121.000000	98.357644
2120.000000	98.353410
2119.000000	98.342033
2118.000000	98.331341
2117.000000	98.316615
2116.000000	98.293996
2115.000000	98.272996
2114.000000	98.266458
2113.000000	98.277992
2112.000000	98.304243
2111.000000	98.338507
2110.000000	98.367996
2109.000000	98.379777
2108.000000	98.374698
2107.000000	98.364831
2106.000000	98.355375
2105.000000	98.342369
2104.000000	98.328089
2103.000000	98.321099
2102.000000	98.318395
2101.000000	98.305752
2100.000000	98.281137
2099.000000	98.261979
2098.000000	98.264164
2097.000000	98.288021
2096.000000	98.326956
2095.000000	98.371845
2094.000000	98.404298
2093.000000	98.406401
2092.000000	98.383791
2091.000000	98.361813
2090.000000	98.355389
2089.000000	98.358870
2088.000000	98.365955
2087.000000	98.378387
2086.000000	98.390204
2085.000000	98.386433
2084.000000	98.366474
2083.000000	98.348909
2082.000000	98.343574
2081.000000	98.338457
2080.000000	98.323751
2079.000000	98.309311
2078.000000	98.306833
2077.000000	98.313473
2076.000000	98.325690
2075.000000	98.350147
2074.000000	98.386900
2073.000000	98.417634
2072.000000	98.425685
2071.000000	98.415074
2070.000000	98.398620
2069.000000	98.382565
2068.000000	98.372611
2067.000000	98.378515
2066.000000	98.401251
2065.000000	98.428602
2064.000000	98.451912
2063.000000	98.472302
2062.000000	98.485309
2061.000000	98.481055
2060.000000	98.466010
2059.000000	98.461346
2058.000000	98.471680
2057.000000	98.478535
2056.000000	98.472086
2055.000000	98.464479
2054.000000	98.462239
2053.000000	98.452402
2052.000000	98.430307
2051.000000	98.415789
2050.000000	98.425421
2049.000000	98.448772
2048.000000	98.470569
2047.000000	98.497501
2046.000000	98.540466
2045.000000	98.591316
2044.000000	98.637871
2043.000000	98.678325
2042.000000	98.704649
2041.000000	98.700358
2040.000000	98.672152
2039.000000	98.651469
2038.000000	98.649552
2037.000000	98.645015
2036.000000	98.629445
2035.000000	98.628639
2034.000000	98.657532
2033.000000	98.690738
2032.000000	98.703019
2031.000000	98.705080
2030.000000	98.719106
2029.000000	98.752151
2028.000000	98.805014
2027.000000	98.870096
2026.000000	98.913519
2025.000000	98.900699
2024.000000	98.847588
2023.000000	98.803238
2022.000000	98.779072
2021.000000	98.745678
2020.000000	98.698329
2019.000000	98.669408
2018.000000	98.670702
2017.000000	98.679032
2016.000000	98.689845
2015.000000	98.724604
2014.000000	98.773294
2013.000000	98.792051
2012.000000	98.770567
2011.000000	98.746625
2010.000000	98.741415
2009.000000	98.736156
2008.000000	98.726163
2007.000000	98.735768
2006.000000	98.760732
2005.000000	98.760413
2004.000000	98.728398
2003.000000	98.710081
2002.000000	98.731426
2001.000000	98.765526
2000.000000	98.783349
1999.000000	98.788811
1998.000000	98.786676
1997.000000	98.760321
1996.000000	98.705673
1995.000000	98.649725
1994.000000	98.616862
1993.000000	98.605450
1992.000000	98.608648
1991.000000	98.627466
1990.000000	98.649641
1989.000000	98.651145
1988.000000	98.633424
1987.000000	98.624698
1986.000000	98.635758
1985.000000	98.650679
1984.000000	98.666147
1983.000000	98.696767
1982.000000	98.730377
1981.000000	98.727394
1980.000000	98.683858
1979.000000	98.650928
1978.000000	98.667400
1977.000000	98.712084
1976.000000	98.751877
1975.000000	98.787729
1974.000000	98.821882
1973.000000	98.836165
1972.000000	98.830059
1971.000000	98.828122
1970.000000	98.832009
1969.000000	98.812229
1968.000000	98.763249
1967.000000	98.722543
1966.000000	98.716186
1965.000000	98.731477
1964.000000	98.756468
1963.000000	98.796445
1962.000000	98.842405
1961.000000	98.868774
1960.000000	98.873231
1959.000000	98.877197
1958.000000	98.879800
1957.000000	98.857223
1956.000000	98.811740
1955.000000	98.774275
1954.000000	98.753890
1953.000000	98.727664
1952.000000	98.690091
1951.000000	98.670932
1950.000000	98.688995
1949.000000	98.725210
1948.000000	98.753807
1947.000000	98.768536
1946.000000	98.769248
1945.000000	98.754255
1944.000000	98.735974
1943.000000	98.733887
1942.000000	98.741157
1941.000000	98.735295
1940.000000	98.723406
1939.000000	98.732720
1938.000000	98.763391
1937.000000	98.784600
1936.000000	98.778557
1935.000000	98.760979
1934.000000	98.750272
1933.000000	98.745538
1932.000000	98.745041
1931.000000	98.755290
1930.000000	98.769134
1929.000000	98.767962
1928.000000	98.750271
1927.000000	98.733723
1926.000000	98.724800
1925.000000	98.712528
1924.000000	98.698779
1923.000000	98.699389
1922.000000	98.709433
1921.000000	98.706226
1920.000000	98.687881
1919.000000	98.677679
1918.000000	98.683803
1917.000000	98.682476
1916.000000	98.663501
1915.000000	98.648476
1914.000000	98.652013
1913.000000	98.664262
1912.000000	98.674605
1911.000000	98.687880
1910.000000	98.705864
1909.000000	98.718512
1908.000000	98.723609
1907.000000	98.731245
1906.000000	98.738219
1905.000000	98.725785
1904.000000	98.695197
1903.000000	98.672283
1902.000000	98.669033
1901.000000	98.669363
1900.000000	98.659646
1899.000000	98.649869
1898.000000	98.652588
1897.000000	98.662209
1896.000000	98.670547
1895.000000	98.680794
1894.000000	98.693921
1893.000000	98.702383
1892.000000	98.705061
1891.000000	98.711271
1890.000000	98.722418
1889.000000	98.724148
1888.000000	98.713120
1887.000000	98.705809
1886.000000	98.710070
1885.000000	98.717325
1884.000000	98.723111
1883.000000	98.732199
1882.000000	98.740581
1881.000000	98.736207
1880.000000	98.721595
1879.000000	98.714983
1878.000000	98.723956
1877.000000	98.734291
1876.000000	98.734473
1875.000000	98.733546
1874.000000	98.743612
1873.000000	98.762776
1872.000000	98.782197
1871.000000	98.794199
1870.000000	98.790946
1869.000000	98.769467
1868.000000	98.745512
1867.000000	98.740089
1866.000000	98.745580
1865.000000	98.738368
1864.000000	98.718206
1863.000000	98.707275
1862.000000	98.715513
1861.000000	98.728136
1860.000000	98.732544
1859.000000	98.733743
1858.000000	98.735158
1857.000000	98.730118
1856.000000	98.720389
1855.000000	98.720392
1854.000000	98.733089
1853.000000	98.744831
1852.000000	98.746705
1851.000000	98.744680
1850.000000	98.750020
1849.000000	98.768815
1848.000000	98.804266
1847.000000	98.850708
1846.000000	98.884000
1845.000000	98.874393
1844.000000	98.824519
1843.000000	98.775236
1842.000000	98.753708
1841.000000	98.750284
1840.000000	98.750294
1839.000000	98.754710
1838.000000	98.764318
1837.000000	98.769246
1836.000000	98.767971
1835.000000	98.773819
1834.000000	98.792642
1833.000000	98.814274
1832.000000	98.826797
1831.000000	98.834374
1830.000000	98.847002
1829.000000	98.853256
1828.000000	98.844384
1827.000000	98.831223
1826.000000	98.820676
1825.000000	98.808210
1824.000000	98.791373
1823.000000	98.779694
1822.000000	98.776948
1821.000000	98.773739
1820.000000	98.766331
1819.000000	98.765249
1818.000000	98.775892
1817.000000	98.785518
1816.000000	98.785736
1815.000000	98.783660
1814.000000	98.785096
1813.000000	98.784050
1812.000000	98.776566
1811.000000	98.772667
1810.000000	98.774760
1809.000000	98.769458
1808.000000	98.755133
1807.000000	98.746856
1806.000000	98.749778
1805.000000	98.751328
1804.000000	98.746387
1803.000000	98.746279
1802.000000	98.759010
1801.000000	98.771859
1800.000000	98.770592
1799.000000	98.764661
1798.000000	98.767160
1797.000000	98.778903
1796.000000	98.799758
1795.000000	98.828950
1794.000000	98.855192
1793.000000	98.859767
1792.000000	98.838031
1791.000000	98.809282
1790.000000	98.789521
1789.000000	98.775575
1788.000000	98.764078
1787.000000	98.762264
1786.000000	98.773294
1785.000000	98.786344
1784.000000	98.793260
1783.000000	98.794961
1782.000000	98.791713
1781.000000	98.781746
1780.000000	98.768432
1779.000000	98.764814
1778.000000	98.777049
1777.000000	98.801059
1776.000000	98.831746
1775.000000	98.861625
1774.000000	98.879019
1773.000000	98.877295
1772.000000	98.863061
1771.000000	98.850339
1770.000000	98.842055
1769.000000	98.825504
1768.000000	98.802402
1767.000000	98.794624
1766.000000	98.811133
1765.000000	98.834070
1764.000000	98.842133
1763.000000	98.834192
1762.000000	98.823784
1761.000000	98.815997
1760.000000	98.811405
1759.000000	98.812806
1758.000000	98.810402
1757.000000	98.794804
1756.000000	98.770381
1755.000000	98.752256
1754.000000	98.742926
1753.000000	98.729984
1752.000000	98.712751
1751.000000	98.706929
1750.000000	98.711691
1749.000000	98.700498
1748.000000	98.664258
1747.000000	98.621481
1746.000000	98.589374
1745.000000	98.565654
1744.000000	98.547038
1743.000000	98.543556
1742.000000	98.552578
1741.000000	98.544914
1740.000000	98.510075
1739.000000	98.487318
1738.000000	98.506913
1737.000000	98.545490
1736.000000	98.560893
1735.000000	98.552803
1734.000000	98.553245
1733.000000	98.555253
1732.000000	98.552414
1731.000000	98.555171
1730.000000	98.553090
1729.000000	98.540108
1728.000000	98.521652
1727.000000	98.509620
1726.000000	98.507296
1725.000000	98.504468
1724.000000	98.495254
1723.000000	98.497068
1722.000000	98.521144
1721.000000	98.544819
1720.000000	98.529277
1719.000000	98.471854
1718.000000	98.420865
1717.000000	98.384443
1716.000000	98.335293
1715.000000	98.283545
1714.000000	98.229237
1713.000000	98.157815
1712.000000	98.077656
1711.000000	98.010122
1710.000000	97.964647
1709.000000	97.931051
1708.000000	97.888053
1707.000000	97.819334
1706.000000	97.726395
1705.000000	97.626361
1704.000000	97.553687
1703.000000	97.517682
1702.000000	97.468260
1701.000000	97.309753
1700.000000	97.048777
1699.000000	96.828721
1698.000000	96.682156
1697.000000	96.503444
1696.000000	96.252088
1695.000000	96.018052
1694.000000	95.875136
1693.000000	95.776806
1692.000000	95.656822
1691.000000	95.514106
1690.000000	95.377584
1689.000000	95.259317
1688.000000	95.151035
1687.000000	95.041791
1686.000000	94.903642
1685.000000	94.677812
1684.000000	94.379629
1683.000000	94.117286
1682.000000	93.920070
1681.000000	93.719830
1680.000000	93.490959
1679.000000	93.276720
1678.000000	93.090853
1677.000000	92.878778
1676.000000	92.573720
1675.000000	92.207915
1674.000000	91.887986
1673.000000	91.643172
1672.000000	91.408544
1671.000000	91.124242
1670.000000	90.768140
1669.000000	90.364018
1668.000000	89.980561
1667.000000	89.676356
1666.000000	89.441508
1665.000000	89.210829
1664.000000	88.924354
1663.000000	88.587291
1662.000000	88.257979
1661.000000	87.970299
1660.000000	87.714415
1659.000000	87.491239
1658.000000	87.317262
1657.000000	87.191317
1656.000000	87.076588
1655.000000	86.923976
1654.000000	86.705610
1653.000000	86.445982
1652.000000	86.236433
1651.000000	86.163119
1650.000000	86.172936
1649.000000	86.152889
1648.000000	86.070796
1647.000000	85.960685
1646.000000	85.864559
1645.000000	85.777863
1644.000000	85.703481
1643.000000	85.643678
1642.000000	85.593394
1641.000000	85.545254
1640.000000	85.498514
1639.000000	85.460538
1638.000000	85.425058
1637.000000	85.360855
1636.000000	85.239792
1635.000000	85.085930
1634.000000	84.959865
1633.000000	84.873038
1632.000000	84.802927
1631.000000	84.748067
1630.000000	84.718118
1629.000000	84.716882
1628.000000	84.745323
1627.000000	84.807821
1626.000000	84.905640
1625.000000	85.034493
1624.000000	85.198431
1623.000000	85.405771
1622.000000	85.633930
1621.000000	85.851534
1620.000000	86.051674
1619.000000	86.248915
1618.000000	86.484280
1617.000000	86.801536
1616.000000	87.164054
1615.000000	87.488100
1614.000000	87.757888
1613.000000	88.004881
1612.000000	88.261744
1611.000000	88.542839
1610.000000	88.836826
1609.000000	89.129678
1608.000000	89.417394
1607.000000	89.692666
1606.000000	89.944364
1605.000000	90.177584
1604.000000	90.406061
1603.000000	90.631951
1602.000000	90.845418
1601.000000	91.043084
1600.000000	91.230247
1599.000000	91.405391
1598.000000	91.562207
1597.000000	91.703308
1596.000000	91.837875
1595.000000	91.963825
1594.000000	92.069125
1593.000000	92.153490
1592.000000	92.227688
1591.000000	92.292279
1590.000000	92.337332
1589.000000	92.363255
1588.000000	92.378670
1587.000000	92.380916
1586.000000	92.358228
1585.000000	92.313665
1584.000000	92.258540
1583.000000	92.185038
1582.000000	92.081940
1581.000000	91.965961
1580.000000	91.862455
1579.000000	91.761757
1578.000000	91.628505
1577.000000	91.448762
1576.000000	91.259756
1575.000000	91.107790
1574.000000	91.001142
1573.000000	90.915012
1572.000000	90.813326
1571.000000	90.662202
1570.000000	90.441453
1569.000000	90.186709
1568.000000	89.956499
1567.000000	89.756212
1566.000000	89.547721
1565.000000	89.320578
1564.000000	89.107832
1563.000000	88.942572
1562.000000	88.817395
1561.000000	88.683230
1560.000000	88.439992
1559.000000	88.075819
1558.000000	87.720125
1557.000000	87.472775
1556.000000	87.291701
1555.000000	87.092628
1554.000000	86.886881
1553.000000	86.700371
1552.000000	86.548008
1551.000000	86.412034
1550.000000	86.290976
1549.000000	86.189989
1548.000000	86.112165
1547.000000	86.049916
1546.000000	85.996601
1545.000000	85.958829
1544.000000	85.942205
1543.000000	85.938605
1542.000000	85.931908
1541.000000	85.922750
1540.000000	85.946738
1539.000000	86.011072
1538.000000	86.108262
1537.000000	86.234661
1536.000000	86.368316
1535.000000	86.514533
1534.000000	86.710892
1533.000000	86.947651
1532.000000	87.149603
1531.000000	87.307451
1530.000000	87.460312
1529.000000	87.622875
1528.000000	87.798092
1527.000000	87.996011
1526.000000	88.216194
1525.000000	88.424456
1524.000000	88.591015
1523.000000	88.736410
1522.000000	88.922064
1521.000000	89.140900
1520.000000	89.318896
1519.000000	89.455489
1518.000000	89.596659
1517.000000	89.763314
1516.000000	89.934964
1515.000000	90.085112
1514.000000	90.227607
1513.000000	90.379485
1512.000000	90.549202
1511.000000	90.738156
1510.000000	90.937880
1509.000000	91.135174
1508.000000	91.355432
1507.000000	91.651609
1506.000000	91.916557
1505.000000	92.056655
1504.000000	92.155547
1503.000000	92.269096
1502.000000	92.412082
1501.000000	92.576642
1500.000000	92.741801
1499.000000	92.893472
1498.000000	93.045094
1497.000000	93.203006
1496.000000	93.351105
1495.000000	93.491982
1494.000000	93.635831
1493.000000	93.769765
1492.000000	93.882581
1491.000000	93.998842
1490.000000	94.142694
1489.000000	94.266293
1488.000000	94.323983
1487.000000	94.348409
1486.000000	94.366723
1485.000000	94.372000
1484.000000	94.358957
1483.000000	94.336027
1482.000000	94.312222
1481.000000	94.277216
1480.000000	94.222896
1479.000000	94.159274
1478.000000	94.093855
1477.000000	94.016869
1476.000000	93.925318
1475.000000	93.829280
1474.000000	93.718429
1473.000000	93.550138
1472.000000	93.319119
1471.000000	93.098334
1470.000000	92.931503
1469.000000	92.792870
1468.000000	92.657924
1467.000000	92.524380
1466.000000	92.387585
1465.000000	92.236664
1464.000000	92.079159
1463.000000	91.950329
1462.000000	91.866697
1461.000000	91.806704
1460.000000	91.740255
1459.000000	91.648229
1458.000000	91.524103
1457.000000	91.350832
1456.000000	91.156080
1455.000000	91.022643
1454.000000	90.959582
1453.000000	90.920848
1452.000000	90.897053
1451.000000	90.899757
1450.000000	90.931384
1449.000000	90.976348
1448.000000	91.030629
1447.000000	91.098266
1446.000000	91.174515
1445.000000	91.252800
1444.000000	91.331366
1443.000000	91.416847
1442.000000	91.514937
1441.000000	91.624330
1440.000000	91.739630
1439.000000	91.859872
1438.000000	91.992868
1437.000000	92.144639
1436.000000	92.293713
1435.000000	92.416078
1434.000000	92.523049
1433.000000	92.624017
1432.000000	92.715007
1431.000000	92.794253
1430.000000	92.864795
1429.000000	92.922817
1428.000000	92.961082
1427.000000	92.981576
1426.000000	92.990917
1425.000000	93.000700
1424.000000	93.020583
1423.000000	93.052148
1422.000000	93.089799
1421.000000	93.121169
1420.000000	93.137135
1419.000000	93.149963
1418.000000	93.173450
1417.000000	93.199186
1416.000000	93.215396
1415.000000	93.220018
1414.000000	93.218066
1413.000000	93.208803
1412.000000	93.184963
1411.000000	93.145386
1410.000000	93.099053
1409.000000	93.049954
1408.000000	92.996167
1407.000000	92.940265
1406.000000	92.887604
1405.000000	92.841887
1404.000000	92.805535
1403.000000	92.786868
1402.000000	92.788283
1401.000000	92.796210
1400.000000	92.801065
1399.000000	92.811173
1398.000000	92.834789
1397.000000	92.862135
1396.000000	92.879444
1395.000000	92.883631
1394.000000	92.880388
1393.000000	92.875872
1392.000000	92.873506
1391.000000	92.876490
1390.000000	92.883584
1389.000000	92.886921
1388.000000	92.881594
1387.000000	92.872366
1386.000000	92.863428
1385.000000	92.852386
1384.000000	92.838077
1383.000000	92.828544
1382.000000	92.831160
1381.000000	92.839360
1380.000000	92.845896
1379.000000	92.856979
1378.000000	92.881642
1377.000000	92.918013
1376.000000	92.963247
1375.000000	93.025333
1374.000000	93.107586
1373.000000	93.193354
1372.000000	93.270585
1371.000000	93.347248
1370.000000	93.433173
1369.000000	93.531212
1368.000000	93.637699
1367.000000	93.748597
1366.000000	93.859977
1365.000000	93.966761
1364.000000	94.071562
1363.000000	94.182125
1362.000000	94.288721
1361.000000	94.370273
1360.000000	94.424790
1359.000000	94.465638
1358.000000	94.498414
1357.000000	94.516667
1356.000000	94.515388
1355.000000	94.498796
1354.000000	94.469763
1353.000000	94.421171
1352.000000	94.349967
1351.000000	94.265842
1350.000000	94.177813
1349.000000	94.086586
1348.000000	93.989887
1347.000000	93.890651
1346.000000	93.791073
1345.000000	93.688443
1344.000000	93.582836
1343.000000	93.481394
1342.000000	93.388813
1341.000000	93.303436
1340.000000	93.226326
1339.000000	93.164793
1338.000000	93.123978
1337.000000	93.102016
1336.000000	93.099310
1335.000000	93.123254
1334.000000	93.176172
1333.000000	93.249115
1332.000000	93.333443
1331.000000	93.428186
1330.000000	93.530858
1329.000000	93.631630
1328.000000	93.723418
1327.000000	93.806627
1326.000000	93.879220
1325.000000	93.933837
1324.000000	93.967865
1323.000000	93.989867
1322.000000	94.008988
1321.000000	94.025490
1320.000000	94.037414
1319.000000	94.049172
1318.000000	94.065528
1317.000000	94.084875
1316.000000	94.106924
1315.000000	94.138467
1314.000000	94.183826
1313.000000	94.236683
1312.000000	94.289651
1311.000000	94.344108
1310.000000	94.402482
1309.000000	94.458622
1308.000000	94.505218
1307.000000	94.542977
1306.000000	94.574733
1305.000000	94.598806
1304.000000	94.614466
1303.000000	94.628244
1302.000000	94.645281
1301.000000	94.661039
1300.000000	94.669134
1299.000000	94.671461
1298.000000	94.671478
1297.000000	94.664433
1296.000000	94.643508
1295.000000	94.609134
1294.000000	94.564625
1293.000000	94.507893
1292.000000	94.436211
1291.000000	94.353692
1290.000000	94.265591
1289.000000	94.171906
1288.000000	94.074118
1287.000000	93.980677
1286.000000	93.897758
1285.000000	93.822438
1284.000000	93.752956
1283.000000	93.696684
1282.000000	93.659145
1281.000000	93.634455
1280.000000	93.616684
1279.000000	93.610401
1278.000000	93.620536
1277.000000	93.640695
1276.000000	93.661068
1275.000000	93.680084
1274.000000	93.699485
1273.000000	93.715938
1272.000000	93.725892
1271.000000	93.731166
1270.000000	93.732113
1269.000000	93.723619
1268.000000	93.704500
1267.000000	93.681216
1266.000000	93.655698
1265.000000	93.619285
1264.000000	93.567475
1263.000000	93.510167
1262.000000	93.456842
1261.000000	93.402519
1260.000000	93.338518
1259.000000	93.266297
1258.000000	93.190211
1257.000000	93.106361
1256.000000	93.010761
1255.000000	92.908181
1254.000000	92.802919
1253.000000	92.690660
1252.000000	92.568620
1251.000000	92.443668
1250.000000	92.320535
1249.000000	92.192620
1248.000000	92.054521
1247.000000	91.912967
1246.000000	91.775750
1245.000000	91.640151
1244.000000	91.502292
1243.000000	91.366922
1242.000000	91.238135
1241.000000	91.112412
1240.000000	90.991536
1239.000000	90.890043
1238.000000	90.817757
1237.000000	90.767796
1236.000000	90.732043
1235.000000	90.716310
1234.000000	90.730377
1233.000000	90.774031
1232.000000	90.845022
1231.000000	90.947127
1230.000000	91.080033
1229.000000	91.234405
1228.000000	91.404928
1227.000000	91.597454
1226.000000	91.813332
1225.000000	92.039050
1224.000000	92.261296
1223.000000	92.479783
1222.000000	92.696931
1221.000000	92.906377
1220.000000	93.100127
1219.000000	93.275385
1218.000000	93.427122
1217.000000	93.544321
1216.000000	93.622666
1215.000000	93.671746
1214.000000	93.700014
1213.000000	93.704381
1212.000000	93.681373
1211.000000	93.637321
1210.000000	93.578740
1209.000000	93.502842
1208.000000	93.409932
1207.000000	93.314117
1206.000000	93.230922
1205.000000	93.164312
1204.000000	93.116029
1203.000000	93.095669
1202.000000	93.110563
1201.000000	93.157157
1200.000000	93.231076
1199.000000	93.335121
1198.000000	93.466582
1197.000000	93.609503
1196.000000	93.751164
1195.000000	93.894167
1194.000000	94.043363
1193.000000	94.191905
1192.000000	94.330489
1191.000000	94.459771
1190.000000	94.583425
1189.000000	94.698399
1188.000000	94.801608
1187.000000	94.896879
1186.000000	94.985812
1185.000000	95.062124
1184.000000	95.123304
1183.000000	95.177969
1182.000000	95.232943
1181.000000	95.282748
1180.000000	95.321815
1179.000000	95.355697
1178.000000	95.390256
1177.000000	95.421597
1176.000000	95.446704
1175.000000	95.472498
1174.000000	95.503617
1173.000000	95.532444
1172.000000	95.551558
1171.000000	95.564858
1170.000000	95.576872
1169.000000	95.582761
1168.000000	95.579390
1167.000000	95.574385
1166.000000	95.572838
1165.000000	95.567338
1164.000000	95.553140
1163.000000	95.541312
1162.000000	95.543986
1161.000000	95.558280
1160.000000	95.577283
1159.000000	95.605164
1158.000000	95.648273
1157.000000	95.701617
1156.000000	95.757511
1155.000000	95.817568
1154.000000	95.884710
1153.000000	95.954069
1152.000000	96.022348
1151.000000	96.094975
1150.000000	96.172470
1149.000000	96.241666
1148.000000	96.292315
1147.000000	96.331064
1146.000000	96.367515
1145.000000	96.398963
1144.000000	96.420975
1143.000000	96.439659
1142.000000	96.460725
1141.000000	96.477989
1140.000000	96.486093
1139.000000	96.493139
1138.000000	96.507419
1137.000000	96.523010
1136.000000	96.530891
1135.000000	96.532900
1134.000000	96.532494
1133.000000	96.523703
1132.000000	96.502764
1131.000000	96.478971
1130.000000	96.460626
1129.000000	96.441857
1128.000000	96.415832
1127.000000	96.388888
1126.000000	96.368021
1125.000000	96.347049
1124.000000	96.319480
1123.000000	96.292795
1122.000000	96.275337
1121.000000	96.259959
1120.000000	96.234639
1119.000000	96.198996
1118.000000	96.158145
1117.000000	96.111880
1116.000000	96.061979
1115.000000	96.017446
1114.000000	95.980356
1113.000000	95.939212
1112.000000	95.887939
1111.000000	95.836945
1110.000000	95.794281
1109.000000	95.752148
1108.000000	95.704194
1107.000000	95.659296
1106.000000	95.623482
1105.000000	95.586262
1104.000000	95.540405
1103.000000	95.497168
1102.000000	95.465494
1101.000000	95.432925
1100.000000	95.385668
1099.000000	95.332479
1098.000000	95.287997
1097.000000	95.249791
1096.000000	95.208132
1095.000000	95.163538
1094.000000	95.116688
1093.000000	95.055975
1092.000000	94.973515
1091.000000	94.880151
1090.000000	94.787132
1089.000000	94.686829
1088.000000	94.567961
1087.000000	94.435641
1086.000000	94.300759
1085.000000	94.164816
1084.000000	94.032134
1083.000000	93.921621
1082.000000	93.849007
1081.000000	93.810250
1080.000000	93.798296
1079.000000	93.819288
1078.000000	93.876046
1077.000000	93.953594
1076.000000	94.035882
1075.000000	94.122243
1074.000000	94.212894
1073.000000	94.295697
1072.000000	94.362097
1071.000000	94.418753
1070.000000	94.469252
1069.000000	94.501639
1068.000000	94.509334
1067.000000	94.506900
1066.000000	94.510598
1065.000000	94.518723
1064.000000	94.524999
1063.000000	94.533802
1062.000000	94.547795
1061.000000	94.558429
1060.000000	94.563207
1059.000000	94.575653
1058.000000	94.605084
1057.000000	94.644191
1056.000000	94.687301
1055.000000	94.740397
1054.000000	94.800520
1053.000000	94.848051
1052.000000	94.875487
1051.000000	94.902539
1050.000000	94.945255
1049.000000	94.992585
1048.000000	95.030988
1047.000000	95.068169
1046.000000	95.113520
1045.000000	95.157578
1044.000000	95.189266
1043.000000	95.213612
1042.000000	95.236181
1041.000000	95.248606
1040.000000	95.244261
1039.000000	95.227956
1038.000000	95.197110
1037.000000	95.134760
1036.000000	95.038725
1035.000000	94.936984
1034.000000	94.857407
1033.000000	94.802073
1032.000000	94.766150
1031.000000	94.758310
1030.000000	94.782884
1029.000000	94.824763
1028.000000	94.870710
1027.000000	94.926878
1026.000000	94.997784
1025.000000	95.068824
1024.000000	95.127094
1023.000000	95.178524
1022.000000	95.227688
1021.000000	95.262743
1020.000000	95.278871
1019.000000	95.295240
1018.000000	95.329780
1017.000000	95.376947
1016.000000	95.428530
1015.000000	95.494237
1014.000000	95.583464
1013.000000	95.686674
1012.000000	95.793837
1011.000000	95.911472
1010.000000	96.043310
1009.000000	96.174201
1008.000000	96.290951
1007.000000	96.400926
1006.000000	96.513480
1005.000000	96.621710
1004.000000	96.718499
1003.000000	96.812322
1002.000000	96.910909
1001.000000	97.007388
1000.000000	97.097288
999.000000	97.190302
998.000000	97.290144
997.000000	97.382667
996.000000	97.458973
995.000000	97.530933
994.000000	97.608538
993.000000	97.681969
992.000000	97.742100
991.000000	97.797589
990.000000	97.855906
989.000000	97.907517
988.000000	97.945901
987.000000	97.982319
986.000000	98.023173
985.000000	98.053293
984.000000	98.059710
983.000000	98.051694
982.000000	98.039769
981.000000	98.015220
980.000000	97.969587
979.000000	97.914448
978.000000	97.862129
977.000000	97.807089
976.000000	97.745056
975.000000	97.691092
974.000000	97.658244
973.000000	97.638473
972.000000	97.624006
971.000000	97.627621
970.000000	97.660267
969.000000	97.707882
968.000000	97.752301
967.000000	97.796279
966.000000	97.848449
965.000000	97.901461
964.000000	97.946050
963.000000	97.988641
962.000000	98.034896
961.000000	98.073297
960.000000	98.095500
959.000000	98.115050
958.000000	98.145449
957.000000	98.177116
956.000000	98.196212
955.000000	98.209064
954.000000	98.226953
953.000000	98.243886
952.000000	98.249974
951.000000	98.251114
950.000000	98.254966
949.000000	98.253676
948.000000	98.239828
947.000000	98.224081
946.000000	98.217483
945.000000	98.211878
944.000000	98.196343
943.000000	98.177128
942.000000	98.164197
941.000000	98.154113
940.000000	98.143502
939.000000	98.141611
938.000000	98.153197
937.000000	98.167138
936.000000	98.179218
935.000000	98.206083
934.000000	98.258096
933.000000	98.317661
932.000000	98.363619
931.000000	98.398200
930.000000	98.431310
929.000000	98.458777
928.000000	98.475651
927.000000	98.491927
926.000000	98.514398
925.000000	98.530885
924.000000	98.531586
923.000000	98.528574
922.000000	98.535396
921.000000	98.546379
920.000000	98.554408
919.000000	98.569244
918.000000	98.598674
917.000000	98.631023
916.000000	98.656163
915.000000	98.684127
914.000000	98.723655
913.000000	98.761730
912.000000	98.784863
911.000000	98.800899
910.000000	98.820257
909.000000	98.835229
908.000000	98.838316
907.000000	98.840500
906.000000	98.850517
905.000000	98.856060
904.000000	98.846476
903.000000	98.834213
902.000000	98.832706
901.000000	98.833833
900.000000	98.827251
899.000000	98.821454
898.000000	98.824373
897.000000	98.825333
896.000000	98.817333
895.000000	98.815872
894.000000	98.833407
893.000000	98.856419
892.000000	98.868880
891.000000	98.875972
890.000000	98.883849
889.000000	98.879614
888.000000	98.855166
887.000000	98.827010
886.000000	98.808910
885.000000	98.787449
884.000000	98.749710
883.000000	98.710646
882.000000	98.686768
881.000000	98.666295
880.000000	98.632972
879.000000	98.596916
878.000000	98.573056
877.000000	98.552378
876.000000	98.523537
875.000000	98.501523
874.000000	98.504608
873.000000	98.523801
872.000000	98.542821
871.000000	98.567370
870.000000	98.607283
869.000000	98.650434
868.000000	98.680799
867.000000	98.703193
866.000000	98.727036
865.000000	98.745673
864.000000	98.753847
863.000000	98.763366
862.000000	98.779487
861.000000	98.784750
860.000000	98.769233
859.000000	98.752326
858.000000	98.751526
857.000000	98.753547
856.000000	98.740915
855.000000	98.722775
854.000000	98.713540
853.000000	98.704976
852.000000	98.685148
851.000000	98.663703
850.000000	98.653807
849.000000	98.650974
848.000000	98.651304
847.000000	98.666803
846.000000	98.700102
845.000000	98.729286
844.000000	98.739652
843.000000	98.745256
842.000000	98.758926
841.000000	98.769636
840.000000	98.771125
839.000000	98.781826
838.000000	98.812205
837.000000	98.842003
836.000000	98.854800
835.000000	98.864048
834.000000	98.880471
833.000000	98.886372
832.000000	98.870662
831.000000	98.856443
830.000000	98.862919
829.000000	98.870854
828.000000	98.858618
827.000000	98.842092
826.000000	98.843187
825.000000	98.849502
824.000000	98.841362
823.000000	98.828585
822.000000	98.823767
821.000000	98.812348
820.000000	98.784618
819.000000	98.763563
818.000000	98.766621
817.000000	98.772328
816.000000	98.758170
815.000000	98.741035
814.000000	98.746615
813.000000	98.765835
812.000000	98.775646
811.000000	98.777610
810.000000	98.784664
809.000000	98.794240
808.000000	98.803190
807.000000	98.823184
806.000000	98.853706
805.000000	98.867944
804.000000	98.852767
803.000000	98.833334
802.000000	98.832273
801.000000	98.837339
800.000000	98.836034
799.000000	98.845059
798.000000	98.872928
797.000000	98.890139
796.000000	98.872683
795.000000	98.842917
794.000000	98.832366
793.000000	98.834444
792.000000	98.826782
791.000000	98.810278
790.000000	98.794649
789.000000	98.774929
788.000000	98.752803
787.000000	98.751113
786.000000	98.777032
785.000000	98.800334
784.000000	98.796948
783.000000	98.784218
782.000000	98.785610
781.000000	98.792427
780.000000	98.789193
779.000000	98.784843
778.000000	98.788710
777.000000	98.786882
776.000000	98.772710
775.000000	98.769360
774.000000	98.791509
773.000000	98.815509
772.000000	98.818090
771.000000	98.813450
770.000000	98.821458
769.000000	98.830941
768.000000	98.827173
767.000000	98.824581
766.000000	98.838609
765.000000	98.854192
764.000000	98.854149
763.000000	98.850344
762.000000	98.855246
761.000000	98.852891
760.000000	98.830151
759.000000	98.807305
758.000000	98.804438
757.000000	98.805901
756.000000	98.790043
755.000000	98.766516
754.000000	98.753364
753.000000	98.744982
752.000000	98.733097
751.000000	98.730732
750.000000	98.745463
749.000000	98.757468
748.000000	98.753097
747.000000	98.749386
746.000000	98.757322
745.000000	98.754176
744.000000	98.724499
743.000000	98.695120
742.000000	98.694099
741.000000	98.705085
740.000000	98.696160
739.000000	98.666423
738.000000	98.631999
737.000000	98.595613
736.000000	98.560832
735.000000	98.547064
734.000000	98.557793
733.000000	98.561677
732.000000	98.534860
731.000000	98.494765
730.000000	98.463611
729.000000	98.428802
728.000000	98.373456
727.000000	98.313297
726.000000	98.267548
725.000000	98.225463
724.000000	98.174950
723.000000	98.131009
722.000000	98.104501
721.000000	98.076280
720.000000	98.034955
719.000000	98.004441
718.000000	98.002281
717.000000	98.006729
716.000000	97.994547
715.000000	97.978162
714.000000	97.975881
713.000000	97.977881
712.000000	97.971239
711.000000	97.964695
710.000000	97.957982
709.000000	97.923957
708.000000	97.853329
707.000000	97.782664
706.000000	97.741509
705.000000	97.711989
704.000000	97.674742
703.000000	97.646500
702.000000	97.638621
701.000000	97.623102
700.000000	97.579099
699.000000	97.536598
698.000000	97.529055
697.000000	97.539835
696.000000	97.540709
695.000000	97.541241
694.000000	97.562706
693.000000	97.592756
692.000000	97.603530
691.000000	97.595113
690.000000	97.578763
689.000000	97.549397
688.000000	97.508394
687.000000	97.477380
686.000000	97.462811
685.000000	97.439922
684.000000	97.396184
683.000000	97.357407
682.000000	97.341110
681.000000	97.325524
680.000000	97.291984
679.000000	97.259947
678.000000	97.247774
677.000000	97.229594
676.000000	97.183776
675.000000	97.139200
674.000000	97.121463
673.000000	97.109080
672.000000	97.093410
671.000000	97.129340
670.000000	97.263465
669.000000	97.446298
668.000000	97.499727
667.000000	97.318541
666.000000	97.104295
665.000000	96.952224
664.000000	96.825304
663.000000	96.744622
662.000000	96.732103
661.000000	96.752377
660.000000	96.755294
659.000000	96.746025
658.000000	96.744109
657.000000	96.724419
656.000000	96.675182
655.000000	96.647610
654.000000	96.668535
653.000000	96.677978
652.000000	96.628213
651.000000	96.561983
650.000000	96.532529
649.000000	96.518901
648.000000	96.491302
647.000000	96.477202
646.000000	96.494435
645.000000	96.501496
644.000000	96.474487
643.000000	96.455712
642.000000	96.475120
641.000000	96.493734
640.000000	96.480897
639.000000	96.474844
638.000000	96.502725
637.000000	96.520642
636.000000	96.494764
635.000000	96.462449
634.000000	96.453983
633.000000	96.435125
632.000000	96.385240
631.000000	96.352540
630.000000	96.366238
629.000000	96.373383
628.000000	96.331121
627.000000	96.282739
626.000000	96.273622
625.000000	96.271103
624.000000	96.240304
623.000000	96.217778
622.000000	96.238655
621.000000	96.263604
620.000000	96.250214
619.000000	96.226690
618.000000	96.228382
617.000000	96.229431
616.000000	96.206914
615.000000	96.202334
614.000000	96.242370
613.000000	96.273468
612.000000	96.248025
611.000000	96.206157
610.000000	96.198517
609.000000	96.201770
608.000000	96.181707
607.000000	96.168719
606.000000	96.193717
605.000000	96.223243
604.000000	96.230087
603.000000	96.253136
602.000000	96.317423
601.000000	96.370214
600.000000	96.369008
599.000000	96.354631
598.000000	96.370473
597.000000	96.386620
596.000000	96.375864
595.000000	96.379235
594.000000	96.426428
593.000000	96.468549
592.000000	96.463916
591.000000	96.455287
590.000000	96.483864
589.000000	96.511820
588.000000	96.505508
587.000000	96.508108
586.000000	96.558414
585.000000	96.618855
584.000000	96.654599
583.000000	96.700203
582.000000	96.772738
581.000000	96.809402
580.000000	96.770596
579.000000	96.716704
578.000000	96.704317
577.000000	96.700507
576.000000	96.674148
575.000000	96.670951
574.000000	96.711616
573.000000	96.720824
572.000000	96.648005
571.000000	96.554296
570.000000	96.504203
569.000000	96.462610
568.000000	96.389739
567.000000	96.336193
566.000000	96.340230
565.000000	96.337083
564.000000	96.270405
563.000000	96.188315
562.000000	96.139881
561.000000	96.083166
560.000000	95.991013
559.000000	95.938499
558.000000	95.977812
557.000000	96.036961
556.000000	96.047331
555.000000	96.060334
554.000000	96.128078
553.000000	96.186581
552.000000	96.175235
551.000000	96.155404
550.000000	96.193861
549.000000	96.238848
548.000000	96.236977
547.000000	96.256609
546.000000	96.366900
545.000000	96.498849
544.000000	96.559572
543.000000	96.572809
542.000000	96.587855
541.000000	96.567378
540.000000	96.484684
539.000000	96.417405
538.000000	96.422751
537.000000	96.425691
536.000000	96.346012
535.000000	96.230715
534.000000	96.146594
533.000000	96.060416
532.000000	95.945744
531.000000	95.878740
530.000000	95.900210
529.000000	95.917274
528.000000	95.867442
527.000000	95.846861
526.000000	95.940240
525.000000	96.043267
524.000000	96.040682
523.000000	96.005476
522.000000	96.045203
521.000000	96.121608
520.000000	96.162294
519.000000	96.217698
518.000000	96.348513
517.000000	96.465025
516.000000	96.475059
515.000000	96.459619
514.000000	96.518123
513.000000	96.599434
512.000000	96.630820
511.000000	96.674216
510.000000	96.805905
509.000000	96.959165
508.000000	97.041516
507.000000	97.090241
506.000000	97.163248
505.000000	97.205518
504.000000	97.177026
503.000000	97.175377
502.000000	97.272248
501.000000	97.355955
500.000000	97.329909
499.000000	97.289827
498.000000	97.336463
497.000000	97.399091
496.000000	97.389895
495.000000	97.381450
494.000000	97.458929
493.000000	97.532264
492.000000	97.486523
491.000000	97.397520
490.000000	97.401136
489.000000	97.474022
488.000000	97.537120
487.000000	97.624200
486.000000	97.771611
485.000000	97.880147
484.000000	97.871893
483.000000	97.855385
482.000000	97.930043
481.000000	97.999823
480.000000	97.967897
479.000000	97.930934
478.000000	97.998163
477.000000	98.078145
476.000000	98.048758
475.000000	97.990842
474.000000	98.044963
473.000000	98.166733
472.000000	98.240503
471.000000	98.312961
470.000000	98.437634
469.000000	98.475926
468.000000	98.316632
467.000000	98.118989
466.000000	98.101695
465.000000	98.220473
464.000000	98.322021
463.000000	98.418350
462.000000	98.561563
461.000000	98.643122
460.000000	98.572791
459.000000	98.513057
458.000000	98.673995
457.000000	98.921050
456.000000	98.987545
455.000000	98.932451
454.000000	98.913664
453.000000	98.887765
452.000000	98.773612
451.000000	98.705245
450.000000	98.809006
