PE IR       SUBTECH     SPECTRUM    ASCII       PEDS        4.00        
   -1
Histo2-Veau-F001_1.ASC
23/09/14
13:54:25.00
23/09/14
14:07:43.00
uco
Sample 001 By uco Date Thursday, September 14 2023
450.000000
#HDR
-1
-1
#GR
cm-1
%T
1.0
0.0
4000.000000
-1.000000
3551
8
98.327023
81.411135
#DATA
4000.000000	98.134030
3999.000000	98.134057
3998.000000	98.134081
3997.000000	98.134602
3996.000000	98.134092
3995.000000	98.131637
3994.000000	98.127311
3993.000000	98.121943
3992.000000	98.116603
3991.000000	98.112232
3990.000000	98.109531
3989.000000	98.108861
3988.000000	98.109965
3987.000000	98.111787
3986.000000	98.112804
3985.000000	98.111931
3984.000000	98.109300
3983.000000	98.106210
3982.000000	98.104206
3981.000000	98.104158
3980.000000	98.106081
3979.000000	98.109376
3978.000000	98.112848
3977.000000	98.114694
3976.000000	98.113244
3975.000000	98.108375
3974.000000	98.102077
3973.000000	98.097170
3972.000000	98.095230
3971.000000	98.095824
3970.000000	98.097494
3969.000000	98.098798
3968.000000	98.098629
3967.000000	98.096346
3966.000000	98.092472
3965.000000	98.089055
3964.000000	98.088332
3963.000000	98.090557
3962.000000	98.093301
3961.000000	98.093323
3960.000000	98.089481
3959.000000	98.083650
3958.000000	98.079138
3957.000000	98.078220
3956.000000	98.080597
3955.000000	98.083816
3954.000000	98.085226
3953.000000	98.083720
3952.000000	98.079971
3951.000000	98.075563
3950.000000	98.071918
3949.000000	98.069948
3948.000000	98.070320
3947.000000	98.073420
3946.000000	98.078775
3945.000000	98.084634
3944.000000	98.088431
3943.000000	98.088061
3942.000000	98.083684
3941.000000	98.078103
3940.000000	98.074443
3939.000000	98.073903
3938.000000	98.075837
3937.000000	98.078869
3936.000000	98.081860
3935.000000	98.084203
3934.000000	98.085911
3933.000000	98.087396
3932.000000	98.088628
3931.000000	98.088672
3930.000000	98.086166
3929.000000	98.080530
3928.000000	98.072716
3927.000000	98.064971
3926.000000	98.059705
3925.000000	98.058488
3924.000000	98.061606
3923.000000	98.067552
3922.000000	98.073082
3921.000000	98.075361
3920.000000	98.074783
3919.000000	98.074328
3918.000000	98.075865
3917.000000	98.077819
3916.000000	98.077457
3915.000000	98.074473
3914.000000	98.071220
3913.000000	98.070226
3912.000000	98.072298
3911.000000	98.075422
3910.000000	98.075839
3909.000000	98.070791
3908.000000	98.061134
3907.000000	98.051395
3906.000000	98.047679
3905.000000	98.053865
3904.000000	98.068174
3903.000000	98.084419
3902.000000	98.096835
3901.000000	98.103017
3900.000000	98.103378
3899.000000	98.099772
3898.000000	98.094039
3897.000000	98.087059
3896.000000	98.079272
3895.000000	98.072415
3894.000000	98.069582
3893.000000	98.072425
3892.000000	98.078562
3891.000000	98.083268
3890.000000	98.085343
3889.000000	98.086541
3888.000000	98.087682
3887.000000	98.089202
3886.000000	98.091548
3885.000000	98.094172
3884.000000	98.096574
3883.000000	98.097270
3882.000000	98.093019
3881.000000	98.083082
3880.000000	98.071751
3879.000000	98.065830
3878.000000	98.068331
3877.000000	98.076083
3876.000000	98.084282
3875.000000	98.088541
3874.000000	98.085436
3873.000000	98.076052
3872.000000	98.065992
3871.000000	98.060230
3870.000000	98.059882
3869.000000	98.063184
3868.000000	98.068557
3867.000000	98.073189
3866.000000	98.074636
3865.000000	98.074391
3864.000000	98.074813
3863.000000	98.075526
3862.000000	98.075166
3861.000000	98.073317
3860.000000	98.071242
3859.000000	98.069554
3858.000000	98.066929
3857.000000	98.061211
3856.000000	98.053543
3855.000000	98.050642
3854.000000	98.057123
3853.000000	98.064530
3852.000000	98.067082
3851.000000	98.069214
3850.000000	98.069499
3849.000000	98.065680
3848.000000	98.059958
3847.000000	98.055984
3846.000000	98.056160
3845.000000	98.060774
3844.000000	98.068259
3843.000000	98.076419
3842.000000	98.084053
3841.000000	98.090427
3840.000000	98.094558
3839.000000	98.095369
3838.000000	98.092604
3837.000000	98.087118
3836.000000	98.081144
3835.000000	98.076919
3834.000000	98.075758
3833.000000	98.077658
3832.000000	98.081228
3831.000000	98.084527
3830.000000	98.086739
3829.000000	98.088148
3828.000000	98.088782
3827.000000	98.087726
3826.000000	98.084568
3825.000000	98.080937
3824.000000	98.079668
3823.000000	98.083114
3822.000000	98.091679
3821.000000	98.100095
3820.000000	98.103739
3819.000000	98.103955
3818.000000	98.099981
3817.000000	98.090876
3816.000000	98.079852
3815.000000	98.072356
3814.000000	98.071490
3813.000000	98.074508
3812.000000	98.077151
3811.000000	98.079725
3810.000000	98.084697
3809.000000	98.091565
3808.000000	98.095204
3807.000000	98.089833
3806.000000	98.076708
3805.000000	98.063373
3804.000000	98.053802
3803.000000	98.047288
3802.000000	98.042861
3801.000000	98.040190
3800.000000	98.042610
3799.000000	98.051708
3798.000000	98.061830
3797.000000	98.067455
3796.000000	98.068117
3795.000000	98.067214
3794.000000	98.067813
3793.000000	98.069872
3792.000000	98.071601
3791.000000	98.071321
3790.000000	98.068019
3789.000000	98.062462
3788.000000	98.057164
3787.000000	98.054211
3786.000000	98.052982
3785.000000	98.051537
3784.000000	98.050509
3783.000000	98.053616
3782.000000	98.063101
3781.000000	98.076413
3780.000000	98.087510
3779.000000	98.091719
3778.000000	98.090507
3777.000000	98.088396
3776.000000	98.086927
3775.000000	98.084756
3774.000000	98.081261
3773.000000	98.077416
3772.000000	98.074741
3771.000000	98.074060
3770.000000	98.075322
3769.000000	98.078114
3768.000000	98.082045
3767.000000	98.085616
3766.000000	98.087199
3765.000000	98.087671
3764.000000	98.090532
3763.000000	98.098403
3762.000000	98.109607
3761.000000	98.119418
3760.000000	98.123122
3759.000000	98.118459
3758.000000	98.107694
3757.000000	98.095544
3756.000000	98.085110
3755.000000	98.076455
3754.000000	98.069173
3753.000000	98.065572
3752.000000	98.069768
3751.000000	98.081763
3750.000000	98.095974
3749.000000	98.108652
3748.000000	98.119873
3747.000000	98.130195
3746.000000	98.140253
3745.000000	98.148987
3744.000000	98.151097
3743.000000	98.146438
3742.000000	98.139643
3741.000000	98.129827
3740.000000	98.117399
3739.000000	98.107771
3738.000000	98.106154
3737.000000	98.111818
3736.000000	98.118504
3735.000000	98.121490
3734.000000	98.122996
3733.000000	98.125631
3732.000000	98.126864
3731.000000	98.124724
3730.000000	98.120591
3729.000000	98.116115
3728.000000	98.111302
3727.000000	98.105510
3726.000000	98.098458
3725.000000	98.091224
3724.000000	98.085859
3723.000000	98.084476
3722.000000	98.088081
3721.000000	98.095588
3720.000000	98.104381
3719.000000	98.111752
3718.000000	98.116184
3717.000000	98.117557
3716.000000	98.116836
3715.000000	98.115423
3714.000000	98.115232
3713.000000	98.118777
3712.000000	98.126451
3711.000000	98.135118
3710.000000	98.141522
3709.000000	98.143481
3708.000000	98.138791
3707.000000	98.126863
3706.000000	98.110040
3705.000000	98.091308
3704.000000	98.072286
3703.000000	98.053617
3702.000000	98.036678
3701.000000	98.024400
3700.000000	98.019219
3699.000000	98.019481
3698.000000	98.019948
3697.000000	98.016536
3696.000000	98.009260
3695.000000	98.001239
3694.000000	97.995648
3693.000000	97.994777
3692.000000	98.000734
3691.000000	98.014647
3690.000000	98.033833
3689.000000	98.051094
3688.000000	98.061463
3687.000000	98.066594
3686.000000	98.068695
3685.000000	98.066570
3684.000000	98.059214
3683.000000	98.049117
3682.000000	98.040376
3681.000000	98.034169
3680.000000	98.027848
3679.000000	98.019378
3678.000000	98.009907
3677.000000	98.002398
3676.000000	97.997534
3675.000000	97.994297
3674.000000	97.997249
3673.000000	98.008117
3672.000000	98.020035
3671.000000	98.028334
3670.000000	98.031001
3669.000000	98.027886
3668.000000	98.023413
3667.000000	98.019110
3666.000000	98.012703
3665.000000	98.004137
3664.000000	97.995111
3663.000000	97.985900
3662.000000	97.975142
3661.000000	97.961712
3660.000000	97.946234
3659.000000	97.930988
3658.000000	97.918665
3657.000000	97.911231
3656.000000	97.908248
3655.000000	97.908014
3654.000000	97.909066
3653.000000	97.910548
3652.000000	97.914135
3651.000000	97.921958
3650.000000	97.927931
3649.000000	97.919948
3648.000000	97.899662
3647.000000	97.882456
3646.000000	97.875154
3645.000000	97.871383
3644.000000	97.862661
3643.000000	97.846242
3642.000000	97.826016
3641.000000	97.808116
3640.000000	97.795467
3639.000000	97.786060
3638.000000	97.776793
3637.000000	97.767998
3636.000000	97.763215
3635.000000	97.765355
3634.000000	97.773672
3633.000000	97.784414
3632.000000	97.793444
3631.000000	97.797737
3630.000000	97.794611
3629.000000	97.780139
3628.000000	97.756202
3627.000000	97.733820
3626.000000	97.715885
3625.000000	97.696529
3624.000000	97.673038
3623.000000	97.646734
3622.000000	97.620145
3621.000000	97.596327
3620.000000	97.578727
3619.000000	97.568798
3618.000000	97.564798
3617.000000	97.563412
3616.000000	97.561450
3615.000000	97.557672
3614.000000	97.552386
3613.000000	97.545435
3612.000000	97.536061
3611.000000	97.523787
3610.000000	97.508668
3609.000000	97.492148
3608.000000	97.476848
3607.000000	97.464908
3606.000000	97.456625
3605.000000	97.450239
3604.000000	97.444268
3603.000000	97.438820
3602.000000	97.433984
3601.000000	97.429074
3600.000000	97.423955
3599.000000	97.419767
3598.000000	97.416621
3597.000000	97.412272
3596.000000	97.403481
3595.000000	97.389203
3594.000000	97.371873
3593.000000	97.355429
3592.000000	97.341541
3591.000000	97.329467
3590.000000	97.318554
3589.000000	97.308809
3588.000000	97.298469
3587.000000	97.284301
3586.000000	97.266724
3585.000000	97.248576
3584.000000	97.230850
3583.000000	97.214206
3582.000000	97.200255
3581.000000	97.189749
3580.000000	97.181246
3579.000000	97.172144
3578.000000	97.160364
3577.000000	97.145597
3576.000000	97.129076
3575.000000	97.112434
3574.000000	97.096328
3573.000000	97.080013
3572.000000	97.062363
3571.000000	97.043096
3570.000000	97.022795
3569.000000	97.001474
3568.000000	96.977291
3567.000000	96.948446
3566.000000	96.918239
3565.000000	96.893165
3564.000000	96.874568
3563.000000	96.858594
3562.000000	96.841511
3561.000000	96.821761
3560.000000	96.799382
3559.000000	96.775146
3558.000000	96.749968
3557.000000	96.724914
3556.000000	96.701764
3555.000000	96.682922
3554.000000	96.669866
3553.000000	96.660836
3552.000000	96.650724
3551.000000	96.634427
3550.000000	96.610464
3549.000000	96.581262
3548.000000	96.551366
3547.000000	96.525013
3546.000000	96.504441
3545.000000	96.489474
3544.000000	96.478034
3543.000000	96.466902
3542.000000	96.453590
3541.000000	96.438018
3540.000000	96.422166
3539.000000	96.407934
3538.000000	96.395643
3537.000000	96.384415
3536.000000	96.373511
3535.000000	96.363262
3534.000000	96.354832
3533.000000	96.349201
3532.000000	96.345679
3531.000000	96.341539
3530.000000	96.333812
3529.000000	96.322629
3528.000000	96.311954
3527.000000	96.306015
3526.000000	96.305169
3525.000000	96.305951
3524.000000	96.304353
3523.000000	96.298720
3522.000000	96.290621
3521.000000	96.283565
3520.000000	96.280309
3519.000000	96.280432
3518.000000	96.280480
3517.000000	96.277021
3516.000000	96.269660
3515.000000	96.260535
3514.000000	96.251469
3513.000000	96.242690
3512.000000	96.234088
3511.000000	96.226518
3510.000000	96.221043
3509.000000	96.217537
3508.000000	96.214838
3507.000000	96.212131
3506.000000	96.209383
3505.000000	96.206487
3504.000000	96.202549
3503.000000	96.196857
3502.000000	96.190486
3501.000000	96.185339
3500.000000	96.181214
3499.000000	96.175424
3498.000000	96.166151
3497.000000	96.155364
3496.000000	96.147214
3495.000000	96.143409
3494.000000	96.141418
3493.000000	96.137442
3492.000000	96.129719
3491.000000	96.118516
3490.000000	96.104778
3489.000000	96.090164
3488.000000	96.077348
3487.000000	96.068430
3486.000000	96.062918
3485.000000	96.058360
3484.000000	96.052953
3483.000000	96.046777
3482.000000	96.040664
3481.000000	96.034879
3480.000000	96.029075
3479.000000	96.022592
3478.000000	96.014272
3477.000000	96.002656
3476.000000	95.987296
3475.000000	95.970085
3474.000000	95.954712
3473.000000	95.943792
3472.000000	95.936292
3471.000000	95.928427
3470.000000	95.917658
3469.000000	95.905411
3468.000000	95.895313
3467.000000	95.889106
3466.000000	95.885207
3465.000000	95.881046
3464.000000	95.875389
3463.000000	95.868319
3462.000000	95.860453
3461.000000	95.852847
3460.000000	95.846303
3459.000000	95.839779
3458.000000	95.830608
3457.000000	95.817602
3456.000000	95.803320
3455.000000	95.791815
3454.000000	95.783952
3453.000000	95.776121
3452.000000	95.763813
3451.000000	95.746212
3450.000000	95.727298
3449.000000	95.712955
3448.000000	95.706465
3447.000000	95.705633
3446.000000	95.704409
3445.000000	95.697792
3444.000000	95.684698
3443.000000	95.666858
3442.000000	95.646767
3441.000000	95.627268
3440.000000	95.611293
3439.000000	95.599943
3438.000000	95.591086
3437.000000	95.581381
3436.000000	95.569940
3435.000000	95.558926
3434.000000	95.550363
3433.000000	95.543268
3432.000000	95.533967
3431.000000	95.518466
3430.000000	95.494898
3429.000000	95.465401
3428.000000	95.435978
3427.000000	95.412791
3426.000000	95.397498
3425.000000	95.386588
3424.000000	95.375595
3423.000000	95.363103
3422.000000	95.350254
3421.000000	95.337545
3420.000000	95.323340
3419.000000	95.305342
3418.000000	95.282690
3417.000000	95.256602
3416.000000	95.229696
3415.000000	95.204747
3414.000000	95.183473
3413.000000	95.165915
3412.000000	95.150550
3411.000000	95.135014
3410.000000	95.117316
3409.000000	95.096979
3408.000000	95.075102
3407.000000	95.053322
3406.000000	95.033158
3405.000000	95.016284
3404.000000	95.004088
3403.000000	94.995737
3402.000000	94.987583
3401.000000	94.976225
3400.000000	94.962081
3399.000000	94.948585
3398.000000	94.937580
3397.000000	94.927073
3396.000000	94.914428
3395.000000	94.900676
3394.000000	94.890184
3393.000000	94.885916
3392.000000	94.885772
3391.000000	94.884318
3390.000000	94.878213
3389.000000	94.869422
3388.000000	94.862716
3387.000000	94.860163
3386.000000	94.858775
3385.000000	94.854145
3384.000000	94.845815
3383.000000	94.837856
3382.000000	94.834144
3381.000000	94.834081
3380.000000	94.833310
3379.000000	94.828137
3378.000000	94.818945
3377.000000	94.809659
3376.000000	94.804108
3375.000000	94.802784
3374.000000	94.802960
3373.000000	94.801706
3372.000000	94.798310
3371.000000	94.793679
3370.000000	94.788290
3369.000000	94.781528
3368.000000	94.772658
3367.000000	94.761522
3366.000000	94.748383
3365.000000	94.734193
3364.000000	94.721149
3363.000000	94.711789
3362.000000	94.706533
3361.000000	94.702451
3360.000000	94.695419
3359.000000	94.683799
3358.000000	94.669690
3357.000000	94.656443
3356.000000	94.645301
3355.000000	94.634841
3354.000000	94.623520
3353.000000	94.611936
3352.000000	94.601934
3351.000000	94.593860
3350.000000	94.585755
3349.000000	94.575551
3348.000000	94.563348
3347.000000	94.551040
3346.000000	94.540262
3345.000000	94.531295
3344.000000	94.523657
3343.000000	94.516990
3342.000000	94.511030
3341.000000	94.504958
3340.000000	94.497099
3339.000000	94.485817
3338.000000	94.471283
3337.000000	94.456120
3336.000000	94.443244
3335.000000	94.432769
3334.000000	94.421941
3333.000000	94.408593
3332.000000	94.393843
3331.000000	94.380955
3330.000000	94.372533
3329.000000	94.369280
3328.000000	94.370052
3327.000000	94.371753
3326.000000	94.370036
3325.000000	94.361976
3324.000000	94.348358
3323.000000	94.332481
3322.000000	94.316913
3321.000000	94.302237
3320.000000	94.288270
3319.000000	94.275106
3318.000000	94.262944
3317.000000	94.252015
3316.000000	94.242788
3315.000000	94.235372
3314.000000	94.228768
3313.000000	94.221825
3312.000000	94.214781
3311.000000	94.208706
3310.000000	94.203365
3309.000000	94.197002
3308.000000	94.188715
3307.000000	94.179796
3306.000000	94.171935
3305.000000	94.165014
3304.000000	94.157361
3303.000000	94.147500
3302.000000	94.135274
3301.000000	94.122029
3300.000000	94.110325
3299.000000	94.102704
3298.000000	94.099638
3297.000000	94.098811
3296.000000	94.097050
3295.000000	94.093075
3294.000000	94.088037
3293.000000	94.083629
3292.000000	94.080187
3291.000000	94.076630
3290.000000	94.071942
3289.000000	94.066550
3288.000000	94.062350
3287.000000	94.061409
3286.000000	94.064579
3285.000000	94.071085
3284.000000	94.078905
3283.000000	94.085450
3282.000000	94.088674
3281.000000	94.088431
3280.000000	94.086676
3279.000000	94.085624
3278.000000	94.085732
3277.000000	94.086036
3276.000000	94.086552
3275.000000	94.089426
3274.000000	94.096952
3273.000000	94.108774
3272.000000	94.121450
3271.000000	94.130784
3270.000000	94.134657
3269.000000	94.134125
3268.000000	94.132302
3267.000000	94.131983
3266.000000	94.133843
3265.000000	94.136709
3264.000000	94.139579
3263.000000	94.143243
3262.000000	94.149804
3261.000000	94.160586
3260.000000	94.174456
3259.000000	94.188245
3258.000000	94.199118
3257.000000	94.206730
3256.000000	94.213039
3255.000000	94.219970
3254.000000	94.227588
3253.000000	94.234884
3252.000000	94.241891
3251.000000	94.250230
3250.000000	94.261329
3249.000000	94.274444
3248.000000	94.286760
3247.000000	94.295477
3246.000000	94.300003
3245.000000	94.302460
3244.000000	94.305945
3243.000000	94.312026
3242.000000	94.319829
3241.000000	94.327488
3240.000000	94.334311
3239.000000	94.341336
3238.000000	94.349977
3237.000000	94.360464
3236.000000	94.371590
3235.000000	94.381740
3234.000000	94.389947
3233.000000	94.396039
3232.000000	94.400112
3231.000000	94.402382
3230.000000	94.403902
3229.000000	94.407049
3228.000000	94.414317
3227.000000	94.425846
3226.000000	94.438389
3225.000000	94.447389
3224.000000	94.450492
3223.000000	94.449286
3222.000000	94.447856
3221.000000	94.449805
3220.000000	94.456273
3219.000000	94.466025
3218.000000	94.476975
3217.000000	94.487370
3216.000000	94.495979
3215.000000	94.502059
3214.000000	94.505779
3213.000000	94.508284
3212.000000	94.510628
3211.000000	94.512839
3210.000000	94.514747
3209.000000	94.517473
3208.000000	94.522810
3207.000000	94.530767
3206.000000	94.538936
3205.000000	94.545282
3204.000000	94.550926
3203.000000	94.559179
3202.000000	94.571977
3201.000000	94.587860
3200.000000	94.603003
3199.000000	94.613690
3198.000000	94.618462
3197.000000	94.619105
3196.000000	94.619609
3195.000000	94.623115
3194.000000	94.629693
3193.000000	94.637503
3192.000000	94.645844
3191.000000	94.656002
3190.000000	94.668759
3189.000000	94.682146
3188.000000	94.692661
3187.000000	94.698696
3186.000000	94.702322
3185.000000	94.707573
3184.000000	94.716994
3183.000000	94.729775
3182.000000	94.743025
3181.000000	94.754659
3180.000000	94.764806
3179.000000	94.774470
3178.000000	94.783419
3177.000000	94.790037
3176.000000	94.793045
3175.000000	94.792791
3174.000000	94.791056
3173.000000	94.790515
3172.000000	94.794395
3171.000000	94.805284
3170.000000	94.823082
3169.000000	94.844256
3168.000000	94.863901
3167.000000	94.878930
3166.000000	94.889311
3165.000000	94.896798
3164.000000	94.903182
3163.000000	94.909624
3162.000000	94.916584
3161.000000	94.923706
3160.000000	94.930233
3159.000000	94.936206
3158.000000	94.943209
3157.000000	94.953235
3156.000000	94.966341
3155.000000	94.979677
3154.000000	94.989445
3153.000000	94.994258
3152.000000	94.996689
3151.000000	95.001235
3150.000000	95.010452
3149.000000	95.022808
3148.000000	95.034442
3147.000000	95.043049
3146.000000	95.050062
3145.000000	95.058983
3144.000000	95.071935
3143.000000	95.087932
3142.000000	95.104051
3141.000000	95.117402
3140.000000	95.126135
3139.000000	95.129876
3138.000000	95.130342
3137.000000	95.131108
3136.000000	95.135595
3135.000000	95.144693
3134.000000	95.156450
3133.000000	95.167908
3132.000000	95.177052
3131.000000	95.183390
3130.000000	95.187565
3129.000000	95.190726
3128.000000	95.193877
3127.000000	95.197406
3126.000000	95.201159
3125.000000	95.204914
3124.000000	95.208753
3123.000000	95.213206
3122.000000	95.219207
3121.000000	95.227556
3120.000000	95.238013
3119.000000	95.249089
3118.000000	95.259043
3117.000000	95.266749
3116.000000	95.271251
3115.000000	95.271305
3114.000000	95.266576
3113.000000	95.259218
3112.000000	95.253183
3111.000000	95.251617
3110.000000	95.255172
3109.000000	95.262512
3108.000000	95.271447
3107.000000	95.279749
3106.000000	95.286081
3105.000000	95.290750
3104.000000	95.294926
3103.000000	95.298975
3102.000000	95.302258
3101.000000	95.304644
3100.000000	95.306993
3099.000000	95.309666
3098.000000	95.311658
3097.000000	95.312044
3096.000000	95.311494
3095.000000	95.311638
3094.000000	95.313539
3093.000000	95.317286
3092.000000	95.322164
3091.000000	95.326371
3090.000000	95.327497
3089.000000	95.324593
3088.000000	95.319643
3087.000000	95.315972
3086.000000	95.315084
3085.000000	95.315511
3084.000000	95.314575
3083.000000	95.310891
3082.000000	95.305576
3081.000000	95.301563
3080.000000	95.301375
3079.000000	95.304866
3078.000000	95.309339
3077.000000	95.312277
3076.000000	95.313695
3075.000000	95.315634
3074.000000	95.319827
3073.000000	95.326182
3072.000000	95.332877
3071.000000	95.337463
3070.000000	95.338541
3069.000000	95.337156
3068.000000	95.336102
3067.000000	95.337250
3066.000000	95.339938
3065.000000	95.342443
3064.000000	95.344237
3063.000000	95.345941
3062.000000	95.347982
3061.000000	95.350536
3060.000000	95.354373
3059.000000	95.360421
3058.000000	95.368460
3057.000000	95.377050
3056.000000	95.384694
3055.000000	95.390596
3054.000000	95.394755
3053.000000	95.398246
3052.000000	95.403129
3051.000000	95.410984
3050.000000	95.421375
3049.000000	95.432241
3048.000000	95.441623
3047.000000	95.448496
3046.000000	95.452590
3045.000000	95.454707
3044.000000	95.457045
3043.000000	95.461930
3042.000000	95.469761
3041.000000	95.478763
3040.000000	95.486909
3039.000000	95.493486
3038.000000	95.498891
3037.000000	95.503763
3036.000000	95.508676
3035.000000	95.514218
3034.000000	95.520955
3033.000000	95.529235
3032.000000	95.538663
3031.000000	95.547606
3030.000000	95.554029
3029.000000	95.557703
3028.000000	95.561168
3027.000000	95.567425
3026.000000	95.576557
3025.000000	95.585305
3024.000000	95.589956
3023.000000	95.589229
3022.000000	95.584519
3021.000000	95.578323
3020.000000	95.572545
3019.000000	95.567524
3018.000000	95.562439
3017.000000	95.556855
3016.000000	95.551675
3015.000000	95.547967
3014.000000	95.545134
3013.000000	95.541105
3012.000000	95.534283
3011.000000	95.524546
3010.000000	95.512369
3009.000000	95.498001
3008.000000	95.482032
3007.000000	95.466264
3006.000000	95.453594
3005.000000	95.446852
3004.000000	95.447314
3003.000000	95.453606
3002.000000	95.462191
3001.000000	95.469693
3000.000000	95.475153
2999.000000	95.480115
2998.000000	95.486623
2997.000000	95.495277
2996.000000	95.504578
2995.000000	95.511565
2994.000000	95.513402
2993.000000	95.509190
2992.000000	95.500497
2991.000000	95.489799
2990.000000	95.478533
2989.000000	95.466429
2988.000000	95.451916
2987.000000	95.432688
2986.000000	95.406776
2985.000000	95.374398
2984.000000	95.338374
2983.000000	95.301781
2982.000000	95.265264
2981.000000	95.227354
2980.000000	95.187219
2979.000000	95.145891
2978.000000	95.104685
2977.000000	95.063331
2976.000000	95.019800
2975.000000	94.971367
2974.000000	94.915841
2973.000000	94.852775
2972.000000	94.783863
2971.000000	94.711260
2970.000000	94.635145
2969.000000	94.553201
2968.000000	94.462802
2967.000000	94.363555
2966.000000	94.257784
2965.000000	94.149301
2964.000000	94.041783
2963.000000	93.938045
2962.000000	93.840312
2961.000000	93.750698
2960.000000	93.670639
2959.000000	93.599407
2958.000000	93.534148
2957.000000	93.472439
2956.000000	93.415450
2955.000000	93.368123
2954.000000	93.335968
2953.000000	93.321106
2952.000000	93.320126
2951.000000	93.325106
2950.000000	93.326896
2949.000000	93.318816
2948.000000	93.297713
2947.000000	93.262144
2946.000000	93.210314
2945.000000	93.139794
2944.000000	93.048502
2943.000000	92.934799
2942.000000	92.797781
2941.000000	92.638558
2940.000000	92.461092
2939.000000	92.270446
2938.000000	92.069344
2937.000000	91.857094
2936.000000	91.631460
2935.000000	91.391394
2934.000000	91.138194
2933.000000	90.874995
2932.000000	90.605917
2931.000000	90.335583
2930.000000	90.069402
2929.000000	89.813227
2928.000000	89.571931
2927.000000	89.348539
2926.000000	89.146052
2925.000000	88.970938
2924.000000	88.833118
2923.000000	88.742076
2922.000000	88.702564
2921.000000	88.713566
2920.000000	88.770128
2919.000000	88.865768
2918.000000	88.996025
2917.000000	89.160662
2916.000000	89.361712
2915.000000	89.597398
2914.000000	89.857358
2913.000000	90.124614
2912.000000	90.382102
2911.000000	90.618949
2910.000000	90.832483
2909.000000	91.026049
2908.000000	91.204528
2907.000000	91.370158
2906.000000	91.522360
2905.000000	91.661079
2904.000000	91.789174
2903.000000	91.910147
2902.000000	92.024354
2901.000000	92.129044
2900.000000	92.222456
2899.000000	92.307114
2898.000000	92.388630
2897.000000	92.472505
2896.000000	92.561501
2895.000000	92.654692
2894.000000	92.748377
2893.000000	92.838739
2892.000000	92.924343
2891.000000	93.006143
2890.000000	93.085512
2889.000000	93.162952
2888.000000	93.238267
2887.000000	93.310514
2886.000000	93.377627
2885.000000	93.437166
2884.000000	93.488155
2883.000000	93.531581
2882.000000	93.568628
2881.000000	93.598883
2880.000000	93.620244
2879.000000	93.629997
2878.000000	93.626003
2877.000000	93.607842
2876.000000	93.577495
2875.000000	93.538714
2874.000000	93.495843
2873.000000	93.453311
2872.000000	93.415497
2871.000000	93.385448
2870.000000	93.363004
2869.000000	93.344516
2868.000000	93.324321
2867.000000	93.295772
2866.000000	93.251318
2865.000000	93.183465
2864.000000	93.086507
2863.000000	92.957331
2862.000000	92.794666
2861.000000	92.599181
2860.000000	92.375168
2859.000000	92.131225
2858.000000	91.878275
2857.000000	91.627661
2856.000000	91.391795
2855.000000	91.185126
2854.000000	91.023301
2853.000000	90.919739
2852.000000	90.882978
2851.000000	90.917398
2850.000000	91.025117
2849.000000	91.205972
2848.000000	91.454034
2847.000000	91.753617
2846.000000	92.079865
2845.000000	92.405982
2844.000000	92.711767
2843.000000	92.987952
2842.000000	93.233787
2841.000000	93.451280
2840.000000	93.642023
2839.000000	93.807219
2838.000000	93.949154
2837.000000	94.071893
2836.000000	94.180220
2835.000000	94.277666
2834.000000	94.365536
2833.000000	94.443988
2832.000000	94.513934
2831.000000	94.577362
2830.000000	94.635763
2829.000000	94.689328
2828.000000	94.737936
2827.000000	94.782277
2826.000000	94.823617
2825.000000	94.862905
2824.000000	94.900578
2823.000000	94.936700
2822.000000	94.970880
2821.000000	95.002491
2820.000000	95.031401
2819.000000	95.058439
2818.000000	95.084957
2817.000000	95.112064
2816.000000	95.140052
2815.000000	95.167962
2814.000000	95.193875
2813.000000	95.216504
2812.000000	95.236731
2811.000000	95.256818
2810.000000	95.277843
2809.000000	95.298594
2808.000000	95.317270
2807.000000	95.333333
2806.000000	95.347322
2805.000000	95.359959
2804.000000	95.372350
2803.000000	95.386258
2802.000000	95.402814
2801.000000	95.420994
2800.000000	95.438227
2799.000000	95.452689
2798.000000	95.464671
2797.000000	95.475827
2796.000000	95.487498
2795.000000	95.499605
2794.000000	95.510826
2793.000000	95.520110
2792.000000	95.528292
2791.000000	95.537768
2790.000000	95.549913
2789.000000	95.563084
2788.000000	95.573973
2787.000000	95.581037
2786.000000	95.586126
2785.000000	95.592668
2784.000000	95.602690
2783.000000	95.615681
2782.000000	95.629702
2781.000000	95.642930
2780.000000	95.654198
2779.000000	95.662851
2778.000000	95.668938
2777.000000	95.673754
2776.000000	95.679596
2775.000000	95.688196
2774.000000	95.699201
2773.000000	95.710446
2772.000000	95.719810
2771.000000	95.726709
2770.000000	95.732006
2769.000000	95.737045
2768.000000	95.742906
2767.000000	95.749961
2766.000000	95.757528
2765.000000	95.764036
2764.000000	95.768122
2763.000000	95.769994
2762.000000	95.771640
2761.000000	95.775355
2760.000000	95.781844
2759.000000	95.789836
2758.000000	95.797529
2757.000000	95.804077
2756.000000	95.809475
2755.000000	95.813654
2754.000000	95.816601
2753.000000	95.819255
2752.000000	95.823178
2751.000000	95.828930
2750.000000	95.835502
2749.000000	95.841615
2748.000000	95.846703
2747.000000	95.850293
2746.000000	95.851709
2745.000000	95.851388
2744.000000	95.851519
2743.000000	95.854135
2742.000000	95.859187
2741.000000	95.865573
2740.000000	95.873221
2739.000000	95.882391
2738.000000	95.891167
2737.000000	95.895613
2736.000000	95.893319
2735.000000	95.885931
2734.000000	95.877809
2733.000000	95.872939
2732.000000	95.873145
2731.000000	95.877965
2730.000000	95.885291
2729.000000	95.892649
2728.000000	95.898655
2727.000000	95.903356
2726.000000	95.907219
2725.000000	95.910233
2724.000000	95.912092
2723.000000	95.912875
2722.000000	95.913497
2721.000000	95.915646
2720.000000	95.920813
2719.000000	95.928742
2718.000000	95.937236
2717.000000	95.944322
2716.000000	95.950277
2715.000000	95.956519
2714.000000	95.962823
2713.000000	95.967095
2712.000000	95.968249
2711.000000	95.968091
2710.000000	95.969700
2709.000000	95.974705
2708.000000	95.982544
2707.000000	95.991454
2706.000000	95.999394
2705.000000	96.004575
2704.000000	96.006103
2703.000000	96.004455
2702.000000	96.001185
2701.000000	95.998034
2700.000000	95.996037
2699.000000	95.995115
2698.000000	95.994601
2697.000000	95.994404
2696.000000	95.995387
2695.000000	95.998196
2694.000000	96.002031
2693.000000	96.005137
2692.000000	96.006324
2691.000000	96.005629
2690.000000	96.003868
2689.000000	96.002219
2688.000000	96.001911
2687.000000	96.003512
2686.000000	96.006625
2685.000000	96.010669
2684.000000	96.015448
2683.000000	96.020318
2682.000000	96.023546
2681.000000	96.023754
2680.000000	96.021698
2679.000000	96.019523
2678.000000	96.018528
2677.000000	96.018839
2676.000000	96.020941
2675.000000	96.025944
2674.000000	96.033914
2673.000000	96.043001
2672.000000	96.050633
2671.000000	96.055131
2670.000000	96.056451
2669.000000	96.056195
2668.000000	96.056482
2667.000000	96.057589
2666.000000	96.057040
2665.000000	96.052490
2664.000000	96.045370
2663.000000	96.039961
2662.000000	96.038751
2661.000000	96.040370
2660.000000	96.042378
2659.000000	96.044244
2658.000000	96.046730
2657.000000	96.049931
2656.000000	96.053345
2655.000000	96.057110
2654.000000	96.062163
2653.000000	96.069641
2652.000000	96.080360
2651.000000	96.093964
2650.000000	96.108239
2649.000000	96.120415
2648.000000	96.129645
2647.000000	96.137072
2646.000000	96.143122
2645.000000	96.146518
2644.000000	96.147001
2643.000000	96.147203
2642.000000	96.150093
2641.000000	96.155489
2640.000000	96.160673
2639.000000	96.163966
2638.000000	96.166330
2637.000000	96.169821
2636.000000	96.175731
2635.000000	96.184207
2634.000000	96.194724
2633.000000	96.206758
2632.000000	96.220107
2631.000000	96.234217
2630.000000	96.247295
2629.000000	96.257171
2628.000000	96.263418
2627.000000	96.267636
2626.000000	96.271317
2625.000000	96.274767
2624.000000	96.278745
2623.000000	96.285307
2622.000000	96.295363
2621.000000	96.306273
2620.000000	96.313511
2619.000000	96.314786
2618.000000	96.311904
2617.000000	96.309098
2616.000000	96.310086
2615.000000	96.315979
2614.000000	96.325108
2613.000000	96.335092
2612.000000	96.345255
2611.000000	96.356370
2610.000000	96.368183
2609.000000	96.378692
2608.000000	96.386349
2607.000000	96.391471
2606.000000	96.394619
2605.000000	96.395119
2604.000000	96.392546
2603.000000	96.388513
2602.000000	96.385536
2601.000000	96.384672
2600.000000	96.385267
2599.000000	96.386593
2598.000000	96.389029
2597.000000	96.393968
2596.000000	96.402663
2595.000000	96.414317
2594.000000	96.425208
2593.000000	96.431050
2592.000000	96.430838
2591.000000	96.427375
2590.000000	96.423987
2589.000000	96.422331
2588.000000	96.423539
2587.000000	96.428978
2586.000000	96.438225
2585.000000	96.447548
2584.000000	96.451838
2583.000000	96.447878
2582.000000	96.436231
2581.000000	96.422092
2580.000000	96.414583
2579.000000	96.421790
2578.000000	96.443769
2577.000000	96.471366
2576.000000	96.493307
2575.000000	96.503880
2574.000000	96.503791
2573.000000	96.496798
2572.000000	96.487965
2571.000000	96.482809
2570.000000	96.484385
2569.000000	96.490880
2568.000000	96.497762
2567.000000	96.502248
2566.000000	96.504772
2565.000000	96.507014
2564.000000	96.509956
2563.000000	96.513358
2562.000000	96.515993
2561.000000	96.516819
2560.000000	96.516527
2559.000000	96.516920
2558.000000	96.518301
2557.000000	96.519219
2556.000000	96.519732
2555.000000	96.522720
2554.000000	96.529850
2553.000000	96.537987
2552.000000	96.542230
2551.000000	96.541632
2550.000000	96.539649
2549.000000	96.539759
2548.000000	96.543352
2547.000000	96.551241
2546.000000	96.563557
2545.000000	96.576846
2544.000000	96.584317
2543.000000	96.582005
2542.000000	96.573998
2541.000000	96.569319
2540.000000	96.572947
2539.000000	96.581085
2538.000000	96.585794
2537.000000	96.583357
2536.000000	96.577261
2535.000000	96.573596
2534.000000	96.574951
2533.000000	96.578835
2532.000000	96.580544
2531.000000	96.577036
2530.000000	96.569333
2529.000000	96.562117
2528.000000	96.559899
2527.000000	96.562396
2526.000000	96.564566
2525.000000	96.562270
2524.000000	96.556948
2523.000000	96.553863
2522.000000	96.557264
2521.000000	96.568564
2520.000000	96.586852
2519.000000	96.608115
2518.000000	96.625066
2517.000000	96.631402
2516.000000	96.627190
2515.000000	96.618303
2514.000000	96.610703
2513.000000	96.606923
2512.000000	96.606803
2511.000000	96.608407
2510.000000	96.608572
2509.000000	96.606035
2508.000000	96.604723
2507.000000	96.610762
2506.000000	96.624898
2505.000000	96.640126
2504.000000	96.648002
2503.000000	96.646144
2502.000000	96.639427
2501.000000	96.635725
2500.000000	96.640383
2499.000000	96.652064
2498.000000	96.663483
2497.000000	96.668398
2496.000000	96.667986
2495.000000	96.668075
2494.000000	96.670760
2493.000000	96.672685
2492.000000	96.672161
2491.000000	96.673453
2490.000000	96.681480
2489.000000	96.695002
2488.000000	96.707693
2487.000000	96.714298
2486.000000	96.713967
2485.000000	96.709463
2484.000000	96.704835
2483.000000	96.702735
2482.000000	96.702923
2481.000000	96.704395
2480.000000	96.708735
2479.000000	96.718607
2478.000000	96.732317
2477.000000	96.743198
2476.000000	96.746347
2475.000000	96.744060
2474.000000	96.743047
2473.000000	96.748025
2472.000000	96.758967
2471.000000	96.771870
2470.000000	96.780606
2469.000000	96.780543
2468.000000	96.772642
2467.000000	96.762851
2466.000000	96.756162
2465.000000	96.752823
2464.000000	96.750810
2463.000000	96.748932
2462.000000	96.746097
2461.000000	96.740686
2460.000000	96.733134
2459.000000	96.726703
2458.000000	96.723262
2457.000000	96.720839
2456.000000	96.718289
2455.000000	96.719921
2454.000000	96.730987
2453.000000	96.749360
2452.000000	96.765757
2451.000000	96.773225
2450.000000	96.773899
2449.000000	96.775288
2448.000000	96.781892
2447.000000	96.791696
2446.000000	96.799837
2445.000000	96.804337
2444.000000	96.807772
2443.000000	96.813457
2442.000000	96.820769
2441.000000	96.825203
2440.000000	96.822793
2439.000000	96.813311
2438.000000	96.799675
2437.000000	96.786515
2436.000000	96.779365
2435.000000	96.782103
2434.000000	96.793222
2433.000000	96.806275
2432.000000	96.815723
2431.000000	96.821460
2430.000000	96.826525
2429.000000	96.832007
2428.000000	96.836118
2427.000000	96.837289
2426.000000	96.836453
2425.000000	96.836451
2424.000000	96.840009
2423.000000	96.847523
2422.000000	96.855969
2421.000000	96.860883
2420.000000	96.860502
2419.000000	96.857638
2418.000000	96.856865
2417.000000	96.860275
2416.000000	96.866191
2415.000000	96.871056
2414.000000	96.872065
2413.000000	96.868884
2412.000000	96.863609
2411.000000	96.858920
2410.000000	96.856368
2409.000000	96.856697
2408.000000	96.860862
2407.000000	96.869307
2406.000000	96.880620
2405.000000	96.892370
2404.000000	96.902918
2403.000000	96.911134
2402.000000	96.915276
2401.000000	96.914388
2400.000000	96.910319
2399.000000	96.905983
2398.000000	96.901914
2397.000000	96.897052
2396.000000	96.892498
2395.000000	96.891116
2394.000000	96.893149
2393.000000	96.896078
2392.000000	96.899994
2391.000000	96.908929
2390.000000	96.923907
2389.000000	96.937801
2388.000000	96.941630
2387.000000	96.935086
2386.000000	96.927502
2385.000000	96.928002
2384.000000	96.937159
2383.000000	96.949082
2382.000000	96.958773
2381.000000	96.965728
2380.000000	96.971020
2379.000000	96.973412
2378.000000	96.970056
2377.000000	96.960436
2376.000000	96.948255
2375.000000	96.939138
2374.000000	96.937845
2373.000000	96.947093
2372.000000	96.966024
2371.000000	96.988066
2370.000000	97.003833
2369.000000	97.009340
2368.000000	97.008745
2367.000000	97.007055
2366.000000	97.002920
2365.000000	96.991691
2364.000000	96.972978
2363.000000	96.951816
2362.000000	96.934673
2361.000000	96.926235
2360.000000	96.927791
2359.000000	96.935048
2358.000000	96.940920
2357.000000	96.942862
2356.000000	96.942069
2355.000000	96.939735
2354.000000	96.938864
2353.000000	96.944425
2352.000000	96.955597
2351.000000	96.962456
2350.000000	96.955992
2349.000000	96.936587
2348.000000	96.915391
2347.000000	96.907172
2346.000000	96.914875
2345.000000	96.921708
2344.000000	96.910728
2343.000000	96.889470
2342.000000	96.878839
2341.000000	96.887375
2340.000000	96.904916
2339.000000	96.916464
2338.000000	96.917238
2337.000000	96.912999
2336.000000	96.910355
2335.000000	96.910346
2334.000000	96.911092
2333.000000	96.913050
2332.000000	96.918817
2331.000000	96.928548
2330.000000	96.937466
2329.000000	96.937165
2328.000000	96.922159
2327.000000	96.894373
2326.000000	96.862620
2325.000000	96.838561
2324.000000	96.831293
2323.000000	96.843209
2322.000000	96.866765
2321.000000	96.889316
2320.000000	96.902928
2319.000000	96.908671
2318.000000	96.911284
2317.000000	96.913095
2316.000000	96.915623
2315.000000	96.922471
2314.000000	96.937234
2313.000000	96.958862
2312.000000	96.981642
2311.000000	96.999746
2310.000000	97.010975
2309.000000	97.016750
2308.000000	97.019868
2307.000000	97.021910
2306.000000	97.022451
2305.000000	97.021596
2304.000000	97.021701
2303.000000	97.024590
2302.000000	97.027668
2301.000000	97.025985
2300.000000	97.018621
2299.000000	97.010038
2298.000000	97.005127
2297.000000	97.005574
2296.000000	97.010686
2295.000000	97.018298
2294.000000	97.024862
2293.000000	97.028321
2292.000000	97.030953
2291.000000	97.035745
2290.000000	97.040212
2289.000000	97.038979
2288.000000	97.032832
2287.000000	97.029427
2286.000000	97.033047
2285.000000	97.039647
2284.000000	97.044883
2283.000000	97.051291
2282.000000	97.063315
2281.000000	97.079739
2280.000000	97.095485
2279.000000	97.107271
2278.000000	97.113950
2277.000000	97.115372
2276.000000	97.114557
2275.000000	97.116965
2274.000000	97.124043
2273.000000	97.130761
2272.000000	97.132324
2271.000000	97.129263
2270.000000	97.123958
2269.000000	97.118111
2268.000000	97.117211
2267.000000	97.130752
2266.000000	97.161587
2265.000000	97.198943
2264.000000	97.228087
2263.000000	97.244685
2262.000000	97.254948
2261.000000	97.264724
2260.000000	97.273631
2259.000000	97.278716
2258.000000	97.279845
2257.000000	97.281171
2256.000000	97.287373
2255.000000	97.296813
2254.000000	97.300477
2253.000000	97.292819
2252.000000	97.282078
2251.000000	97.281839
2250.000000	97.292673
2249.000000	97.301326
2248.000000	97.300315
2247.000000	97.298634
2246.000000	97.308569
2245.000000	97.330623
2244.000000	97.356759
2243.000000	97.380478
2242.000000	97.396314
2241.000000	97.396875
2240.000000	97.379916
2239.000000	97.354671
2238.000000	97.333325
2237.000000	97.318719
2236.000000	97.306572
2235.000000	97.297289
2234.000000	97.298366
2233.000000	97.314238
2232.000000	97.338229
2231.000000	97.356524
2230.000000	97.359502
2229.000000	97.349441
2228.000000	97.337467
2227.000000	97.333291
2226.000000	97.340069
2225.000000	97.359051
2224.000000	97.391230
2223.000000	97.428398
2222.000000	97.449895
2221.000000	97.440085
2220.000000	97.408021
2219.000000	97.379308
2218.000000	97.369960
2217.000000	97.378002
2216.000000	97.396790
2215.000000	97.422372
2214.000000	97.446960
2213.000000	97.459360
2212.000000	97.457283
2211.000000	97.450055
2210.000000	97.446782
2209.000000	97.450798
2208.000000	97.464467
2207.000000	97.486805
2206.000000	97.506246
2205.000000	97.509911
2204.000000	97.502158
2203.000000	97.499930
2202.000000	97.507599
2201.000000	97.511620
2200.000000	97.503930
2199.000000	97.495110
2198.000000	97.499098
2197.000000	97.518891
2196.000000	97.551979
2195.000000	97.594884
2194.000000	97.635277
2193.000000	97.653957
2192.000000	97.644678
2191.000000	97.621713
2190.000000	97.602333
2189.000000	97.594177
2188.000000	97.602293
2187.000000	97.632152
2186.000000	97.678482
2185.000000	97.724580
2184.000000	97.759832
2183.000000	97.785440
2182.000000	97.798909
2181.000000	97.791646
2180.000000	97.769870
2179.000000	97.759484
2178.000000	97.780375
2177.000000	97.828324
2176.000000	97.885555
2175.000000	97.934332
2174.000000	97.957344
2173.000000	97.943735
2172.000000	97.903192
2171.000000	97.859474
2170.000000	97.825783
2169.000000	97.798987
2168.000000	97.777312
2167.000000	97.766000
2166.000000	97.763709
2165.000000	97.763264
2164.000000	97.770475
2163.000000	97.801013
2162.000000	97.854420
2161.000000	97.915108
2160.000000	97.982578
2159.000000	98.069514
2158.000000	98.159431
2157.000000	98.210085
2156.000000	98.212220
2155.000000	98.197417
2154.000000	98.183846
2153.000000	98.155311
2152.000000	98.095751
2151.000000	98.013195
2150.000000	97.925441
2149.000000	97.849128
2148.000000	97.807290
2147.000000	97.818087
2146.000000	97.863772
2145.000000	97.893633
2144.000000	97.874819
2143.000000	97.824806
2142.000000	97.781770
2141.000000	97.759576
2140.000000	97.742337
2139.000000	97.710512
2138.000000	97.661823
2137.000000	97.614025
2136.000000	97.592862
2135.000000	97.608094
2134.000000	97.638484
2133.000000	97.649783
2132.000000	97.628805
2131.000000	97.590110
2130.000000	97.551082
2129.000000	97.515734
2128.000000	97.484058
2127.000000	97.461748
2126.000000	97.452944
2125.000000	97.452113
2124.000000	97.450960
2123.000000	97.448240
2122.000000	97.446913
2121.000000	97.445039
2120.000000	97.434146
2119.000000	97.406064
2118.000000	97.361521
2117.000000	97.314914
2116.000000	97.287764
2115.000000	97.290377
2114.000000	97.310580
2113.000000	97.325723
2112.000000	97.324762
2111.000000	97.312887
2110.000000	97.298108
2109.000000	97.283758
2108.000000	97.272395
2107.000000	97.266064
2106.000000	97.262335
2105.000000	97.259124
2104.000000	97.261680
2103.000000	97.274435
2102.000000	97.288712
2101.000000	97.292434
2100.000000	97.291085
2099.000000	97.303385
2098.000000	97.334430
2097.000000	97.367959
2096.000000	97.388967
2095.000000	97.398985
2094.000000	97.404729
2093.000000	97.407208
2092.000000	97.406896
2091.000000	97.405058
2090.000000	97.394915
2089.000000	97.366286
2088.000000	97.326034
2087.000000	97.300531
2086.000000	97.309208
2085.000000	97.344390
2084.000000	97.381975
2083.000000	97.403408
2082.000000	97.404290
2081.000000	97.393357
2080.000000	97.388639
2079.000000	97.402841
2078.000000	97.426598
2077.000000	97.437271
2076.000000	97.428459
2075.000000	97.418086
2074.000000	97.423606
2073.000000	97.444722
2072.000000	97.475785
2071.000000	97.517108
2070.000000	97.564044
2069.000000	97.600626
2068.000000	97.616327
2067.000000	97.617753
2066.000000	97.615846
2065.000000	97.614929
2064.000000	97.620749
2063.000000	97.642366
2062.000000	97.676310
2061.000000	97.703198
2060.000000	97.708845
2059.000000	97.696624
2058.000000	97.674327
2057.000000	97.646205
2056.000000	97.622734
2055.000000	97.616747
2054.000000	97.621162
2053.000000	97.612560
2052.000000	97.588195
2051.000000	97.577562
2050.000000	97.603766
2049.000000	97.650060
2048.000000	97.682643
2047.000000	97.694841
2046.000000	97.707081
2045.000000	97.737946
2044.000000	97.796042
2043.000000	97.881616
2042.000000	97.974600
2041.000000	98.036484
2040.000000	98.044519
2039.000000	98.009456
2038.000000	97.950526
2037.000000	97.882870
2036.000000	97.837641
2035.000000	97.854250
2034.000000	97.930777
2033.000000	98.013684
2032.000000	98.061544
2031.000000	98.087151
2030.000000	98.113750
2029.000000	98.132073
2028.000000	98.128937
2027.000000	98.118941
2026.000000	98.117294
2025.000000	98.112802
2024.000000	98.093264
2023.000000	98.066914
2022.000000	98.038369
2021.000000	97.998191
2020.000000	97.957329
2019.000000	97.953759
2018.000000	97.998586
2017.000000	98.048097
2016.000000	98.063259
2015.000000	98.064451
2014.000000	98.089135
2013.000000	98.129378
2012.000000	98.146485
2011.000000	98.124727
2010.000000	98.081759
2009.000000	98.045854
2008.000000	98.046343
2007.000000	98.100407
2006.000000	98.183177
2005.000000	98.233472
2004.000000	98.216065
2003.000000	98.158369
2002.000000	98.108727
2001.000000	98.082637
2000.000000	98.062884
1999.000000	98.030680
1998.000000	97.981096
1997.000000	97.925361
1996.000000	97.891910
1995.000000	97.907512
1994.000000	97.964418
1993.000000	98.018569
1992.000000	98.035710
1991.000000	98.027325
1990.000000	98.021826
1989.000000	98.022814
1988.000000	98.016971
1987.000000	97.999406
1986.000000	97.971363
1985.000000	97.930611
1984.000000	97.882251
1983.000000	97.843993
1982.000000	97.825818
1981.000000	97.820582
1980.000000	97.828959
1979.000000	97.874446
1978.000000	97.970986
1977.000000	98.088697
1976.000000	98.178765
1975.000000	98.219863
1974.000000	98.217342
1973.000000	98.182970
1972.000000	98.137293
1971.000000	98.104945
1970.000000	98.089020
1969.000000	98.067603
1968.000000	98.027111
1967.000000	97.983685
1966.000000	97.961285
1965.000000	97.965646
1964.000000	97.988057
1963.000000	98.014669
1962.000000	98.025482
1961.000000	98.006515
1960.000000	97.970883
1959.000000	97.947196
1958.000000	97.944466
1957.000000	97.949578
1956.000000	97.957126
1955.000000	97.976498
1954.000000	98.006537
1953.000000	98.027313
1952.000000	98.024912
1951.000000	98.006527
1950.000000	97.986006
1949.000000	97.971322
1948.000000	97.968828
1947.000000	97.981071
1946.000000	97.995671
1945.000000	97.992796
1944.000000	97.968300
1943.000000	97.936796
1942.000000	97.911018
1941.000000	97.893993
1940.000000	97.888999
1939.000000	97.896173
1938.000000	97.901388
1937.000000	97.888907
1936.000000	97.865128
1935.000000	97.849448
1934.000000	97.841831
1933.000000	97.824178
1932.000000	97.795959
1931.000000	97.781998
1930.000000	97.797825
1929.000000	97.830142
1928.000000	97.860892
1927.000000	97.888738
1926.000000	97.915400
1925.000000	97.930452
1924.000000	97.923868
1923.000000	97.902362
1922.000000	97.880560
1921.000000	97.864641
1920.000000	97.853697
1919.000000	97.846589
1918.000000	97.838267
1917.000000	97.822430
1916.000000	97.806493
1915.000000	97.806511
1914.000000	97.824174
1913.000000	97.843869
1912.000000	97.853127
1911.000000	97.854948
1910.000000	97.854584
1909.000000	97.848148
1908.000000	97.834902
1907.000000	97.824787
1906.000000	97.823755
1905.000000	97.824850
1904.000000	97.821090
1903.000000	97.816815
1902.000000	97.819070
1901.000000	97.827982
1900.000000	97.842570
1899.000000	97.863976
1898.000000	97.886432
1897.000000	97.896976
1896.000000	97.891875
1895.000000	97.883812
1894.000000	97.884964
1893.000000	97.894238
1892.000000	97.906860
1891.000000	97.922460
1890.000000	97.935978
1889.000000	97.935212
1888.000000	97.919331
1887.000000	97.902332
1886.000000	97.891428
1885.000000	97.881350
1884.000000	97.871705
1883.000000	97.873541
1882.000000	97.892121
1881.000000	97.916590
1880.000000	97.936028
1879.000000	97.952072
1878.000000	97.966855
1877.000000	97.972802
1876.000000	97.965089
1875.000000	97.952337
1874.000000	97.945000
1873.000000	97.942907
1872.000000	97.943012
1871.000000	97.949759
1870.000000	97.968220
1869.000000	97.990451
1868.000000	98.002310
1867.000000	98.002171
1866.000000	97.995219
1865.000000	97.983394
1864.000000	97.973612
1863.000000	97.977406
1862.000000	97.994290
1861.000000	98.007451
1860.000000	98.005734
1859.000000	97.999306
1858.000000	98.002923
1857.000000	98.015675
1856.000000	98.028390
1855.000000	98.039492
1854.000000	98.052146
1853.000000	98.064354
1852.000000	98.072713
1851.000000	98.077421
1850.000000	98.076081
1849.000000	98.064156
1848.000000	98.048853
1847.000000	98.048515
1846.000000	98.069073
1845.000000	98.089768
1844.000000	98.084688
1843.000000	98.061191
1842.000000	98.048703
1841.000000	98.056901
1840.000000	98.076783
1839.000000	98.099755
1838.000000	98.118350
1837.000000	98.123608
1836.000000	98.113776
1835.000000	98.100077
1834.000000	98.094281
1833.000000	98.097524
1832.000000	98.105783
1831.000000	98.117994
1830.000000	98.131243
1829.000000	98.138799
1828.000000	98.141553
1827.000000	98.145033
1826.000000	98.146202
1825.000000	98.137769
1824.000000	98.124640
1823.000000	98.122266
1822.000000	98.133301
1821.000000	98.143282
1820.000000	98.142010
1819.000000	98.135411
1818.000000	98.133234
1817.000000	98.134571
1816.000000	98.133957
1815.000000	98.132954
1814.000000	98.135325
1813.000000	98.139596
1812.000000	98.143192
1811.000000	98.146706
1810.000000	98.148975
1809.000000	98.144590
1808.000000	98.134241
1807.000000	98.128667
1806.000000	98.133648
1805.000000	98.139592
1804.000000	98.133924
1803.000000	98.117196
1802.000000	98.098660
1801.000000	98.082714
1800.000000	98.069578
1799.000000	98.062477
1798.000000	98.063212
1797.000000	98.067330
1796.000000	98.072048
1795.000000	98.080225
1794.000000	98.089956
1793.000000	98.087470
1792.000000	98.062921
1791.000000	98.033114
1790.000000	98.022771
1789.000000	98.031847
1788.000000	98.045103
1787.000000	98.053698
1786.000000	98.056589
1785.000000	98.053528
1784.000000	98.046516
1783.000000	98.041319
1782.000000	98.036818
1781.000000	98.023986
1780.000000	98.002929
1779.000000	97.987950
1778.000000	97.988271
1777.000000	97.996429
1776.000000	98.003444
1775.000000	98.009502
1774.000000	98.013218
1773.000000	98.001423
1772.000000	97.965907
1771.000000	97.926781
1770.000000	97.906441
1769.000000	97.898085
1768.000000	97.885374
1767.000000	97.867812
1766.000000	97.854187
1765.000000	97.843566
1764.000000	97.825583
1763.000000	97.793922
1762.000000	97.748827
1761.000000	97.695465
1760.000000	97.642537
1759.000000	97.592327
1758.000000	97.533701
1757.000000	97.452868
1756.000000	97.357629
1755.000000	97.272748
1754.000000	97.201749
1753.000000	97.118414
1752.000000	96.997032
1751.000000	96.841318
1750.000000	96.678982
1749.000000	96.525989
1748.000000	96.380937
1747.000000	96.244941
1746.000000	96.116203
1745.000000	95.984368
1744.000000	95.848842
1743.000000	95.727106
1742.000000	95.631412
1741.000000	95.549991
1740.000000	95.468202
1739.000000	95.397565
1738.000000	95.357549
1737.000000	95.346729
1736.000000	95.350609
1735.000000	95.369125
1734.000000	95.397474
1733.000000	95.412338
1732.000000	95.416244
1731.000000	95.422208
1730.000000	95.422129
1729.000000	95.406792
1728.000000	95.381924
1727.000000	95.359602
1726.000000	95.337956
1725.000000	95.301975
1724.000000	95.242782
1723.000000	95.169148
1722.000000	95.096018
1721.000000	95.025004
1720.000000	94.942816
1719.000000	94.833327
1718.000000	94.689226
1717.000000	94.523182
1716.000000	94.363261
1715.000000	94.226728
1714.000000	94.114412
1713.000000	94.025436
1712.000000	93.960296
1711.000000	93.919347
1710.000000	93.902712
1709.000000	93.908485
1708.000000	93.933337
1707.000000	93.977168
1706.000000	94.040509
1705.000000	94.109122
1704.000000	94.164489
1703.000000	94.207919
1702.000000	94.250626
1701.000000	94.300726
1700.000000	94.339557
1699.000000	94.350946
1698.000000	94.354107
1697.000000	94.349066
1696.000000	94.318991
1695.000000	94.271502
1694.000000	94.226924
1693.000000	94.185898
1692.000000	94.132409
1691.000000	94.061020
1690.000000	93.977250
1689.000000	93.886063
1688.000000	93.794498
1687.000000	93.708728
1686.000000	93.621673
1685.000000	93.512477
1684.000000	93.372950
1683.000000	93.244721
1682.000000	93.156567
1681.000000	93.078196
1680.000000	92.987590
1679.000000	92.896641
1678.000000	92.815329
1677.000000	92.729405
1676.000000	92.619276
1675.000000	92.491701
1674.000000	92.372300
1673.000000	92.270087
1672.000000	92.173784
1671.000000	92.074510
1670.000000	91.966281
1669.000000	91.840210
1668.000000	91.706727
1667.000000	91.589836
1666.000000	91.490380
1665.000000	91.388276
1664.000000	91.268436
1663.000000	91.137163
1662.000000	91.010332
1661.000000	90.890454
1660.000000	90.772589
1659.000000	90.657140
1658.000000	90.546449
1657.000000	90.435612
1656.000000	90.323012
1655.000000	90.212729
1654.000000	90.125006
1653.000000	90.049024
1652.000000	89.961033
1651.000000	89.894366
1650.000000	89.856410
1649.000000	89.820611
1648.000000	89.783949
1647.000000	89.763500
1646.000000	89.763288
1645.000000	89.763332
1644.000000	89.757212
1643.000000	89.753381
1642.000000	89.755924
1641.000000	89.758764
1640.000000	89.753572
1639.000000	89.743281
1638.000000	89.739697
1637.000000	89.756717
1636.000000	89.799305
1635.000000	89.845806
1634.000000	89.873624
1633.000000	89.886528
1632.000000	89.893630
1631.000000	89.903348
1630.000000	89.923891
1629.000000	89.954428
1628.000000	89.986673
1627.000000	90.014476
1626.000000	90.037742
1625.000000	90.058233
1624.000000	90.081887
1623.000000	90.116318
1622.000000	90.158021
1621.000000	90.195764
1620.000000	90.229245
1619.000000	90.273801
1618.000000	90.358294
1617.000000	90.499613
1616.000000	90.663353
1615.000000	90.803401
1614.000000	90.916944
1613.000000	91.019618
1612.000000	91.122457
1611.000000	91.232760
1610.000000	91.350582
1609.000000	91.470259
1608.000000	91.586740
1607.000000	91.698860
1606.000000	91.806346
1605.000000	91.910634
1604.000000	92.016479
1603.000000	92.126050
1602.000000	92.233677
1601.000000	92.331520
1600.000000	92.417895
1599.000000	92.496972
1598.000000	92.574440
1597.000000	92.655944
1596.000000	92.745166
1595.000000	92.840199
1594.000000	92.934378
1593.000000	93.023423
1592.000000	93.108644
1591.000000	93.191464
1590.000000	93.269772
1589.000000	93.342098
1588.000000	93.410549
1587.000000	93.476230
1586.000000	93.536501
1585.000000	93.589131
1584.000000	93.636596
1583.000000	93.681738
1582.000000	93.721935
1581.000000	93.753566
1580.000000	93.776685
1579.000000	93.792769
1578.000000	93.803665
1577.000000	93.819034
1576.000000	93.846110
1575.000000	93.873257
1574.000000	93.889707
1573.000000	93.898191
1572.000000	93.901673
1571.000000	93.900559
1570.000000	93.891431
1569.000000	93.871947
1568.000000	93.850514
1567.000000	93.830825
1566.000000	93.803884
1565.000000	93.764193
1564.000000	93.720097
1563.000000	93.675249
1562.000000	93.626412
1561.000000	93.562898
1560.000000	93.494456
1559.000000	93.414537
1558.000000	93.306047
1557.000000	93.207861
1556.000000	93.134297
1555.000000	93.059776
1554.000000	92.977056
1553.000000	92.895294
1552.000000	92.822522
1551.000000	92.752379
1550.000000	92.676903
1549.000000	92.600891
1548.000000	92.533084
1547.000000	92.471066
1546.000000	92.404450
1545.000000	92.330997
1544.000000	92.260048
1543.000000	92.202365
1542.000000	92.160495
1541.000000	92.137958
1540.000000	92.136056
1539.000000	92.142313
1538.000000	92.149270
1537.000000	92.159834
1536.000000	92.174891
1535.000000	92.203230
1534.000000	92.259439
1533.000000	92.333123
1532.000000	92.396433
1531.000000	92.444305
1530.000000	92.485502
1529.000000	92.524220
1528.000000	92.565589
1527.000000	92.619343
1526.000000	92.688886
1525.000000	92.760634
1524.000000	92.820241
1523.000000	92.871051
1522.000000	92.929218
1521.000000	92.991626
1520.000000	93.041702
1519.000000	93.086306
1518.000000	93.142164
1517.000000	93.215928
1516.000000	93.299669
1515.000000	93.382484
1514.000000	93.466195
1513.000000	93.554577
1512.000000	93.645875
1511.000000	93.730983
1510.000000	93.806108
1509.000000	93.880981
1508.000000	93.992687
1507.000000	94.173984
1506.000000	94.365737
1505.000000	94.496043
1504.000000	94.584134
1503.000000	94.664177
1502.000000	94.748666
1501.000000	94.839104
1500.000000	94.929891
1499.000000	95.019503
1498.000000	95.110050
1497.000000	95.199745
1496.000000	95.279079
1495.000000	95.347384
1494.000000	95.409652
1493.000000	95.462208
1492.000000	95.501885
1491.000000	95.538845
1490.000000	95.583329
1489.000000	95.626364
1488.000000	95.656878
1487.000000	95.679823
1486.000000	95.698979
1485.000000	95.707211
1484.000000	95.701077
1483.000000	95.685069
1482.000000	95.659222
1481.000000	95.616381
1480.000000	95.556177
1479.000000	95.486307
1478.000000	95.404987
1477.000000	95.300546
1476.000000	95.171392
1475.000000	95.027543
1474.000000	94.859955
1473.000000	94.634709
1472.000000	94.357890
1471.000000	94.089353
1470.000000	93.855700
1469.000000	93.638262
1468.000000	93.429124
1467.000000	93.240502
1466.000000	93.081374
1465.000000	92.945909
1464.000000	92.831265
1463.000000	92.741639
1462.000000	92.669287
1461.000000	92.597290
1460.000000	92.517093
1459.000000	92.429811
1458.000000	92.333090
1457.000000	92.220409
1456.000000	92.117848
1455.000000	92.061256
1454.000000	92.039922
1453.000000	92.026480
1452.000000	92.011125
1451.000000	91.994040
1450.000000	91.974485
1449.000000	91.952874
1448.000000	91.936011
1447.000000	91.927677
1446.000000	91.919311
1445.000000	91.901584
1444.000000	91.877211
1443.000000	91.853891
1442.000000	91.833512
1441.000000	91.813305
1440.000000	91.792728
1439.000000	91.771972
1438.000000	91.752149
1437.000000	91.739960
1436.000000	91.742537
1435.000000	91.756696
1434.000000	91.771857
1433.000000	91.781596
1432.000000	91.790210
1431.000000	91.804445
1430.000000	91.821298
1429.000000	91.833616
1428.000000	91.840473
1427.000000	91.844365
1426.000000	91.843408
1425.000000	91.835091
1424.000000	91.822033
1423.000000	91.805161
1422.000000	91.780161
1421.000000	91.744302
1420.000000	91.706299
1419.000000	91.677412
1418.000000	91.656438
1417.000000	91.641273
1416.000000	91.635499
1415.000000	91.639325
1414.000000	91.648143
1413.000000	91.659215
1412.000000	91.676855
1411.000000	91.705069
1410.000000	91.740543
1409.000000	91.779297
1408.000000	91.821690
1407.000000	91.868610
1406.000000	91.918996
1405.000000	91.973956
1404.000000	92.035631
1403.000000	92.097250
1402.000000	92.147013
1401.000000	92.183029
1400.000000	92.216669
1399.000000	92.256575
1398.000000	92.297998
1397.000000	92.338044
1396.000000	92.386684
1395.000000	92.452151
1394.000000	92.524358
1393.000000	92.588741
1392.000000	92.643652
1391.000000	92.691761
1390.000000	92.732682
1389.000000	92.768691
1388.000000	92.807425
1387.000000	92.851622
1386.000000	92.893719
1385.000000	92.928050
1384.000000	92.956947
1383.000000	92.982595
1382.000000	93.002808
1381.000000	93.016397
1380.000000	93.028687
1379.000000	93.047213
1378.000000	93.074603
1377.000000	93.111619
1376.000000	93.164296
1375.000000	93.240436
1374.000000	93.335961
1373.000000	93.435017
1372.000000	93.526412
1371.000000	93.608181
1370.000000	93.679704
1369.000000	93.741761
1368.000000	93.799984
1367.000000	93.860119
1366.000000	93.923121
1365.000000	93.989266
1364.000000	94.063400
1363.000000	94.149221
1362.000000	94.240399
1361.000000	94.327021
1360.000000	94.406093
1359.000000	94.478307
1358.000000	94.542563
1357.000000	94.598133
1356.000000	94.647697
1355.000000	94.695031
1354.000000	94.741090
1353.000000	94.784652
1352.000000	94.824766
1351.000000	94.861923
1350.000000	94.896741
1349.000000	94.929211
1348.000000	94.958501
1347.000000	94.982818
1346.000000	95.001506
1345.000000	95.016204
1344.000000	95.027171
1343.000000	95.029801
1342.000000	95.019220
1341.000000	94.998348
1340.000000	94.977972
1339.000000	94.967387
1338.000000	94.968628
1337.000000	94.980680
1336.000000	95.002046
1335.000000	95.028012
1334.000000	95.051680
1333.000000	95.070388
1332.000000	95.087790
1331.000000	95.107753
1330.000000	95.129184
1329.000000	95.148453
1328.000000	95.163329
1327.000000	95.173060
1326.000000	95.178043
1325.000000	95.181614
1324.000000	95.188401
1323.000000	95.198847
1322.000000	95.209237
1321.000000	95.218362
1320.000000	95.230635
1319.000000	95.251073
1318.000000	95.280536
1317.000000	95.316982
1316.000000	95.357606
1315.000000	95.398678
1314.000000	95.437446
1313.000000	95.475681
1312.000000	95.517086
1311.000000	95.560218
1310.000000	95.598538
1309.000000	95.628765
1308.000000	95.654288
1307.000000	95.679215
1306.000000	95.703207
1305.000000	95.724594
1304.000000	95.744580
1303.000000	95.765307
1302.000000	95.787071
1301.000000	95.809792
1300.000000	95.834618
1299.000000	95.861703
1298.000000	95.888306
1297.000000	95.910746
1296.000000	95.927042
1295.000000	95.937166
1294.000000	95.942785
1293.000000	95.946799
1292.000000	95.950563
1291.000000	95.951393
1290.000000	95.945286
1289.000000	95.932528
1288.000000	95.917685
1287.000000	95.903915
1286.000000	95.890574
1285.000000	95.876837
1284.000000	95.863966
1283.000000	95.852588
1282.000000	95.841196
1281.000000	95.829432
1280.000000	95.820419
1279.000000	95.817182
1278.000000	95.818425
1277.000000	95.819934
1276.000000	95.819149
1275.000000	95.816918
1274.000000	95.815564
1273.000000	95.816503
1272.000000	95.818957
1271.000000	95.820091
1270.000000	95.816597
1269.000000	95.805980
1268.000000	95.786316
1267.000000	95.757184
1266.000000	95.723415
1265.000000	95.695294
1264.000000	95.680381
1263.000000	95.675140
1262.000000	95.668341
1261.000000	95.653326
1260.000000	95.633232
1259.000000	95.613993
1258.000000	95.597362
1257.000000	95.582492
1256.000000	95.569348
1255.000000	95.557353
1254.000000	95.543945
1253.000000	95.527305
1252.000000	95.508305
1251.000000	95.487895
1250.000000	95.465109
1249.000000	95.439714
1248.000000	95.414321
1247.000000	95.391207
1246.000000	95.369005
1245.000000	95.344862
1244.000000	95.318310
1243.000000	95.291369
1242.000000	95.266726
1241.000000	95.247346
1240.000000	95.235607
1239.000000	95.230516
1238.000000	95.227538
1237.000000	95.223730
1236.000000	95.221093
1235.000000	95.223021
1234.000000	95.229813
1233.000000	95.239763
1232.000000	95.252603
1231.000000	95.268851
1230.000000	95.287633
1229.000000	95.308127
1228.000000	95.331589
1227.000000	95.359883
1226.000000	95.393117
1225.000000	95.430383
1224.000000	95.470810
1223.000000	95.511537
1222.000000	95.546598
1221.000000	95.570687
1220.000000	95.583560
1219.000000	95.589210
1218.000000	95.591869
1217.000000	95.593161
1216.000000	95.591119
1215.000000	95.580656
1214.000000	95.555576
1213.000000	95.512212
1212.000000	95.449392
1211.000000	95.364565
1210.000000	95.252850
1209.000000	95.109295
1208.000000	94.931979
1207.000000	94.721027
1206.000000	94.475956
1205.000000	94.197029
1204.000000	93.887457
1203.000000	93.555154
1202.000000	93.212463
1201.000000	92.875235
1200.000000	92.560682
1199.000000	92.282788
1198.000000	92.048977
1197.000000	91.863923
1196.000000	91.735844
1195.000000	91.671459
1194.000000	91.669079
1193.000000	91.721125
1192.000000	91.821770
1191.000000	91.966364
1190.000000	92.142105
1189.000000	92.329961
1188.000000	92.514259
1187.000000	92.684469
1186.000000	92.830677
1185.000000	92.944833
1184.000000	93.026465
1183.000000	93.081015
1182.000000	93.112209
1181.000000	93.118839
1180.000000	93.100517
1179.000000	93.060607
1178.000000	93.002677
1177.000000	92.928539
1176.000000	92.838719
1175.000000	92.732944
1174.000000	92.608660
1173.000000	92.462678
1172.000000	92.295805
1171.000000	92.111504
1170.000000	91.911129
1169.000000	91.692941
1168.000000	91.455816
1167.000000	91.201355
1166.000000	90.931744
1165.000000	90.650746
1164.000000	90.366583
1163.000000	90.088882
1162.000000	89.822031
1161.000000	89.566488
1160.000000	89.326208
1159.000000	89.108301
1158.000000	88.915534
1157.000000	88.744981
1156.000000	88.595078
1155.000000	88.465399
1154.000000	88.349636
1153.000000	88.238202
1152.000000	88.127422
1151.000000	88.018892
1150.000000	87.909581
1149.000000	87.791859
1148.000000	87.663231
1147.000000	87.526271
1146.000000	87.378213
1145.000000	87.210617
1144.000000	87.020294
1143.000000	86.810281
1142.000000	86.580186
1141.000000	86.326635
1140.000000	86.057171
1139.000000	85.795189
1138.000000	85.571127
1137.000000	85.415544
1136.000000	85.358514
1135.000000	85.418033
1134.000000	85.580795
1133.000000	85.805586
1132.000000	86.043495
1131.000000	86.245618
1130.000000	86.358338
1129.000000	86.334668
1128.000000	86.159195
1127.000000	85.858773
1126.000000	85.490050
1125.000000	85.124050
1124.000000	84.836295
1123.000000	84.685767
1122.000000	84.686473
1121.000000	84.805422
1120.000000	84.993780
1119.000000	85.210790
1118.000000	85.426454
1117.000000	85.620845
1116.000000	85.788268
1115.000000	85.932139
1114.000000	86.051331
1113.000000	86.140400
1112.000000	86.202116
1111.000000	86.247919
1110.000000	86.283383
1109.000000	86.305024
1108.000000	86.310560
1107.000000	86.301430
1106.000000	86.275132
1105.000000	86.225018
1104.000000	86.150115
1103.000000	86.052967
1102.000000	85.927547
1101.000000	85.762305
1100.000000	85.553680
1099.000000	85.307910
1098.000000	85.027449
1097.000000	84.708485
1096.000000	84.353914
1095.000000	83.973306
1094.000000	83.570916
1093.000000	83.148964
1092.000000	82.726803
1091.000000	82.339584
1090.000000	82.012785
1089.000000	81.751535
1088.000000	81.558517
1087.000000	81.444402
1086.000000	81.411135
1085.000000	81.445620
1084.000000	81.534096
1083.000000	81.668723
1082.000000	81.839316
1081.000000	82.032311
1080.000000	82.243980
1079.000000	82.477395
1078.000000	82.725277
1077.000000	82.973067
1076.000000	83.217683
1075.000000	83.467918
1074.000000	83.725468
1073.000000	83.981591
1072.000000	84.231422
1071.000000	84.475142
1070.000000	84.705646
1069.000000	84.911999
1068.000000	85.095326
1067.000000	85.263994
1066.000000	85.414495
1065.000000	85.533649
1064.000000	85.621089
1063.000000	85.692920
1062.000000	85.759951
1061.000000	85.819203
1060.000000	85.869229
1059.000000	85.917398
1058.000000	85.967912
1057.000000	86.017126
1056.000000	86.065800
1055.000000	86.121603
1054.000000	86.184014
1053.000000	86.239980
1052.000000	86.279292
1051.000000	86.303279
1050.000000	86.314321
1049.000000	86.309325
1048.000000	86.288557
1047.000000	86.258045
1046.000000	86.219624
1045.000000	86.169717
1044.000000	86.109902
1043.000000	86.047864
1042.000000	85.985276
1041.000000	85.916334
1040.000000	85.839799
1039.000000	85.759807
1038.000000	85.674149
1037.000000	85.575800
1036.000000	85.469763
1035.000000	85.374207
1034.000000	85.300845
1033.000000	85.246500
1032.000000	85.208204
1031.000000	85.192351
1030.000000	85.202697
1029.000000	85.233354
1028.000000	85.278559
1027.000000	85.338813
1026.000000	85.412223
1025.000000	85.490314
1024.000000	85.567839
1023.000000	85.647100
1022.000000	85.730161
1021.000000	85.815772
1020.000000	85.904709
1019.000000	85.998294
1018.000000	86.091199
1017.000000	86.176652
1016.000000	86.258225
1015.000000	86.344785
1014.000000	86.435152
1013.000000	86.521091
1012.000000	86.605112
1011.000000	86.699715
1010.000000	86.807167
1009.000000	86.914641
1008.000000	87.013139
1007.000000	87.107736
1006.000000	87.205302
1005.000000	87.305233
1004.000000	87.407408
1003.000000	87.517607
1002.000000	87.639129
1001.000000	87.768979
1000.000000	87.906455
999.000000	88.056667
998.000000	88.221178
997.000000	88.393704
996.000000	88.568519
995.000000	88.744340
994.000000	88.917822
993.000000	89.082869
992.000000	89.240095
991.000000	89.398286
990.000000	89.562645
989.000000	89.728984
988.000000	89.892492
987.000000	90.053623
986.000000	90.211359
985.000000	90.359197
984.000000	90.493930
983.000000	90.623128
982.000000	90.759054
981.000000	90.908363
980.000000	91.069477
979.000000	91.234885
978.000000	91.393572
977.000000	91.536841
976.000000	91.665459
975.000000	91.788203
974.000000	91.911955
973.000000	92.037148
972.000000	92.163154
971.000000	92.291794
970.000000	92.423139
969.000000	92.553112
968.000000	92.678452
967.000000	92.800438
966.000000	92.921472
965.000000	93.041411
964.000000	93.159213
963.000000	93.274816
962.000000	93.388015
961.000000	93.498582
960.000000	93.608643
959.000000	93.721102
958.000000	93.834106
957.000000	93.941014
956.000000	94.037917
955.000000	94.127956
954.000000	94.216068
953.000000	94.302404
952.000000	94.383748
951.000000	94.459248
950.000000	94.531336
949.000000	94.601795
948.000000	94.669616
947.000000	94.733432
946.000000	94.794162
945.000000	94.853340
944.000000	94.909254
943.000000	94.956758
942.000000	94.993257
941.000000	95.023765
940.000000	95.056577
939.000000	95.094005
938.000000	95.130778
937.000000	95.163072
936.000000	95.195139
935.000000	95.234316
934.000000	95.282917
933.000000	95.338087
932.000000	95.396328
931.000000	95.453984
930.000000	95.505924
929.000000	95.548467
928.000000	95.582384
927.000000	95.610005
926.000000	95.632088
925.000000	95.651092
924.000000	95.674193
923.000000	95.707192
922.000000	95.747019
921.000000	95.785949
920.000000	95.821622
919.000000	95.857323
918.000000	95.893849
917.000000	95.928302
916.000000	95.960957
915.000000	95.996632
914.000000	96.038061
913.000000	96.083827
912.000000	96.134387
911.000000	96.193557
910.000000	96.261739
909.000000	96.333467
908.000000	96.405487
907.000000	96.482414
906.000000	96.569973
905.000000	96.665633
904.000000	96.759235
903.000000	96.841623
902.000000	96.910999
901.000000	96.973506
900.000000	97.039647
899.000000	97.117029
898.000000	97.203429
897.000000	97.288291
896.000000	97.363155
895.000000	97.429268
894.000000	97.493111
893.000000	97.556595
892.000000	97.615070
891.000000	97.664519
890.000000	97.707593
889.000000	97.750810
888.000000	97.796445
887.000000	97.836816
886.000000	97.856349
885.000000	97.839952
884.000000	97.780821
883.000000	97.679998
882.000000	97.536065
881.000000	97.337839
880.000000	97.071709
879.000000	96.740266
878.000000	96.373403
877.000000	96.021272
876.000000	95.737810
875.000000	95.566501
874.000000	95.531291
873.000000	95.630816
872.000000	95.840422
871.000000	96.119447
870.000000	96.421767
869.000000	96.706968
868.000000	96.947490
867.000000	97.132804
866.000000	97.269729
865.000000	97.376140
864.000000	97.468341
863.000000	97.552409
862.000000	97.626513
861.000000	97.689841
860.000000	97.746168
859.000000	97.798817
858.000000	97.846635
857.000000	97.886436
856.000000	97.917664
855.000000	97.943304
854.000000	97.967655
853.000000	97.994081
852.000000	98.022637
851.000000	98.048669
850.000000	98.066113
849.000000	98.074421
848.000000	98.081117
847.000000	98.095059
846.000000	98.117419
845.000000	98.140991
844.000000	98.157353
843.000000	98.162717
842.000000	98.157634
841.000000	98.144540
840.000000	98.127610
839.000000	98.113330
838.000000	98.107999
837.000000	98.113196
836.000000	98.124643
835.000000	98.136452
834.000000	98.146522
833.000000	98.156661
832.000000	98.166478
831.000000	98.169385
830.000000	98.158017
829.000000	98.134103
828.000000	98.110251
827.000000	98.099666
826.000000	98.105517
825.000000	98.121703
824.000000	98.141337
823.000000	98.160932
822.000000	98.177253
821.000000	98.184832
820.000000	98.178985
819.000000	98.160437
818.000000	98.136232
817.000000	98.115703
816.000000	98.104734
815.000000	98.103441
814.000000	98.109551
813.000000	98.123035
812.000000	98.144664
811.000000	98.169591
810.000000	98.186407
809.000000	98.186150
808.000000	98.170687
807.000000	98.149724
806.000000	98.130667
805.000000	98.113226
804.000000	98.092690
803.000000	98.066733
802.000000	98.040433
801.000000	98.025398
800.000000	98.029960
799.000000	98.047716
798.000000	98.060040
797.000000	98.054726
796.000000	98.039684
795.000000	98.033618
794.000000	98.046279
793.000000	98.073084
792.000000	98.104840
791.000000	98.134536
790.000000	98.156168
789.000000	98.165779
788.000000	98.165683
787.000000	98.161890
786.000000	98.156004
785.000000	98.144535
784.000000	98.126547
783.000000	98.105502
782.000000	98.082620
781.000000	98.054844
780.000000	98.021776
779.000000	97.989476
778.000000	97.964723
777.000000	97.949327
776.000000	97.941651
775.000000	97.938674
774.000000	97.934012
773.000000	97.918351
772.000000	97.885005
771.000000	97.832812
770.000000	97.763312
769.000000	97.679355
768.000000	97.586942
767.000000	97.493334
766.000000	97.401815
765.000000	97.312652
764.000000	97.229309
763.000000	97.157294
762.000000	97.095307
761.000000	97.034736
760.000000	96.970753
759.000000	96.907110
758.000000	96.847460
757.000000	96.790163
756.000000	96.737125
755.000000	96.701221
754.000000	96.697242
753.000000	96.728339
752.000000	96.786183
751.000000	96.860867
750.000000	96.945546
749.000000	97.034358
748.000000	97.121667
747.000000	97.203259
746.000000	97.276865
745.000000	97.343624
744.000000	97.409791
743.000000	97.482799
742.000000	97.562939
741.000000	97.642042
740.000000	97.712649
739.000000	97.775338
738.000000	97.835191
737.000000	97.894992
736.000000	97.953614
735.000000	98.006006
734.000000	98.042002
733.000000	98.051211
732.000000	98.035010
731.000000	98.010737
730.000000	97.998045
729.000000	98.000962
728.000000	98.007509
727.000000	98.004903
726.000000	97.990136
725.000000	97.967311
724.000000	97.939276
723.000000	97.903858
722.000000	97.859095
721.000000	97.813507
720.000000	97.787829
719.000000	97.798062
718.000000	97.833680
717.000000	97.856731
716.000000	97.827419
715.000000	97.735612
714.000000	97.614257
713.000000	97.523731
712.000000	97.512929
711.000000	97.582259
710.000000	97.684076
709.000000	97.765521
708.000000	97.810174
707.000000	97.834939
706.000000	97.854102
705.000000	97.864663
704.000000	97.865979
703.000000	97.871151
702.000000	97.890182
701.000000	97.915564
700.000000	97.932822
699.000000	97.936263
698.000000	97.927966
697.000000	97.913229
696.000000	97.905072
695.000000	97.919445
694.000000	97.958495
693.000000	98.007535
692.000000	98.054722
691.000000	98.103676
690.000000	98.156181
689.000000	98.196440
688.000000	98.207633
687.000000	98.195515
686.000000	98.181433
685.000000	98.177901
684.000000	98.181949
683.000000	98.185670
682.000000	98.180878
681.000000	98.158176
680.000000	98.111928
679.000000	98.043499
678.000000	97.953272
677.000000	97.835836
676.000000	97.693470
675.000000	97.542813
674.000000	97.403272
673.000000	97.289567
672.000000	97.214211
671.000000	97.184312
670.000000	97.198815
669.000000	97.255820
668.000000	97.342351
667.000000	97.447567
666.000000	97.574899
665.000000	97.679157
664.000000	97.712976
663.000000	97.643286
662.000000	97.419781
661.000000	96.977446
660.000000	96.291526
659.000000	95.458628
658.000000	94.703026
657.000000	94.260965
656.000000	94.261117
655.000000	94.677012
654.000000	95.332446
653.000000	95.996390
652.000000	96.520195
651.000000	96.869628
650.000000	97.041183
649.000000	96.996700
648.000000	96.708603
647.000000	96.246735
646.000000	95.784198
645.000000	95.504904
644.000000	95.507741
643.000000	95.771486
642.000000	96.177033
641.000000	96.585063
640.000000	96.920962
639.000000	97.184255
638.000000	97.392325
637.000000	97.546770
636.000000	97.653038
635.000000	97.735542
634.000000	97.813056
633.000000	97.879924
632.000000	97.927000
631.000000	97.964179
630.000000	98.006109
629.000000	98.052307
628.000000	98.096964
627.000000	98.139350
626.000000	98.168343
625.000000	98.154951
624.000000	98.076429
623.000000	97.932931
622.000000	97.729206
621.000000	97.457318
620.000000	97.113048
619.000000	96.717773
618.000000	96.312433
617.000000	95.942858
616.000000	95.658482
615.000000	95.496173
614.000000	95.440866
613.000000	95.421671
612.000000	95.363759
611.000000	95.225664
610.000000	94.981553
609.000000	94.607177
608.000000	94.112529
607.000000	93.565076
606.000000	93.047720
605.000000	92.605807
604.000000	92.248763
603.000000	91.965599
602.000000	91.709954
601.000000	91.411997
600.000000	91.045807
599.000000	90.657129
598.000000	90.297302
597.000000	89.968841
596.000000	89.670930
595.000000	89.451117
594.000000	89.366378
593.000000	89.423995
592.000000	89.602869
591.000000	89.894208
590.000000	90.278477
589.000000	90.703448
588.000000	91.121390
587.000000	91.519647
586.000000	91.892638
585.000000	92.218574
584.000000	92.490050
583.000000	92.735902
582.000000	92.984870
581.000000	93.234269
580.000000	93.474182
579.000000	93.707030
578.000000	93.920778
577.000000	94.082030
576.000000	94.186239
575.000000	94.281637
574.000000	94.406842
573.000000	94.539188
572.000000	94.640905
571.000000	94.716743
570.000000	94.793919
569.000000	94.874006
568.000000	94.944264
567.000000	95.012205
566.000000	95.089032
565.000000	95.161745
564.000000	95.212531
563.000000	95.240969
562.000000	95.246629
561.000000	95.222706
560.000000	95.192379
559.000000	95.213271
558.000000	95.306785
557.000000	95.419698
556.000000	95.493031
555.000000	95.530977
554.000000	95.564800
553.000000	95.591867
552.000000	95.598799
551.000000	95.605800
550.000000	95.636654
549.000000	95.672809
548.000000	95.685503
547.000000	95.686195
546.000000	95.701438
545.000000	95.724789
544.000000	95.741139
543.000000	95.764143
542.000000	95.805213
541.000000	95.839634
540.000000	95.841922
539.000000	95.818428
538.000000	95.771997
537.000000	95.680262
536.000000	95.551948
535.000000	95.459372
534.000000	95.460255
533.000000	95.527700
532.000000	95.608947
531.000000	95.699161
530.000000	95.798125
529.000000	95.854157
528.000000	95.822078
527.000000	95.738603
526.000000	95.683993
525.000000	95.687537
524.000000	95.730450
523.000000	95.812213
522.000000	95.941549
521.000000	96.095520
520.000000	96.247533
519.000000	96.403564
518.000000	96.560545
517.000000	96.674580
516.000000	96.727206
515.000000	96.759228
514.000000	96.789255
513.000000	96.776133
512.000000	96.718765
511.000000	96.716920
510.000000	96.850695
509.000000	97.061304
508.000000	97.239212
507.000000	97.369486
506.000000	97.498242
505.000000	97.616335
504.000000	97.680570
503.000000	97.701377
502.000000	97.716899
501.000000	97.711938
500.000000	97.661353
499.000000	97.616943
498.000000	97.654778
497.000000	97.769752
496.000000	97.900634
495.000000	98.031095
494.000000	98.176842
493.000000	98.298002
492.000000	98.327023
491.000000	98.269681
490.000000	98.190568
489.000000	98.114269
488.000000	98.023322
487.000000	97.930710
486.000000	97.873435
485.000000	97.854307
484.000000	97.861749
483.000000	97.911892
482.000000	97.986727
481.000000	97.989609
480.000000	97.850083
479.000000	97.619120
478.000000	97.388630
477.000000	97.166886
476.000000	96.921702
475.000000	96.695307
474.000000	96.561641
473.000000	96.494831
472.000000	96.410851
471.000000	96.329374
470.000000	96.328340
469.000000	96.386521
468.000000	96.433037
467.000000	96.476707
466.000000	96.554686
465.000000	96.603105
464.000000	96.533923
463.000000	96.409254
462.000000	96.387958
461.000000	96.496732
460.000000	96.627647
459.000000	96.765588
458.000000	97.027768
457.000000	97.427211
456.000000	97.796525
455.000000	98.024674
454.000000	98.120774
453.000000	98.107220
452.000000	98.014143
451.000000	97.954408
450.000000	98.036664
