PE IR       SUBTECH     SPECTRUM    ASCII       PEDS        4.00        
   -1
Veau1-F001_1.ASC
23/09/14
14:03:53.00
23/09/14
14:07:53.00
uco
Sample 001 By uco Date Thursday, September 14 2023
450.000000
#HDR
-1
-1
#GR
cm-1
%T
1.0
0.0
4000.000000
-1.000000
3551
8
99.574583
91.501858
#DATA
4000.000000	99.495943
3999.000000	99.496120
3998.000000	99.495485
3997.000000	99.487598
3996.000000	99.482671
3995.000000	99.477519
3994.000000	99.472678
3993.000000	99.468490
3992.000000	99.465605
3991.000000	99.464933
3990.000000	99.466774
3989.000000	99.470143
3988.000000	99.473229
3987.000000	99.474713
3986.000000	99.474518
3985.000000	99.473317
3984.000000	99.471697
3983.000000	99.469960
3982.000000	99.468440
3981.000000	99.467482
3980.000000	99.467065
3979.000000	99.466721
3978.000000	99.465844
3977.000000	99.464086
3976.000000	99.461533
3975.000000	99.458555
3974.000000	99.455481
3973.000000	99.452424
3972.000000	99.449596
3971.000000	99.447680
3970.000000	99.447569
3969.000000	99.449491
3968.000000	99.452330
3967.000000	99.454299
3966.000000	99.454694
3965.000000	99.454675
3964.000000	99.455968
3963.000000	99.458775
3962.000000	99.461179
3961.000000	99.460809
3960.000000	99.457478
3959.000000	99.453681
3958.000000	99.452435
3957.000000	99.454669
3956.000000	99.458017
3955.000000	99.458337
3954.000000	99.453177
3953.000000	99.444131
3952.000000	99.435828
3951.000000	99.432446
3950.000000	99.434752
3949.000000	99.440059
3948.000000	99.444780
3947.000000	99.447107
3946.000000	99.447443
3945.000000	99.446758
3944.000000	99.445251
3943.000000	99.442794
3942.000000	99.440412
3941.000000	99.440046
3940.000000	99.442835
3939.000000	99.447940
3938.000000	99.453050
3937.000000	99.456154
3936.000000	99.456598
3935.000000	99.454869
3934.000000	99.452078
3933.000000	99.449537
3932.000000	99.448385
3931.000000	99.448783
3930.000000	99.449921
3929.000000	99.450828
3928.000000	99.450685
3927.000000	99.449140
3926.000000	99.445948
3925.000000	99.441301
3924.000000	99.436986
3923.000000	99.435343
3922.000000	99.436531
3921.000000	99.438178
3920.000000	99.437980
3919.000000	99.435969
3918.000000	99.433534
3917.000000	99.431501
3916.000000	99.430674
3915.000000	99.432704
3914.000000	99.438881
3913.000000	99.447812
3912.000000	99.455797
3911.000000	99.458817
3910.000000	99.454818
3909.000000	99.444687
3908.000000	99.431808
3907.000000	99.420455
3906.000000	99.414485
3905.000000	99.415936
3904.000000	99.424305
3903.000000	99.436831
3902.000000	99.449532
3901.000000	99.458847
3900.000000	99.462499
3899.000000	99.461036
3898.000000	99.457846
3897.000000	99.456053
3896.000000	99.456600
3895.000000	99.459085
3894.000000	99.463105
3893.000000	99.467798
3892.000000	99.470825
3891.000000	99.469656
3890.000000	99.465728
3889.000000	99.463367
3888.000000	99.464417
3887.000000	99.465565
3886.000000	99.461945
3885.000000	99.454302
3884.000000	99.449612
3883.000000	99.452312
3882.000000	99.458866
3881.000000	99.462423
3880.000000	99.460397
3879.000000	99.456890
3878.000000	99.457983
3877.000000	99.465285
3876.000000	99.473916
3875.000000	99.475933
3874.000000	99.467813
3873.000000	99.455352
3872.000000	99.448566
3871.000000	99.450678
3870.000000	99.455067
3869.000000	99.455536
3868.000000	99.455272
3867.000000	99.459943
3866.000000	99.468163
3865.000000	99.473907
3864.000000	99.475258
3863.000000	99.475093
3862.000000	99.474790
3861.000000	99.472375
3860.000000	99.466016
3859.000000	99.455673
3858.000000	99.442805
3857.000000	99.430521
3856.000000	99.424820
3855.000000	99.429995
3854.000000	99.441069
3853.000000	99.447574
3852.000000	99.449752
3851.000000	99.456451
3850.000000	99.467528
3849.000000	99.475122
3848.000000	99.475449
3847.000000	99.471744
3846.000000	99.469277
3845.000000	99.470665
3844.000000	99.475112
3843.000000	99.479725
3842.000000	99.482728
3841.000000	99.484932
3840.000000	99.487650
3839.000000	99.490573
3838.000000	99.492067
3837.000000	99.490816
3836.000000	99.488028
3835.000000	99.485699
3834.000000	99.484110
3833.000000	99.481540
3832.000000	99.475989
3831.000000	99.468246
3830.000000	99.461900
3829.000000	99.459370
3828.000000	99.459307
3827.000000	99.458270
3826.000000	99.455531
3825.000000	99.455377
3824.000000	99.463210
3823.000000	99.478038
3822.000000	99.490447
3821.000000	99.490907
3820.000000	99.482567
3819.000000	99.477961
3818.000000	99.483493
3817.000000	99.493591
3816.000000	99.496620
3815.000000	99.489637
3814.000000	99.482027
3813.000000	99.481299
3812.000000	99.485113
3811.000000	99.488694
3810.000000	99.491665
3809.000000	99.495812
3808.000000	99.498664
3807.000000	99.493217
3806.000000	99.478181
3805.000000	99.462453
3804.000000	99.455332
3803.000000	99.458039
3802.000000	99.463853
3801.000000	99.465289
3800.000000	99.464469
3799.000000	99.468069
3798.000000	99.475396
3797.000000	99.479355
3796.000000	99.475936
3795.000000	99.469189
3794.000000	99.466455
3793.000000	99.470546
3792.000000	99.477668
3791.000000	99.481735
3790.000000	99.478935
3789.000000	99.470062
3788.000000	99.459624
3787.000000	99.452698
3786.000000	99.451286
3785.000000	99.453458
3784.000000	99.456271
3783.000000	99.459264
3782.000000	99.463424
3781.000000	99.467863
3780.000000	99.470096
3779.000000	99.469627
3778.000000	99.469410
3777.000000	99.472080
3776.000000	99.476535
3775.000000	99.478906
3774.000000	99.477304
3773.000000	99.474052
3772.000000	99.472655
3771.000000	99.473318
3770.000000	99.473767
3769.000000	99.474096
3768.000000	99.477105
3767.000000	99.483403
3766.000000	99.489021
3765.000000	99.489659
3764.000000	99.486840
3763.000000	99.486795
3762.000000	99.492653
3761.000000	99.500623
3760.000000	99.504298
3759.000000	99.501052
3758.000000	99.492450
3757.000000	99.480211
3756.000000	99.465540
3755.000000	99.450286
3754.000000	99.437931
3753.000000	99.432978
3752.000000	99.438987
3751.000000	99.454278
3750.000000	99.469066
3749.000000	99.475024
3748.000000	99.474786
3747.000000	99.476337
3746.000000	99.483575
3745.000000	99.489554
3744.000000	99.483998
3743.000000	99.472247
3742.000000	99.467799
3741.000000	99.470996
3740.000000	99.474072
3739.000000	99.475232
3738.000000	99.478915
3737.000000	99.486961
3736.000000	99.495349
3735.000000	99.500172
3734.000000	99.502760
3733.000000	99.503863
3732.000000	99.500782
3731.000000	99.493582
3730.000000	99.486356
3729.000000	99.481696
3728.000000	99.477238
3727.000000	99.469098
3726.000000	99.458128
3725.000000	99.450779
3724.000000	99.451465
3723.000000	99.457403
3722.000000	99.463214
3721.000000	99.467078
3720.000000	99.471048
3719.000000	99.476696
3718.000000	99.482161
3717.000000	99.484198
3716.000000	99.482972
3715.000000	99.481954
3714.000000	99.483500
3713.000000	99.486376
3712.000000	99.488047
3711.000000	99.488665
3710.000000	99.489562
3709.000000	99.490386
3708.000000	99.489738
3707.000000	99.486975
3706.000000	99.483630
3705.000000	99.481581
3704.000000	99.481372
3703.000000	99.481649
3702.000000	99.480751
3701.000000	99.479099
3700.000000	99.479662
3699.000000	99.485405
3698.000000	99.495577
3697.000000	99.504624
3696.000000	99.506471
3695.000000	99.499713
3694.000000	99.487418
3693.000000	99.474443
3692.000000	99.466097
3691.000000	99.467219
3690.000000	99.477449
3689.000000	99.488044
3688.000000	99.490581
3687.000000	99.487614
3686.000000	99.486252
3685.000000	99.487067
3684.000000	99.485688
3683.000000	99.479041
3682.000000	99.466649
3681.000000	99.447310
3680.000000	99.418302
3679.000000	99.380400
3678.000000	99.341704
3677.000000	99.314063
3676.000000	99.305656
3675.000000	99.316387
3674.000000	99.339158
3673.000000	99.367645
3672.000000	99.397384
3671.000000	99.420945
3670.000000	99.430291
3669.000000	99.426695
3668.000000	99.419997
3667.000000	99.416384
3666.000000	99.414883
3665.000000	99.411719
3664.000000	99.403990
3663.000000	99.391127
3662.000000	99.375222
3661.000000	99.360296
3660.000000	99.350385
3659.000000	99.347333
3658.000000	99.349345
3657.000000	99.351132
3656.000000	99.347423
3655.000000	99.338655
3654.000000	99.330200
3653.000000	99.325896
3652.000000	99.325319
3651.000000	99.324679
3650.000000	99.317950
3649.000000	99.301543
3648.000000	99.281250
3647.000000	99.268257
3646.000000	99.266266
3645.000000	99.269725
3644.000000	99.271721
3643.000000	99.268903
3642.000000	99.261318
3641.000000	99.249906
3640.000000	99.234633
3639.000000	99.215456
3638.000000	99.195670
3637.000000	99.181746
3636.000000	99.178034
3635.000000	99.181870
3634.000000	99.185721
3633.000000	99.185364
3632.000000	99.183271
3631.000000	99.182682
3630.000000	99.179714
3629.000000	99.165475
3628.000000	99.141727
3627.000000	99.122297
3626.000000	99.113123
3625.000000	99.107511
3624.000000	99.097519
3623.000000	99.082470
3622.000000	99.068059
3621.000000	99.059502
3620.000000	99.056073
3619.000000	99.052218
3618.000000	99.043713
3617.000000	99.031623
3616.000000	99.019528
3615.000000	99.009149
3614.000000	98.999816
3613.000000	98.990649
3612.000000	98.981854
3611.000000	98.973582
3610.000000	98.964447
3609.000000	98.952350
3608.000000	98.937533
3607.000000	98.923191
3606.000000	98.912132
3605.000000	98.904706
3604.000000	98.899966
3603.000000	98.897075
3602.000000	98.895411
3601.000000	98.894248
3600.000000	98.892914
3599.000000	98.890727
3598.000000	98.885479
3597.000000	98.874302
3596.000000	98.857108
3595.000000	98.837646
3594.000000	98.820054
3593.000000	98.804912
3592.000000	98.789402
3591.000000	98.771665
3590.000000	98.753252
3589.000000	98.737877
3588.000000	98.728275
3587.000000	98.723543
3586.000000	98.720732
3585.000000	98.717273
3584.000000	98.711135
3583.000000	98.700756
3582.000000	98.686524
3581.000000	98.671251
3580.000000	98.658719
3579.000000	98.650855
3578.000000	98.646009
3577.000000	98.640100
3576.000000	98.629141
3575.000000	98.611418
3574.000000	98.587704
3573.000000	98.560861
3572.000000	98.534016
3571.000000	98.508957
3570.000000	98.485710
3569.000000	98.463866
3568.000000	98.444212
3567.000000	98.429734
3566.000000	98.423415
3565.000000	98.424750
3564.000000	98.428726
3563.000000	98.428975
3562.000000	98.421716
3561.000000	98.407688
3560.000000	98.390578
3559.000000	98.373722
3558.000000	98.358083
3557.000000	98.343522
3556.000000	98.330828
3555.000000	98.321685
3554.000000	98.316450
3553.000000	98.312715
3552.000000	98.306534
3551.000000	98.294694
3550.000000	98.275808
3549.000000	98.250285
3548.000000	98.221193
3547.000000	98.195058
3546.000000	98.179219
3545.000000	98.175903
3544.000000	98.179491
3543.000000	98.180564
3542.000000	98.172683
3541.000000	98.155820
3540.000000	98.134603
3539.000000	98.114208
3538.000000	98.097260
3537.000000	98.083703
3536.000000	98.072570
3535.000000	98.063334
3534.000000	98.055857
3533.000000	98.049433
3532.000000	98.042306
3531.000000	98.032301
3530.000000	98.018353
3529.000000	98.001731
3528.000000	97.985196
3527.000000	97.970738
3526.000000	97.958564
3525.000000	97.948294
3524.000000	97.939953
3523.000000	97.932991
3522.000000	97.925033
3521.000000	97.913128
3520.000000	97.896465
3519.000000	97.877198
3518.000000	97.858471
3517.000000	97.841887
3516.000000	97.826975
3515.000000	97.812236
3514.000000	97.796450
3513.000000	97.779319
3512.000000	97.761461
3511.000000	97.744163
3510.000000	97.729054
3509.000000	97.717602
3508.000000	97.710461
3507.000000	97.707001
3506.000000	97.705088
3505.000000	97.701597
3504.000000	97.693720
3503.000000	97.680800
3502.000000	97.665126
3501.000000	97.650308
3500.000000	97.638632
3499.000000	97.630052
3498.000000	97.623285
3497.000000	97.616890
3496.000000	97.609418
3495.000000	97.599420
3494.000000	97.586550
3493.000000	97.572591
3492.000000	97.560161
3491.000000	97.549986
3490.000000	97.540039
3489.000000	97.527715
3488.000000	97.512345
3487.000000	97.495276
3486.000000	97.478388
3485.000000	97.463483
3484.000000	97.452648
3483.000000	97.447454
3482.000000	97.447084
3481.000000	97.448055
3480.000000	97.446666
3479.000000	97.441593
3478.000000	97.433846
3477.000000	97.424903
3476.000000	97.415339
3475.000000	97.404877
3474.000000	97.393201
3473.000000	97.380556
3472.000000	97.367676
3471.000000	97.355343
3470.000000	97.344218
3469.000000	97.334939
3468.000000	97.327802
3467.000000	97.322182
3466.000000	97.316607
3465.000000	97.309715
3464.000000	97.301007
3463.000000	97.290754
3462.000000	97.279825
3461.000000	97.269728
3460.000000	97.261912
3459.000000	97.256061
3458.000000	97.249440
3457.000000	97.239199
3456.000000	97.225634
3455.000000	97.212339
3454.000000	97.202500
3453.000000	97.195236
3452.000000	97.186467
3451.000000	97.173522
3450.000000	97.158441
3449.000000	97.146214
3448.000000	97.139787
3447.000000	97.137107
3446.000000	97.133602
3445.000000	97.127056
3444.000000	97.118810
3443.000000	97.110920
3442.000000	97.103701
3441.000000	97.096092
3440.000000	97.086908
3439.000000	97.075248
3438.000000	97.061134
3437.000000	97.046878
3436.000000	97.036796
3435.000000	97.033960
3434.000000	97.037167
3433.000000	97.041414
3432.000000	97.041340
3431.000000	97.033981
3430.000000	97.019674
3429.000000	97.001999
3428.000000	96.986477
3427.000000	96.977343
3426.000000	96.974458
3425.000000	96.973819
3424.000000	96.971488
3423.000000	96.966788
3422.000000	96.961690
3421.000000	96.957817
3420.000000	96.954340
3419.000000	96.948685
3418.000000	96.939183
3417.000000	96.926924
3416.000000	96.914927
3415.000000	96.905407
3414.000000	96.898136
3413.000000	96.891768
3412.000000	96.886029
3411.000000	96.881699
3410.000000	96.878697
3409.000000	96.875186
3408.000000	96.868895
3407.000000	96.858992
3406.000000	96.846810
3405.000000	96.835270
3404.000000	96.827235
3403.000000	96.823253
3402.000000	96.820675
3401.000000	96.815638
3400.000000	96.806310
3399.000000	96.793884
3398.000000	96.780615
3397.000000	96.767731
3396.000000	96.755553
3395.000000	96.744908
3394.000000	96.737557
3393.000000	96.734992
3392.000000	96.736907
3391.000000	96.740952
3390.000000	96.744099
3389.000000	96.744327
3388.000000	96.741070
3387.000000	96.734443
3386.000000	96.724751
3385.000000	96.713104
3384.000000	96.701784
3383.000000	96.692786
3382.000000	96.685777
3381.000000	96.678167
3380.000000	96.667715
3379.000000	96.654814
3378.000000	96.642102
3377.000000	96.632087
3376.000000	96.625180
3375.000000	96.619521
3374.000000	96.612286
3373.000000	96.601355
3372.000000	96.586251
3371.000000	96.567933
3370.000000	96.547962
3369.000000	96.527772
3368.000000	96.508261
3367.000000	96.489747
3366.000000	96.472443
3365.000000	96.457213
3364.000000	96.445356
3363.000000	96.436865
3362.000000	96.428804
3361.000000	96.416295
3360.000000	96.396030
3359.000000	96.368981
3358.000000	96.339481
3357.000000	96.311693
3356.000000	96.287032
3355.000000	96.264619
3354.000000	96.243326
3353.000000	96.222742
3352.000000	96.202465
3351.000000	96.181550
3350.000000	96.159405
3349.000000	96.136888
3348.000000	96.115630
3347.000000	96.096142
3346.000000	96.077095
3345.000000	96.056643
3344.000000	96.034306
3343.000000	96.011406
3342.000000	95.989856
3341.000000	95.970336
3340.000000	95.951234
3339.000000	95.929615
3338.000000	95.903947
3337.000000	95.875976
3336.000000	95.849239
3335.000000	95.825749
3334.000000	95.804911
3333.000000	95.785585
3332.000000	95.767678
3331.000000	95.751186
3330.000000	95.735216
3329.000000	95.719229
3328.000000	95.704287
3327.000000	95.691565
3326.000000	95.679985
3325.000000	95.666715
3324.000000	95.650255
3323.000000	95.631960
3322.000000	95.614292
3321.000000	95.598459
3320.000000	95.583883
3319.000000	95.569303
3318.000000	95.554295
3317.000000	95.540233
3316.000000	95.529841
3315.000000	95.525035
3314.000000	95.524829
3313.000000	95.525815
3312.000000	95.524739
3311.000000	95.520462
3310.000000	95.513773
3309.000000	95.506184
3308.000000	95.499133
3307.000000	95.493497
3306.000000	95.489167
3305.000000	95.485123
3304.000000	95.479969
3303.000000	95.472306
3302.000000	95.461134
3301.000000	95.446859
3300.000000	95.432204
3299.000000	95.421171
3298.000000	95.416183
3297.000000	95.416145
3296.000000	95.417657
3295.000000	95.418096
3294.000000	95.417211
3293.000000	95.416016
3292.000000	95.414837
3291.000000	95.413029
3290.000000	95.410521
3289.000000	95.408936
3288.000000	95.410524
3287.000000	95.415945
3286.000000	95.423566
3285.000000	95.431129
3284.000000	95.437570
3283.000000	95.442932
3282.000000	95.447082
3281.000000	95.449615
3280.000000	95.451132
3279.000000	95.453523
3278.000000	95.458214
3277.000000	95.464357
3276.000000	95.469639
3275.000000	95.473162
3274.000000	95.476769
3273.000000	95.482963
3272.000000	95.491900
3271.000000	95.501200
3270.000000	95.508759
3269.000000	95.514790
3268.000000	95.520716
3267.000000	95.526925
3266.000000	95.532592
3265.000000	95.537554
3264.000000	95.543374
3263.000000	95.552184
3262.000000	95.564815
3261.000000	95.580104
3260.000000	95.595547
3259.000000	95.608726
3258.000000	95.618873
3257.000000	95.627339
3256.000000	95.636121
3255.000000	95.645748
3254.000000	95.655087
3253.000000	95.663324
3252.000000	95.671425
3251.000000	95.681278
3250.000000	95.693956
3249.000000	95.709078
3248.000000	95.725188
3247.000000	95.740213
3246.000000	95.752158
3245.000000	95.760224
3244.000000	95.765183
3243.000000	95.768262
3242.000000	95.770080
3241.000000	95.771261
3240.000000	95.773593
3239.000000	95.779548
3238.000000	95.790432
3237.000000	95.805517
3236.000000	95.822940
3235.000000	95.840802
3234.000000	95.857070
3233.000000	95.869121
3232.000000	95.874644
3231.000000	95.873739
3230.000000	95.870088
3229.000000	95.869274
3228.000000	95.874953
3227.000000	95.885983
3226.000000	95.897570
3225.000000	95.905408
3224.000000	95.908875
3223.000000	95.910512
3222.000000	95.913003
3221.000000	95.917296
3220.000000	95.923241
3219.000000	95.931121
3218.000000	95.941699
3217.000000	95.954710
3216.000000	95.968009
3215.000000	95.978932
3214.000000	95.986750
3213.000000	95.993031
3212.000000	95.999271
3211.000000	96.004906
3210.000000	96.008658
3209.000000	96.011457
3208.000000	96.016529
3207.000000	96.026114
3206.000000	96.038968
3205.000000	96.051861
3204.000000	96.062949
3203.000000	96.073186
3202.000000	96.084717
3201.000000	96.098456
3200.000000	96.113038
3199.000000	96.125963
3198.000000	96.136088
3197.000000	96.145086
3196.000000	96.155936
3195.000000	96.169590
3194.000000	96.183877
3193.000000	96.196087
3192.000000	96.206061
3191.000000	96.216023
3190.000000	96.227747
3189.000000	96.240654
3188.000000	96.252650
3187.000000	96.262406
3186.000000	96.270919
3185.000000	96.281288
3184.000000	96.296447
3183.000000	96.316437
3182.000000	96.337791
3181.000000	96.356111
3180.000000	96.369328
3179.000000	96.378386
3178.000000	96.385389
3177.000000	96.391746
3176.000000	96.398053
3175.000000	96.404825
3174.000000	96.412941
3173.000000	96.423683
3172.000000	96.438428
3171.000000	96.457692
3170.000000	96.480044
3169.000000	96.502093
3168.000000	96.520115
3167.000000	96.532337
3166.000000	96.540145
3165.000000	96.547300
3164.000000	96.557308
3163.000000	96.570950
3162.000000	96.586128
3161.000000	96.600371
3160.000000	96.613320
3159.000000	96.626649
3158.000000	96.641885
3157.000000	96.658803
3156.000000	96.675670
3155.000000	96.690486
3154.000000	96.702112
3153.000000	96.710969
3152.000000	96.718932
3151.000000	96.728080
3150.000000	96.739266
3149.000000	96.751871
3148.000000	96.764829
3147.000000	96.777578
3146.000000	96.790394
3145.000000	96.804347
3144.000000	96.820744
3143.000000	96.839600
3142.000000	96.858420
3141.000000	96.873216
3140.000000	96.881529
3139.000000	96.884179
3138.000000	96.884100
3137.000000	96.884190
3136.000000	96.886783
3135.000000	96.893856
3134.000000	96.905998
3133.000000	96.920908
3132.000000	96.934451
3131.000000	96.944153
3130.000000	96.951148
3129.000000	96.958270
3128.000000	96.966858
3127.000000	96.975913
3126.000000	96.983541
3125.000000	96.988165
3124.000000	96.988838
3123.000000	96.986063
3122.000000	96.982894
3121.000000	96.983891
3120.000000	96.991641
3119.000000	97.004378
3118.000000	97.017402
3117.000000	97.026510
3116.000000	97.029697
3115.000000	97.026719
3114.000000	97.018609
3113.000000	97.007685
3112.000000	96.996675
3111.000000	96.987082
3110.000000	96.978880
3109.000000	96.972031
3108.000000	96.967378
3107.000000	96.965562
3106.000000	96.965709
3105.000000	96.965985
3104.000000	96.965175
3103.000000	96.963479
3102.000000	96.961858
3101.000000	96.960839
3100.000000	96.959535
3099.000000	96.955821
3098.000000	96.947931
3097.000000	96.936114
3096.000000	96.922378
3095.000000	96.908754
3094.000000	96.896600
3093.000000	96.887340
3092.000000	96.882396
3091.000000	96.881567
3090.000000	96.882621
3089.000000	96.883255
3088.000000	96.882656
3087.000000	96.880369
3086.000000	96.875049
3085.000000	96.866092
3084.000000	96.855782
3083.000000	96.847883
3082.000000	96.843763
3081.000000	96.841305
3080.000000	96.837855
3079.000000	96.833012
3078.000000	96.828078
3077.000000	96.824140
3076.000000	96.821649
3075.000000	96.821096
3074.000000	96.822973
3073.000000	96.827135
3072.000000	96.832695
3071.000000	96.838408
3070.000000	96.842922
3069.000000	96.845127
3068.000000	96.844975
3067.000000	96.844146
3066.000000	96.845407
3065.000000	96.850906
3064.000000	96.860761
3063.000000	96.873277
3062.000000	96.886573
3061.000000	96.900017
3060.000000	96.914116
3059.000000	96.929163
3058.000000	96.944465
3057.000000	96.958940
3056.000000	96.972037
3055.000000	96.983742
3054.000000	96.994194
3053.000000	97.003812
3052.000000	97.013627
3051.000000	97.024916
3050.000000	97.038404
3049.000000	97.053962
3048.000000	97.070751
3047.000000	97.087223
3046.000000	97.101376
3045.000000	97.112077
3044.000000	97.120670
3043.000000	97.130844
3042.000000	97.146125
3041.000000	97.166893
3040.000000	97.189660
3039.000000	97.209478
3038.000000	97.223684
3037.000000	97.233782
3036.000000	97.243659
3035.000000	97.255952
3034.000000	97.270352
3033.000000	97.285422
3032.000000	97.300902
3031.000000	97.317215
3030.000000	97.333302
3029.000000	97.346739
3028.000000	97.356640
3027.000000	97.365405
3026.000000	97.376534
3025.000000	97.390976
3024.000000	97.406183
3023.000000	97.418819
3022.000000	97.427725
3021.000000	97.434165
3020.000000	97.439749
3019.000000	97.444809
3018.000000	97.448938
3017.000000	97.452586
3016.000000	97.457261
3015.000000	97.463823
3014.000000	97.470963
3013.000000	97.476124
3012.000000	97.478028
3011.000000	97.477877
3010.000000	97.477733
3009.000000	97.478000
3008.000000	97.477094
3007.000000	97.473718
3006.000000	97.469060
3005.000000	97.466080
3004.000000	97.466411
3003.000000	97.468532
3002.000000	97.469628
3001.000000	97.468969
3000.000000	97.468532
2999.000000	97.470369
2998.000000	97.474296
2997.000000	97.478638
2996.000000	97.482007
2995.000000	97.483280
2994.000000	97.480449
2993.000000	97.471180
2992.000000	97.455226
2991.000000	97.435581
2990.000000	97.416760
2989.000000	97.401711
2988.000000	97.390175
2987.000000	97.379405
2986.000000	97.366403
2985.000000	97.349984
2984.000000	97.330972
2983.000000	97.310741
2982.000000	97.289982
2981.000000	97.269231
2980.000000	97.249969
2979.000000	97.234023
2978.000000	97.221468
2977.000000	97.209886
2976.000000	97.196209
2975.000000	97.179115
2974.000000	97.159408
2973.000000	97.138592
2972.000000	97.117644
2971.000000	97.096724
2970.000000	97.075193
2969.000000	97.051651
2968.000000	97.024566
2967.000000	96.993464
2966.000000	96.959323
2965.000000	96.923529
2964.000000	96.886700
2963.000000	96.849317
2962.000000	96.813461
2961.000000	96.782846
2960.000000	96.760171
2959.000000	96.744514
2958.000000	96.732183
2957.000000	96.719938
2956.000000	96.707226
2955.000000	96.695720
2954.000000	96.687910
2953.000000	96.685815
2952.000000	96.689254
2951.000000	96.694413
2950.000000	96.695199
2949.000000	96.687609
2948.000000	96.672645
2947.000000	96.654303
2946.000000	96.634953
2945.000000	96.613359
2944.000000	96.586562
2943.000000	96.552257
2942.000000	96.509659
2941.000000	96.459667
2940.000000	96.404797
2939.000000	96.347674
2938.000000	96.288367
2937.000000	96.224008
2936.000000	96.151998
2935.000000	96.073547
2934.000000	95.993178
2933.000000	95.914956
2932.000000	95.839995
2931.000000	95.767622
2930.000000	95.697725
2929.000000	95.630992
2928.000000	95.567604
2927.000000	95.507200
2926.000000	95.450573
2925.000000	95.400703
2924.000000	95.361372
2923.000000	95.335502
2922.000000	95.325091
2921.000000	95.331813
2920.000000	95.356660
2919.000000	95.399172
2918.000000	95.458526
2917.000000	95.535215
2916.000000	95.630483
2915.000000	95.743315
2914.000000	95.868108
2913.000000	95.995770
2912.000000	96.116849
2911.000000	96.224716
2910.000000	96.317210
2909.000000	96.396328
2908.000000	96.466065
2907.000000	96.529569
2906.000000	96.588318
2905.000000	96.643272
2904.000000	96.695717
2903.000000	96.746045
2902.000000	96.792657
2901.000000	96.832929
2900.000000	96.866246
2899.000000	96.894539
2898.000000	96.920765
2897.000000	96.947196
2896.000000	96.974918
2895.000000	97.003774
2894.000000	97.032371
2893.000000	97.058844
2892.000000	97.082373
2891.000000	97.103879
2890.000000	97.125044
2889.000000	97.146713
2888.000000	97.168184
2887.000000	97.187675
2886.000000	97.203433
2885.000000	97.214673
2884.000000	97.221895
2883.000000	97.226434
2882.000000	97.229774
2881.000000	97.232969
2880.000000	97.235947
2879.000000	97.237111
2878.000000	97.234342
2877.000000	97.227231
2876.000000	97.218054
2875.000000	97.209763
2874.000000	97.203343
2873.000000	97.197929
2872.000000	97.193321
2871.000000	97.191145
2870.000000	97.193261
2869.000000	97.199855
2868.000000	97.209373
2867.000000	97.219098
2866.000000	97.225030
2865.000000	97.222269
2864.000000	97.206866
2863.000000	97.177710
2862.000000	97.136245
2861.000000	97.084754
2860.000000	97.025519
2859.000000	96.961126
2858.000000	96.894489
2857.000000	96.828348
2856.000000	96.765337
2855.000000	96.708566
2854.000000	96.662091
2853.000000	96.630587
2852.000000	96.618910
2851.000000	96.631812
2850.000000	96.672659
2849.000000	96.741533
2848.000000	96.834151
2847.000000	96.942749
2846.000000	97.058063
2845.000000	97.171473
2844.000000	97.276552
2843.000000	97.370193
2842.000000	97.452154
2841.000000	97.522895
2840.000000	97.582122
2839.000000	97.629544
2838.000000	97.666778
2837.000000	97.697614
2836.000000	97.725923
2835.000000	97.753513
2834.000000	97.780062
2833.000000	97.804517
2832.000000	97.826259
2831.000000	97.845400
2830.000000	97.862561
2829.000000	97.878519
2828.000000	97.893740
2827.000000	97.908211
2826.000000	97.921842
2825.000000	97.934824
2824.000000	97.947369
2823.000000	97.959259
2822.000000	97.970046
2821.000000	97.979590
2820.000000	97.988085
2819.000000	97.995779
2818.000000	98.003140
2817.000000	98.011081
2816.000000	98.020108
2815.000000	98.029098
2814.000000	98.035835
2813.000000	98.039542
2812.000000	98.042416
2811.000000	98.047881
2810.000000	98.057313
2809.000000	98.068886
2808.000000	98.079655
2807.000000	98.088133
2806.000000	98.094595
2805.000000	98.099402
2804.000000	98.102009
2803.000000	98.102155
2802.000000	98.101553
2801.000000	98.103234
2800.000000	98.108603
2799.000000	98.115730
2798.000000	98.121467
2797.000000	98.124937
2796.000000	98.127978
2795.000000	98.132258
2794.000000	98.137316
2793.000000	98.142000
2792.000000	98.146567
2791.000000	98.152127
2790.000000	98.158503
2789.000000	98.163942
2788.000000	98.167262
2787.000000	98.169639
2786.000000	98.173885
2785.000000	98.182015
2784.000000	98.193444
2783.000000	98.205501
2782.000000	98.215854
2781.000000	98.224322
2780.000000	98.231934
2779.000000	98.238558
2778.000000	98.242628
2777.000000	98.243638
2776.000000	98.243736
2775.000000	98.245853
2774.000000	98.250877
2773.000000	98.257683
2772.000000	98.265231
2771.000000	98.273292
2770.000000	98.281269
2769.000000	98.287801
2768.000000	98.291970
2767.000000	98.294039
2766.000000	98.294723
2765.000000	98.294513
2764.000000	98.294089
2763.000000	98.294644
2762.000000	98.297221
2761.000000	98.302056
2760.000000	98.308863
2759.000000	98.317240
2758.000000	98.326393
2757.000000	98.334864
2756.000000	98.341186
2755.000000	98.345035
2754.000000	98.347601
2753.000000	98.350763
2752.000000	98.355776
2751.000000	98.362580
2750.000000	98.370146
2749.000000	98.377203
2748.000000	98.382446
2747.000000	98.384441
2746.000000	98.382447
2745.000000	98.377951
2744.000000	98.374735
2743.000000	98.376364
2742.000000	98.383396
2741.000000	98.393260
2740.000000	98.402558
2739.000000	98.409131
2738.000000	98.412613
2737.000000	98.414183
2736.000000	98.415818
2735.000000	98.418878
2734.000000	98.423056
2733.000000	98.427142
2732.000000	98.430733
2731.000000	98.434421
2730.000000	98.438309
2729.000000	98.441389
2728.000000	98.443010
2727.000000	98.444131
2726.000000	98.446281
2725.000000	98.449567
2724.000000	98.452537
2723.000000	98.454067
2722.000000	98.454709
2721.000000	98.455842
2720.000000	98.457929
2719.000000	98.460231
2718.000000	98.462270
2717.000000	98.464941
2716.000000	98.469487
2715.000000	98.475497
2714.000000	98.480737
2713.000000	98.483398
2712.000000	98.484024
2711.000000	98.484768
2710.000000	98.487141
2709.000000	98.491029
2708.000000	98.495517
2707.000000	98.499829
2706.000000	98.503418
2705.000000	98.505868
2704.000000	98.507047
2703.000000	98.507133
2702.000000	98.506465
2701.000000	98.505598
2700.000000	98.505421
2699.000000	98.506757
2698.000000	98.509688
2697.000000	98.513445
2696.000000	98.516984
2695.000000	98.519605
2694.000000	98.521153
2693.000000	98.521823
2692.000000	98.521676
2691.000000	98.520288
2690.000000	98.517270
2689.000000	98.513417
2688.000000	98.510946
2687.000000	98.512061
2686.000000	98.517262
2685.000000	98.525128
2684.000000	98.533370
2683.000000	98.539848
2682.000000	98.543192
2681.000000	98.543371
2680.000000	98.541760
2679.000000	98.540130
2678.000000	98.539347
2677.000000	98.539028
2676.000000	98.538333
2675.000000	98.537108
2674.000000	98.536564
2673.000000	98.538736
2672.000000	98.544496
2671.000000	98.551919
2670.000000	98.557485
2669.000000	98.559291
2668.000000	98.558241
2667.000000	98.555654
2666.000000	98.551180
2665.000000	98.544443
2664.000000	98.537646
2663.000000	98.534295
2662.000000	98.535188
2661.000000	98.537200
2660.000000	98.536604
2659.000000	98.532623
2658.000000	98.527435
2657.000000	98.523685
2656.000000	98.522624
2655.000000	98.524033
2654.000000	98.527287
2653.000000	98.532543
2652.000000	98.540624
2651.000000	98.551447
2650.000000	98.563043
2649.000000	98.573023
2648.000000	98.580715
2647.000000	98.586763
2646.000000	98.590940
2645.000000	98.591992
2644.000000	98.590050
2643.000000	98.587528
2642.000000	98.586757
2641.000000	98.587692
2640.000000	98.588810
2639.000000	98.589434
2638.000000	98.590188
2637.000000	98.591771
2636.000000	98.594350
2635.000000	98.598148
2634.000000	98.603929
2633.000000	98.612732
2632.000000	98.624954
2631.000000	98.639220
2630.000000	98.652161
2629.000000	98.660154
2628.000000	98.662014
2627.000000	98.659911
2626.000000	98.657607
2625.000000	98.658017
2624.000000	98.662118
2623.000000	98.669143
2622.000000	98.677487
2621.000000	98.686055
2620.000000	98.694911
2619.000000	98.704057
2618.000000	98.711678
2617.000000	98.714895
2616.000000	98.713067
2615.000000	98.709535
2614.000000	98.709156
2613.000000	98.714126
2612.000000	98.722519
2611.000000	98.730670
2610.000000	98.736498
2609.000000	98.740611
2608.000000	98.744593
2607.000000	98.748668
2606.000000	98.751406
2605.000000	98.751560
2604.000000	98.749441
2603.000000	98.746421
2602.000000	98.744063
2601.000000	98.744167
2600.000000	98.748145
2599.000000	98.755073
2598.000000	98.761438
2597.000000	98.764587
2596.000000	98.765930
2595.000000	98.769067
2594.000000	98.775135
2593.000000	98.781695
2592.000000	98.786145
2591.000000	98.788428
2590.000000	98.790129
2589.000000	98.792428
2588.000000	98.795219
2587.000000	98.797162
2586.000000	98.796671
2585.000000	98.793931
2584.000000	98.791459
2583.000000	98.791196
2582.000000	98.791913
2581.000000	98.791786
2580.000000	98.792768
2579.000000	98.799127
2578.000000	98.810944
2577.000000	98.822485
2576.000000	98.828579
2575.000000	98.830263
2574.000000	98.832050
2573.000000	98.835692
2572.000000	98.839197
2571.000000	98.840867
2570.000000	98.841632
2569.000000	98.843188
2568.000000	98.845570
2567.000000	98.847149
2566.000000	98.846442
2565.000000	98.843519
2564.000000	98.839729
2563.000000	98.836122
2562.000000	98.832749
2561.000000	98.830004
2560.000000	98.829738
2559.000000	98.833235
2558.000000	98.838301
2557.000000	98.840320
2556.000000	98.836996
2555.000000	98.830745
2554.000000	98.826020
2553.000000	98.825629
2552.000000	98.830104
2551.000000	98.838457
2550.000000	98.848061
2549.000000	98.855115
2548.000000	98.857303
2547.000000	98.856142
2546.000000	98.855816
2545.000000	98.859575
2544.000000	98.867391
2543.000000	98.876409
2542.000000	98.883095
2541.000000	98.885480
2540.000000	98.884190
2539.000000	98.881630
2538.000000	98.880407
2537.000000	98.882382
2536.000000	98.888127
2535.000000	98.896057
2534.000000	98.902380
2533.000000	98.903347
2532.000000	98.898017
2531.000000	98.888677
2530.000000	98.879009
2529.000000	98.872432
2528.000000	98.870864
2527.000000	98.873304
2526.000000	98.875996
2525.000000	98.875877
2524.000000	98.873925
2523.000000	98.873887
2522.000000	98.877996
2521.000000	98.885526
2520.000000	98.894926
2519.000000	98.905092
2518.000000	98.914236
2517.000000	98.919824
2516.000000	98.920890
2515.000000	98.919267
2514.000000	98.917897
2513.000000	98.918848
2512.000000	98.922930
2511.000000	98.929526
2510.000000	98.936178
2509.000000	98.939763
2508.000000	98.939237
2507.000000	98.936729
2506.000000	98.935381
2505.000000	98.936508
2504.000000	98.938749
2503.000000	98.939562
2502.000000	98.937749
2501.000000	98.934828
2500.000000	98.933272
2499.000000	98.933267
2498.000000	98.932891
2497.000000	98.932347
2496.000000	98.935277
2495.000000	98.943208
2494.000000	98.950629
2493.000000	98.949814
2492.000000	98.940651
2491.000000	98.932141
2490.000000	98.933202
2489.000000	98.943861
2488.000000	98.956072
2487.000000	98.961144
2486.000000	98.956016
2485.000000	98.944773
2484.000000	98.935227
2483.000000	98.933220
2482.000000	98.939698
2481.000000	98.952897
2480.000000	98.970478
2479.000000	98.987382
2478.000000	98.994870
2477.000000	98.987353
2476.000000	98.970128
2475.000000	98.955667
2474.000000	98.951488
2473.000000	98.955591
2472.000000	98.963784
2471.000000	98.975440
2470.000000	98.989309
2469.000000	98.998673
2468.000000	98.995915
2467.000000	98.980719
2466.000000	98.960868
2465.000000	98.946039
2464.000000	98.941937
2463.000000	98.947932
2462.000000	98.957784
2461.000000	98.963922
2460.000000	98.963651
2459.000000	98.960518
2458.000000	98.958824
2457.000000	98.958882
2456.000000	98.959074
2455.000000	98.960072
2454.000000	98.964243
2453.000000	98.972010
2452.000000	98.980955
2451.000000	98.987693
2450.000000	98.989461
2449.000000	98.985538
2448.000000	98.978894
2447.000000	98.974798
2446.000000	98.975681
2445.000000	98.978839
2444.000000	98.981054
2443.000000	98.983346
2442.000000	98.988564
2441.000000	98.995856
2440.000000	99.000944
2439.000000	99.001486
2438.000000	98.999245
2437.000000	98.997023
2436.000000	98.995997
2435.000000	98.996462
2434.000000	98.998799
2433.000000	99.002758
2432.000000	99.007130
2431.000000	99.010816
2430.000000	99.013294
2429.000000	99.013879
2428.000000	99.011681
2427.000000	99.006912
2426.000000	99.001703
2425.000000	98.999064
2424.000000	99.000728
2423.000000	99.005468
2422.000000	99.009460
2421.000000	99.009179
2420.000000	99.004600
2419.000000	98.999125
2418.000000	98.996073
2417.000000	98.995823
2416.000000	98.996611
2415.000000	98.996783
2414.000000	98.995379
2413.000000	98.991654
2412.000000	98.985799
2411.000000	98.980177
2410.000000	98.978648
2409.000000	98.983581
2408.000000	98.993145
2407.000000	99.001844
2406.000000	99.004843
2405.000000	99.002841
2404.000000	99.002206
2403.000000	99.008816
2402.000000	99.021604
2401.000000	99.033262
2400.000000	99.037248
2399.000000	99.033153
2398.000000	99.025365
2397.000000	99.018413
2396.000000	99.014277
2395.000000	99.012410
2394.000000	99.010835
2393.000000	99.007973
2392.000000	99.004381
2391.000000	99.002275
2390.000000	99.002761
2389.000000	99.004215
2388.000000	99.004316
2387.000000	99.002784
2386.000000	99.001549
2385.000000	99.002245
2384.000000	99.004286
2383.000000	99.005965
2382.000000	99.006446
2381.000000	99.006808
2380.000000	99.007923
2379.000000	99.007466
2378.000000	99.000875
2377.000000	98.986530
2376.000000	98.969576
2375.000000	98.958692
2374.000000	98.959562
2373.000000	98.971948
2372.000000	98.991578
2371.000000	99.012351
2370.000000	99.028253
2369.000000	99.036361
2368.000000	99.037015
2367.000000	99.031456
2366.000000	99.020426
2365.000000	99.005630
2364.000000	98.990088
2363.000000	98.975683
2362.000000	98.962260
2361.000000	98.949689
2360.000000	98.939923
2359.000000	98.935107
2358.000000	98.936394
2357.000000	98.944794
2356.000000	98.955079
2355.000000	98.959774
2354.000000	98.960166
2353.000000	98.964125
2352.000000	98.970187
2351.000000	98.967178
2350.000000	98.952202
2349.000000	98.933360
2348.000000	98.922898
2347.000000	98.928209
2346.000000	98.942780
2345.000000	98.948382
2344.000000	98.934944
2343.000000	98.914590
2342.000000	98.903310
2341.000000	98.905352
2340.000000	98.912877
2339.000000	98.917389
2338.000000	98.918984
2337.000000	98.922284
2336.000000	98.928562
2335.000000	98.935044
2334.000000	98.941575
2333.000000	98.949142
2332.000000	98.955262
2331.000000	98.953888
2330.000000	98.944633
2329.000000	98.929346
2328.000000	98.909410
2327.000000	98.883837
2326.000000	98.856325
2325.000000	98.835327
2324.000000	98.827648
2323.000000	98.833391
2322.000000	98.845121
2321.000000	98.853795
2320.000000	98.855272
2319.000000	98.851214
2318.000000	98.847254
2317.000000	98.847948
2316.000000	98.856408
2315.000000	98.871324
2314.000000	98.888304
2313.000000	98.901274
2312.000000	98.908267
2311.000000	98.911471
2310.000000	98.915170
2309.000000	98.921013
2308.000000	98.928674
2307.000000	98.936419
2306.000000	98.942228
2305.000000	98.944691
2304.000000	98.945336
2303.000000	98.947402
2302.000000	98.951971
2301.000000	98.955203
2300.000000	98.952994
2299.000000	98.945403
2298.000000	98.937099
2297.000000	98.931983
2296.000000	98.930084
2295.000000	98.927700
2294.000000	98.921895
2293.000000	98.914016
2292.000000	98.909209
2291.000000	98.910628
2290.000000	98.914791
2289.000000	98.914937
2288.000000	98.909176
2287.000000	98.903300
2286.000000	98.904132
2285.000000	98.912938
2284.000000	98.926223
2283.000000	98.940963
2282.000000	98.956515
2281.000000	98.973000
2280.000000	98.989032
2279.000000	99.000456
2278.000000	99.001525
2277.000000	98.990651
2276.000000	98.975241
2275.000000	98.966261
2274.000000	98.966564
2273.000000	98.968035
2272.000000	98.963095
2271.000000	98.954867
2270.000000	98.953033
2269.000000	98.962893
2268.000000	98.982257
2267.000000	99.005725
2266.000000	99.027281
2265.000000	99.040838
2264.000000	99.044283
2263.000000	99.042955
2262.000000	99.044561
2261.000000	99.049991
2260.000000	99.052041
2259.000000	99.044661
2258.000000	99.030993
2257.000000	99.021242
2256.000000	99.022717
2255.000000	99.032059
2254.000000	99.038135
2253.000000	99.033680
2252.000000	99.023364
2251.000000	99.017260
2250.000000	99.017760
2249.000000	99.017701
2248.000000	99.012636
2247.000000	99.008969
2246.000000	99.016789
2245.000000	99.038538
2244.000000	99.068112
2243.000000	99.096698
2242.000000	99.114618
2241.000000	99.112787
2240.000000	99.091192
2239.000000	99.064586
2238.000000	99.051255
2237.000000	99.054475
2236.000000	99.061008
2235.000000	99.059628
2234.000000	99.054405
2233.000000	99.055243
2232.000000	99.061287
2231.000000	99.061050
2230.000000	99.047905
2229.000000	99.028963
2228.000000	99.017252
2227.000000	99.019893
2226.000000	99.036134
2225.000000	99.062246
2224.000000	99.092968
2223.000000	99.119703
2222.000000	99.132228
2221.000000	99.124178
2220.000000	99.096375
2219.000000	99.056448
2218.000000	99.018352
2217.000000	98.999785
2216.000000	99.011600
2215.000000	99.046126
2214.000000	99.080771
2213.000000	99.096024
2212.000000	99.089092
2211.000000	99.071296
2210.000000	99.058583
2209.000000	99.065011
2208.000000	99.095170
2207.000000	99.136339
2206.000000	99.165231
2205.000000	99.169659
2204.000000	99.159151
2203.000000	99.148689
2202.000000	99.140018
2201.000000	99.128218
2200.000000	99.119089
2199.000000	99.125593
2198.000000	99.149005
2197.000000	99.174649
2196.000000	99.186826
2195.000000	99.179803
2194.000000	99.156503
2193.000000	99.126970
2192.000000	99.106689
2191.000000	99.104294
2190.000000	99.110459
2189.000000	99.109022
2188.000000	99.099342
2187.000000	99.097595
2186.000000	99.115124
2185.000000	99.146365
2184.000000	99.178119
2183.000000	99.198960
2182.000000	99.197178
2181.000000	99.164851
2180.000000	99.112251
2179.000000	99.068885
2178.000000	99.062558
2177.000000	99.097941
2176.000000	99.152038
2175.000000	99.187481
2174.000000	99.178280
2173.000000	99.133816
2172.000000	99.094921
2171.000000	99.094545
2170.000000	99.124791
2169.000000	99.148977
2168.000000	99.142273
2167.000000	99.109387
2166.000000	99.068282
2165.000000	99.036614
2164.000000	99.033252
2163.000000	99.069674
2162.000000	99.131042
2161.000000	99.182846
2160.000000	99.207365
2159.000000	99.222683
2158.000000	99.252531
2157.000000	99.293623
2156.000000	99.328221
2155.000000	99.348759
2154.000000	99.356690
2153.000000	99.353787
2152.000000	99.341828
2151.000000	99.320428
2150.000000	99.284800
2149.000000	99.237631
2148.000000	99.202247
2147.000000	99.207384
2146.000000	99.253495
2145.000000	99.304908
2144.000000	99.322552
2143.000000	99.298193
2142.000000	99.253523
2141.000000	99.216282
2140.000000	99.201141
2139.000000	99.205548
2138.000000	99.218012
2137.000000	99.230737
2136.000000	99.243882
2135.000000	99.256929
2134.000000	99.262482
2133.000000	99.255982
2132.000000	99.245281
2131.000000	99.240260
2130.000000	99.237012
2129.000000	99.223044
2128.000000	99.196405
2127.000000	99.169452
2126.000000	99.153657
2125.000000	99.149495
2124.000000	99.152321
2123.000000	99.158324
2122.000000	99.161497
2121.000000	99.152439
2120.000000	99.125996
2119.000000	99.086870
2118.000000	99.045899
2117.000000	99.014504
2116.000000	99.001559
2115.000000	99.008489
2114.000000	99.025595
2113.000000	99.038859
2112.000000	99.042994
2111.000000	99.043453
2110.000000	99.045230
2109.000000	99.046904
2108.000000	99.046905
2107.000000	99.048015
2106.000000	99.052167
2105.000000	99.057349
2104.000000	99.062731
2103.000000	99.070412
2102.000000	99.079135
2101.000000	99.083333
2100.000000	99.082475
2099.000000	99.084468
2098.000000	99.095089
2097.000000	99.109483
2096.000000	99.119595
2095.000000	99.124910
2094.000000	99.130385
2093.000000	99.137477
2092.000000	99.141349
2091.000000	99.134365
2090.000000	99.110709
2089.000000	99.072430
2088.000000	99.033272
2087.000000	99.011152
2086.000000	99.013840
2085.000000	99.033807
2084.000000	99.056768
2083.000000	99.072105
2082.000000	99.076593
2081.000000	99.074916
2080.000000	99.077595
2079.000000	99.091439
2078.000000	99.110638
2077.000000	99.123886
2076.000000	99.130497
2075.000000	99.139789
2074.000000	99.153517
2073.000000	99.161356
2072.000000	99.158163
2071.000000	99.153513
2070.000000	99.156458
2069.000000	99.160968
2068.000000	99.155967
2067.000000	99.142874
2066.000000	99.134352
2065.000000	99.141074
2064.000000	99.165688
2063.000000	99.203611
2062.000000	99.241772
2061.000000	99.261359
2060.000000	99.251173
2059.000000	99.217784
2058.000000	99.178361
2057.000000	99.147209
2056.000000	99.130561
2055.000000	99.126815
2054.000000	99.127983
2053.000000	99.127276
2052.000000	99.128301
2051.000000	99.140246
2050.000000	99.161251
2049.000000	99.174878
2048.000000	99.171292
2047.000000	99.165103
2046.000000	99.180916
2045.000000	99.227908
2044.000000	99.295226
2043.000000	99.362568
2042.000000	99.407618
2041.000000	99.415390
2040.000000	99.392276
2039.000000	99.360941
2038.000000	99.334964
2037.000000	99.310951
2036.000000	99.288137
2035.000000	99.279569
2034.000000	99.295377
2033.000000	99.330720
2032.000000	99.380333
2031.000000	99.447302
2030.000000	99.522723
2029.000000	99.574204
2028.000000	99.574583
2027.000000	99.533445
2026.000000	99.485117
2025.000000	99.456220
2024.000000	99.450755
2023.000000	99.453859
2022.000000	99.442142
2021.000000	99.402648
2020.000000	99.351327
2019.000000	99.321389
2018.000000	99.326609
2017.000000	99.345194
2016.000000	99.346448
2015.000000	99.323117
2014.000000	99.289305
2013.000000	99.263632
2012.000000	99.261099
2011.000000	99.285267
2010.000000	99.321828
2009.000000	99.352366
2008.000000	99.379692
2007.000000	99.423277
2006.000000	99.481348
2005.000000	99.519062
2004.000000	99.506496
2003.000000	99.451074
2002.000000	99.382451
2001.000000	99.323556
2000.000000	99.283544
1999.000000	99.261238
1998.000000	99.248318
1997.000000	99.239144
1996.000000	99.244758
1995.000000	99.286326
1994.000000	99.365358
1993.000000	99.445774
1992.000000	99.479353
1991.000000	99.452460
1990.000000	99.393492
1989.000000	99.339000
1988.000000	99.306591
1987.000000	99.292556
1986.000000	99.282160
1985.000000	99.262828
1984.000000	99.233460
1983.000000	99.200509
1982.000000	99.166380
1981.000000	99.130781
1980.000000	99.107041
1979.000000	99.123833
1978.000000	99.198825
1977.000000	99.308669
1976.000000	99.398513
1975.000000	99.428503
1974.000000	99.404377
1973.000000	99.367499
1972.000000	99.360249
1971.000000	99.392625
1970.000000	99.438384
1969.000000	99.462847
1968.000000	99.451677
1967.000000	99.414896
1966.000000	99.373560
1965.000000	99.350221
1964.000000	99.359560
1963.000000	99.392765
1962.000000	99.417961
1961.000000	99.412893
1960.000000	99.394015
1959.000000	99.394015
1958.000000	99.417406
1957.000000	99.440808
1956.000000	99.451162
1955.000000	99.458582
1954.000000	99.470545
1953.000000	99.476650
1952.000000	99.465866
1951.000000	99.443797
1950.000000	99.422358
1949.000000	99.405510
1948.000000	99.393579
1947.000000	99.391319
1946.000000	99.403619
1945.000000	99.428210
1944.000000	99.455795
1943.000000	99.472818
1942.000000	99.466871
1941.000000	99.440011
1940.000000	99.411320
1939.000000	99.397332
1938.000000	99.396865
1937.000000	99.399152
1936.000000	99.400730
1935.000000	99.404266
1934.000000	99.404283
1933.000000	99.390451
1932.000000	99.367232
1931.000000	99.355112
1930.000000	99.363731
1929.000000	99.379005
1928.000000	99.383900
1927.000000	99.378724
1926.000000	99.375774
1925.000000	99.380483
1924.000000	99.390567
1923.000000	99.403489
1922.000000	99.416280
1921.000000	99.423891
1920.000000	99.424173
1919.000000	99.420126
1918.000000	99.414115
1917.000000	99.404577
1916.000000	99.394228
1915.000000	99.390575
1914.000000	99.397327
1913.000000	99.410169
1912.000000	99.420302
1911.000000	99.420977
1910.000000	99.409700
1909.000000	99.391115
1908.000000	99.377926
1907.000000	99.379559
1906.000000	99.391803
1905.000000	99.399172
1904.000000	99.392935
1903.000000	99.379597
1902.000000	99.370056
1901.000000	99.369208
1900.000000	99.375977
1899.000000	99.384868
1898.000000	99.388226
1897.000000	99.381758
1896.000000	99.372859
1895.000000	99.375488
1894.000000	99.392954
1893.000000	99.414064
1892.000000	99.428098
1891.000000	99.434078
1890.000000	99.435022
1889.000000	99.432376
1888.000000	99.428356
1887.000000	99.423911
1886.000000	99.413828
1885.000000	99.394058
1884.000000	99.374075
1883.000000	99.371717
1882.000000	99.391526
1881.000000	99.418752
1880.000000	99.437052
1879.000000	99.442878
1878.000000	99.440880
1877.000000	99.433003
1876.000000	99.419436
1875.000000	99.406071
1874.000000	99.401780
1873.000000	99.409819
1872.000000	99.427035
1871.000000	99.448968
1870.000000	99.470800
1869.000000	99.485127
1868.000000	99.487364
1867.000000	99.480048
1866.000000	99.465095
1865.000000	99.444018
1864.000000	99.424734
1863.000000	99.417234
1862.000000	99.422447
1861.000000	99.431465
1860.000000	99.436768
1859.000000	99.438137
1858.000000	99.437340
1857.000000	99.434935
1856.000000	99.433688
1855.000000	99.437009
1854.000000	99.442862
1853.000000	99.446007
1852.000000	99.447875
1851.000000	99.451874
1850.000000	99.457762
1849.000000	99.463168
1848.000000	99.469324
1847.000000	99.478432
1846.000000	99.486676
1845.000000	99.485858
1844.000000	99.472915
1843.000000	99.458332
1842.000000	99.452432
1841.000000	99.453286
1840.000000	99.458548
1839.000000	99.469774
1838.000000	99.481763
1837.000000	99.481079
1836.000000	99.465858
1835.000000	99.451342
1834.000000	99.450227
1833.000000	99.459981
1832.000000	99.472354
1831.000000	99.483950
1830.000000	99.496496
1829.000000	99.508044
1828.000000	99.513755
1827.000000	99.510667
1826.000000	99.498745
1825.000000	99.481806
1824.000000	99.468006
1823.000000	99.464925
1822.000000	99.470456
1821.000000	99.475565
1820.000000	99.474064
1819.000000	99.467719
1818.000000	99.461940
1817.000000	99.457877
1816.000000	99.456012
1815.000000	99.459292
1814.000000	99.468066
1813.000000	99.479408
1812.000000	99.490154
1811.000000	99.500950
1810.000000	99.509464
1809.000000	99.506749
1808.000000	99.490774
1807.000000	99.472101
1806.000000	99.460769
1805.000000	99.456198
1804.000000	99.454272
1803.000000	99.456701
1802.000000	99.466180
1801.000000	99.479792
1800.000000	99.488621
1799.000000	99.490075
1798.000000	99.487788
1797.000000	99.485230
1796.000000	99.484475
1795.000000	99.486242
1794.000000	99.488616
1793.000000	99.488277
1792.000000	99.482715
1791.000000	99.478017
1790.000000	99.478380
1789.000000	99.477274
1788.000000	99.469723
1787.000000	99.460062
1786.000000	99.454658
1785.000000	99.454637
1784.000000	99.459050
1783.000000	99.466550
1782.000000	99.470864
1781.000000	99.469629
1780.000000	99.465764
1779.000000	99.466484
1778.000000	99.474627
1777.000000	99.487236
1776.000000	99.500189
1775.000000	99.508328
1774.000000	99.509695
1773.000000	99.506763
1772.000000	99.501295
1771.000000	99.496704
1770.000000	99.492725
1769.000000	99.481545
1768.000000	99.465694
1767.000000	99.458898
1766.000000	99.464823
1765.000000	99.471513
1764.000000	99.468417
1763.000000	99.460171
1762.000000	99.455400
1761.000000	99.454608
1760.000000	99.450467
1759.000000	99.438466
1758.000000	99.416664
1757.000000	99.391688
1756.000000	99.375305
1755.000000	99.368120
1754.000000	99.356750
1753.000000	99.331344
1752.000000	99.300303
1751.000000	99.278455
1750.000000	99.266985
1749.000000	99.249566
1748.000000	99.218803
1747.000000	99.185295
1746.000000	99.160117
1745.000000	99.143726
1744.000000	99.129743
1743.000000	99.116598
1742.000000	99.103534
1741.000000	99.085700
1740.000000	99.065965
1739.000000	99.062621
1738.000000	99.079889
1737.000000	99.093710
1736.000000	99.088126
1735.000000	99.084670
1734.000000	99.105454
1733.000000	99.140624
1732.000000	99.178425
1731.000000	99.205292
1730.000000	99.209225
1729.000000	99.195981
1728.000000	99.182183
1727.000000	99.176838
1726.000000	99.177536
1725.000000	99.177121
1724.000000	99.170110
1723.000000	99.164489
1722.000000	99.168277
1721.000000	99.171276
1720.000000	99.155999
1719.000000	99.123498
1718.000000	99.093211
1717.000000	99.069481
1716.000000	99.042006
1715.000000	99.007510
1714.000000	98.964025
1713.000000	98.914042
1712.000000	98.867861
1711.000000	98.833600
1710.000000	98.809641
1709.000000	98.790007
1708.000000	98.770112
1707.000000	98.745386
1706.000000	98.713362
1705.000000	98.673056
1704.000000	98.626846
1703.000000	98.568555
1702.000000	98.490179
1701.000000	98.395545
1700.000000	98.296390
1699.000000	98.220232
1698.000000	98.153825
1697.000000	98.046060
1696.000000	97.901317
1695.000000	97.788737
1694.000000	97.740822
1693.000000	97.711386
1692.000000	97.652986
1691.000000	97.570173
1690.000000	97.489961
1689.000000	97.418746
1688.000000	97.340901
1687.000000	97.241954
1686.000000	97.130359
1685.000000	97.018024
1684.000000	96.906403
1683.000000	96.812036
1682.000000	96.727391
1681.000000	96.614380
1680.000000	96.469866
1679.000000	96.324086
1678.000000	96.189890
1677.000000	96.048792
1676.000000	95.884835
1675.000000	95.713488
1674.000000	95.563399
1673.000000	95.433846
1672.000000	95.297610
1671.000000	95.142857
1670.000000	94.969576
1669.000000	94.776345
1668.000000	94.577815
1667.000000	94.397781
1666.000000	94.237288
1665.000000	94.077505
1664.000000	93.905737
1663.000000	93.731512
1662.000000	93.568468
1661.000000	93.414766
1660.000000	93.260892
1659.000000	93.110393
1658.000000	92.974770
1657.000000	92.847290
1656.000000	92.702206
1655.000000	92.539212
1654.000000	92.412903
1653.000000	92.352400
1652.000000	92.311876
1651.000000	92.297813
1650.000000	92.293859
1649.000000	92.258622
1648.000000	92.199533
1647.000000	92.152639
1646.000000	92.121322
1645.000000	92.081995
1644.000000	92.033690
1643.000000	91.985526
1642.000000	91.939992
1641.000000	91.900217
1640.000000	91.864903
1639.000000	91.826171
1638.000000	91.783049
1637.000000	91.751256
1636.000000	91.747137
1635.000000	91.746772
1634.000000	91.720963
1633.000000	91.669287
1632.000000	91.601625
1631.000000	91.537734
1630.000000	91.501858
1629.000000	91.502427
1628.000000	91.525909
1627.000000	91.552848
1626.000000	91.576955
1625.000000	91.614160
1624.000000	91.689766
1623.000000	91.809217
1622.000000	91.935783
1621.000000	92.031426
1620.000000	92.091601
1619.000000	92.140771
1618.000000	92.233442
1617.000000	92.417444
1616.000000	92.658635
1615.000000	92.872896
1614.000000	93.029558
1613.000000	93.148484
1612.000000	93.264597
1611.000000	93.400207
1610.000000	93.549789
1609.000000	93.700070
1608.000000	93.848805
1607.000000	93.995809
1606.000000	94.133864
1605.000000	94.263281
1604.000000	94.390720
1603.000000	94.515192
1602.000000	94.628577
1601.000000	94.728469
1600.000000	94.819398
1599.000000	94.902328
1598.000000	94.976258
1597.000000	95.047418
1596.000000	95.123863
1595.000000	95.201242
1594.000000	95.265710
1593.000000	95.313580
1592.000000	95.353833
1591.000000	95.391103
1590.000000	95.420023
1589.000000	95.438189
1588.000000	95.450352
1587.000000	95.458005
1586.000000	95.456711
1585.000000	95.445553
1584.000000	95.429007
1583.000000	95.401855
1582.000000	95.358253
1581.000000	95.305602
1580.000000	95.250453
1579.000000	95.178423
1578.000000	95.077042
1577.000000	94.967237
1576.000000	94.889739
1575.000000	94.851363
1574.000000	94.819235
1573.000000	94.763922
1572.000000	94.680332
1571.000000	94.583851
1570.000000	94.482948
1569.000000	94.374593
1568.000000	94.263809
1567.000000	94.150510
1566.000000	94.028922
1565.000000	93.900848
1564.000000	93.774217
1563.000000	93.638944
1562.000000	93.479182
1561.000000	93.311852
1560.000000	93.195204
1559.000000	93.148811
1558.000000	93.091690
1557.000000	92.992241
1556.000000	92.877628
1555.000000	92.756963
1554.000000	92.644113
1553.000000	92.552903
1552.000000	92.478635
1551.000000	92.412052
1550.000000	92.354368
1549.000000	92.302882
1548.000000	92.250057
1547.000000	92.195303
1546.000000	92.151406
1545.000000	92.130810
1544.000000	92.126765
1543.000000	92.119711
1542.000000	92.111052
1541.000000	92.127244
1540.000000	92.184132
1539.000000	92.245597
1538.000000	92.288718
1537.000000	92.321182
1536.000000	92.343974
1535.000000	92.381600
1534.000000	92.475301
1533.000000	92.608959
1532.000000	92.710796
1531.000000	92.765164
1530.000000	92.807717
1529.000000	92.865357
1528.000000	92.944312
1527.000000	93.044491
1526.000000	93.159613
1525.000000	93.268416
1524.000000	93.349717
1523.000000	93.416235
1522.000000	93.510872
1521.000000	93.638738
1520.000000	93.754067
1519.000000	93.843463
1518.000000	93.926829
1517.000000	94.019279
1516.000000	94.108772
1515.000000	94.177664
1514.000000	94.234576
1513.000000	94.302090
1512.000000	94.390547
1511.000000	94.490438
1510.000000	94.582376
1509.000000	94.665494
1508.000000	94.775895
1507.000000	94.951209
1506.000000	95.128899
1505.000000	95.240753
1504.000000	95.320295
1503.000000	95.392970
1502.000000	95.464719
1501.000000	95.545144
1500.000000	95.636178
1499.000000	95.729578
1498.000000	95.824832
1497.000000	95.923172
1496.000000	96.015396
1495.000000	96.101082
1494.000000	96.185602
1493.000000	96.265267
1492.000000	96.341903
1491.000000	96.431745
1490.000000	96.536728
1489.000000	96.623350
1488.000000	96.664723
1487.000000	96.677040
1486.000000	96.682675
1485.000000	96.684061
1484.000000	96.679830
1483.000000	96.671653
1482.000000	96.663181
1481.000000	96.649261
1480.000000	96.623995
1479.000000	96.591719
1478.000000	96.560143
1477.000000	96.526520
1476.000000	96.480011
1475.000000	96.419172
1474.000000	96.348014
1473.000000	96.261416
1472.000000	96.150891
1471.000000	96.032446
1470.000000	95.922809
1469.000000	95.817853
1468.000000	95.713398
1467.000000	95.617942
1466.000000	95.539627
1465.000000	95.475838
1464.000000	95.414531
1463.000000	95.349596
1462.000000	95.284002
1461.000000	95.216826
1460.000000	95.145314
1459.000000	95.071721
1458.000000	95.003610
1457.000000	94.935607
1456.000000	94.866192
1455.000000	94.817118
1454.000000	94.784175
1453.000000	94.750253
1452.000000	94.719819
1451.000000	94.706452
1450.000000	94.711459
1449.000000	94.729715
1448.000000	94.759193
1447.000000	94.795509
1446.000000	94.827443
1445.000000	94.854855
1444.000000	94.885134
1443.000000	94.925633
1442.000000	94.978469
1441.000000	95.037024
1440.000000	95.089624
1439.000000	95.133025
1438.000000	95.188174
1437.000000	95.278822
1436.000000	95.388365
1435.000000	95.476082
1434.000000	95.533993
1433.000000	95.576316
1432.000000	95.618753
1431.000000	95.666291
1430.000000	95.709706
1429.000000	95.736434
1428.000000	95.743998
1427.000000	95.741025
1426.000000	95.736786
1425.000000	95.741154
1424.000000	95.753921
1423.000000	95.760389
1422.000000	95.750574
1421.000000	95.735706
1420.000000	95.741486
1419.000000	95.775105
1418.000000	95.812952
1417.000000	95.832156
1416.000000	95.828347
1415.000000	95.811028
1414.000000	95.794440
1413.000000	95.784490
1412.000000	95.774371
1411.000000	95.755470
1410.000000	95.728737
1409.000000	95.699825
1408.000000	95.670917
1407.000000	95.642981
1406.000000	95.616585
1405.000000	95.593675
1404.000000	95.574019
1403.000000	95.555870
1402.000000	95.540263
1401.000000	95.530996
1400.000000	95.532374
1399.000000	95.541547
1398.000000	95.549827
1397.000000	95.554104
1396.000000	95.560944
1395.000000	95.576024
1394.000000	95.593024
1393.000000	95.603803
1392.000000	95.607423
1391.000000	95.607389
1390.000000	95.608484
1389.000000	95.616302
1388.000000	95.633524
1387.000000	95.655108
1386.000000	95.670938
1385.000000	95.676412
1384.000000	95.674660
1383.000000	95.672338
1382.000000	95.674250
1381.000000	95.678782
1380.000000	95.683905
1379.000000	95.692704
1378.000000	95.710450
1377.000000	95.739604
1376.000000	95.780370
1375.000000	95.830705
1374.000000	95.883021
1373.000000	95.928809
1372.000000	95.967933
1371.000000	96.008007
1370.000000	96.054442
1369.000000	96.108508
1368.000000	96.167638
1367.000000	96.228524
1366.000000	96.291144
1365.000000	96.358529
1364.000000	96.432596
1363.000000	96.508355
1362.000000	96.574205
1361.000000	96.623333
1360.000000	96.659051
1359.000000	96.686124
1358.000000	96.704545
1357.000000	96.712817
1356.000000	96.711786
1355.000000	96.704055
1354.000000	96.691365
1353.000000	96.673545
1352.000000	96.649902
1351.000000	96.620909
1350.000000	96.585436
1349.000000	96.542565
1348.000000	96.492331
1347.000000	96.436669
1346.000000	96.378706
1345.000000	96.321872
1344.000000	96.268634
1343.000000	96.220081
1342.000000	96.176625
1341.000000	96.138969
1340.000000	96.107396
1339.000000	96.080333
1338.000000	96.056807
1337.000000	96.039956
1336.000000	96.035523
1335.000000	96.047244
1334.000000	96.074069
1333.000000	96.112159
1332.000000	96.157996
1331.000000	96.208787
1330.000000	96.261141
1329.000000	96.311341
1328.000000	96.356263
1327.000000	96.393871
1326.000000	96.423446
1325.000000	96.446673
1324.000000	96.465297
1323.000000	96.478405
1322.000000	96.483954
1321.000000	96.482546
1320.000000	96.478126
1319.000000	96.475455
1318.000000	96.477709
1317.000000	96.485733
1316.000000	96.498532
1315.000000	96.514797
1314.000000	96.535261
1313.000000	96.562750
1312.000000	96.597945
1311.000000	96.635906
1310.000000	96.669332
1309.000000	96.695208
1308.000000	96.716276
1307.000000	96.736578
1306.000000	96.756775
1305.000000	96.775157
1304.000000	96.790438
1303.000000	96.803218
1302.000000	96.815444
1301.000000	96.828929
1300.000000	96.843402
1299.000000	96.856325
1298.000000	96.865065
1297.000000	96.868404
1296.000000	96.865455
1295.000000	96.854059
1294.000000	96.832749
1293.000000	96.803210
1292.000000	96.768862
1291.000000	96.731545
1290.000000	96.690897
1289.000000	96.647217
1288.000000	96.602925
1287.000000	96.560649
1286.000000	96.521363
1285.000000	96.485228
1284.000000	96.452977
1283.000000	96.425631
1282.000000	96.403902
1281.000000	96.388592
1280.000000	96.381091
1279.000000	96.381676
1278.000000	96.388360
1277.000000	96.398450
1276.000000	96.410448
1275.000000	96.423676
1274.000000	96.437072
1273.000000	96.449492
1272.000000	96.460076
1271.000000	96.467133
1270.000000	96.467733
1269.000000	96.459843
1268.000000	96.444370
1267.000000	96.424239
1266.000000	96.402715
1265.000000	96.382490
1264.000000	96.364726
1263.000000	96.347512
1262.000000	96.326071
1261.000000	96.296657
1260.000000	96.259902
1259.000000	96.219073
1258.000000	96.176468
1257.000000	96.132843
1256.000000	96.089283
1255.000000	96.046268
1254.000000	96.001031
1253.000000	95.948974
1252.000000	95.888741
1251.000000	95.823972
1250.000000	95.759082
1249.000000	95.695264
1248.000000	95.631728
1247.000000	95.568285
1246.000000	95.505071
1245.000000	95.441095
1244.000000	95.375298
1243.000000	95.308667
1242.000000	95.244398
1241.000000	95.186327
1240.000000	95.137603
1239.000000	95.099591
1238.000000	95.071132
1237.000000	95.050920
1236.000000	95.040407
1235.000000	95.042709
1234.000000	95.059317
1233.000000	95.089191
1232.000000	95.131613
1231.000000	95.186477
1230.000000	95.252046
1229.000000	95.326236
1228.000000	95.409598
1227.000000	95.504850
1226.000000	95.612028
1225.000000	95.726337
1224.000000	95.841713
1223.000000	95.954162
1222.000000	96.061410
1221.000000	96.161316
1220.000000	96.252161
1219.000000	96.333182
1218.000000	96.403813
1217.000000	96.461831
1216.000000	96.503542
1215.000000	96.527562
1214.000000	96.537123
1213.000000	96.537947
1212.000000	96.533006
1211.000000	96.520907
1210.000000	96.500101
1209.000000	96.472239
1208.000000	96.441167
1207.000000	96.410067
1206.000000	96.381355
1205.000000	96.358249
1204.000000	96.344454
1203.000000	96.342051
1202.000000	96.351399
1201.000000	96.373663
1200.000000	96.410649
1199.000000	96.461719
1198.000000	96.522374
1197.000000	96.587665
1196.000000	96.655751
1195.000000	96.726259
1194.000000	96.797481
1193.000000	96.866720
1192.000000	96.932239
1191.000000	96.993325
1190.000000	97.049617
1189.000000	97.101677
1188.000000	97.151186
1187.000000	97.199296
1186.000000	97.245271
1185.000000	97.288105
1184.000000	97.328155
1183.000000	97.365758
1182.000000	97.398825
1181.000000	97.423354
1180.000000	97.437670
1179.000000	97.444963
1178.000000	97.450535
1177.000000	97.456871
1176.000000	97.462068
1175.000000	97.463460
1174.000000	97.461382
1173.000000	97.458751
1172.000000	97.457675
1171.000000	97.457817
1170.000000	97.458230
1169.000000	97.459298
1168.000000	97.462106
1167.000000	97.466755
1166.000000	97.472020
1165.000000	97.476002
1164.000000	97.476499
1163.000000	97.471889
1162.000000	97.463117
1161.000000	97.454679
1160.000000	97.452543
1159.000000	97.460855
1158.000000	97.480905
1157.000000	97.511956
1156.000000	97.551951
1155.000000	97.597570
1154.000000	97.645579
1153.000000	97.695175
1152.000000	97.747456
1151.000000	97.802558
1150.000000	97.857913
1149.000000	97.909599
1148.000000	97.954553
1147.000000	97.991971
1146.000000	98.023743
1145.000000	98.053156
1144.000000	98.081898
1143.000000	98.108236
1142.000000	98.129564
1141.000000	98.146231
1140.000000	98.161969
1139.000000	98.181075
1138.000000	98.206049
1137.000000	98.236819
1136.000000	98.270096
1135.000000	98.299768
1134.000000	98.320489
1133.000000	98.331629
1132.000000	98.336815
1131.000000	98.339658
1130.000000	98.341061
1129.000000	98.340596
1128.000000	98.338438
1127.000000	98.335501
1126.000000	98.332781
1125.000000	98.331337
1124.000000	98.331997
1123.000000	98.334138
1122.000000	98.335487
1121.000000	98.334116
1120.000000	98.330605
1119.000000	98.327713
1118.000000	98.327981
1117.000000	98.331786
1116.000000	98.337330
1115.000000	98.341699
1114.000000	98.342039
1113.000000	98.336838
1112.000000	98.327288
1111.000000	98.317354
1110.000000	98.311213
1109.000000	98.309839
1108.000000	98.310190
1107.000000	98.308520
1106.000000	98.303639
1105.000000	98.295799
1104.000000	98.283518
1103.000000	98.264090
1102.000000	98.238409
1101.000000	98.213341
1100.000000	98.196381
1099.000000	98.188360
1098.000000	98.181813
1097.000000	98.167839
1096.000000	98.143636
1095.000000	98.112873
1094.000000	98.079973
1093.000000	98.045457
1092.000000	98.006543
1091.000000	97.960634
1090.000000	97.906675
1089.000000	97.844920
1088.000000	97.777334
1087.000000	97.708250
1086.000000	97.642832
1085.000000	97.584318
1084.000000	97.533911
1083.000000	97.493144
1082.000000	97.465009
1081.000000	97.451592
1080.000000	97.452461
1079.000000	97.465991
1078.000000	97.491711
1077.000000	97.530599
1076.000000	97.581507
1075.000000	97.638393
1074.000000	97.692185
1073.000000	97.736199
1072.000000	97.768613
1071.000000	97.789762
1070.000000	97.799098
1069.000000	97.796498
1068.000000	97.785631
1067.000000	97.773103
1066.000000	97.763811
1065.000000	97.757935
1064.000000	97.753267
1063.000000	97.748871
1062.000000	97.745059
1061.000000	97.741229
1060.000000	97.735878
1059.000000	97.728942
1058.000000	97.722647
1057.000000	97.719240
1056.000000	97.717914
1055.000000	97.713836
1054.000000	97.700408
1053.000000	97.674069
1052.000000	97.638009
1051.000000	97.600651
1050.000000	97.568921
1049.000000	97.543296
1048.000000	97.520250
1047.000000	97.497897
1046.000000	97.477641
1045.000000	97.461696
1044.000000	97.451936
1043.000000	97.450121
1042.000000	97.456354
1041.000000	97.465932
1040.000000	97.469381
1039.000000	97.456693
1038.000000	97.422548
1037.000000	97.368454
1036.000000	97.301541
1035.000000	97.231423
1034.000000	97.165994
1033.000000	97.109073
1032.000000	97.061821
1031.000000	97.025336
1030.000000	96.999902
1029.000000	96.982660
1028.000000	96.967999
1027.000000	96.950825
1026.000000	96.928200
1025.000000	96.898038
1024.000000	96.858096
1023.000000	96.807302
1022.000000	96.747159
1021.000000	96.681449
1020.000000	96.615408
1019.000000	96.555898
1018.000000	96.511718
1017.000000	96.492672
1016.000000	96.507465
1015.000000	96.559434
1014.000000	96.644931
1013.000000	96.756279
1012.000000	96.886361
1011.000000	97.028759
1010.000000	97.173764
1009.000000	97.309526
1008.000000	97.428986
1007.000000	97.534599
1006.000000	97.634496
1005.000000	97.734549
1004.000000	97.834421
1003.000000	97.929748
1002.000000	98.016150
1001.000000	98.091129
1000.000000	98.155009
999.000000	98.211078
998.000000	98.263981
997.000000	98.317099
996.000000	98.371608
995.000000	98.427697
994.000000	98.484412
993.000000	98.538037
992.000000	98.583603
991.000000	98.620028
990.000000	98.652499
989.000000	98.687004
988.000000	98.722868
987.000000	98.753209
986.000000	98.772488
985.000000	98.782468
984.000000	98.790056
983.000000	98.800202
982.000000	98.811539
981.000000	98.818122
980.000000	98.815547
979.000000	98.804716
978.000000	98.789098
977.000000	98.770261
976.000000	98.748813
975.000000	98.729134
974.000000	98.718536
973.000000	98.720184
972.000000	98.730250
971.000000	98.743997
970.000000	98.761366
969.000000	98.783933
968.000000	98.810158
967.000000	98.837065
966.000000	98.864631
965.000000	98.894326
964.000000	98.924521
963.000000	98.951086
962.000000	98.972009
961.000000	98.988500
960.000000	99.002432
959.000000	99.015939
958.000000	99.032197
957.000000	99.052731
956.000000	99.073906
955.000000	99.089527
954.000000	99.097156
953.000000	99.099177
952.000000	99.098385
951.000000	99.095533
950.000000	99.090858
949.000000	99.084815
948.000000	99.077380
947.000000	99.069539
946.000000	99.064764
945.000000	99.065585
944.000000	99.069254
943.000000	99.070462
942.000000	99.068494
941.000000	99.067762
940.000000	99.070722
939.000000	99.074423
938.000000	99.075520
937.000000	99.075502
936.000000	99.078821
935.000000	99.088343
934.000000	99.104269
933.000000	99.125720
932.000000	99.151276
931.000000	99.178611
930.000000	99.204440
929.000000	99.224650
928.000000	99.235449
927.000000	99.236434
926.000000	99.232424
925.000000	99.230235
924.000000	99.233638
923.000000	99.242775
922.000000	99.257221
921.000000	99.276398
920.000000	99.297270
919.000000	99.315144
918.000000	99.328119
917.000000	99.338738
916.000000	99.350617
915.000000	99.365448
914.000000	99.383170
913.000000	99.402741
912.000000	99.421937
911.000000	99.438104
910.000000	99.449599
909.000000	99.455889
908.000000	99.457528
907.000000	99.457780
906.000000	99.461926
905.000000	99.471043
904.000000	99.477724
903.000000	99.472885
902.000000	99.457365
901.000000	99.442907
900.000000	99.440790
899.000000	99.452005
898.000000	99.469054
897.000000	99.483840
896.000000	99.492865
895.000000	99.497866
894.000000	99.502731
893.000000	99.508340
892.000000	99.510787
891.000000	99.506709
890.000000	99.499093
889.000000	99.494103
888.000000	99.492930
887.000000	99.490891
886.000000	99.484196
885.000000	99.473317
884.000000	99.459457
883.000000	99.442441
882.000000	99.422691
881.000000	99.401139
880.000000	99.376347
879.000000	99.346231
878.000000	99.313628
877.000000	99.286171
876.000000	99.269528
875.000000	99.264354
874.000000	99.270080
873.000000	99.286321
872.000000	99.309817
871.000000	99.334948
870.000000	99.359301
869.000000	99.384142
868.000000	99.408099
867.000000	99.425936
866.000000	99.435758
865.000000	99.441964
864.000000	99.447823
863.000000	99.450526
862.000000	99.447101
861.000000	99.440720
860.000000	99.436446
859.000000	99.434459
858.000000	99.431663
857.000000	99.426528
856.000000	99.418308
855.000000	99.405235
854.000000	99.388670
853.000000	99.376045
852.000000	99.374062
851.000000	99.380359
850.000000	99.387234
849.000000	99.392081
848.000000	99.398669
847.000000	99.408763
846.000000	99.418743
845.000000	99.426186
844.000000	99.434434
843.000000	99.447345
842.000000	99.462261
841.000000	99.471526
840.000000	99.470662
839.000000	99.463773
838.000000	99.460483
837.000000	99.466792
836.000000	99.478863
835.000000	99.487171
834.000000	99.487826
833.000000	99.487983
832.000000	99.497236
831.000000	99.514919
830.000000	99.529150
829.000000	99.528767
828.000000	99.514171
827.000000	99.495709
826.000000	99.484278
825.000000	99.484452
824.000000	99.493497
823.000000	99.504143
822.000000	99.509115
821.000000	99.505805
820.000000	99.497827
819.000000	99.491340
818.000000	99.488832
817.000000	99.486599
816.000000	99.478996
815.000000	99.465754
814.000000	99.454632
813.000000	99.454710
812.000000	99.466030
811.000000	99.477071
810.000000	99.474855
809.000000	99.458999
808.000000	99.444199
807.000000	99.446688
806.000000	99.468041
805.000000	99.493534
804.000000	99.506982
803.000000	99.505456
802.000000	99.498666
801.000000	99.496393
800.000000	99.499429
799.000000	99.502180
798.000000	99.500144
797.000000	99.493475
796.000000	99.486227
795.000000	99.484034
794.000000	99.490150
793.000000	99.501034
792.000000	99.507203
791.000000	99.501638
790.000000	99.488013
789.000000	99.478563
788.000000	99.482795
787.000000	99.498843
786.000000	99.515312
785.000000	99.520753
784.000000	99.512004
783.000000	99.495213
782.000000	99.479762
781.000000	99.470674
780.000000	99.466303
779.000000	99.462952
778.000000	99.460307
777.000000	99.461129
776.000000	99.466417
775.000000	99.473249
774.000000	99.478579
773.000000	99.483734
772.000000	99.492717
771.000000	99.505372
770.000000	99.514201
769.000000	99.510690
768.000000	99.495013
767.000000	99.477351
766.000000	99.468604
765.000000	99.471359
764.000000	99.481067
763.000000	99.493218
762.000000	99.505719
761.000000	99.515685
760.000000	99.518552
759.000000	99.511870
758.000000	99.497720
757.000000	99.480491
756.000000	99.464561
755.000000	99.454450
754.000000	99.453481
753.000000	99.459771
752.000000	99.466225
751.000000	99.467553
750.000000	99.466506
749.000000	99.470848
748.000000	99.484132
747.000000	99.500757
746.000000	99.510436
745.000000	99.507564
744.000000	99.496939
743.000000	99.489856
742.000000	99.492438
741.000000	99.497595
740.000000	99.491113
739.000000	99.467578
738.000000	99.438409
737.000000	99.422063
736.000000	99.426809
735.000000	99.443601
734.000000	99.454356
733.000000	99.446447
732.000000	99.421626
731.000000	99.393213
730.000000	99.373548
729.000000	99.361887
728.000000	99.346653
727.000000	99.320058
726.000000	99.287363
725.000000	99.261618
724.000000	99.251655
723.000000	99.255753
722.000000	99.263907
721.000000	99.265281
720.000000	99.256254
719.000000	99.242385
718.000000	99.231187
717.000000	99.223113
716.000000	99.211930
715.000000	99.194958
714.000000	99.179203
713.000000	99.173984
712.000000	99.179543
711.000000	99.186128
710.000000	99.184217
709.000000	99.173102
708.000000	99.160219
707.000000	99.153812
706.000000	99.153913
705.000000	99.151805
704.000000	99.140538
703.000000	99.123422
702.000000	99.110336
701.000000	99.105896
700.000000	99.103517
699.000000	99.093869
698.000000	99.074918
697.000000	99.052775
696.000000	99.035471
695.000000	99.025131
694.000000	99.017607
693.000000	99.008137
692.000000	98.996409
691.000000	98.987684
690.000000	98.984128
689.000000	98.977676
688.000000	98.956976
687.000000	98.921624
686.000000	98.887046
685.000000	98.871954
684.000000	98.882918
683.000000	98.912007
682.000000	98.942349
681.000000	98.954299
680.000000	98.935919
679.000000	98.895772
678.000000	98.857571
677.000000	98.830742
676.000000	98.800034
675.000000	98.752164
674.000000	98.696924
673.000000	98.653278
672.000000	98.627281
671.000000	98.615612
670.000000	98.620539
669.000000	98.646694
668.000000	98.666528
667.000000	98.638362
666.000000	98.605075
665.000000	98.596263
664.000000	98.613473
663.000000	98.646905
662.000000	98.671663
661.000000	98.669589
660.000000	98.648945
659.000000	98.635384
658.000000	98.646088
657.000000	98.674485
656.000000	98.704126
655.000000	98.725224
654.000000	98.730112
653.000000	98.712809
652.000000	98.685104
651.000000	98.673824
650.000000	98.690248
649.000000	98.713302
648.000000	98.718124
647.000000	98.706885
646.000000	98.698429
645.000000	98.700720
644.000000	98.707026
643.000000	98.711492
642.000000	98.715406
641.000000	98.719335
640.000000	98.719957
639.000000	98.716699
638.000000	98.713776
637.000000	98.716718
636.000000	98.731115
635.000000	98.758395
634.000000	98.789993
633.000000	98.811889
632.000000	98.818003
631.000000	98.814877
630.000000	98.809773
629.000000	98.800903
628.000000	98.786209
627.000000	98.774594
626.000000	98.777827
625.000000	98.794576
624.000000	98.810687
623.000000	98.814699
622.000000	98.807832
621.000000	98.798630
620.000000	98.791923
619.000000	98.784724
618.000000	98.770635
617.000000	98.748261
616.000000	98.725884
615.000000	98.716182
614.000000	98.723716
613.000000	98.739175
612.000000	98.748471
611.000000	98.747780
610.000000	98.748099
609.000000	98.763365
608.000000	98.794611
607.000000	98.827200
606.000000	98.846163
605.000000	98.854744
604.000000	98.869758
603.000000	98.896888
602.000000	98.920564
601.000000	98.925231
600.000000	98.917849
599.000000	98.918810
598.000000	98.936635
597.000000	98.963083
596.000000	98.990357
595.000000	99.018490
594.000000	99.044996
593.000000	99.059343
592.000000	99.053335
591.000000	99.032722
590.000000	99.013652
589.000000	99.009014
588.000000	99.018371
587.000000	99.027913
586.000000	99.023189
585.000000	99.006570
584.000000	98.997276
583.000000	99.005821
582.000000	99.017011
581.000000	99.010709
580.000000	98.993200
579.000000	98.990888
578.000000	99.014371
577.000000	99.047521
576.000000	99.071630
575.000000	99.083596
574.000000	99.087560
573.000000	99.084072
572.000000	99.073688
571.000000	99.058196
570.000000	99.033180
569.000000	98.992338
568.000000	98.944065
567.000000	98.909005
566.000000	98.895536
565.000000	98.892266
564.000000	98.889947
563.000000	98.889832
562.000000	98.885871
561.000000	98.861533
560.000000	98.817445
559.000000	98.783443
558.000000	98.785086
557.000000	98.812511
556.000000	98.838304
555.000000	98.850946
554.000000	98.853944
553.000000	98.847106
552.000000	98.829721
551.000000	98.814076
550.000000	98.817025
549.000000	98.841206
548.000000	98.876203
547.000000	98.909410
546.000000	98.926186
545.000000	98.912846
544.000000	98.873854
543.000000	98.835792
542.000000	98.823217
541.000000	98.837493
540.000000	98.864483
539.000000	98.888149
538.000000	98.890485
537.000000	98.858475
536.000000	98.803904
535.000000	98.757077
534.000000	98.728868
533.000000	98.699499
532.000000	98.658909
531.000000	98.630480
530.000000	98.631691
529.000000	98.638110
528.000000	98.617445
527.000000	98.577861
526.000000	98.554674
525.000000	98.559659
524.000000	98.576545
523.000000	98.597051
522.000000	98.624445
521.000000	98.653899
520.000000	98.681199
519.000000	98.720934
518.000000	98.784535
517.000000	98.847539
516.000000	98.876806
515.000000	98.879547
514.000000	98.889081
513.000000	98.917308
512.000000	98.953408
511.000000	98.994837
510.000000	99.045577
509.000000	99.089646
508.000000	99.101265
507.000000	99.083130
506.000000	99.066288
505.000000	99.067557
504.000000	99.074260
503.000000	99.072285
502.000000	99.064188
501.000000	99.060847
500.000000	99.075585
499.000000	99.120986
498.000000	99.189621
497.000000	99.241612
496.000000	99.240320
495.000000	99.199539
494.000000	99.168709
493.000000	99.175719
492.000000	99.208468
491.000000	99.249696
490.000000	99.300042
489.000000	99.359763
488.000000	99.418681
487.000000	99.470289
486.000000	99.516023
485.000000	99.551516
484.000000	99.564448
483.000000	99.550965
482.000000	99.519442
481.000000	99.480736
480.000000	99.448204
479.000000	99.435979
478.000000	99.438050
477.000000	99.419955
476.000000	99.357014
475.000000	99.270194
474.000000	99.200914
473.000000	99.156944
472.000000	99.109577
471.000000	99.046143
470.000000	98.984994
469.000000	98.933419
468.000000	98.880831
467.000000	98.834256
466.000000	98.824078
465.000000	98.866065
464.000000	98.951336
463.000000	99.070501
462.000000	99.213057
461.000000	99.350164
460.000000	99.447978
459.000000	99.497546
458.000000	99.516365
457.000000	99.524732
456.000000	99.528686
455.000000	99.523851
454.000000	99.503020
453.000000	99.465705
452.000000	99.433205
451.000000	99.442413
450.000000	99.509493
