PE IR       SUBTECH     SPECTRUM    ASCII       PEDS        4.00        
   -1
Chevre3-F001_1.ASC
23/09/14
14:20:41.00
23/09/14
14:38:15.00
uco
Sample 001 By uco Date Thursday, September 14 2023
450.000000
#HDR
-1
-1
#GR
cm-1
%T
1.0
0.0
4000.000000
-1.000000
3551
8
99.157631
88.695393
#DATA
4000.000000	99.039616
3999.000000	99.037507
3998.000000	99.035390
3997.000000	99.035515
3996.000000	99.036604
3995.000000	99.036348
3994.000000	99.032653
3993.000000	99.024751
3992.000000	99.013780
3991.000000	99.002588
3990.000000	98.994558
3989.000000	98.991660
3988.000000	98.993254
3987.000000	98.996880
3986.000000	99.000244
3985.000000	99.002499
3984.000000	99.003828
3983.000000	99.004531
3982.000000	99.004952
3981.000000	99.005874
3980.000000	99.008095
3979.000000	99.011283
3978.000000	99.013765
3977.000000	99.013956
3976.000000	99.011875
3975.000000	99.009014
3974.000000	99.006836
3973.000000	99.005881
3972.000000	99.006260
3971.000000	99.008230
3970.000000	99.011714
3969.000000	99.015285
3968.000000	99.016397
3967.000000	99.013241
3966.000000	99.006663
3965.000000	99.000092
3964.000000	98.997161
3963.000000	98.999130
3962.000000	99.004210
3961.000000	99.009120
3960.000000	99.011457
3959.000000	99.010651
3958.000000	99.007765
3957.000000	99.004796
3956.000000	99.003597
3955.000000	99.004731
3954.000000	99.007162
3953.000000	99.009403
3952.000000	99.010896
3951.000000	99.012130
3950.000000	99.013207
3949.000000	99.012804
3948.000000	99.009599
3947.000000	99.004518
3946.000000	99.000338
3945.000000	98.998644
3944.000000	98.998166
3943.000000	98.996603
3942.000000	98.993906
3941.000000	98.992939
3940.000000	98.995950
3939.000000	99.000982
3938.000000	99.003527
3937.000000	99.001146
3936.000000	98.995670
3935.000000	98.990885
3934.000000	98.988981
3933.000000	98.989578
3932.000000	98.990885
3931.000000	98.991312
3930.000000	98.990270
3929.000000	98.988237
3928.000000	98.986744
3927.000000	98.987613
3926.000000	98.991287
3925.000000	98.996192
3924.000000	99.000306
3923.000000	99.002970
3922.000000	99.004084
3921.000000	99.002737
3920.000000	98.998384
3919.000000	98.992267
3918.000000	98.986780
3917.000000	98.983643
3916.000000	98.983247
3915.000000	98.985000
3914.000000	98.987276
3913.000000	98.987879
3912.000000	98.986017
3911.000000	98.982802
3910.000000	98.980296
3909.000000	98.979611
3908.000000	98.980437
3907.000000	98.981640
3906.000000	98.981937
3905.000000	98.980507
3904.000000	98.977288
3903.000000	98.973888
3902.000000	98.972842
3901.000000	98.974695
3900.000000	98.977422
3899.000000	98.979608
3898.000000	98.981957
3897.000000	98.985158
3896.000000	98.988271
3895.000000	98.990966
3894.000000	98.995870
3893.000000	99.004865
3892.000000	99.012980
3891.000000	99.010911
3890.000000	98.998303
3889.000000	98.984904
3888.000000	98.977006
3887.000000	98.973609
3886.000000	98.971445
3885.000000	98.969158
3884.000000	98.970445
3883.000000	98.978910
3882.000000	98.990628
3881.000000	98.997437
3880.000000	98.993482
3879.000000	98.981836
3878.000000	98.972952
3877.000000	98.971498
3876.000000	98.972523
3875.000000	98.969594
3874.000000	98.961224
3873.000000	98.952897
3872.000000	98.951550
3871.000000	98.957191
3870.000000	98.962722
3869.000000	98.963228
3868.000000	98.963632
3867.000000	98.968539
3866.000000	98.974277
3865.000000	98.976677
3864.000000	98.975505
3863.000000	98.972036
3862.000000	98.968313
3861.000000	98.966190
3860.000000	98.966897
3859.000000	98.969393
3858.000000	98.971085
3857.000000	98.970860
3856.000000	98.971530
3855.000000	98.978856
3854.000000	98.993566
3853.000000	99.003477
3852.000000	99.004459
3851.000000	99.008347
3850.000000	99.014577
3849.000000	99.015841
3848.000000	99.013223
3847.000000	99.011386
3846.000000	99.012270
3845.000000	99.014671
3844.000000	99.015952
3843.000000	99.014519
3842.000000	99.012126
3841.000000	99.011828
3840.000000	99.014060
3839.000000	99.015186
3838.000000	99.010409
3837.000000	98.998709
3836.000000	98.984963
3835.000000	98.975561
3834.000000	98.973594
3833.000000	98.977947
3832.000000	98.984673
3831.000000	98.989899
3830.000000	98.992642
3829.000000	98.993210
3828.000000	98.990486
3827.000000	98.983257
3826.000000	98.973819
3825.000000	98.968077
3824.000000	98.970813
3823.000000	98.981497
3822.000000	98.993849
3821.000000	98.996877
3820.000000	98.989065
3819.000000	98.984639
3818.000000	98.990998
3817.000000	99.001136
3816.000000	99.005459
3815.000000	99.002812
3814.000000	99.001627
3813.000000	99.006180
3812.000000	99.010663
3811.000000	99.010270
3810.000000	99.006506
3809.000000	99.003403
3808.000000	99.002440
3807.000000	99.000597
3806.000000	98.996147
3805.000000	98.993886
3804.000000	98.997682
3803.000000	99.006051
3802.000000	99.014683
3801.000000	99.017289
3800.000000	99.015371
3799.000000	99.017431
3798.000000	99.023208
3797.000000	99.026582
3796.000000	99.024664
3795.000000	99.019605
3794.000000	99.016060
3793.000000	99.015681
3792.000000	99.016580
3791.000000	99.016796
3790.000000	99.015718
3789.000000	99.014059
3788.000000	99.013709
3787.000000	99.016495
3786.000000	99.021607
3785.000000	99.024769
3784.000000	99.021575
3783.000000	99.011802
3782.000000	98.998804
3781.000000	98.986392
3780.000000	98.977722
3779.000000	98.975415
3778.000000	98.981568
3777.000000	98.995618
3776.000000	99.011596
3775.000000	99.021007
3774.000000	99.020055
3773.000000	99.012054
3772.000000	99.003318
3771.000000	98.997599
3770.000000	98.994252
3769.000000	98.991425
3768.000000	98.990300
3767.000000	98.992276
3766.000000	98.995495
3765.000000	98.997781
3764.000000	99.000213
3763.000000	99.005878
3762.000000	99.014666
3761.000000	99.022961
3760.000000	99.027140
3759.000000	99.025269
3758.000000	99.018940
3757.000000	99.013592
3756.000000	99.014735
3755.000000	99.023463
3754.000000	99.035892
3753.000000	99.046592
3752.000000	99.052144
3751.000000	99.051154
3750.000000	99.043414
3749.000000	99.033119
3748.000000	99.026982
3747.000000	99.026450
3746.000000	99.029310
3745.000000	99.033097
3744.000000	99.032049
3743.000000	99.030111
3742.000000	99.038160
3741.000000	99.048443
3740.000000	99.050219
3739.000000	99.045870
3738.000000	99.041287
3737.000000	99.037106
3736.000000	99.029748
3735.000000	99.017588
3734.000000	99.004874
3733.000000	98.997343
3732.000000	98.996431
3731.000000	99.000620
3730.000000	99.007412
3729.000000	99.013110
3728.000000	99.015158
3727.000000	99.015566
3726.000000	99.019109
3725.000000	99.028763
3724.000000	99.041722
3723.000000	99.050826
3722.000000	99.050926
3721.000000	99.043373
3720.000000	99.034186
3719.000000	99.027872
3718.000000	99.024797
3717.000000	99.023077
3716.000000	99.021190
3715.000000	99.018424
3714.000000	99.015571
3713.000000	99.015588
3712.000000	99.020309
3711.000000	99.026239
3710.000000	99.028774
3709.000000	99.028373
3708.000000	99.028237
3707.000000	99.029859
3706.000000	99.032287
3705.000000	99.034279
3704.000000	99.035458
3703.000000	99.036063
3702.000000	99.035408
3701.000000	99.032800
3700.000000	99.030713
3699.000000	99.032476
3698.000000	99.036784
3697.000000	99.038853
3696.000000	99.036121
3695.000000	99.030033
3694.000000	99.023437
3693.000000	99.018339
3692.000000	99.017108
3691.000000	99.021894
3690.000000	99.030638
3689.000000	99.035310
3688.000000	99.031071
3687.000000	99.024206
3686.000000	99.021414
3685.000000	99.021191
3684.000000	99.020860
3683.000000	99.022231
3682.000000	99.027101
3681.000000	99.032474
3680.000000	99.032506
3679.000000	99.026577
3678.000000	99.021429
3677.000000	99.024191
3676.000000	99.031050
3675.000000	99.027182
3674.000000	99.013155
3673.000000	99.005128
3672.000000	99.005464
3671.000000	99.005738
3670.000000	98.999789
3669.000000	98.987177
3668.000000	98.976070
3667.000000	98.973591
3666.000000	98.977484
3665.000000	98.982225
3664.000000	98.984653
3663.000000	98.983375
3662.000000	98.977626
3661.000000	98.967778
3660.000000	98.955929
3659.000000	98.945383
3658.000000	98.938373
3657.000000	98.934788
3656.000000	98.932276
3655.000000	98.930555
3654.000000	98.931595
3653.000000	98.933817
3652.000000	98.934645
3651.000000	98.935273
3650.000000	98.935617
3649.000000	98.930766
3648.000000	98.919512
3647.000000	98.908351
3646.000000	98.903060
3645.000000	98.903284
3644.000000	98.905128
3643.000000	98.905228
3642.000000	98.902603
3641.000000	98.897553
3640.000000	98.890247
3639.000000	98.880656
3638.000000	98.869780
3637.000000	98.860164
3636.000000	98.853033
3635.000000	98.845798
3634.000000	98.834079
3633.000000	98.817260
3632.000000	98.800197
3631.000000	98.789863
3630.000000	98.791175
3629.000000	98.798177
3628.000000	98.797087
3627.000000	98.789451
3626.000000	98.783991
3625.000000	98.777884
3624.000000	98.766683
3623.000000	98.752017
3622.000000	98.738552
3621.000000	98.730344
3620.000000	98.727833
3619.000000	98.725864
3618.000000	98.719246
3617.000000	98.709974
3616.000000	98.702514
3615.000000	98.697576
3614.000000	98.693078
3613.000000	98.686647
3612.000000	98.677555
3611.000000	98.667255
3610.000000	98.657464
3609.000000	98.649146
3608.000000	98.642815
3607.000000	98.638619
3606.000000	98.636512
3605.000000	98.635965
3604.000000	98.636026
3603.000000	98.635819
3602.000000	98.633597
3601.000000	98.626594
3600.000000	98.613190
3599.000000	98.595225
3598.000000	98.577069
3597.000000	98.563083
3596.000000	98.555072
3595.000000	98.550796
3594.000000	98.544816
3593.000000	98.532860
3592.000000	98.515409
3591.000000	98.496949
3590.000000	98.483738
3589.000000	98.480977
3588.000000	98.487063
3587.000000	98.491092
3586.000000	98.484007
3585.000000	98.468013
3584.000000	98.449926
3583.000000	98.434021
3582.000000	98.421920
3581.000000	98.413200
3580.000000	98.405511
3579.000000	98.396289
3578.000000	98.385093
3577.000000	98.373983
3576.000000	98.365721
3575.000000	98.361123
3574.000000	98.358188
3573.000000	98.353165
3572.000000	98.343163
3571.000000	98.327939
3570.000000	98.310423
3569.000000	98.295919
3568.000000	98.288997
3567.000000	98.288044
3566.000000	98.285991
3565.000000	98.278495
3564.000000	98.266376
3563.000000	98.252026
3562.000000	98.238269
3561.000000	98.227640
3560.000000	98.220189
3559.000000	98.212899
3558.000000	98.202490
3557.000000	98.188237
3556.000000	98.172041
3555.000000	98.156192
3554.000000	98.141783
3553.000000	98.128951
3552.000000	98.117957
3551.000000	98.109235
3550.000000	98.102252
3549.000000	98.095029
3548.000000	98.085826
3547.000000	98.074988
3546.000000	98.064387
3545.000000	98.055158
3544.000000	98.046648
3543.000000	98.037091
3542.000000	98.025033
3541.000000	98.010416
3540.000000	97.994797
3539.000000	97.980252
3538.000000	97.967671
3537.000000	97.955979
3536.000000	97.943100
3535.000000	97.928041
3534.000000	97.911575
3533.000000	97.895283
3532.000000	97.880573
3531.000000	97.868930
3530.000000	97.861821
3529.000000	97.859335
3528.000000	97.859265
3527.000000	97.858514
3526.000000	97.855680
3525.000000	97.851260
3524.000000	97.845463
3523.000000	97.837138
3522.000000	97.825529
3521.000000	97.811847
3520.000000	97.797917
3519.000000	97.783928
3518.000000	97.768805
3517.000000	97.752668
3516.000000	97.737696
3515.000000	97.726260
3514.000000	97.718883
3513.000000	97.714191
3512.000000	97.709985
3511.000000	97.704020
3510.000000	97.694538
3509.000000	97.681121
3508.000000	97.665186
3507.000000	97.649053
3506.000000	97.634227
3505.000000	97.620857
3504.000000	97.608501
3503.000000	97.597030
3502.000000	97.587025
3501.000000	97.579208
3500.000000	97.573239
3499.000000	97.567380
3498.000000	97.559757
3497.000000	97.549678
3496.000000	97.537530
3495.000000	97.524061
3494.000000	97.510409
3493.000000	97.498218
3492.000000	97.488555
3491.000000	97.480785
3490.000000	97.473267
3489.000000	97.464991
3488.000000	97.455615
3487.000000	97.444238
3486.000000	97.429827
3485.000000	97.413447
3484.000000	97.398874
3483.000000	97.390036
3482.000000	97.387769
3481.000000	97.389211
3480.000000	97.389788
3479.000000	97.385425
3478.000000	97.374176
3477.000000	97.357428
3476.000000	97.339638
3475.000000	97.325564
3474.000000	97.317059
3473.000000	97.312614
3472.000000	97.309230
3471.000000	97.304107
3470.000000	97.295428
3469.000000	97.283011
3468.000000	97.268522
3467.000000	97.254483
3466.000000	97.242897
3465.000000	97.234762
3464.000000	97.229868
3463.000000	97.226083
3462.000000	97.219508
3461.000000	97.207175
3460.000000	97.190166
3459.000000	97.173261
3458.000000	97.160924
3457.000000	97.153912
3456.000000	97.149331
3455.000000	97.143203
3454.000000	97.132914
3453.000000	97.118409
3452.000000	97.102090
3451.000000	97.087536
3450.000000	97.077439
3449.000000	97.072135
3448.000000	97.069513
3447.000000	97.066051
3446.000000	97.058790
3445.000000	97.047467
3444.000000	97.034959
3443.000000	97.025401
3442.000000	97.021133
3441.000000	97.020717
3440.000000	97.019892
3439.000000	97.014712
3438.000000	97.004379
3437.000000	96.991784
3436.000000	96.981353
3435.000000	96.975680
3434.000000	96.973437
3433.000000	96.970590
3432.000000	96.963957
3431.000000	96.953769
3430.000000	96.942814
3429.000000	96.933398
3428.000000	96.925277
3427.000000	96.916218
3426.000000	96.904287
3425.000000	96.889796
3424.000000	96.875460
3423.000000	96.864678
3422.000000	96.859099
3421.000000	96.857145
3420.000000	96.854722
3419.000000	96.848058
3418.000000	96.836712
3417.000000	96.824122
3416.000000	96.814975
3415.000000	96.811549
3414.000000	96.812342
3413.000000	96.814052
3412.000000	96.814259
3411.000000	96.811863
3410.000000	96.806011
3409.000000	96.796051
3408.000000	96.782720
3407.000000	96.768386
3406.000000	96.755794
3405.000000	96.746916
3404.000000	96.742632
3403.000000	96.742383
3402.000000	96.743783
3401.000000	96.743552
3400.000000	96.739620
3399.000000	96.732258
3398.000000	96.723136
3397.000000	96.713852
3396.000000	96.705652
3395.000000	96.699696
3394.000000	96.696435
3393.000000	96.694410
3392.000000	96.690470
3391.000000	96.682168
3390.000000	96.670245
3389.000000	96.658365
3388.000000	96.650141
3387.000000	96.646209
3386.000000	96.643915
3385.000000	96.639501
3384.000000	96.630395
3383.000000	96.616119
3382.000000	96.598261
3381.000000	96.580046
3380.000000	96.564952
3379.000000	96.554502
3378.000000	96.547296
3377.000000	96.540639
3376.000000	96.533007
3375.000000	96.524646
3374.000000	96.516283
3373.000000	96.508024
3372.000000	96.499508
3371.000000	96.490420
3370.000000	96.480591
3369.000000	96.469966
3368.000000	96.458713
3367.000000	96.447102
3366.000000	96.435066
3365.000000	96.422028
3364.000000	96.407348
3363.000000	96.391070
3362.000000	96.374314
3361.000000	96.358828
3360.000000	96.345674
3359.000000	96.333960
3358.000000	96.321145
3357.000000	96.305022
3356.000000	96.285465
3355.000000	96.264149
3354.000000	96.242834
3353.000000	96.222321
3352.000000	96.202849
3351.000000	96.184708
3350.000000	96.168072
3349.000000	96.152352
3348.000000	96.135961
3347.000000	96.116933
3346.000000	96.094240
3345.000000	96.068880
3344.000000	96.043451
3343.000000	96.020167
3342.000000	95.999228
3341.000000	95.979407
3340.000000	95.959919
3339.000000	95.941104
3338.000000	95.923263
3337.000000	95.905626
3336.000000	95.887029
3335.000000	95.867277
3334.000000	95.847182
3333.000000	95.827266
3332.000000	95.807081
3331.000000	95.786218
3330.000000	95.765491
3329.000000	95.746390
3328.000000	95.729378
3327.000000	95.713497
3326.000000	95.698064
3325.000000	95.683952
3324.000000	95.672086
3323.000000	95.660958
3322.000000	95.647030
3321.000000	95.628217
3320.000000	95.606218
3319.000000	95.584980
3318.000000	95.567331
3317.000000	95.553352
3316.000000	95.541133
3315.000000	95.528238
3314.000000	95.512950
3313.000000	95.495279
3312.000000	95.477071
3311.000000	95.460773
3310.000000	95.447981
3309.000000	95.439033
3308.000000	95.433095
3307.000000	95.427757
3306.000000	95.419223
3305.000000	95.404559
3304.000000	95.384510
3303.000000	95.363457
3302.000000	95.345951
3301.000000	95.333370
3300.000000	95.324141
3299.000000	95.316508
3298.000000	95.310352
3297.000000	95.306526
3296.000000	95.305135
3295.000000	95.304678
3294.000000	95.302503
3293.000000	95.296025
3292.000000	95.284178
3291.000000	95.268414
3290.000000	95.252179
3289.000000	95.238738
3288.000000	95.229202
3287.000000	95.222879
3286.000000	95.219316
3285.000000	95.219060
3284.000000	95.221946
3283.000000	95.225582
3282.000000	95.226772
3281.000000	95.224481
3280.000000	95.220585
3279.000000	95.217733
3278.000000	95.217372
3277.000000	95.219639
3276.000000	95.223922
3275.000000	95.229064
3274.000000	95.233951
3273.000000	95.238628
3272.000000	95.244185
3271.000000	95.250869
3270.000000	95.256808
3269.000000	95.259441
3268.000000	95.258005
3267.000000	95.254177
3266.000000	95.250550
3265.000000	95.248974
3264.000000	95.250147
3263.000000	95.253944
3262.000000	95.259700
3261.000000	95.266360
3260.000000	95.272847
3259.000000	95.278850
3258.000000	95.285675
3257.000000	95.295960
3256.000000	95.311670
3255.000000	95.331940
3254.000000	95.353088
3253.000000	95.371054
3252.000000	95.383980
3251.000000	95.393104
3250.000000	95.401911
3249.000000	95.413873
3248.000000	95.429522
3247.000000	95.445266
3246.000000	95.456161
3245.000000	95.460711
3244.000000	95.462278
3243.000000	95.465244
3242.000000	95.470894
3241.000000	95.477800
3240.000000	95.485163
3239.000000	95.494077
3238.000000	95.505463
3237.000000	95.518049
3236.000000	95.529172
3235.000000	95.537464
3234.000000	95.544211
3233.000000	95.551848
3232.000000	95.561124
3231.000000	95.570116
3230.000000	95.576348
3229.000000	95.579428
3228.000000	95.581098
3227.000000	95.583163
3226.000000	95.586407
3225.000000	95.591341
3224.000000	95.598577
3223.000000	95.607902
3222.000000	95.618008
3221.000000	95.627645
3220.000000	95.636172
3219.000000	95.642714
3218.000000	95.646243
3217.000000	95.647533
3216.000000	95.649847
3215.000000	95.656222
3214.000000	95.666306
3213.000000	95.677034
3212.000000	95.685977
3211.000000	95.693043
3210.000000	95.699285
3209.000000	95.705413
3208.000000	95.711596
3207.000000	95.717597
3206.000000	95.722841
3205.000000	95.727003
3204.000000	95.730679
3203.000000	95.734865
3202.000000	95.739750
3201.000000	95.744611
3200.000000	95.748971
3199.000000	95.753387
3198.000000	95.759086
3197.000000	95.767254
3196.000000	95.778404
3195.000000	95.791649
3194.000000	95.804599
3193.000000	95.814708
3192.000000	95.821320
3191.000000	95.826215
3190.000000	95.831979
3189.000000	95.839951
3188.000000	95.849695
3187.000000	95.860228
3186.000000	95.871480
3185.000000	95.884197
3184.000000	95.898159
3183.000000	95.911102
3182.000000	95.920573
3181.000000	95.927049
3180.000000	95.933971
3179.000000	95.943987
3178.000000	95.955982
3177.000000	95.966866
3176.000000	95.975448
3175.000000	95.983204
3174.000000	95.991788
3173.000000	96.001482
3172.000000	96.011993
3171.000000	96.023330
3170.000000	96.035536
3169.000000	96.048648
3168.000000	96.063150
3167.000000	96.079360
3166.000000	96.096137
3165.000000	96.111307
3164.000000	96.123919
3163.000000	96.134975
3162.000000	96.145269
3161.000000	96.153634
3160.000000	96.158735
3159.000000	96.162221
3158.000000	96.168709
3157.000000	96.182008
3156.000000	96.201598
3155.000000	96.222925
3154.000000	96.241012
3153.000000	96.253833
3152.000000	96.262685
3151.000000	96.269858
3150.000000	96.276604
3149.000000	96.283293
3148.000000	96.290636
3147.000000	96.299715
3146.000000	96.310979
3145.000000	96.323984
3144.000000	96.337985
3143.000000	96.352096
3142.000000	96.365068
3141.000000	96.376098
3140.000000	96.385938
3139.000000	96.395997
3138.000000	96.406050
3137.000000	96.414268
3136.000000	96.420231
3135.000000	96.426516
3134.000000	96.435783
3133.000000	96.447114
3132.000000	96.457022
3131.000000	96.463916
3130.000000	96.469807
3129.000000	96.477431
3128.000000	96.487293
3127.000000	96.498170
3126.000000	96.509160
3125.000000	96.520217
3124.000000	96.531548
3123.000000	96.543541
3122.000000	96.556675
3121.000000	96.570353
3120.000000	96.582157
3119.000000	96.589535
3118.000000	96.592287
3117.000000	96.592389
3116.000000	96.591141
3115.000000	96.587766
3114.000000	96.581731
3113.000000	96.575302
3112.000000	96.572303
3111.000000	96.574248
3110.000000	96.578536
3109.000000	96.580755
3108.000000	96.578408
3107.000000	96.572650
3106.000000	96.567181
3105.000000	96.565577
3104.000000	96.568805
3103.000000	96.574448
3102.000000	96.578502
3101.000000	96.578416
3100.000000	96.574547
3099.000000	96.568745
3098.000000	96.562129
3097.000000	96.554523
3096.000000	96.545474
3095.000000	96.535294
3094.000000	96.525572
3093.000000	96.519045
3092.000000	96.518126
3091.000000	96.522407
3090.000000	96.527675
3089.000000	96.528575
3088.000000	96.523067
3087.000000	96.514148
3086.000000	96.507051
3085.000000	96.504746
3084.000000	96.505743
3083.000000	96.505635
3082.000000	96.500969
3081.000000	96.492440
3080.000000	96.484586
3079.000000	96.481737
3078.000000	96.483778
3077.000000	96.486072
3076.000000	96.483725
3075.000000	96.475856
3074.000000	96.466116
3073.000000	96.459729
3072.000000	96.460032
3071.000000	96.466607
3070.000000	96.475643
3069.000000	96.482260
3068.000000	96.483590
3067.000000	96.480397
3066.000000	96.475741
3065.000000	96.472154
3064.000000	96.470381
3063.000000	96.470768
3062.000000	96.475007
3061.000000	96.485448
3060.000000	96.502309
3059.000000	96.522021
3058.000000	96.539049
3057.000000	96.549751
3056.000000	96.554617
3055.000000	96.557169
3054.000000	96.561119
3053.000000	96.568191
3052.000000	96.577649
3051.000000	96.587343
3050.000000	96.595639
3049.000000	96.602966
3048.000000	96.611411
3047.000000	96.622771
3046.000000	96.637230
3045.000000	96.653693
3044.000000	96.670556
3043.000000	96.685991
3042.000000	96.698502
3041.000000	96.708055
3040.000000	96.716194
3039.000000	96.724570
3038.000000	96.733683
3037.000000	96.743348
3036.000000	96.753693
3035.000000	96.765106
3034.000000	96.777874
3033.000000	96.792454
3032.000000	96.809151
3031.000000	96.826380
3030.000000	96.840206
3029.000000	96.847586
3028.000000	96.850248
3027.000000	96.853936
3026.000000	96.863157
3025.000000	96.877325
3024.000000	96.892113
3023.000000	96.903734
3022.000000	96.911471
3021.000000	96.917276
3020.000000	96.923949
3019.000000	96.933322
3018.000000	96.945394
3017.000000	96.959023
3016.000000	96.973322
3015.000000	96.987843
3014.000000	97.001450
3013.000000	97.012127
3012.000000	97.018639
3011.000000	97.021974
3010.000000	97.024532
3009.000000	97.028151
3008.000000	97.033209
3007.000000	97.038980
3006.000000	97.044171
3005.000000	97.047478
3004.000000	97.048498
3003.000000	97.048414
3002.000000	97.049416
3001.000000	97.053213
3000.000000	97.059837
2999.000000	97.067388
2998.000000	97.072874
2997.000000	97.073983
2996.000000	97.070851
2995.000000	97.066092
2994.000000	97.062447
2993.000000	97.060121
2992.000000	97.056662
2991.000000	97.049665
2990.000000	97.039322
2989.000000	97.027904
2988.000000	97.016883
2987.000000	97.005253
2986.000000	96.991315
2985.000000	96.975733
2984.000000	96.961752
2983.000000	96.952065
2982.000000	96.946250
2981.000000	96.941776
2980.000000	96.936779
2979.000000	96.930817
2978.000000	96.923335
2977.000000	96.912799
2976.000000	96.897986
2975.000000	96.879608
2974.000000	96.860053
2973.000000	96.841459
2972.000000	96.824136
2971.000000	96.806850
2970.000000	96.788738
2969.000000	96.770782
2968.000000	96.754844
2967.000000	96.741112
2966.000000	96.727378
2965.000000	96.711633
2964.000000	96.694651
2963.000000	96.678887
2962.000000	96.665332
2961.000000	96.652927
2960.000000	96.641014
2959.000000	96.630734
2958.000000	96.623422
2957.000000	96.618894
2956.000000	96.616288
2955.000000	96.615680
2954.000000	96.617714
2953.000000	96.621854
2952.000000	96.625865
2951.000000	96.627327
2950.000000	96.625485
2949.000000	96.621893
2948.000000	96.619409
2947.000000	96.620195
2946.000000	96.624033
2945.000000	96.628293
2944.000000	96.629532
2943.000000	96.625240
2942.000000	96.614685
2941.000000	96.598928
2940.000000	96.580200
2939.000000	96.560624
2938.000000	96.540964
2937.000000	96.520671
2936.000000	96.498945
2935.000000	96.475365
2934.000000	96.449716
2933.000000	96.422135
2932.000000	96.393774
2931.000000	96.366518
2930.000000	96.341497
2929.000000	96.318273
2928.000000	96.295974
2927.000000	96.274917
2926.000000	96.256595
2925.000000	96.242405
2924.000000	96.232762
2923.000000	96.227453
2922.000000	96.226641
2921.000000	96.231681
2920.000000	96.244723
2919.000000	96.266593
2918.000000	96.294597
2917.000000	96.323073
2916.000000	96.347174
2915.000000	96.366256
2914.000000	96.383306
2913.000000	96.401433
2912.000000	96.421325
2911.000000	96.441830
2910.000000	96.461895
2909.000000	96.481516
2908.000000	96.501163
2907.000000	96.520873
2906.000000	96.540086
2905.000000	96.558292
2904.000000	96.575703
2903.000000	96.593079
2902.000000	96.610799
2901.000000	96.628155
2900.000000	96.643852
2899.000000	96.657410
2898.000000	96.669774
2897.000000	96.682452
2896.000000	96.695912
2895.000000	96.709232
2894.000000	96.721729
2893.000000	96.734614
2892.000000	96.750043
2891.000000	96.768112
2890.000000	96.785514
2889.000000	96.798022
2888.000000	96.804054
2887.000000	96.805211
2886.000000	96.803846
2885.000000	96.801306
2884.000000	96.798357
2883.000000	96.795935
2882.000000	96.794705
2881.000000	96.794635
2880.000000	96.795487
2879.000000	96.797024
2878.000000	96.798206
2877.000000	96.797129
2876.000000	96.792974
2875.000000	96.787802
2874.000000	96.785396
2873.000000	96.787899
2872.000000	96.794054
2871.000000	96.800924
2870.000000	96.806994
2869.000000	96.813410
2868.000000	96.822363
2867.000000	96.834490
2866.000000	96.847706
2865.000000	96.858546
2864.000000	96.864631
2863.000000	96.865899
2862.000000	96.863587
2861.000000	96.858400
2860.000000	96.850004
2859.000000	96.837895
2858.000000	96.822222
2857.000000	96.803753
2856.000000	96.783655
2855.000000	96.763816
2854.000000	96.747440
2853.000000	96.738704
2852.000000	96.741155
2851.000000	96.755915
2850.000000	96.780949
2849.000000	96.811829
2848.000000	96.843451
2847.000000	96.872006
2846.000000	96.896575
2845.000000	96.919207
2844.000000	96.942843
2843.000000	96.968694
2842.000000	96.995670
2841.000000	97.022230
2840.000000	97.048128
2839.000000	97.073883
2838.000000	97.099180
2837.000000	97.122597
2836.000000	97.142617
2835.000000	97.158177
2834.000000	97.168502
2833.000000	97.173591
2832.000000	97.175423
2831.000000	97.178001
2830.000000	97.185266
2829.000000	97.198413
2828.000000	97.214950
2827.000000	97.230431
2826.000000	97.241749
2825.000000	97.249243
2824.000000	97.255584
2823.000000	97.262614
2822.000000	97.269920
2821.000000	97.276692
2820.000000	97.283796
2819.000000	97.292802
2818.000000	97.303610
2817.000000	97.314401
2816.000000	97.323739
2815.000000	97.331458
2814.000000	97.337614
2813.000000	97.342077
2812.000000	97.345488
2811.000000	97.349369
2810.000000	97.354767
2809.000000	97.361670
2808.000000	97.369979
2807.000000	97.379832
2806.000000	97.390493
2805.000000	97.400058
2804.000000	97.406923
2803.000000	97.410735
2802.000000	97.411577
2801.000000	97.409638
2800.000000	97.406623
2799.000000	97.406190
2798.000000	97.411349
2797.000000	97.421497
2796.000000	97.432821
2795.000000	97.441559
2794.000000	97.446606
2793.000000	97.449747
2792.000000	97.454000
2791.000000	97.461100
2790.000000	97.469886
2789.000000	97.477651
2788.000000	97.483287
2787.000000	97.488108
2786.000000	97.493120
2785.000000	97.497041
2784.000000	97.498368
2783.000000	97.498227
2782.000000	97.499389
2781.000000	97.503066
2780.000000	97.508519
2779.000000	97.515504
2778.000000	97.524898
2777.000000	97.536339
2776.000000	97.546848
2775.000000	97.552896
2774.000000	97.553308
2773.000000	97.549854
2772.000000	97.545836
2771.000000	97.544273
2770.000000	97.546331
2769.000000	97.550715
2768.000000	97.555133
2767.000000	97.558840
2766.000000	97.563306
2765.000000	97.570010
2764.000000	97.578170
2763.000000	97.585201
2762.000000	97.589153
2761.000000	97.590286
2760.000000	97.590450
2759.000000	97.591359
2758.000000	97.593453
2757.000000	97.596241
2756.000000	97.599589
2755.000000	97.604286
2754.000000	97.610960
2753.000000	97.618730
2752.000000	97.625664
2751.000000	97.630716
2750.000000	97.634560
2749.000000	97.638310
2748.000000	97.642032
2747.000000	97.644964
2746.000000	97.646744
2745.000000	97.647793
2744.000000	97.648682
2743.000000	97.649681
2742.000000	97.651006
2741.000000	97.653146
2740.000000	97.656656
2739.000000	97.661621
2738.000000	97.667447
2737.000000	97.673290
2736.000000	97.678671
2735.000000	97.683385
2734.000000	97.686859
2733.000000	97.688219
2732.000000	97.687624
2731.000000	97.687145
2730.000000	97.689274
2729.000000	97.694185
2728.000000	97.699151
2727.000000	97.701309
2726.000000	97.700730
2725.000000	97.700435
2724.000000	97.703507
2723.000000	97.710409
2722.000000	97.718806
2721.000000	97.725561
2720.000000	97.729101
2719.000000	97.730391
2718.000000	97.731770
2717.000000	97.734666
2716.000000	97.738423
2715.000000	97.741444
2714.000000	97.743249
2713.000000	97.745048
2712.000000	97.748432
2711.000000	97.753947
2710.000000	97.760881
2709.000000	97.767699
2708.000000	97.772424
2707.000000	97.773490
2706.000000	97.771321
2705.000000	97.768970
2704.000000	97.770041
2703.000000	97.775273
2702.000000	97.781623
2701.000000	97.785376
2700.000000	97.786066
2699.000000	97.786839
2698.000000	97.790950
2697.000000	97.798322
2696.000000	97.805625
2695.000000	97.809431
2694.000000	97.809207
2693.000000	97.807526
2692.000000	97.807695
2691.000000	97.811010
2690.000000	97.816016
2689.000000	97.820284
2688.000000	97.822904
2687.000000	97.825333
2686.000000	97.829796
2685.000000	97.836740
2684.000000	97.843803
2683.000000	97.847519
2682.000000	97.846312
2681.000000	97.841811
2680.000000	97.837163
2679.000000	97.834381
2678.000000	97.833784
2677.000000	97.835456
2676.000000	97.839779
2675.000000	97.846008
2674.000000	97.851577
2673.000000	97.854154
2672.000000	97.854089
2671.000000	97.853767
2670.000000	97.854695
2669.000000	97.856113
2668.000000	97.856364
2667.000000	97.854541
2666.000000	97.850705
2665.000000	97.845694
2664.000000	97.841276
2663.000000	97.839513
2662.000000	97.841015
2661.000000	97.844138
2660.000000	97.846419
2659.000000	97.846704
2658.000000	97.845782
2657.000000	97.845540
2656.000000	97.847833
2655.000000	97.853361
2654.000000	97.860750
2653.000000	97.867032
2652.000000	97.869856
2651.000000	97.869365
2650.000000	97.867705
2649.000000	97.867175
2648.000000	97.869355
2647.000000	97.875261
2646.000000	97.884859
2645.000000	97.896080
2644.000000	97.905449
2643.000000	97.910774
2642.000000	97.913070
2641.000000	97.915429
2640.000000	97.920044
2639.000000	97.926563
2638.000000	97.933031
2637.000000	97.937946
2636.000000	97.941330
2635.000000	97.944282
2634.000000	97.947867
2633.000000	97.952288
2632.000000	97.956848
2631.000000	97.960761
2630.000000	97.964277
2629.000000	97.968950
2628.000000	97.976299
2627.000000	97.985940
2626.000000	97.995384
2625.000000	98.002048
2624.000000	98.005222
2623.000000	98.005913
2622.000000	98.005405
2621.000000	98.004792
2620.000000	98.005463
2619.000000	98.008814
2618.000000	98.015028
2617.000000	98.022682
2616.000000	98.029703
2615.000000	98.034190
2614.000000	98.034676
2613.000000	98.031053
2612.000000	98.026036
2611.000000	98.024508
2610.000000	98.029785
2609.000000	98.040241
2608.000000	98.050268
2607.000000	98.054996
2606.000000	98.054221
2605.000000	98.052154
2604.000000	98.053697
2603.000000	98.060438
2602.000000	98.069527
2601.000000	98.076389
2600.000000	98.079006
2599.000000	98.079598
2598.000000	98.081867
2597.000000	98.086750
2596.000000	98.091507
2595.000000	98.092918
2594.000000	98.090596
2593.000000	98.086814
2592.000000	98.083839
2591.000000	98.082433
2590.000000	98.082658
2589.000000	98.084836
2588.000000	98.089182
2587.000000	98.095384
2586.000000	98.103316
2585.000000	98.113497
2584.000000	98.125762
2583.000000	98.137914
2582.000000	98.146996
2581.000000	98.151942
2580.000000	98.153997
2579.000000	98.154628
2578.000000	98.154419
2577.000000	98.154310
2576.000000	98.156402
2575.000000	98.162486
2574.000000	98.172322
2573.000000	98.183663
2572.000000	98.192922
2571.000000	98.195972
2570.000000	98.190347
2569.000000	98.178044
2568.000000	98.164857
2567.000000	98.155469
2566.000000	98.150172
2565.000000	98.147333
2564.000000	98.147375
2563.000000	98.152241
2562.000000	98.161900
2561.000000	98.173567
2560.000000	98.184259
2559.000000	98.192465
2558.000000	98.197298
2557.000000	98.197615
2556.000000	98.192610
2555.000000	98.183040
2554.000000	98.172344
2553.000000	98.166388
2552.000000	98.169917
2551.000000	98.181543
2550.000000	98.193706
2549.000000	98.199726
2548.000000	98.199861
2547.000000	98.198783
2546.000000	98.198707
2545.000000	98.197964
2544.000000	98.195297
2543.000000	98.192152
2542.000000	98.190829
2541.000000	98.193333
2540.000000	98.201964
2539.000000	98.217546
2538.000000	98.236195
2537.000000	98.250843
2536.000000	98.257573
2535.000000	98.258433
2534.000000	98.257072
2533.000000	98.254142
2532.000000	98.248203
2531.000000	98.238859
2530.000000	98.227321
2529.000000	98.215654
2528.000000	98.207107
2527.000000	98.205426
2526.000000	98.211750
2525.000000	98.222865
2524.000000	98.233917
2523.000000	98.242098
2522.000000	98.247096
2521.000000	98.249564
2520.000000	98.250942
2519.000000	98.253814
2518.000000	98.260298
2517.000000	98.269837
2516.000000	98.279459
2515.000000	98.286128
2514.000000	98.288394
2513.000000	98.286710
2512.000000	98.283431
2511.000000	98.282002
2510.000000	98.284567
2509.000000	98.289722
2508.000000	98.293435
2507.000000	98.292990
2506.000000	98.289851
2505.000000	98.287997
2504.000000	98.289314
2503.000000	98.291472
2502.000000	98.291326
2501.000000	98.289815
2500.000000	98.291469
2499.000000	98.298547
2498.000000	98.307339
2497.000000	98.311552
2496.000000	98.308041
2495.000000	98.298118
2494.000000	98.285314
2493.000000	98.274267
2492.000000	98.270411
2491.000000	98.277064
2490.000000	98.291858
2489.000000	98.307884
2488.000000	98.319230
2487.000000	98.324585
2486.000000	98.325921
2485.000000	98.325622
2484.000000	98.325028
2483.000000	98.324065
2482.000000	98.321694
2481.000000	98.317454
2480.000000	98.312569
2479.000000	98.308716
2478.000000	98.306370
2477.000000	98.305439
2476.000000	98.306241
2475.000000	98.308197
2474.000000	98.308905
2473.000000	98.307125
2472.000000	98.305711
2471.000000	98.308539
2470.000000	98.314772
2469.000000	98.319426
2468.000000	98.320191
2467.000000	98.320481
2466.000000	98.324419
2465.000000	98.331132
2464.000000	98.335565
2463.000000	98.333737
2462.000000	98.326582
2461.000000	98.319935
2460.000000	98.320509
2459.000000	98.329821
2458.000000	98.341730
2457.000000	98.347693
2456.000000	98.344710
2455.000000	98.336277
2454.000000	98.326302
2453.000000	98.315872
2452.000000	98.306492
2451.000000	98.302194
2450.000000	98.305383
2449.000000	98.312684
2448.000000	98.317768
2447.000000	98.317614
2446.000000	98.314469
2445.000000	98.312301
2444.000000	98.312477
2443.000000	98.312727
2442.000000	98.310066
2441.000000	98.305346
2440.000000	98.304078
2439.000000	98.310860
2438.000000	98.323581
2437.000000	98.335456
2436.000000	98.342602
2435.000000	98.346499
2434.000000	98.348890
2433.000000	98.348277
2432.000000	98.343396
2431.000000	98.337166
2430.000000	98.334470
2429.000000	98.337393
2428.000000	98.343957
2427.000000	98.349972
2426.000000	98.351333
2425.000000	98.346745
2424.000000	98.339696
2423.000000	98.335982
2422.000000	98.338144
2421.000000	98.344195
2420.000000	98.352098
2419.000000	98.361990
2418.000000	98.372442
2417.000000	98.378388
2416.000000	98.376337
2415.000000	98.369419
2414.000000	98.363879
2413.000000	98.361994
2412.000000	98.361583
2411.000000	98.361321
2410.000000	98.362881
2409.000000	98.367842
2408.000000	98.375420
2407.000000	98.383889
2406.000000	98.392155
2405.000000	98.399267
2404.000000	98.404095
2403.000000	98.406384
2402.000000	98.407236
2401.000000	98.407916
2400.000000	98.408400
2399.000000	98.407195
2398.000000	98.402762
2397.000000	98.395676
2396.000000	98.389397
2395.000000	98.387760
2394.000000	98.391211
2393.000000	98.396530
2392.000000	98.400514
2391.000000	98.402678
2390.000000	98.403918
2389.000000	98.404249
2388.000000	98.403164
2387.000000	98.401055
2386.000000	98.399099
2385.000000	98.398416
2384.000000	98.399948
2383.000000	98.403940
2382.000000	98.408503
2381.000000	98.410142
2380.000000	98.407184
2379.000000	98.401834
2378.000000	98.397602
2377.000000	98.395769
2376.000000	98.395822
2375.000000	98.397771
2374.000000	98.401379
2373.000000	98.403929
2372.000000	98.402281
2371.000000	98.397660
2370.000000	98.395154
2369.000000	98.397359
2368.000000	98.401283
2367.000000	98.402543
2366.000000	98.400073
2365.000000	98.395698
2364.000000	98.391237
2363.000000	98.386022
2362.000000	98.378062
2361.000000	98.369590
2360.000000	98.365698
2359.000000	98.372513
2358.000000	98.391386
2357.000000	98.411630
2356.000000	98.420638
2355.000000	98.412983
2354.000000	98.396010
2353.000000	98.384199
2352.000000	98.385766
2351.000000	98.395007
2350.000000	98.396101
2349.000000	98.381797
2348.000000	98.356957
2347.000000	98.334086
2346.000000	98.326163
2345.000000	98.336753
2344.000000	98.357858
2343.000000	98.373051
2342.000000	98.375408
2341.000000	98.369580
2340.000000	98.361210
2339.000000	98.354367
2338.000000	98.351392
2337.000000	98.353224
2336.000000	98.358398
2335.000000	98.364131
2334.000000	98.367564
2333.000000	98.367312
2332.000000	98.363716
2331.000000	98.360194
2330.000000	98.357755
2329.000000	98.356202
2328.000000	98.349517
2327.000000	98.329820
2326.000000	98.297206
2325.000000	98.263038
2324.000000	98.246939
2323.000000	98.257078
2322.000000	98.285406
2321.000000	98.315481
2320.000000	98.337040
2319.000000	98.348967
2318.000000	98.351594
2317.000000	98.347503
2316.000000	98.343191
2315.000000	98.346978
2314.000000	98.359132
2313.000000	98.370564
2312.000000	98.372029
2311.000000	98.363122
2310.000000	98.351607
2309.000000	98.346304
2308.000000	98.351508
2307.000000	98.363257
2306.000000	98.372308
2305.000000	98.370701
2304.000000	98.359665
2303.000000	98.346979
2302.000000	98.338968
2301.000000	98.336776
2300.000000	98.339472
2299.000000	98.346817
2298.000000	98.356283
2297.000000	98.362660
2296.000000	98.362361
2295.000000	98.356875
2294.000000	98.349993
2293.000000	98.344137
2292.000000	98.341986
2291.000000	98.346601
2290.000000	98.357423
2289.000000	98.366188
2288.000000	98.362526
2287.000000	98.343525
2286.000000	98.318299
2285.000000	98.302187
2284.000000	98.306091
2283.000000	98.328039
2282.000000	98.354811
2281.000000	98.373605
2280.000000	98.382940
2279.000000	98.390065
2278.000000	98.398962
2277.000000	98.406560
2276.000000	98.410644
2275.000000	98.414796
2274.000000	98.421140
2273.000000	98.424476
2272.000000	98.418738
2271.000000	98.406218
2270.000000	98.396162
2269.000000	98.396374
2268.000000	98.408649
2267.000000	98.427912
2266.000000	98.442673
2265.000000	98.441948
2264.000000	98.427242
2263.000000	98.414022
2262.000000	98.415812
2261.000000	98.430171
2260.000000	98.445585
2259.000000	98.457034
2258.000000	98.467672
2257.000000	98.477977
2256.000000	98.483207
2255.000000	98.482263
2254.000000	98.480499
2253.000000	98.481182
2252.000000	98.480141
2251.000000	98.473031
2250.000000	98.463467
2249.000000	98.460620
2248.000000	98.470320
2247.000000	98.490289
2246.000000	98.512146
2245.000000	98.526298
2244.000000	98.527533
2243.000000	98.518212
2242.000000	98.505619
2241.000000	98.495073
2240.000000	98.486346
2239.000000	98.477529
2238.000000	98.470796
2237.000000	98.471044
2236.000000	98.477934
2235.000000	98.483039
2234.000000	98.479328
2233.000000	98.472385
2232.000000	98.476453
2231.000000	98.497086
2230.000000	98.522461
2229.000000	98.535476
2228.000000	98.530429
2227.000000	98.513872
2226.000000	98.494492
2225.000000	98.479955
2224.000000	98.479342
2223.000000	98.497122
2222.000000	98.523092
2221.000000	98.537329
2220.000000	98.530394
2219.000000	98.514438
2218.000000	98.511204
2217.000000	98.531712
2216.000000	98.567005
2215.000000	98.594484
2214.000000	98.594003
2213.000000	98.563836
2212.000000	98.522877
2211.000000	98.493604
2210.000000	98.484907
2209.000000	98.494961
2208.000000	98.523016
2207.000000	98.566834
2206.000000	98.610925
2205.000000	98.631351
2204.000000	98.616659
2203.000000	98.575800
2202.000000	98.525234
2201.000000	98.479499
2200.000000	98.453373
2199.000000	98.456394
2198.000000	98.479235
2197.000000	98.498310
2196.000000	98.502523
2195.000000	98.505117
2194.000000	98.521068
2193.000000	98.543568
2192.000000	98.553695
2191.000000	98.545837
2190.000000	98.531953
2189.000000	98.526330
2188.000000	98.535160
2187.000000	98.555692
2186.000000	98.576798
2185.000000	98.584229
2184.000000	98.574225
2183.000000	98.558482
2182.000000	98.548386
2181.000000	98.540032
2180.000000	98.524149
2179.000000	98.506555
2178.000000	98.508214
2177.000000	98.543702
2176.000000	98.602431
2175.000000	98.650243
2174.000000	98.650712
2173.000000	98.594243
2172.000000	98.511577
2171.000000	98.451804
2170.000000	98.441548
2169.000000	98.465389
2168.000000	98.486849
2167.000000	98.486035
2166.000000	98.473262
2165.000000	98.471643
2164.000000	98.493778
2163.000000	98.535697
2162.000000	98.591265
2161.000000	98.669063
2160.000000	98.787929
2159.000000	98.944028
2158.000000	99.087020
2157.000000	99.157631
2156.000000	99.149815
2155.000000	99.108120
2154.000000	99.069966
2153.000000	99.034012
2152.000000	98.981800
2151.000000	98.913247
2150.000000	98.852635
2149.000000	98.823760
2148.000000	98.825895
2147.000000	98.835995
2146.000000	98.831747
2145.000000	98.808348
2144.000000	98.772354
2143.000000	98.728024
2142.000000	98.681099
2141.000000	98.652167
2140.000000	98.666526
2139.000000	98.721327
2138.000000	98.776852
2137.000000	98.793572
2136.000000	98.771370
2135.000000	98.740428
2134.000000	98.721174
2133.000000	98.710884
2132.000000	98.702936
2131.000000	98.697965
2130.000000	98.693965
2129.000000	98.681591
2128.000000	98.656061
2127.000000	98.624676
2126.000000	98.598279
2125.000000	98.581589
2124.000000	98.574680
2123.000000	98.577620
2122.000000	98.589630
2121.000000	98.606909
2120.000000	98.623103
2119.000000	98.629994
2118.000000	98.619904
2117.000000	98.594046
2116.000000	98.567976
2115.000000	98.560176
2114.000000	98.572935
2113.000000	98.590033
2112.000000	98.594650
2111.000000	98.583690
2110.000000	98.563587
2109.000000	98.541221
2108.000000	98.523031
2107.000000	98.514845
2106.000000	98.515998
2105.000000	98.517818
2104.000000	98.512931
2103.000000	98.503490
2102.000000	98.497397
2101.000000	98.499637
2100.000000	98.509613
2099.000000	98.523241
2098.000000	98.535332
2097.000000	98.543099
2096.000000	98.548772
2095.000000	98.555696
2094.000000	98.561962
2093.000000	98.562777
2092.000000	98.558549
2091.000000	98.554403
2090.000000	98.552202
2089.000000	98.549639
2088.000000	98.547289
2087.000000	98.549232
2086.000000	98.555107
2085.000000	98.558574
2084.000000	98.555908
2083.000000	98.550141
2082.000000	98.545303
2081.000000	98.543388
2080.000000	98.548296
2079.000000	98.564499
2078.000000	98.588652
2077.000000	98.609770
2076.000000	98.621399
2075.000000	98.627234
2074.000000	98.632105
2073.000000	98.635615
2072.000000	98.636738
2071.000000	98.635337
2070.000000	98.626696
2069.000000	98.605878
2068.000000	98.582794
2067.000000	98.580410
2066.000000	98.609068
2065.000000	98.649808
2064.000000	98.673156
2063.000000	98.671138
2062.000000	98.661741
2061.000000	98.666880
2060.000000	98.692326
2059.000000	98.723844
2058.000000	98.739180
2057.000000	98.728095
2056.000000	98.702808
2055.000000	98.683035
2054.000000	98.671236
2053.000000	98.653798
2052.000000	98.626203
2051.000000	98.601512
2050.000000	98.589909
2049.000000	98.584445
2048.000000	98.577052
2047.000000	98.576105
2046.000000	98.593333
2045.000000	98.624696
2044.000000	98.659617
2043.000000	98.697779
2042.000000	98.741248
2041.000000	98.779693
2040.000000	98.800667
2039.000000	98.808083
2038.000000	98.815270
2037.000000	98.826115
2036.000000	98.834971
2035.000000	98.838457
2034.000000	98.837215
2033.000000	98.834798
2032.000000	98.843986
2031.000000	98.880018
2030.000000	98.934937
2029.000000	98.972091
2028.000000	98.963097
2027.000000	98.922191
2026.000000	98.888613
2025.000000	98.884836
2024.000000	98.903703
2023.000000	98.926341
2022.000000	98.939184
2021.000000	98.937246
2020.000000	98.923406
2019.000000	98.904577
2018.000000	98.886009
2017.000000	98.873419
2016.000000	98.877022
2015.000000	98.901029
2014.000000	98.928652
2013.000000	98.930963
2012.000000	98.896947
2011.000000	98.844783
2010.000000	98.799779
2009.000000	98.775529
2008.000000	98.778177
2007.000000	98.810144
2006.000000	98.859161
2005.000000	98.897376
2004.000000	98.905204
2003.000000	98.888471
2002.000000	98.867115
2001.000000	98.855716
2000.000000	98.857004
1999.000000	98.862017
1998.000000	98.853655
1997.000000	98.822633
1996.000000	98.783614
1995.000000	98.764589
1994.000000	98.777723
1993.000000	98.808718
1992.000000	98.835061
1991.000000	98.846273
1990.000000	98.842040
1989.000000	98.824727
1988.000000	98.804980
1987.000000	98.801252
1986.000000	98.819917
1985.000000	98.841713
1984.000000	98.838219
1983.000000	98.800251
1982.000000	98.746609
1981.000000	98.709922
1980.000000	98.716051
1979.000000	98.766942
1978.000000	98.839582
1977.000000	98.909348
1976.000000	98.972248
1975.000000	99.031372
1974.000000	99.070432
1973.000000	99.068075
1972.000000	99.036133
1971.000000	99.015221
1970.000000	99.027051
1969.000000	99.052069
1968.000000	99.058681
1967.000000	99.038960
1966.000000	99.008162
1965.000000	98.982002
1964.000000	98.964785
1963.000000	98.951559
1962.000000	98.934889
1961.000000	98.915118
1960.000000	98.904234
1959.000000	98.910477
1958.000000	98.922317
1957.000000	98.919151
1956.000000	98.896068
1955.000000	98.867858
1954.000000	98.849618
1953.000000	98.843263
1952.000000	98.841155
1951.000000	98.836071
1950.000000	98.828961
1949.000000	98.830312
1948.000000	98.850388
1947.000000	98.882313
1946.000000	98.903125
1945.000000	98.902043
1944.000000	98.899384
1943.000000	98.922561
1942.000000	98.965470
1941.000000	98.994361
1940.000000	98.992764
1939.000000	98.971596
1938.000000	98.942278
1937.000000	98.906494
1936.000000	98.869080
1935.000000	98.842215
1934.000000	98.832100
1933.000000	98.833726
1932.000000	98.840989
1931.000000	98.852530
1930.000000	98.864345
1929.000000	98.866692
1928.000000	98.858200
1927.000000	98.851173
1926.000000	98.858926
1925.000000	98.881824
1924.000000	98.908650
1923.000000	98.928664
1922.000000	98.937381
1921.000000	98.936807
1920.000000	98.931501
1919.000000	98.923435
1918.000000	98.909911
1917.000000	98.888616
1916.000000	98.866539
1915.000000	98.853443
1914.000000	98.849618
1913.000000	98.851141
1912.000000	98.858216
1911.000000	98.872542
1910.000000	98.889824
1909.000000	98.901808
1908.000000	98.907792
1907.000000	98.912567
1906.000000	98.916356
1905.000000	98.914387
1904.000000	98.905219
1903.000000	98.893369
1902.000000	98.880010
1901.000000	98.862442
1900.000000	98.845534
1899.000000	98.840328
1898.000000	98.849576
1897.000000	98.863186
1896.000000	98.870542
1895.000000	98.872262
1894.000000	98.874509
1893.000000	98.879875
1892.000000	98.888241
1891.000000	98.899511
1890.000000	98.910283
1889.000000	98.913032
1888.000000	98.906401
1887.000000	98.899190
1886.000000	98.898462
1885.000000	98.903571
1884.000000	98.910774
1883.000000	98.915861
1882.000000	98.912914
1881.000000	98.898593
1880.000000	98.880575
1879.000000	98.871106
1878.000000	98.871907
1877.000000	98.873917
1876.000000	98.870138
1875.000000	98.863369
1874.000000	98.861288
1873.000000	98.869057
1872.000000	98.888409
1871.000000	98.917860
1870.000000	98.949825
1869.000000	98.969522
1868.000000	98.967787
1867.000000	98.953568
1866.000000	98.939305
1865.000000	98.927466
1864.000000	98.919211
1863.000000	98.918652
1862.000000	98.924741
1861.000000	98.929358
1860.000000	98.927362
1859.000000	98.920798
1858.000000	98.911531
1857.000000	98.899226
1856.000000	98.888022
1855.000000	98.885474
1854.000000	98.893341
1853.000000	98.905140
1852.000000	98.918161
1851.000000	98.933604
1850.000000	98.947013
1849.000000	98.953918
1848.000000	98.959316
1847.000000	98.970280
1846.000000	98.979884
1845.000000	98.971924
1844.000000	98.941617
1843.000000	98.910382
1842.000000	98.904383
1841.000000	98.918791
1840.000000	98.931154
1839.000000	98.932777
1838.000000	98.929044
1837.000000	98.923994
1836.000000	98.919248
1835.000000	98.921344
1834.000000	98.936170
1833.000000	98.962031
1832.000000	98.993303
1831.000000	99.021125
1830.000000	99.030269
1829.000000	99.014692
1828.000000	98.993911
1827.000000	98.987256
1826.000000	98.987312
1825.000000	98.976338
1824.000000	98.953397
1823.000000	98.936588
1822.000000	98.936529
1821.000000	98.945581
1820.000000	98.955185
1819.000000	98.964797
1818.000000	98.975675
1817.000000	98.983982
1816.000000	98.986423
1815.000000	98.987763
1814.000000	98.992182
1813.000000	98.998125
1812.000000	99.002758
1811.000000	99.004879
1810.000000	99.002108
1809.000000	98.988704
1808.000000	98.965290
1807.000000	98.943951
1806.000000	98.936858
1805.000000	98.945505
1804.000000	98.963775
1803.000000	98.987304
1802.000000	99.009993
1801.000000	99.021868
1800.000000	99.017739
1799.000000	99.005220
1798.000000	98.998134
1797.000000	99.002427
1796.000000	99.015373
1795.000000	99.031553
1794.000000	99.045625
1793.000000	99.053452
1792.000000	99.048481
1791.000000	99.030660
1790.000000	99.013483
1789.000000	99.005037
1788.000000	99.003047
1787.000000	99.005508
1786.000000	99.009465
1785.000000	99.009145
1784.000000	99.006626
1783.000000	99.014318
1782.000000	99.030338
1781.000000	99.038756
1780.000000	99.032976
1779.000000	99.022851
1778.000000	99.021931
1777.000000	99.031324
1776.000000	99.045368
1775.000000	99.056161
1774.000000	99.055825
1773.000000	99.044970
1772.000000	99.032635
1771.000000	99.031929
1770.000000	99.045198
1769.000000	99.050702
1768.000000	99.032473
1767.000000	99.008978
1766.000000	99.006709
1765.000000	99.025625
1764.000000	99.044512
1763.000000	99.051625
1762.000000	99.047322
1761.000000	99.036943
1760.000000	99.033955
1759.000000	99.046356
1758.000000	99.060385
1757.000000	99.055065
1756.000000	99.032818
1755.000000	99.015780
1754.000000	99.010591
1753.000000	99.001527
1752.000000	98.986470
1751.000000	98.983720
1750.000000	99.002662
1749.000000	99.026162
1748.000000	99.031951
1747.000000	99.020739
1746.000000	99.006199
1745.000000	98.997193
1744.000000	98.992726
1743.000000	98.989941
1742.000000	98.987438
1741.000000	98.979812
1740.000000	98.962783
1739.000000	98.948067
1738.000000	98.951172
1737.000000	98.958303
1736.000000	98.935070
1735.000000	98.886820
1734.000000	98.842327
1733.000000	98.817891
1732.000000	98.847424
1731.000000	98.924357
1730.000000	98.987105
1729.000000	99.001171
1728.000000	98.982357
1727.000000	98.963782
1726.000000	98.957497
1725.000000	98.957122
1724.000000	98.953182
1723.000000	98.948096
1722.000000	98.953980
1721.000000	98.967144
1720.000000	98.966954
1719.000000	98.946026
1718.000000	98.919340
1717.000000	98.890237
1716.000000	98.861389
1715.000000	98.846721
1714.000000	98.835586
1713.000000	98.808598
1712.000000	98.769761
1711.000000	98.735967
1710.000000	98.713151
1709.000000	98.694542
1708.000000	98.677323
1707.000000	98.657471
1706.000000	98.620989
1705.000000	98.557847
1704.000000	98.476052
1703.000000	98.398973
1702.000000	98.278348
1701.000000	98.145497
1700.000000	97.936775
1699.000000	97.927475
1698.000000	97.944930
1697.000000	97.768028
1696.000000	97.710061
1695.000000	97.357862
1694.000000	97.106876
1693.000000	97.122947
1692.000000	97.063495
1691.000000	96.992902
1690.000000	96.876070
1689.000000	96.767590
1688.000000	96.643895
1687.000000	96.497171
1686.000000	96.329848
1685.000000	96.170756
1684.000000	96.017142
1683.000000	95.870179
1682.000000	95.760157
1681.000000	95.654388
1680.000000	95.505671
1679.000000	95.329405
1678.000000	95.151306
1677.000000	94.964821
1676.000000	94.755964
1675.000000	94.540272
1674.000000	94.345324
1673.000000	94.180728
1672.000000	94.024654
1671.000000	93.855761
1670.000000	93.669956
1669.000000	93.450647
1668.000000	93.201491
1667.000000	92.962776
1666.000000	92.749263
1665.000000	92.540336
1664.000000	92.322794
1663.000000	92.108520
1662.000000	91.901788
1661.000000	91.690136
1660.000000	91.473455
1659.000000	91.260372
1658.000000	91.060958
1657.000000	90.859809
1656.000000	90.632957
1655.000000	90.376479
1654.000000	90.199572
1653.000000	90.123886
1652.000000	89.992040
1651.000000	89.880518
1650.000000	89.869676
1649.000000	89.856833
1648.000000	89.816707
1647.000000	89.788077
1646.000000	89.751781
1645.000000	89.667807
1644.000000	89.572660
1643.000000	89.502576
1642.000000	89.446479
1641.000000	89.385791
1640.000000	89.313352
1639.000000	89.230138
1638.000000	89.144134
1637.000000	89.083247
1636.000000	89.073451
1635.000000	89.062853
1634.000000	89.001440
1633.000000	88.919202
1632.000000	88.833986
1631.000000	88.751048
1630.000000	88.698135
1629.000000	88.695393
1628.000000	88.728229
1627.000000	88.763192
1626.000000	88.789782
1625.000000	88.835408
1624.000000	88.944847
1623.000000	89.121925
1622.000000	89.298518
1621.000000	89.415991
1620.000000	89.481685
1619.000000	89.535742
1618.000000	89.652242
1617.000000	89.896203
1616.000000	90.210001
1615.000000	90.486735
1614.000000	90.708375
1613.000000	90.899240
1612.000000	91.084339
1611.000000	91.287289
1610.000000	91.505288
1609.000000	91.719863
1608.000000	91.921167
1607.000000	92.108800
1606.000000	92.279784
1605.000000	92.438850
1604.000000	92.600999
1603.000000	92.768744
1602.000000	92.928882
1601.000000	93.073611
1600.000000	93.207345
1599.000000	93.330810
1598.000000	93.437866
1597.000000	93.531828
1596.000000	93.625493
1595.000000	93.720806
1594.000000	93.805083
1593.000000	93.871914
1592.000000	93.928504
1591.000000	93.978849
1590.000000	94.017731
1589.000000	94.045548
1588.000000	94.071267
1587.000000	94.095084
1586.000000	94.105738
1585.000000	94.097966
1584.000000	94.083974
1583.000000	94.070307
1582.000000	94.047197
1581.000000	94.012437
1580.000000	93.971574
1579.000000	93.911906
1578.000000	93.812356
1577.000000	93.690252
1576.000000	93.585371
1575.000000	93.509083
1574.000000	93.454741
1573.000000	93.401391
1572.000000	93.321128
1571.000000	93.218226
1570.000000	93.107213
1569.000000	92.977397
1568.000000	92.831822
1567.000000	92.687000
1566.000000	92.539767
1565.000000	92.380333
1564.000000	92.216960
1563.000000	92.037796
1562.000000	91.819433
1561.000000	91.567430
1560.000000	91.393917
1559.000000	91.355843
1558.000000	91.257005
1557.000000	91.057138
1556.000000	90.882378
1555.000000	90.725380
1554.000000	90.559501
1553.000000	90.399984
1552.000000	90.270323
1551.000000	90.169188
1550.000000	90.076148
1549.000000	89.970698
1548.000000	89.848893
1547.000000	89.731636
1546.000000	89.643158
1545.000000	89.595410
1544.000000	89.567425
1543.000000	89.526225
1542.000000	89.477483
1541.000000	89.481687
1540.000000	89.555063
1539.000000	89.592838
1538.000000	89.566660
1537.000000	89.548332
1536.000000	89.543696
1535.000000	89.554831
1534.000000	89.627392
1533.000000	89.741987
1532.000000	89.812588
1531.000000	89.827038
1530.000000	89.838052
1529.000000	89.879570
1528.000000	89.955767
1527.000000	90.056732
1526.000000	90.164956
1525.000000	90.252986
1524.000000	90.307467
1523.000000	90.354701
1522.000000	90.456712
1521.000000	90.605880
1520.000000	90.724350
1519.000000	90.812731
1518.000000	90.917556
1517.000000	91.046272
1516.000000	91.157326
1515.000000	91.217071
1514.000000	91.255869
1513.000000	91.318861
1512.000000	91.423102
1511.000000	91.550092
1510.000000	91.670436
1509.000000	91.781181
1508.000000	91.942561
1507.000000	92.209882
1506.000000	92.446571
1505.000000	92.549797
1504.000000	92.634970
1503.000000	92.756859
1502.000000	92.887215
1501.000000	93.021451
1500.000000	93.162666
1499.000000	93.305787
1498.000000	93.447972
1497.000000	93.597338
1496.000000	93.743067
1495.000000	93.878785
1494.000000	94.017921
1493.000000	94.161329
1492.000000	94.307154
1491.000000	94.477485
1490.000000	94.678428
1489.000000	94.858480
1488.000000	94.968697
1487.000000	95.023510
1486.000000	95.060829
1485.000000	95.093010
1484.000000	95.122526
1483.000000	95.156929
1482.000000	95.199979
1481.000000	95.237438
1480.000000	95.250601
1479.000000	95.244033
1478.000000	95.235821
1477.000000	95.230047
1476.000000	95.209477
1475.000000	95.163481
1474.000000	95.101386
1473.000000	95.027803
1472.000000	94.927998
1471.000000	94.808748
1470.000000	94.699790
1469.000000	94.603125
1468.000000	94.504768
1467.000000	94.408855
1466.000000	94.327979
1465.000000	94.258084
1464.000000	94.180689
1463.000000	94.093938
1462.000000	94.014787
1461.000000	93.943876
1460.000000	93.867162
1459.000000	93.776566
1458.000000	93.683447
1457.000000	93.581535
1456.000000	93.457642
1455.000000	93.363973
1454.000000	93.324314
1453.000000	93.294550
1452.000000	93.255854
1451.000000	93.226418
1450.000000	93.222671
1449.000000	93.245281
1448.000000	93.283524
1447.000000	93.319977
1446.000000	93.338956
1445.000000	93.347027
1444.000000	93.363656
1443.000000	93.397376
1442.000000	93.445159
1441.000000	93.496522
1440.000000	93.539582
1439.000000	93.570585
1438.000000	93.615425
1437.000000	93.713157
1436.000000	93.845375
1435.000000	93.958898
1434.000000	94.045475
1433.000000	94.117420
1432.000000	94.182852
1431.000000	94.249109
1430.000000	94.310484
1429.000000	94.351958
1428.000000	94.365136
1427.000000	94.361827
1426.000000	94.359528
1425.000000	94.370161
1424.000000	94.391238
1423.000000	94.399603
1422.000000	94.379694
1421.000000	94.345998
1420.000000	94.339400
1419.000000	94.377366
1418.000000	94.424169
1417.000000	94.450461
1416.000000	94.453229
1415.000000	94.432935
1414.000000	94.398892
1413.000000	94.364700
1412.000000	94.334232
1411.000000	94.301252
1410.000000	94.260789
1409.000000	94.214468
1408.000000	94.165745
1407.000000	94.120998
1406.000000	94.085181
1405.000000	94.055430
1404.000000	94.022295
1403.000000	93.981282
1402.000000	93.942353
1401.000000	93.921272
1400.000000	93.929143
1399.000000	93.957682
1398.000000	93.983011
1397.000000	93.995252
1396.000000	94.003824
1395.000000	94.015749
1394.000000	94.020852
1393.000000	94.012294
1392.000000	93.999760
1391.000000	93.989823
1390.000000	93.981972
1389.000000	93.981344
1388.000000	93.996477
1387.000000	94.022596
1386.000000	94.042581
1385.000000	94.050101
1384.000000	94.053435
1383.000000	94.061291
1382.000000	94.077344
1381.000000	94.099795
1380.000000	94.125660
1379.000000	94.152998
1378.000000	94.180119
1377.000000	94.210301
1376.000000	94.254974
1375.000000	94.322805
1374.000000	94.399362
1373.000000	94.456725
1372.000000	94.489129
1371.000000	94.516889
1370.000000	94.558230
1369.000000	94.616874
1368.000000	94.687192
1367.000000	94.761601
1366.000000	94.837261
1365.000000	94.917837
1364.000000	95.009805
1363.000000	95.110898
1362.000000	95.202243
1361.000000	95.265580
1360.000000	95.303336
1359.000000	95.329374
1358.000000	95.351526
1357.000000	95.369815
1356.000000	95.382701
1355.000000	95.389767
1354.000000	95.389555
1353.000000	95.379914
1352.000000	95.360023
1351.000000	95.331648
1350.000000	95.295420
1349.000000	95.250735
1348.000000	95.199498
1347.000000	95.145984
1346.000000	95.092828
1345.000000	95.039420
1344.000000	94.986132
1343.000000	94.937458
1342.000000	94.899128
1341.000000	94.872426
1340.000000	94.851250
1339.000000	94.825308
1338.000000	94.790393
1337.000000	94.754953
1336.000000	94.733136
1335.000000	94.732673
1334.000000	94.750407
1333.000000	94.778869
1332.000000	94.814543
1331.000000	94.857760
1330.000000	94.906754
1329.000000	94.956567
1328.000000	95.003477
1327.000000	95.046604
1326.000000	95.083870
1325.000000	95.110439
1324.000000	95.122582
1323.000000	95.121249
1322.000000	95.112086
1321.000000	95.102678
1320.000000	95.098941
1319.000000	95.101639
1318.000000	95.106383
1317.000000	95.109488
1316.000000	95.113395
1315.000000	95.124246
1314.000000	95.144960
1313.000000	95.172864
1312.000000	95.203629
1311.000000	95.235450
1310.000000	95.268799
1309.000000	95.303849
1308.000000	95.338453
1307.000000	95.368283
1306.000000	95.389150
1305.000000	95.401001
1304.000000	95.409170
1303.000000	95.420068
1302.000000	95.436019
1301.000000	95.454840
1300.000000	95.473384
1299.000000	95.489638
1298.000000	95.501863
1297.000000	95.507836
1296.000000	95.505606
1295.000000	95.493860
1294.000000	95.472049
1293.000000	95.440874
1292.000000	95.402213
1291.000000	95.357834
1290.000000	95.308520
1289.000000	95.255912
1288.000000	95.203881
1287.000000	95.155656
1286.000000	95.110160
1285.000000	95.064024
1284.000000	95.017336
1283.000000	94.974812
1282.000000	94.941412
1281.000000	94.919011
1280.000000	94.907928
1279.000000	94.908020
1278.000000	94.917259
1277.000000	94.931930
1276.000000	94.949004
1275.000000	94.966989
1274.000000	94.984355
1273.000000	94.999312
1272.000000	95.010915
1271.000000	95.018202
1270.000000	95.018988
1269.000000	95.012304
1268.000000	95.001375
1267.000000	94.990452
1266.000000	94.978825
1265.000000	94.961423
1264.000000	94.936043
1263.000000	94.906387
1262.000000	94.876457
1261.000000	94.845433
1260.000000	94.809887
1259.000000	94.768016
1258.000000	94.719657
1257.000000	94.664350
1256.000000	94.601961
1255.000000	94.533341
1254.000000	94.459008
1253.000000	94.378947
1252.000000	94.294376
1251.000000	94.208080
1250.000000	94.121776
1249.000000	94.034990
1248.000000	93.946919
1247.000000	93.856468
1246.000000	93.761090
1245.000000	93.659658
1244.000000	93.556955
1243.000000	93.460498
1242.000000	93.371391
1241.000000	93.283274
1240.000000	93.192302
1239.000000	93.103595
1238.000000	93.025295
1237.000000	92.961459
1236.000000	92.913287
1235.000000	92.882745
1234.000000	92.871689
1233.000000	92.879554
1232.000000	92.905167
1231.000000	92.947413
1230.000000	93.003751
1229.000000	93.072798
1228.000000	93.157536
1227.000000	93.262491
1226.000000	93.386419
1225.000000	93.521814
1224.000000	93.662381
1223.000000	93.805875
1222.000000	93.950097
1221.000000	94.090742
1220.000000	94.223898
1219.000000	94.346832
1218.000000	94.456319
1217.000000	94.549672
1216.000000	94.627740
1215.000000	94.693607
1214.000000	94.746757
1213.000000	94.782777
1212.000000	94.798943
1211.000000	94.796796
1210.000000	94.778776
1209.000000	94.745270
1208.000000	94.698723
1207.000000	94.647478
1206.000000	94.601897
1205.000000	94.567562
1204.000000	94.544438
1203.000000	94.531653
1202.000000	94.531178
1201.000000	94.548051
1200.000000	94.587516
1199.000000	94.651428
1198.000000	94.735624
1197.000000	94.831714
1196.000000	94.931934
1195.000000	95.031319
1194.000000	95.127921
1193.000000	95.222827
1192.000000	95.318835
1191.000000	95.416666
1190.000000	95.512937
1189.000000	95.603386
1188.000000	95.686544
1187.000000	95.762162
1186.000000	95.827663
1185.000000	95.880092
1184.000000	95.920903
1183.000000	95.956194
1182.000000	95.991794
1181.000000	96.028785
1180.000000	96.063716
1179.000000	96.091056
1178.000000	96.106487
1177.000000	96.110809
1176.000000	96.110549
1175.000000	96.113008
1174.000000	96.119957
1173.000000	96.127851
1172.000000	96.134037
1171.000000	96.139492
1170.000000	96.144962
1169.000000	96.147399
1168.000000	96.142150
1167.000000	96.127623
1166.000000	96.107106
1165.000000	96.087428
1164.000000	96.075720
1163.000000	96.074955
1162.000000	96.081652
1161.000000	96.090193
1160.000000	96.099831
1159.000000	96.115211
1158.000000	96.140097
1157.000000	96.173373
1156.000000	96.212350
1155.000000	96.256291
1154.000000	96.305147
1153.000000	96.357906
1152.000000	96.413599
1151.000000	96.471798
1150.000000	96.530593
1149.000000	96.586722
1148.000000	96.639435
1147.000000	96.691598
1146.000000	96.744663
1145.000000	96.794481
1144.000000	96.834966
1143.000000	96.865061
1142.000000	96.890339
1141.000000	96.917830
1140.000000	96.950446
1139.000000	96.985687
1138.000000	97.017863
1137.000000	97.042340
1136.000000	97.058660
1135.000000	97.069275
1134.000000	97.075233
1133.000000	97.074675
1132.000000	97.067183
1131.000000	97.057371
1130.000000	97.051131
1129.000000	97.049032
1128.000000	97.046120
1127.000000	97.038670
1126.000000	97.028868
1125.000000	97.022167
1124.000000	97.021523
1123.000000	97.024895
1122.000000	97.027463
1121.000000	97.026019
1120.000000	97.021618
1119.000000	97.017867
1118.000000	97.016911
1117.000000	97.018069
1116.000000	97.020185
1115.000000	97.022848
1114.000000	97.024335
1113.000000	97.021125
1112.000000	97.012062
1111.000000	97.001394
1110.000000	96.994708
1109.000000	96.992828
1108.000000	96.992032
1107.000000	96.989355
1106.000000	96.984960
1105.000000	96.979757
1104.000000	96.973593
1103.000000	96.965924
1102.000000	96.956350
1101.000000	96.944450
1100.000000	96.930830
1099.000000	96.917377
1098.000000	96.904589
1097.000000	96.889329
1096.000000	96.867871
1095.000000	96.840274
1094.000000	96.808922
1093.000000	96.772756
1092.000000	96.726202
1091.000000	96.664810
1090.000000	96.588798
1089.000000	96.501012
1088.000000	96.404331
1087.000000	96.302257
1086.000000	96.199483
1085.000000	96.100270
1084.000000	96.008252
1083.000000	95.928150
1082.000000	95.865665
1081.000000	95.824460
1080.000000	95.805610
1079.000000	95.809321
1078.000000	95.834644
1077.000000	95.877614
1076.000000	95.930673
1075.000000	95.985972
1074.000000	96.038801
1073.000000	96.087382
1072.000000	96.129880
1071.000000	96.162666
1070.000000	96.182729
1069.000000	96.191333
1068.000000	96.193807
1067.000000	96.194841
1066.000000	96.195281
1065.000000	96.194209
1064.000000	96.192990
1063.000000	96.195178
1062.000000	96.202620
1061.000000	96.213833
1060.000000	96.226453
1059.000000	96.239292
1058.000000	96.251505
1057.000000	96.261573
1056.000000	96.268005
1055.000000	96.270009
1054.000000	96.267306
1053.000000	96.260708
1052.000000	96.252703
1051.000000	96.245421
1050.000000	96.237936
1049.000000	96.228458
1048.000000	96.219694
1047.000000	96.218824
1046.000000	96.230208
1045.000000	96.250545
1044.000000	96.272946
1043.000000	96.293434
1042.000000	96.311508
1041.000000	96.325703
1040.000000	96.331310
1039.000000	96.322803
1038.000000	96.297718
1037.000000	96.257756
1036.000000	96.207156
1035.000000	96.151077
1034.000000	96.095755
1033.000000	96.049298
1032.000000	96.020031
1031.000000	96.011938
1030.000000	96.021989
1029.000000	96.043840
1028.000000	96.072950
1027.000000	96.106848
1026.000000	96.142857
1025.000000	96.179232
1024.000000	96.217730
1023.000000	96.260454
1022.000000	96.304238
1021.000000	96.342209
1020.000000	96.371519
1019.000000	96.396560
1018.000000	96.424270
1017.000000	96.459344
1016.000000	96.504009
1015.000000	96.558054
1014.000000	96.618320
1013.000000	96.681984
1012.000000	96.751399
1011.000000	96.832029
1010.000000	96.924212
1009.000000	97.020712
1008.000000	97.113729
1007.000000	97.201267
1006.000000	97.285406
1005.000000	97.367724
1004.000000	97.448334
1003.000000	97.526552
1002.000000	97.600480
1001.000000	97.667988
1000.000000	97.730065
999.000000	97.791103
998.000000	97.854066
997.000000	97.917383
996.000000	97.978111
995.000000	98.035795
994.000000	98.090827
993.000000	98.141564
992.000000	98.186626
991.000000	98.228120
990.000000	98.268824
989.000000	98.306387
988.000000	98.334068
987.000000	98.348201
986.000000	98.352246
985.000000	98.353407
984.000000	98.357244
983.000000	98.365232
982.000000	98.374224
981.000000	98.376956
980.000000	98.366558
979.000000	98.342865
978.000000	98.313127
977.000000	98.285482
976.000000	98.262711
975.000000	98.242856
974.000000	98.224135
973.000000	98.207930
972.000000	98.197583
971.000000	98.195279
970.000000	98.200134
969.000000	98.209970
968.000000	98.225144
967.000000	98.248495
966.000000	98.280404
965.000000	98.315799
964.000000	98.348606
963.000000	98.377622
962.000000	98.405030
961.000000	98.430312
960.000000	98.449763
959.000000	98.462799
958.000000	98.475106
957.000000	98.493448
956.000000	98.518775
955.000000	98.545630
954.000000	98.567017
953.000000	98.579134
952.000000	98.583255
951.000000	98.583930
950.000000	98.584310
949.000000	98.583096
948.000000	98.577079
947.000000	98.566387
946.000000	98.554862
945.000000	98.545351
944.000000	98.537691
943.000000	98.531434
942.000000	98.527016
941.000000	98.522716
940.000000	98.514255
939.000000	98.500666
938.000000	98.489092
937.000000	98.490621
936.000000	98.511351
935.000000	98.548568
934.000000	98.593681
933.000000	98.637295
932.000000	98.672757
931.000000	98.697700
930.000000	98.713628
929.000000	98.723688
928.000000	98.730568
927.000000	98.736141
926.000000	98.741633
925.000000	98.747205
924.000000	98.752664
923.000000	98.759610
922.000000	98.771704
921.000000	98.791170
920.000000	98.815594
919.000000	98.839313
918.000000	98.858231
917.000000	98.873214
916.000000	98.889441
915.000000	98.913026
914.000000	98.946449
913.000000	98.985636
912.000000	99.021775
911.000000	99.046947
910.000000	99.058319
909.000000	99.057795
908.000000	99.049648
907.000000	99.039497
906.000000	99.033096
905.000000	99.032945
904.000000	99.036616
903.000000	99.040144
902.000000	99.042302
901.000000	99.043899
900.000000	99.043806
899.000000	99.038509
898.000000	99.026714
897.000000	99.012736
896.000000	99.004252
895.000000	99.006760
894.000000	99.019609
893.000000	99.036719
892.000000	99.051320
891.000000	99.060765
890.000000	99.066718
889.000000	99.070169
888.000000	99.067728
887.000000	99.054745
886.000000	99.031942
885.000000	99.006849
884.000000	98.987674
883.000000	98.977039
882.000000	98.971914
881.000000	98.967732
880.000000	98.960621
879.000000	98.946751
878.000000	98.923239
877.000000	98.892003
876.000000	98.861591
875.000000	98.842676
874.000000	98.840829
873.000000	98.854013
872.000000	98.876234
871.000000	98.901668
870.000000	98.925921
869.000000	98.946657
868.000000	98.964368
867.000000	98.981090
866.000000	98.997379
865.000000	99.011958
864.000000	99.024579
863.000000	99.036683
862.000000	99.047682
861.000000	99.053044
860.000000	99.048492
859.000000	99.034466
858.000000	99.014681
857.000000	98.991940
856.000000	98.968004
855.000000	98.946203
854.000000	98.930870
853.000000	98.924214
852.000000	98.925481
851.000000	98.932202
850.000000	98.940454
849.000000	98.945963
848.000000	98.947843
847.000000	98.950285
846.000000	98.957595
845.000000	98.968592
844.000000	98.978869
843.000000	98.987211
842.000000	98.995995
841.000000	99.005746
840.000000	99.013646
839.000000	99.018164
838.000000	99.021612
837.000000	99.026717
836.000000	99.033403
835.000000	99.040384
834.000000	99.047355
833.000000	99.054040
832.000000	99.058808
831.000000	99.059756
830.000000	99.056618
829.000000	99.051214
828.000000	99.046839
827.000000	99.046591
826.000000	99.050329
825.000000	99.053686
824.000000	99.052317
823.000000	99.046916
822.000000	99.041549
821.000000	99.037764
820.000000	99.033949
819.000000	99.030497
818.000000	99.031372
817.000000	99.038293
816.000000	99.045559
815.000000	99.043469
814.000000	99.027508
813.000000	99.003456
812.000000	98.983053
811.000000	98.975052
810.000000	98.980251
809.000000	98.994048
808.000000	99.011660
807.000000	99.029346
806.000000	99.043080
805.000000	99.050352
804.000000	99.053744
803.000000	99.058829
802.000000	99.066747
801.000000	99.071443
800.000000	99.066330
799.000000	99.051843
798.000000	99.034791
797.000000	99.022136
796.000000	99.016577
795.000000	99.016157
794.000000	99.016776
793.000000	99.016293
792.000000	99.016568
791.000000	99.019969
790.000000	99.024598
789.000000	99.025990
788.000000	99.022980
787.000000	99.018433
786.000000	99.015029
785.000000	99.014590
784.000000	99.020318
783.000000	99.033010
782.000000	99.044595
781.000000	99.042799
780.000000	99.025240
779.000000	99.003065
778.000000	98.988233
777.000000	98.983072
776.000000	98.984762
775.000000	98.992627
774.000000	99.005566
773.000000	99.017719
772.000000	99.022631
771.000000	99.019035
770.000000	99.009898
769.000000	99.000235
768.000000	98.998041
767.000000	99.010272
766.000000	99.033093
765.000000	99.052319
764.000000	99.058887
763.000000	99.058184
762.000000	99.058714
761.000000	99.058203
760.000000	99.048538
759.000000	99.029784
758.000000	99.011190
757.000000	99.000679
756.000000	98.999570
755.000000	99.004863
754.000000	99.010665
753.000000	99.009863
752.000000	98.999881
751.000000	98.984905
750.000000	98.969342
749.000000	98.953328
748.000000	98.938361
747.000000	98.930780
746.000000	98.933336
745.000000	98.938655
744.000000	98.938219
743.000000	98.933181
742.000000	98.929054
741.000000	98.924723
740.000000	98.915521
739.000000	98.904172
738.000000	98.899727
737.000000	98.906279
736.000000	98.918621
735.000000	98.927255
734.000000	98.922732
733.000000	98.898958
732.000000	98.859016
731.000000	98.815570
730.000000	98.779702
729.000000	98.751384
728.000000	98.724579
727.000000	98.696114
726.000000	98.664174
725.000000	98.625092
724.000000	98.580640
723.000000	98.543011
722.000000	98.522677
721.000000	98.513868
720.000000	98.501097
719.000000	98.478256
718.000000	98.452604
717.000000	98.431877
716.000000	98.415498
715.000000	98.397572
714.000000	98.372003
713.000000	98.336446
712.000000	98.296606
711.000000	98.262706
710.000000	98.235635
709.000000	98.202244
708.000000	98.151913
707.000000	98.093057
706.000000	98.044080
705.000000	98.011837
704.000000	97.988307
703.000000	97.964302
702.000000	97.936673
701.000000	97.904938
700.000000	97.871879
699.000000	97.846519
698.000000	97.836995
697.000000	97.839963
696.000000	97.844572
695.000000	97.845783
694.000000	97.845619
693.000000	97.843061
692.000000	97.831830
691.000000	97.809207
690.000000	97.780092
689.000000	97.751674
688.000000	97.728130
687.000000	97.709358
686.000000	97.691977
685.000000	97.673783
684.000000	97.658481
683.000000	97.650105
682.000000	97.640775
681.000000	97.615094
680.000000	97.573243
679.000000	97.538715
678.000000	97.531493
677.000000	97.542281
676.000000	97.546606
675.000000	97.534250
674.000000	97.508910
673.000000	97.468516
672.000000	97.408383
671.000000	97.341640
670.000000	97.298509
669.000000	97.306403
668.000000	97.353109
667.000000	97.364307
666.000000	97.304666
665.000000	97.212583
664.000000	97.124913
663.000000	97.058147
662.000000	97.015369
661.000000	96.993730
660.000000	96.993038
659.000000	97.011097
658.000000	97.031662
657.000000	97.032071
656.000000	97.008025
655.000000	96.978482
654.000000	96.962104
653.000000	96.959714
652.000000	96.963562
651.000000	96.968192
650.000000	96.966408
649.000000	96.950865
648.000000	96.929183
647.000000	96.923512
646.000000	96.944523
645.000000	96.976245
644.000000	96.995836
643.000000	96.998116
642.000000	96.994074
641.000000	96.994975
640.000000	97.004569
639.000000	97.018448
638.000000	97.025120
637.000000	97.016120
636.000000	96.997905
635.000000	96.983421
634.000000	96.970382
633.000000	96.943354
632.000000	96.900422
631.000000	96.860859
630.000000	96.839495
629.000000	96.828903
628.000000	96.814615
627.000000	96.793011
626.000000	96.768416
625.000000	96.748081
624.000000	96.745439
623.000000	96.769276
622.000000	96.802142
621.000000	96.810306
620.000000	96.786327
619.000000	96.761502
618.000000	96.765532
617.000000	96.791917
616.000000	96.816030
615.000000	96.827131
614.000000	96.825702
613.000000	96.811027
612.000000	96.789643
611.000000	96.778086
610.000000	96.780101
609.000000	96.778058
608.000000	96.762018
607.000000	96.748013
606.000000	96.750187
605.000000	96.757288
604.000000	96.757060
603.000000	96.760978
602.000000	96.780361
601.000000	96.798301
600.000000	96.793591
599.000000	96.776465
598.000000	96.774039
597.000000	96.790416
596.000000	96.806135
595.000000	96.806570
594.000000	96.791769
593.000000	96.770450
592.000000	96.761404
591.000000	96.784416
590.000000	96.828711
589.000000	96.849564
588.000000	96.818322
587.000000	96.759713
586.000000	96.721942
585.000000	96.724307
584.000000	96.753926
583.000000	96.797553
582.000000	96.847274
581.000000	96.887783
580.000000	96.907215
579.000000	96.913320
578.000000	96.916446
577.000000	96.907559
576.000000	96.874349
575.000000	96.826035
574.000000	96.778288
573.000000	96.727508
572.000000	96.666378
571.000000	96.608434
570.000000	96.572088
569.000000	96.552313
568.000000	96.533295
567.000000	96.514780
566.000000	96.501148
565.000000	96.482092
564.000000	96.449419
563.000000	96.414787
562.000000	96.387256
561.000000	96.354034
560.000000	96.309490
559.000000	96.280548
558.000000	96.289995
557.000000	96.316520
556.000000	96.324448
555.000000	96.312423
554.000000	96.298981
553.000000	96.281364
552.000000	96.249027
551.000000	96.222161
550.000000	96.235537
549.000000	96.288340
548.000000	96.345140
547.000000	96.379169
546.000000	96.389040
545.000000	96.385725
544.000000	96.386940
543.000000	96.408736
542.000000	96.440421
541.000000	96.448113
540.000000	96.422759
539.000000	96.393143
538.000000	96.368943
537.000000	96.311969
536.000000	96.201516
535.000000	96.089718
534.000000	96.038451
533.000000	96.031743
532.000000	96.005762
531.000000	95.941776
530.000000	95.875638
529.000000	95.835468
528.000000	95.825319
527.000000	95.852830
526.000000	95.916952
525.000000	95.978461
524.000000	96.000402
523.000000	96.000929
522.000000	96.022302
521.000000	96.075922
520.000000	96.149381
519.000000	96.238362
518.000000	96.330061
517.000000	96.383120
516.000000	96.380996
515.000000	96.373833
514.000000	96.414244
513.000000	96.487266
512.000000	96.547972
511.000000	96.595349
510.000000	96.657601
509.000000	96.728001
508.000000	96.774881
507.000000	96.802393
506.000000	96.846008
505.000000	96.916389
504.000000	96.995188
503.000000	97.067149
502.000000	97.110737
501.000000	97.089500
500.000000	97.007440
499.000000	96.933873
498.000000	96.929322
497.000000	96.976063
496.000000	97.024704
495.000000	97.084003
494.000000	97.198461
493.000000	97.353764
492.000000	97.478831
491.000000	97.539315
490.000000	97.563651
489.000000	97.576402
488.000000	97.574720
487.000000	97.568537
486.000000	97.579342
485.000000	97.601132
484.000000	97.612337
483.000000	97.620503
482.000000	97.642067
481.000000	97.658941
480.000000	97.656011
479.000000	97.669674
478.000000	97.731326
477.000000	97.789246
476.000000	97.769787
475.000000	97.699891
474.000000	97.681032
473.000000	97.744784
472.000000	97.817225
471.000000	97.849019
470.000000	97.873497
469.000000	97.911474
468.000000	97.937607
467.000000	97.953214
466.000000	98.000711
465.000000	98.081504
464.000000	98.144245
463.000000	98.171773
462.000000	98.206538
461.000000	98.279584
460.000000	98.385382
459.000000	98.528631
458.000000	98.705348
457.000000	98.822427
456.000000	98.820123
455.000000	98.761706
454.000000	98.778863
453.000000	98.896629
452.000000	99.005097
451.000000	99.026647
450.000000	99.017741
