PE IR       SUBTECH     SPECTRUM    ASCII       PEDS        4.00        
   -1
Chevre1-C001_1.ASC
23/09/14
14:31:08.00
23/09/14
14:38:35.00
uco
Sample 001 By uco Date Thursday, September 14 2023
450.000000
#HDR
-1
-1
#GR
cm-1
%T
1.0
0.0
4000.000000
-1.000000
3551
8
99.743083
93.370945
#DATA
4000.000000	99.646596
3999.000000	99.645441
3998.000000	99.645680
3997.000000	99.645139
3996.000000	99.647973
3995.000000	99.651480
3994.000000	99.653582
3993.000000	99.652098
3992.000000	99.646569
3991.000000	99.639016
3990.000000	99.632485
3989.000000	99.628457
3988.000000	99.625902
3987.000000	99.622966
3986.000000	99.619185
3985.000000	99.615761
3984.000000	99.613931
3983.000000	99.613635
3982.000000	99.614042
3981.000000	99.614998
3980.000000	99.617307
3979.000000	99.621585
3978.000000	99.627082
3977.000000	99.631674
3976.000000	99.632957
3975.000000	99.629618
3974.000000	99.622431
3973.000000	99.614291
3972.000000	99.608825
3971.000000	99.608157
3970.000000	99.611308
3969.000000	99.614816
3968.000000	99.615329
3967.000000	99.611876
3966.000000	99.605942
3965.000000	99.599871
3964.000000	99.595461
3963.000000	99.593919
3962.000000	99.596087
3961.000000	99.601707
3960.000000	99.608533
3959.000000	99.612941
3958.000000	99.612163
3957.000000	99.606464
3956.000000	99.599103
3955.000000	99.594097
3954.000000	99.593612
3953.000000	99.597016
3952.000000	99.602096
3951.000000	99.606722
3950.000000	99.609899
3949.000000	99.611845
3948.000000	99.613483
3947.000000	99.615554
3946.000000	99.617661
3945.000000	99.618342
3944.000000	99.616282
3943.000000	99.611646
3942.000000	99.606694
3941.000000	99.604167
3940.000000	99.604648
3939.000000	99.606014
3938.000000	99.605119
3937.000000	99.600454
3936.000000	99.593706
3935.000000	99.589050
3934.000000	99.590517
3933.000000	99.598538
3932.000000	99.608838
3931.000000	99.615226
3930.000000	99.614662
3929.000000	99.609112
3928.000000	99.602456
3927.000000	99.597636
3926.000000	99.595714
3925.000000	99.596266
3924.000000	99.597897
3923.000000	99.598717
3922.000000	99.597497
3921.000000	99.594908
3920.000000	99.592974
3919.000000	99.593205
3918.000000	99.595251
3917.000000	99.597462
3916.000000	99.598358
3915.000000	99.597326
3914.000000	99.594678
3913.000000	99.591740
3912.000000	99.590257
3911.000000	99.591362
3910.000000	99.594475
3909.000000	99.597812
3908.000000	99.599185
3907.000000	99.596995
3906.000000	99.591493
3905.000000	99.585773
3904.000000	99.584616
3903.000000	99.590076
3902.000000	99.598370
3901.000000	99.603553
3900.000000	99.603554
3899.000000	99.601232
3898.000000	99.600133
3897.000000	99.600743
3896.000000	99.601681
3895.000000	99.602556
3894.000000	99.603279
3893.000000	99.602948
3892.000000	99.600478
3891.000000	99.597394
3890.000000	99.596251
3889.000000	99.596412
3888.000000	99.595310
3887.000000	99.592938
3886.000000	99.592694
3885.000000	99.597536
3884.000000	99.604831
3883.000000	99.608621
3882.000000	99.605793
3881.000000	99.598317
3880.000000	99.590989
3879.000000	99.587122
3878.000000	99.584983
3877.000000	99.580679
3876.000000	99.573648
3875.000000	99.567943
3874.000000	99.568174
3873.000000	99.573810
3872.000000	99.579175
3871.000000	99.580241
3870.000000	99.579865
3869.000000	99.583012
3868.000000	99.587413
3867.000000	99.586130
3866.000000	99.577518
3865.000000	99.566861
3864.000000	99.560001
3863.000000	99.558380
3862.000000	99.559966
3861.000000	99.563455
3860.000000	99.568608
3859.000000	99.575643
3858.000000	99.584455
3857.000000	99.593592
3856.000000	99.598865
3855.000000	99.597002
3854.000000	99.593868
3853.000000	99.600378
3852.000000	99.613638
3851.000000	99.620612
3850.000000	99.616945
3849.000000	99.608132
3848.000000	99.598981
3847.000000	99.590352
3846.000000	99.582039
3845.000000	99.575522
3844.000000	99.573680
3843.000000	99.578968
3842.000000	99.590834
3841.000000	99.605509
3840.000000	99.617591
3839.000000	99.622659
3838.000000	99.619075
3837.000000	99.608676
3836.000000	99.595270
3835.000000	99.582507
3834.000000	99.572853
3833.000000	99.567300
3832.000000	99.565569
3831.000000	99.566461
3830.000000	99.567333
3829.000000	99.565174
3828.000000	99.559720
3827.000000	99.555682
3826.000000	99.558835
3825.000000	99.569136
3824.000000	99.579786
3823.000000	99.583783
3822.000000	99.580796
3821.000000	99.577957
3820.000000	99.581547
3819.000000	99.588250
3818.000000	99.589831
3817.000000	99.583963
3816.000000	99.576465
3815.000000	99.574119
3814.000000	99.575331
3813.000000	99.574544
3812.000000	99.571201
3811.000000	99.568489
3810.000000	99.568190
3809.000000	99.569693
3808.000000	99.573120
3807.000000	99.580945
3806.000000	99.593635
3805.000000	99.606011
3804.000000	99.611572
3803.000000	99.608409
3802.000000	99.600296
3801.000000	99.594187
3800.000000	99.591964
3799.000000	99.587898
3798.000000	99.579363
3797.000000	99.570921
3796.000000	99.568102
3795.000000	99.570998
3794.000000	99.574752
3793.000000	99.574979
3792.000000	99.571368
3791.000000	99.566337
3790.000000	99.562785
3789.000000	99.562599
3788.000000	99.565361
3787.000000	99.568286
3786.000000	99.568212
3785.000000	99.564228
3784.000000	99.557866
3783.000000	99.550634
3782.000000	99.542731
3781.000000	99.535723
3780.000000	99.533984
3779.000000	99.541537
3778.000000	99.556724
3777.000000	99.572548
3776.000000	99.582762
3775.000000	99.586117
3774.000000	99.584528
3773.000000	99.579229
3772.000000	99.570602
3771.000000	99.560986
3770.000000	99.554739
3769.000000	99.554073
3768.000000	99.556136
3767.000000	99.557116
3766.000000	99.557537
3765.000000	99.560976
3764.000000	99.568287
3763.000000	99.575555
3762.000000	99.578100
3761.000000	99.575382
3760.000000	99.570288
3759.000000	99.566305
3758.000000	99.566239
3757.000000	99.572205
3756.000000	99.584881
3755.000000	99.602922
3754.000000	99.623489
3753.000000	99.642711
3752.000000	99.655322
3751.000000	99.657470
3750.000000	99.653014
3749.000000	99.650497
3748.000000	99.651813
3747.000000	99.651808
3746.000000	99.646177
3745.000000	99.637749
3744.000000	99.636697
3743.000000	99.643809
3742.000000	99.647716
3741.000000	99.645297
3740.000000	99.643745
3739.000000	99.647339
3738.000000	99.652773
3737.000000	99.654659
3736.000000	99.651823
3735.000000	99.646616
3734.000000	99.641837
3733.000000	99.638386
3732.000000	99.635767
3731.000000	99.632988
3730.000000	99.628458
3729.000000	99.621919
3728.000000	99.615891
3727.000000	99.613816
3726.000000	99.616388
3725.000000	99.620001
3724.000000	99.620397
3723.000000	99.616536
3722.000000	99.610049
3721.000000	99.602320
3720.000000	99.593144
3719.000000	99.583035
3718.000000	99.574860
3717.000000	99.571846
3716.000000	99.574339
3715.000000	99.579607
3714.000000	99.585213
3713.000000	99.591569
3712.000000	99.600386
3711.000000	99.611068
3710.000000	99.619804
3709.000000	99.623657
3708.000000	99.622409
3707.000000	99.617369
3706.000000	99.610470
3705.000000	99.603654
3704.000000	99.598790
3703.000000	99.597136
3702.000000	99.598142
3701.000000	99.600358
3700.000000	99.602981
3699.000000	99.605974
3698.000000	99.610056
3697.000000	99.616372
3696.000000	99.624830
3695.000000	99.632944
3694.000000	99.637747
3693.000000	99.638838
3692.000000	99.638539
3691.000000	99.639405
3690.000000	99.641614
3689.000000	99.643683
3688.000000	99.644356
3687.000000	99.641481
3686.000000	99.632822
3685.000000	99.620408
3684.000000	99.610159
3683.000000	99.606949
3682.000000	99.611006
3681.000000	99.619150
3680.000000	99.628811
3679.000000	99.638471
3678.000000	99.644960
3677.000000	99.643591
3676.000000	99.634275
3675.000000	99.626903
3674.000000	99.630584
3673.000000	99.639600
3672.000000	99.642468
3671.000000	99.634258
3670.000000	99.618914
3669.000000	99.605670
3668.000000	99.599489
3667.000000	99.598647
3666.000000	99.600974
3665.000000	99.605324
3664.000000	99.608966
3663.000000	99.607642
3662.000000	99.599514
3661.000000	99.587739
3660.000000	99.577929
3659.000000	99.573419
3658.000000	99.574319
3657.000000	99.579643
3656.000000	99.588673
3655.000000	99.598839
3654.000000	99.605549
3653.000000	99.605987
3652.000000	99.601857
3651.000000	99.597141
3650.000000	99.593323
3649.000000	99.587734
3648.000000	99.578858
3647.000000	99.569933
3646.000000	99.564179
3645.000000	99.561841
3644.000000	99.561952
3643.000000	99.564642
3642.000000	99.570067
3641.000000	99.576117
3640.000000	99.578799
3639.000000	99.575471
3638.000000	99.567503
3637.000000	99.557944
3636.000000	99.548354
3635.000000	99.539347
3634.000000	99.532739
3633.000000	99.530321
3632.000000	99.530952
3631.000000	99.531586
3630.000000	99.531730
3629.000000	99.533957
3628.000000	99.537851
3627.000000	99.537628
3626.000000	99.528562
3625.000000	99.513952
3624.000000	99.501213
3623.000000	99.494508
3622.000000	99.493117
3621.000000	99.494086
3620.000000	99.494134
3619.000000	99.490604
3618.000000	99.483570
3617.000000	99.475510
3616.000000	99.468165
3615.000000	99.461422
3614.000000	99.454358
3613.000000	99.447013
3612.000000	99.441136
3611.000000	99.437949
3610.000000	99.436664
3609.000000	99.435681
3608.000000	99.434256
3607.000000	99.433076
3606.000000	99.433056
3605.000000	99.434042
3604.000000	99.434686
3603.000000	99.432819
3602.000000	99.426361
3601.000000	99.414650
3600.000000	99.399524
3599.000000	99.384614
3598.000000	99.373712
3597.000000	99.368580
3596.000000	99.367893
3595.000000	99.367615
3594.000000	99.364677
3593.000000	99.359798
3592.000000	99.355992
3591.000000	99.354589
3590.000000	99.353980
3589.000000	99.351167
3588.000000	99.343863
3587.000000	99.332050
3586.000000	99.318322
3585.000000	99.305129
3584.000000	99.293700
3583.000000	99.285218
3582.000000	99.280553
3581.000000	99.278521
3580.000000	99.276210
3579.000000	99.270892
3578.000000	99.261997
3577.000000	99.251373
3576.000000	99.242156
3575.000000	99.237000
3574.000000	99.236389
3573.000000	99.238386
3572.000000	99.239783
3571.000000	99.237687
3570.000000	99.230258
3569.000000	99.217183
3568.000000	99.199979
3567.000000	99.182356
3566.000000	99.169445
3565.000000	99.164066
3564.000000	99.163883
3563.000000	99.164113
3562.000000	99.161205
3561.000000	99.154255
3560.000000	99.144486
3559.000000	99.134071
3558.000000	99.124817
3557.000000	99.117537
3556.000000	99.111499
3555.000000	99.104379
3554.000000	99.093695
3553.000000	99.079765
3552.000000	99.066859
3551.000000	99.059744
3550.000000	99.058924
3549.000000	99.060590
3548.000000	99.060473
3547.000000	99.056528
3546.000000	99.048714
3545.000000	99.037794
3544.000000	99.024930
3543.000000	99.011640
3542.000000	98.999447
3541.000000	98.989250
3540.000000	98.980778
3539.000000	98.972537
3538.000000	98.962584
3537.000000	98.950038
3536.000000	98.936411
3535.000000	98.924589
3534.000000	98.916114
3533.000000	98.909692
3532.000000	98.903099
3531.000000	98.895992
3530.000000	98.890403
3529.000000	98.888411
3528.000000	98.889957
3527.000000	98.893193
3526.000000	98.896169
3525.000000	98.897166
3524.000000	98.894159
3523.000000	98.885822
3522.000000	98.873477
3521.000000	98.860695
3520.000000	98.850365
3519.000000	98.842630
3518.000000	98.835814
3517.000000	98.828517
3516.000000	98.820956
3515.000000	98.814635
3514.000000	98.811238
3513.000000	98.810984
3512.000000	98.811569
3511.000000	98.809024
3510.000000	98.800726
3509.000000	98.787873
3508.000000	98.774360
3507.000000	98.763167
3506.000000	98.754442
3505.000000	98.746644
3504.000000	98.738259
3503.000000	98.728895
3502.000000	98.719915
3501.000000	98.713769
3500.000000	98.711735
3499.000000	98.712045
3498.000000	98.710676
3497.000000	98.704266
3496.000000	98.692828
3495.000000	98.679756
3494.000000	98.669526
3493.000000	98.664976
3492.000000	98.665804
3491.000000	98.668829
3490.000000	98.670004
3489.000000	98.666981
3488.000000	98.660006
3487.000000	98.650605
3486.000000	98.639994
3485.000000	98.628984
3484.000000	98.618709
3483.000000	98.610469
3482.000000	98.604753
3481.000000	98.600732
3480.000000	98.596630
3479.000000	98.590539
3478.000000	98.581530
3477.000000	98.570701
3476.000000	98.560916
3475.000000	98.554814
3474.000000	98.552823
3473.000000	98.553333
3472.000000	98.554333
3471.000000	98.554279
3470.000000	98.551865
3469.000000	98.546328
3468.000000	98.538557
3467.000000	98.531285
3466.000000	98.527180
3465.000000	98.526440
3464.000000	98.526237
3463.000000	98.522562
3462.000000	98.513231
3461.000000	98.499856
3460.000000	98.487002
3459.000000	98.478814
3458.000000	98.475888
3457.000000	98.475214
3456.000000	98.472788
3455.000000	98.466204
3454.000000	98.455626
3453.000000	98.443335
3452.000000	98.432583
3451.000000	98.425777
3450.000000	98.423066
3449.000000	98.422712
3448.000000	98.422521
3447.000000	98.420487
3446.000000	98.414838
3445.000000	98.405229
3444.000000	98.394585
3443.000000	98.388506
3442.000000	98.390785
3441.000000	98.398876
3440.000000	98.404821
3439.000000	98.401344
3438.000000	98.387493
3437.000000	98.369100
3436.000000	98.354393
3435.000000	98.348268
3434.000000	98.349430
3433.000000	98.352094
3432.000000	98.350807
3431.000000	98.344163
3430.000000	98.334657
3429.000000	98.325663
3428.000000	98.318621
3427.000000	98.312462
3426.000000	98.304852
3425.000000	98.294089
3424.000000	98.280619
3423.000000	98.267225
3422.000000	98.257290
3421.000000	98.252140
3420.000000	98.250002
3419.000000	98.247991
3418.000000	98.245121
3417.000000	98.242878
3416.000000	98.242925
3415.000000	98.244826
3414.000000	98.246356
3413.000000	98.245684
3412.000000	98.242614
3411.000000	98.237863
3410.000000	98.231927
3409.000000	98.225012
3408.000000	98.217531
3407.000000	98.210184
3406.000000	98.203736
3405.000000	98.198773
3404.000000	98.195184
3403.000000	98.191496
3402.000000	98.185383
3401.000000	98.175719
3400.000000	98.164304
3399.000000	98.154907
3398.000000	98.150023
3397.000000	98.148548
3396.000000	98.146911
3395.000000	98.142516
3394.000000	98.135851
3393.000000	98.129294
3392.000000	98.124339
3391.000000	98.120441
3390.000000	98.116290
3389.000000	98.111228
3388.000000	98.104993
3387.000000	98.097013
3386.000000	98.087223
3385.000000	98.077502
3384.000000	98.070947
3383.000000	98.068887
3382.000000	98.069233
3381.000000	98.068373
3380.000000	98.064368
3379.000000	98.057862
3378.000000	98.050407
3377.000000	98.042910
3376.000000	98.035712
3375.000000	98.029380
3374.000000	98.024798
3373.000000	98.022646
3372.000000	98.022834
3371.000000	98.024105
3370.000000	98.024006
3369.000000	98.019904
3368.000000	98.010905
3367.000000	97.999067
3366.000000	97.988237
3365.000000	97.981040
3364.000000	97.976704
3363.000000	97.971884
3362.000000	97.963717
3361.000000	97.952275
3360.000000	97.940133
3359.000000	97.929673
3358.000000	97.921005
3357.000000	97.912397
3356.000000	97.902245
3355.000000	97.890426
3354.000000	97.878171
3353.000000	97.867087
3352.000000	97.858026
3351.000000	97.850290
3350.000000	97.842018
3349.000000	97.831943
3348.000000	97.820706
3347.000000	97.809870
3346.000000	97.799859
3345.000000	97.789780
3344.000000	97.779423
3343.000000	97.770168
3342.000000	97.763018
3341.000000	97.756657
3340.000000	97.748744
3339.000000	97.738743
3338.000000	97.728265
3337.000000	97.718635
3336.000000	97.709281
3335.000000	97.698887
3334.000000	97.687069
3333.000000	97.674168
3332.000000	97.660233
3331.000000	97.645414
3330.000000	97.631141
3329.000000	97.619888
3328.000000	97.613261
3327.000000	97.610599
3326.000000	97.609730
3325.000000	97.608799
3324.000000	97.607061
3323.000000	97.604064
3322.000000	97.598770
3321.000000	97.590183
3320.000000	97.578902
3319.000000	97.567519
3318.000000	97.558858
3317.000000	97.553648
3316.000000	97.550267
3315.000000	97.546797
3314.000000	97.542872
3313.000000	97.539294
3312.000000	97.536327
3311.000000	97.533030
3310.000000	97.528354
3309.000000	97.522610
3308.000000	97.517595
3307.000000	97.515059
3306.000000	97.514813
3305.000000	97.514350
3304.000000	97.510687
3303.000000	97.502774
3302.000000	97.492060
3301.000000	97.480882
3300.000000	97.471026
3299.000000	97.464047
3298.000000	97.461763
3297.000000	97.465013
3296.000000	97.472088
3295.000000	97.479325
3294.000000	97.483387
3293.000000	97.482416
3292.000000	97.475769
3291.000000	97.464452
3290.000000	97.452148
3289.000000	97.443959
3288.000000	97.442398
3287.000000	97.445005
3286.000000	97.446884
3285.000000	97.445185
3284.000000	97.440357
3283.000000	97.433979
3282.000000	97.427108
3281.000000	97.421082
3280.000000	97.418239
3279.000000	97.420400
3278.000000	97.426956
3277.000000	97.435132
3276.000000	97.442258
3275.000000	97.447497
3274.000000	97.451366
3273.000000	97.453992
3272.000000	97.454212
3271.000000	97.450612
3270.000000	97.443551
3269.000000	97.435867
3268.000000	97.431030
3267.000000	97.430291
3266.000000	97.431665
3265.000000	97.431945
3264.000000	97.429861
3263.000000	97.427358
3262.000000	97.427770
3261.000000	97.432599
3260.000000	97.439921
3259.000000	97.446114
3258.000000	97.449246
3257.000000	97.450609
3256.000000	97.452895
3255.000000	97.457101
3254.000000	97.461688
3253.000000	97.464750
3252.000000	97.466535
3251.000000	97.469427
3250.000000	97.475462
3249.000000	97.483979
3248.000000	97.491870
3247.000000	97.496186
3246.000000	97.496515
3245.000000	97.494852
3244.000000	97.493365
3243.000000	97.492730
3242.000000	97.492575
3241.000000	97.492912
3240.000000	97.494563
3239.000000	97.498218
3238.000000	97.503312
3237.000000	97.507926
3236.000000	97.509995
3235.000000	97.509043
3234.000000	97.506904
3233.000000	97.506454
3232.000000	97.509396
3231.000000	97.515201
3230.000000	97.522067
3229.000000	97.528350
3228.000000	97.533056
3227.000000	97.535858
3226.000000	97.537510
3225.000000	97.540058
3224.000000	97.545723
3223.000000	97.554917
3222.000000	97.565375
3221.000000	97.573526
3220.000000	97.576966
3219.000000	97.576093
3218.000000	97.573549
3217.000000	97.572276
3216.000000	97.574176
3215.000000	97.580010
3214.000000	97.589483
3213.000000	97.600753
3212.000000	97.610476
3211.000000	97.615710
3210.000000	97.616265
3209.000000	97.614724
3208.000000	97.613976
3207.000000	97.615310
3206.000000	97.619070
3205.000000	97.626052
3204.000000	97.636891
3203.000000	97.650091
3202.000000	97.661556
3201.000000	97.666901
3200.000000	97.664695
3199.000000	97.657879
3198.000000	97.651748
3197.000000	97.649912
3196.000000	97.651695
3195.000000	97.653751
3194.000000	97.654182
3193.000000	97.654572
3192.000000	97.658135
3191.000000	97.666438
3190.000000	97.678034
3189.000000	97.689392
3188.000000	97.697046
3187.000000	97.700148
3186.000000	97.701778
3185.000000	97.706770
3184.000000	97.716899
3183.000000	97.728807
3182.000000	97.737595
3181.000000	97.742000
3180.000000	97.744737
3179.000000	97.748398
3178.000000	97.752723
3177.000000	97.756239
3176.000000	97.758849
3175.000000	97.761807
3174.000000	97.766111
3173.000000	97.772086
3172.000000	97.780056
3171.000000	97.790551
3170.000000	97.803656
3169.000000	97.818437
3168.000000	97.832849
3167.000000	97.844376
3166.000000	97.851439
3165.000000	97.854805
3164.000000	97.857222
3163.000000	97.861134
3162.000000	97.866646
3161.000000	97.871931
3160.000000	97.875511
3159.000000	97.877958
3158.000000	97.881592
3157.000000	97.888755
3156.000000	97.900213
3155.000000	97.914651
3154.000000	97.929437
3153.000000	97.941788
3152.000000	97.949810
3151.000000	97.953310
3150.000000	97.954252
3149.000000	97.955814
3148.000000	97.960035
3147.000000	97.966350
3146.000000	97.972979
3145.000000	97.979414
3144.000000	97.986357
3143.000000	97.993264
3142.000000	97.997782
3141.000000	97.998800
3140.000000	97.998949
3139.000000	98.002364
3138.000000	98.010110
3137.000000	98.019227
3136.000000	98.026510
3135.000000	98.031941
3134.000000	98.037640
3133.000000	98.044463
3132.000000	98.051040
3131.000000	98.056059
3130.000000	98.060132
3129.000000	98.064810
3128.000000	98.070391
3127.000000	98.075437
3126.000000	98.078265
3125.000000	98.078490
3124.000000	98.077264
3123.000000	98.076643
3122.000000	98.078740
3121.000000	98.084556
3120.000000	98.092892
3119.000000	98.100710
3118.000000	98.105265
3117.000000	98.105929
3116.000000	98.103724
3115.000000	98.099531
3114.000000	98.093801
3113.000000	98.088071
3112.000000	98.085549
3111.000000	98.089015
3110.000000	98.097913
3109.000000	98.107943
3108.000000	98.113822
3107.000000	98.112893
3106.000000	98.106661
3105.000000	98.099364
3104.000000	98.094778
3103.000000	98.093831
3102.000000	98.094789
3101.000000	98.095343
3100.000000	98.094273
3099.000000	98.091493
3098.000000	98.087435
3097.000000	98.082796
3096.000000	98.078404
3095.000000	98.074819
3094.000000	98.072244
3093.000000	98.070950
3092.000000	98.071364
3091.000000	98.073262
3090.000000	98.075022
3089.000000	98.074100
3088.000000	98.068726
3087.000000	98.059622
3086.000000	98.050264
3085.000000	98.044749
3084.000000	98.044326
3083.000000	98.045818
3082.000000	98.044412
3081.000000	98.038447
3080.000000	98.030973
3079.000000	98.026390
3078.000000	98.026269
3077.000000	98.028845
3076.000000	98.031471
3075.000000	98.032459
3074.000000	98.031107
3073.000000	98.027465
3072.000000	98.022653
3071.000000	98.018706
3070.000000	98.017463
3069.000000	98.019343
3068.000000	98.023063
3067.000000	98.026490
3066.000000	98.028167
3065.000000	98.028498
3064.000000	98.029375
3063.000000	98.032602
3062.000000	98.038835
3061.000000	98.047844
3060.000000	98.058905
3059.000000	98.070373
3058.000000	98.079571
3057.000000	98.084251
3056.000000	98.084679
3055.000000	98.083912
3054.000000	98.085620
3053.000000	98.091260
3052.000000	98.099025
3051.000000	98.105512
3050.000000	98.108825
3049.000000	98.110395
3048.000000	98.113449
3047.000000	98.119746
3046.000000	98.128280
3045.000000	98.137127
3044.000000	98.145665
3043.000000	98.154574
3042.000000	98.164483
3041.000000	98.175309
3040.000000	98.186430
3039.000000	98.196748
3038.000000	98.204908
3037.000000	98.210245
3036.000000	98.213554
3035.000000	98.216368
3034.000000	98.219384
3033.000000	98.222038
3032.000000	98.223542
3031.000000	98.223980
3030.000000	98.224415
3029.000000	98.226482
3028.000000	98.231886
3027.000000	98.241473
3026.000000	98.254143
3025.000000	98.266902
3024.000000	98.276591
3023.000000	98.282092
3022.000000	98.285159
3021.000000	98.289179
3020.000000	98.296687
3019.000000	98.307591
3018.000000	98.319743
3017.000000	98.331373
3016.000000	98.342585
3015.000000	98.354135
3014.000000	98.365247
3013.000000	98.373686
3012.000000	98.378268
3011.000000	98.380512
3010.000000	98.383082
3009.000000	98.386876
3008.000000	98.390476
3007.000000	98.392468
3006.000000	98.393517
3005.000000	98.395454
3004.000000	98.398560
3003.000000	98.400724
3002.000000	98.399749
3001.000000	98.396117
3000.000000	98.392896
2999.000000	98.393155
2998.000000	98.397529
2997.000000	98.403738
2996.000000	98.407807
2995.000000	98.406445
2994.000000	98.399569
2993.000000	98.390743
2992.000000	98.384238
2991.000000	98.381299
2990.000000	98.379765
2989.000000	98.377103
2988.000000	98.372735
2987.000000	98.367435
2986.000000	98.362129
2985.000000	98.358067
2984.000000	98.356977
2983.000000	98.359703
2982.000000	98.365377
2981.000000	98.372900
2980.000000	98.382466
2979.000000	98.394298
2978.000000	98.406346
2977.000000	98.415053
2976.000000	98.419008
2975.000000	98.420918
2974.000000	98.425326
2973.000000	98.434641
2972.000000	98.447558
2971.000000	98.461027
2970.000000	98.473472
2969.000000	98.486089
2968.000000	98.500891
2967.000000	98.517770
2966.000000	98.534233
2965.000000	98.548190
2964.000000	98.559919
2963.000000	98.570460
2962.000000	98.579411
2961.000000	98.585938
2960.000000	98.591462
2959.000000	98.599259
2958.000000	98.610795
2957.000000	98.623726
2956.000000	98.634127
2955.000000	98.639894
2954.000000	98.641681
2953.000000	98.641397
2952.000000	98.640449
2951.000000	98.638871
2950.000000	98.635987
2949.000000	98.632402
2948.000000	98.631324
2947.000000	98.636844
2946.000000	98.650298
2945.000000	98.669200
2944.000000	98.690104
2943.000000	98.711890
2942.000000	98.735618
2941.000000	98.762366
2940.000000	98.792506
2939.000000	98.826719
2938.000000	98.866304
2937.000000	98.911813
2936.000000	98.961930
2935.000000	99.013970
2934.000000	99.065360
2933.000000	99.114878
2932.000000	99.163010
2931.000000	99.211312
2930.000000	99.260606
2929.000000	99.309305
2928.000000	99.353509
2927.000000	99.389488
2926.000000	99.416512
2925.000000	99.437289
2924.000000	99.455251
2923.000000	99.470944
2922.000000	99.481004
2921.000000	99.480883
2920.000000	99.468405
2919.000000	99.444876
2918.000000	99.413102
2917.000000	99.375107
2916.000000	99.331523
2915.000000	99.282662
2914.000000	99.230061
2913.000000	99.177118
2912.000000	99.128149
2911.000000	99.086081
2910.000000	99.050850
2909.000000	99.019996
2908.000000	98.990724
2907.000000	98.961625
2906.000000	98.933043
2905.000000	98.906637
2904.000000	98.884399
2903.000000	98.867423
2902.000000	98.855270
2901.000000	98.846314
2900.000000	98.838797
2899.000000	98.830989
2898.000000	98.821470
2897.000000	98.809907
2896.000000	98.797437
2895.000000	98.785632
2894.000000	98.775123
2893.000000	98.765582
2892.000000	98.756345
2891.000000	98.746227
2890.000000	98.733344
2889.000000	98.716678
2888.000000	98.697950
2887.000000	98.680634
2886.000000	98.666613
2885.000000	98.654871
2884.000000	98.643922
2883.000000	98.634359
2882.000000	98.628050
2881.000000	98.625621
2880.000000	98.625878
2879.000000	98.627615
2878.000000	98.630986
2877.000000	98.636971
2876.000000	98.645953
2875.000000	98.657011
2874.000000	98.668330
2873.000000	98.678368
2872.000000	98.686827
2871.000000	98.694641
2870.000000	98.703109
2869.000000	98.713291
2868.000000	98.726130
2867.000000	98.742514
2866.000000	98.762787
2865.000000	98.786494
2864.000000	98.813258
2863.000000	98.843863
2862.000000	98.880160
2861.000000	98.923413
2860.000000	98.972499
2859.000000	99.023661
2858.000000	99.072585
2857.000000	99.117317
2856.000000	99.158713
2855.000000	99.197342
2854.000000	99.229927
2853.000000	99.250189
2852.000000	99.253742
2851.000000	99.241188
2850.000000	99.215969
2849.000000	99.180117
2848.000000	99.133422
2847.000000	99.076488
2846.000000	99.013492
2845.000000	98.951294
2844.000000	98.896148
2843.000000	98.850834
2842.000000	98.814415
2841.000000	98.784379
2840.000000	98.758973
2839.000000	98.737751
2838.000000	98.720383
2837.000000	98.705740
2836.000000	98.692430
2835.000000	98.679762
2834.000000	98.667624
2833.000000	98.655866
2832.000000	98.644456
2831.000000	98.634269
2830.000000	98.627027
2829.000000	98.623852
2828.000000	98.623805
2827.000000	98.624092
2826.000000	98.622084
2825.000000	98.617344
2824.000000	98.611662
2823.000000	98.606987
2822.000000	98.603489
2821.000000	98.599867
2820.000000	98.595393
2819.000000	98.591141
2818.000000	98.589071
2817.000000	98.590222
2816.000000	98.593843
2815.000000	98.597899
2814.000000	98.600308
2813.000000	98.600143
2812.000000	98.598103
2811.000000	98.595819
2810.000000	98.594573
2809.000000	98.594615
2808.000000	98.595463
2807.000000	98.596463
2806.000000	98.597134
2805.000000	98.597455
2804.000000	98.597865
2803.000000	98.598484
2802.000000	98.598321
2801.000000	98.596021
2800.000000	98.591775
2799.000000	98.587870
2798.000000	98.586643
2797.000000	98.588129
2796.000000	98.590218
2795.000000	98.591054
2794.000000	98.590787
2793.000000	98.591019
2792.000000	98.592932
2791.000000	98.596145
2790.000000	98.599302
2789.000000	98.601616
2788.000000	98.603484
2787.000000	98.605409
2786.000000	98.606815
2785.000000	98.606743
2784.000000	98.605554
2783.000000	98.604773
2782.000000	98.604878
2781.000000	98.604351
2780.000000	98.601910
2779.000000	98.598860
2778.000000	98.597999
2777.000000	98.600399
2776.000000	98.604395
2775.000000	98.607700
2774.000000	98.609475
2773.000000	98.610119
2772.000000	98.610178
2771.000000	98.610117
2770.000000	98.610459
2769.000000	98.611365
2768.000000	98.612325
2767.000000	98.612786
2766.000000	98.612973
2765.000000	98.613711
2764.000000	98.615452
2763.000000	98.617774
2762.000000	98.619819
2761.000000	98.621098
2760.000000	98.621844
2759.000000	98.622640
2758.000000	98.623680
2757.000000	98.624584
2756.000000	98.625146
2755.000000	98.626016
2754.000000	98.628019
2753.000000	98.630791
2752.000000	98.632873
2751.000000	98.633577
2750.000000	98.634068
2749.000000	98.635861
2748.000000	98.638690
2747.000000	98.640912
2746.000000	98.641897
2745.000000	98.642819
2744.000000	98.644684
2743.000000	98.646689
2742.000000	98.647443
2741.000000	98.647195
2740.000000	98.647640
2739.000000	98.649576
2738.000000	98.651860
2737.000000	98.653089
2736.000000	98.653496
2735.000000	98.654486
2734.000000	98.656707
2733.000000	98.659388
2732.000000	98.661608
2731.000000	98.663518
2730.000000	98.665817
2729.000000	98.668225
2728.000000	98.669076
2727.000000	98.666945
2726.000000	98.662661
2725.000000	98.659281
2724.000000	98.659481
2723.000000	98.662935
2722.000000	98.666584
2721.000000	98.667625
2720.000000	98.666164
2719.000000	98.665011
2718.000000	98.667028
2717.000000	98.672411
2716.000000	98.678130
2715.000000	98.680217
2714.000000	98.677410
2713.000000	98.672747
2712.000000	98.671075
2711.000000	98.674693
2710.000000	98.681732
2709.000000	98.688482
2708.000000	98.692286
2707.000000	98.692237
2706.000000	98.688961
2705.000000	98.685079
2704.000000	98.684511
2703.000000	98.689092
2702.000000	98.695840
2701.000000	98.699338
2700.000000	98.697366
2699.000000	98.693015
2698.000000	98.690902
2697.000000	98.692597
2696.000000	98.696271
2695.000000	98.699458
2694.000000	98.701044
2693.000000	98.701459
2692.000000	98.702304
2691.000000	98.705349
2690.000000	98.710629
2689.000000	98.715662
2688.000000	98.717714
2687.000000	98.717002
2686.000000	98.716652
2685.000000	98.719084
2684.000000	98.723278
2683.000000	98.726249
2682.000000	98.726499
2681.000000	98.725072
2680.000000	98.723571
2679.000000	98.722265
2678.000000	98.720573
2677.000000	98.718535
2676.000000	98.716858
2675.000000	98.715712
2674.000000	98.714403
2673.000000	98.712554
2672.000000	98.710973
2671.000000	98.710759
2670.000000	98.711810
2669.000000	98.712757
2668.000000	98.712325
2667.000000	98.710281
2666.000000	98.707032
2665.000000	98.702853
2664.000000	98.697979
2663.000000	98.693268
2662.000000	98.690209
2661.000000	98.689756
2660.000000	98.691093
2659.000000	98.691999
2658.000000	98.691008
2657.000000	98.689151
2656.000000	98.689061
2655.000000	98.692211
2654.000000	98.697592
2653.000000	98.703289
2652.000000	98.708432
2651.000000	98.712970
2650.000000	98.716366
2649.000000	98.717751
2648.000000	98.717288
2647.000000	98.716320
2646.000000	98.716047
2645.000000	98.716829
2644.000000	98.718869
2643.000000	98.722579
2642.000000	98.727875
2641.000000	98.733771
2640.000000	98.739027
2639.000000	98.742751
2638.000000	98.744300
2637.000000	98.743542
2636.000000	98.741702
2635.000000	98.741174
2634.000000	98.743628
2633.000000	98.748401
2632.000000	98.753103
2631.000000	98.755632
2630.000000	98.755570
2629.000000	98.754330
2628.000000	98.754495
2627.000000	98.758459
2626.000000	98.766847
2625.000000	98.777890
2624.000000	98.788279
2623.000000	98.794704
2622.000000	98.795299
2621.000000	98.790756
2620.000000	98.784299
2619.000000	98.779756
2618.000000	98.778982
2617.000000	98.781297
2616.000000	98.785109
2615.000000	98.789110
2614.000000	98.792015
2613.000000	98.792718
2612.000000	98.791703
2611.000000	98.791262
2610.000000	98.793236
2609.000000	98.797064
2608.000000	98.800887
2607.000000	98.803954
2606.000000	98.806941
2605.000000	98.810390
2604.000000	98.813912
2603.000000	98.816599
2602.000000	98.817399
2601.000000	98.815607
2600.000000	98.812102
2599.000000	98.809645
2598.000000	98.810561
2597.000000	98.814138
2596.000000	98.817680
2595.000000	98.820178
2594.000000	98.823434
2593.000000	98.829141
2592.000000	98.836256
2591.000000	98.842132
2590.000000	98.844955
2589.000000	98.844138
2588.000000	98.839676
2587.000000	98.833033
2586.000000	98.828089
2585.000000	98.828937
2584.000000	98.835987
2583.000000	98.845540
2582.000000	98.853994
2581.000000	98.861143
2580.000000	98.868473
2579.000000	98.875458
2578.000000	98.879484
2577.000000	98.879371
2576.000000	98.877437
2575.000000	98.877573
2574.000000	98.881925
2573.000000	98.889430
2572.000000	98.896327
2571.000000	98.898005
2570.000000	98.891963
2569.000000	98.880457
2568.000000	98.869872
2567.000000	98.866220
2566.000000	98.870688
2565.000000	98.879076
2564.000000	98.884962
2563.000000	98.883742
2562.000000	98.875165
2561.000000	98.863281
2560.000000	98.853574
2559.000000	98.849233
2558.000000	98.849895
2557.000000	98.853426
2556.000000	98.857804
2555.000000	98.861372
2554.000000	98.863222
2553.000000	98.864511
2552.000000	98.868040
2551.000000	98.874853
2550.000000	98.881796
2549.000000	98.883912
2548.000000	98.879208
2547.000000	98.870480
2546.000000	98.862926
2545.000000	98.860337
2544.000000	98.862587
2543.000000	98.866204
2542.000000	98.868525
2541.000000	98.871618
2540.000000	98.880083
2539.000000	98.894051
2538.000000	98.907198
2537.000000	98.913890
2536.000000	98.915663
2535.000000	98.917196
2534.000000	98.918186
2533.000000	98.914316
2532.000000	98.905261
2531.000000	98.896460
2530.000000	98.891755
2529.000000	98.889400
2528.000000	98.887381
2527.000000	98.888303
2526.000000	98.895471
2525.000000	98.906730
2524.000000	98.915920
2523.000000	98.918982
2522.000000	98.916152
2521.000000	98.909539
2520.000000	98.901802
2519.000000	98.896620
2518.000000	98.897431
2517.000000	98.904700
2516.000000	98.915217
2515.000000	98.923851
2514.000000	98.925696
2513.000000	98.918682
2512.000000	98.906517
2511.000000	98.897782
2510.000000	98.898934
2509.000000	98.907493
2508.000000	98.914290
2507.000000	98.913230
2506.000000	98.907325
2505.000000	98.904360
2504.000000	98.908359
2503.000000	98.916516
2502.000000	98.923425
2501.000000	98.926182
2500.000000	98.925051
2499.000000	98.921127
2498.000000	98.915373
2497.000000	98.909993
2496.000000	98.908421
2495.000000	98.911995
2494.000000	98.917131
2493.000000	98.918023
2492.000000	98.912816
2491.000000	98.905787
2490.000000	98.902798
2489.000000	98.905685
2488.000000	98.911840
2487.000000	98.917872
2486.000000	98.922178
2485.000000	98.924672
2484.000000	98.925687
2483.000000	98.925434
2482.000000	98.923742
2481.000000	98.920166
2480.000000	98.914906
2479.000000	98.909472
2478.000000	98.905833
2477.000000	98.904764
2476.000000	98.905358
2475.000000	98.906286
2474.000000	98.907380
2473.000000	98.909810
2472.000000	98.914417
2471.000000	98.919826
2470.000000	98.922960
2469.000000	98.922417
2468.000000	98.921071
2467.000000	98.923762
2466.000000	98.931603
2465.000000	98.939309
2464.000000	98.939436
2463.000000	98.929475
2462.000000	98.914686
2461.000000	98.904164
2460.000000	98.903637
2459.000000	98.911309
2458.000000	98.920173
2457.000000	98.924237
2456.000000	98.922766
2455.000000	98.919063
2454.000000	98.916554
2453.000000	98.917052
2452.000000	98.920991
2451.000000	98.926691
2450.000000	98.929560
2449.000000	98.925080
2448.000000	98.914197
2447.000000	98.904099
2446.000000	98.901654
2445.000000	98.906592
2444.000000	98.912323
2443.000000	98.912692
2442.000000	98.907195
2441.000000	98.900445
2440.000000	98.898021
2439.000000	98.902451
2438.000000	98.911925
2437.000000	98.922330
2436.000000	98.930993
2435.000000	98.938202
2434.000000	98.944787
2433.000000	98.949074
2432.000000	98.947672
2431.000000	98.939629
2430.000000	98.928707
2429.000000	98.920641
2428.000000	98.918045
2427.000000	98.918509
2426.000000	98.918019
2425.000000	98.915663
2424.000000	98.914090
2423.000000	98.915688
2422.000000	98.919915
2421.000000	98.925163
2420.000000	98.931400
2419.000000	98.938820
2418.000000	98.944815
2417.000000	98.945234
2416.000000	98.939452
2415.000000	98.932000
2414.000000	98.927901
2413.000000	98.927645
2412.000000	98.928010
2411.000000	98.926866
2410.000000	98.925814
2409.000000	98.928470
2408.000000	98.936890
2407.000000	98.949223
2406.000000	98.960313
2405.000000	98.965238
2404.000000	98.963215
2403.000000	98.958019
2402.000000	98.954345
2401.000000	98.954131
2400.000000	98.956264
2399.000000	98.958564
2398.000000	98.959329
2397.000000	98.957782
2396.000000	98.954371
2395.000000	98.950721
2394.000000	98.948657
2393.000000	98.949013
2392.000000	98.951314
2391.000000	98.954414
2390.000000	98.957415
2389.000000	98.960201
2388.000000	98.962990
2387.000000	98.965019
2386.000000	98.964554
2385.000000	98.961190
2384.000000	98.957740
2383.000000	98.958239
2382.000000	98.963217
2381.000000	98.968577
2380.000000	98.969703
2379.000000	98.965917
2378.000000	98.960284
2377.000000	98.956158
2376.000000	98.955069
2375.000000	98.956785
2374.000000	98.959724
2373.000000	98.961358
2372.000000	98.960015
2371.000000	98.956914
2370.000000	98.955477
2369.000000	98.958069
2368.000000	98.963359
2367.000000	98.967611
2366.000000	98.968007
2365.000000	98.964249
2364.000000	98.957387
2363.000000	98.947841
2362.000000	98.936376
2361.000000	98.926373
2360.000000	98.922448
2359.000000	98.927702
2358.000000	98.940764
2357.000000	98.954084
2356.000000	98.958329
2355.000000	98.949112
2354.000000	98.934319
2353.000000	98.926388
2352.000000	98.929156
2351.000000	98.934986
2350.000000	98.935179
2349.000000	98.928352
2348.000000	98.918934
2347.000000	98.912708
2346.000000	98.911601
2345.000000	98.911475
2344.000000	98.907874
2343.000000	98.899831
2342.000000	98.889931
2341.000000	98.880764
2340.000000	98.874195
2339.000000	98.872519
2338.000000	98.877485
2337.000000	98.887522
2336.000000	98.896000
2335.000000	98.896661
2334.000000	98.889041
2333.000000	98.879754
2332.000000	98.874753
2331.000000	98.876013
2330.000000	98.879437
2329.000000	98.879763
2328.000000	98.869777
2327.000000	98.845876
2326.000000	98.811303
2325.000000	98.778022
2324.000000	98.759891
2323.000000	98.763246
2322.000000	98.782742
2321.000000	98.807280
2320.000000	98.827899
2319.000000	98.841258
2318.000000	98.846112
2317.000000	98.844745
2316.000000	98.842773
2315.000000	98.847833
2314.000000	98.860929
2313.000000	98.875641
2312.000000	98.882670
2311.000000	98.879416
2310.000000	98.870514
2309.000000	98.864543
2308.000000	98.867237
2307.000000	98.878846
2306.000000	98.893404
2305.000000	98.903281
2304.000000	98.904135
2303.000000	98.897524
2302.000000	98.887387
2301.000000	98.877006
2300.000000	98.867853
2299.000000	98.861614
2298.000000	98.858888
2297.000000	98.858521
2296.000000	98.857198
2295.000000	98.853045
2294.000000	98.847400
2293.000000	98.844415
2292.000000	98.846844
2291.000000	98.852856
2290.000000	98.856688
2289.000000	98.853564
2288.000000	98.843711
2287.000000	98.831048
2286.000000	98.819184
2285.000000	98.810046
2284.000000	98.806247
2283.000000	98.811433
2282.000000	98.827089
2281.000000	98.849293
2280.000000	98.870237
2279.000000	98.883076
2278.000000	98.886651
2277.000000	98.886969
2276.000000	98.893363
2275.000000	98.910277
2274.000000	98.931588
2273.000000	98.944500
2272.000000	98.940015
2271.000000	98.919578
2270.000000	98.893269
2269.000000	98.874172
2268.000000	98.872413
2267.000000	98.888440
2266.000000	98.909631
2265.000000	98.918219
2264.000000	98.907241
2263.000000	98.888211
2262.000000	98.880333
2261.000000	98.893142
2260.000000	98.920103
2259.000000	98.946133
2258.000000	98.958643
2257.000000	98.953779
2256.000000	98.937414
2255.000000	98.921120
2254.000000	98.913926
2253.000000	98.916189
2252.000000	98.921652
2251.000000	98.925407
2250.000000	98.928291
2249.000000	98.933846
2248.000000	98.943309
2247.000000	98.955175
2246.000000	98.968678
2245.000000	98.985071
2244.000000	99.004716
2243.000000	99.024292
2242.000000	99.037904
2241.000000	99.040212
2240.000000	99.027758
2239.000000	99.000035
2238.000000	98.963105
2237.000000	98.930842
2236.000000	98.915885
2235.000000	98.916763
2234.000000	98.919383
2233.000000	98.914243
2232.000000	98.907296
2231.000000	98.909545
2230.000000	98.921238
2229.000000	98.932706
2228.000000	98.936561
2227.000000	98.931330
2226.000000	98.916928
2225.000000	98.897174
2224.000000	98.885918
2223.000000	98.898354
2222.000000	98.931777
2221.000000	98.963420
2220.000000	98.973606
2219.000000	98.966206
2218.000000	98.961070
2217.000000	98.971239
2216.000000	98.991667
2215.000000	99.006541
2214.000000	99.003289
2213.000000	98.982113
2212.000000	98.955997
2211.000000	98.939904
2210.000000	98.938963
2209.000000	98.949012
2208.000000	98.966624
2207.000000	98.991149
2206.000000	99.014585
2205.000000	99.017399
2204.000000	98.982871
2203.000000	98.914422
2202.000000	98.835974
2201.000000	98.777083
2200.000000	98.756678
2199.000000	98.774011
2198.000000	98.811082
2197.000000	98.846801
2196.000000	98.873653
2195.000000	98.899031
2194.000000	98.928148
2193.000000	98.951072
2192.000000	98.952375
2191.000000	98.930159
2190.000000	98.898665
2189.000000	98.874961
2188.000000	98.868594
2187.000000	98.882203
2186.000000	98.914352
2185.000000	98.958108
2184.000000	99.000897
2183.000000	99.029847
2182.000000	99.037807
2181.000000	99.026045
2180.000000	99.004034
2179.000000	98.985961
2178.000000	98.984583
2177.000000	99.005081
2176.000000	99.040320
2175.000000	99.070071
2174.000000	99.068875
2173.000000	99.023495
2172.000000	98.947007
2171.000000	98.871749
2170.000000	98.825641
2169.000000	98.814865
2168.000000	98.827381
2167.000000	98.850142
2166.000000	98.879786
2165.000000	98.917587
2164.000000	98.958987
2163.000000	98.992256
2162.000000	99.009607
2161.000000	99.020827
2160.000000	99.054673
2159.000000	99.136843
2158.000000	99.256592
2157.000000	99.363192
2156.000000	99.407216
2155.000000	99.379299
2154.000000	99.307999
2153.000000	99.232926
2152.000000	99.179733
2151.000000	99.152337
2150.000000	99.142847
2149.000000	99.142399
2148.000000	99.142255
2147.000000	99.133892
2146.000000	99.117045
2145.000000	99.104000
2144.000000	99.106623
2143.000000	99.120487
2142.000000	99.131627
2141.000000	99.138169
2140.000000	99.153089
2139.000000	99.180295
2138.000000	99.199324
2137.000000	99.184917
2136.000000	99.137903
2135.000000	99.087578
2134.000000	99.063691
2133.000000	99.073179
2132.000000	99.101483
2131.000000	99.128019
2130.000000	99.138687
2129.000000	99.130176
2128.000000	99.108716
2127.000000	99.084375
2126.000000	99.063974
2125.000000	99.047205
2124.000000	99.028813
2123.000000	99.006621
2122.000000	98.988795
2121.000000	98.988658
2120.000000	99.006688
2119.000000	99.022096
2118.000000	99.012489
2117.000000	98.981266
2116.000000	98.955355
2115.000000	98.952184
2114.000000	98.961269
2113.000000	98.963461
2112.000000	98.956185
2111.000000	98.948496
2110.000000	98.941863
2109.000000	98.932623
2108.000000	98.927897
2107.000000	98.940918
2106.000000	98.968624
2105.000000	98.988718
2104.000000	98.983668
2103.000000	98.957010
2102.000000	98.923037
2101.000000	98.891661
2100.000000	98.868828
2099.000000	98.861472
2098.000000	98.873479
2097.000000	98.900212
2096.000000	98.931737
2095.000000	98.959125
2094.000000	98.976453
2093.000000	98.982289
2092.000000	98.981810
2091.000000	98.982342
2090.000000	98.984720
2089.000000	98.983276
2088.000000	98.975094
2087.000000	98.964297
2086.000000	98.956200
2085.000000	98.953151
2084.000000	98.956565
2083.000000	98.966406
2082.000000	98.977098
2081.000000	98.980444
2080.000000	98.975198
2079.000000	98.968131
2078.000000	98.964101
2077.000000	98.962601
2076.000000	98.966380
2075.000000	98.983722
2074.000000	99.015341
2073.000000	99.044508
2072.000000	99.047922
2071.000000	99.015233
2070.000000	98.956949
2069.000000	98.899022
2068.000000	98.870819
2067.000000	98.888560
2066.000000	98.942480
2065.000000	99.001095
2064.000000	99.034698
2063.000000	99.037102
2062.000000	99.024529
2061.000000	99.019507
2060.000000	99.034660
2059.000000	99.062039
2058.000000	99.077078
2057.000000	99.061307
2056.000000	99.023154
2055.000000	98.988205
2054.000000	98.968738
2053.000000	98.955249
2052.000000	98.939343
2051.000000	98.928415
2050.000000	98.929494
2049.000000	98.931852
2048.000000	98.920556
2047.000000	98.900109
2046.000000	98.887817
2045.000000	98.890804
2044.000000	98.905707
2043.000000	98.933272
2042.000000	98.975353
2041.000000	99.021119
2040.000000	99.053727
2039.000000	99.071110
2038.000000	99.085371
2037.000000	99.103737
2036.000000	99.122927
2035.000000	99.140560
2034.000000	99.159247
2033.000000	99.180705
2032.000000	99.207231
2031.000000	99.243317
2030.000000	99.280791
2029.000000	99.288548
2028.000000	99.239734
2027.000000	99.152800
2026.000000	99.086947
2025.000000	99.088235
2024.000000	99.144767
2023.000000	99.201278
2022.000000	99.213061
2021.000000	99.179448
2020.000000	99.131637
2019.000000	99.097734
2018.000000	99.084696
2017.000000	99.087475
2016.000000	99.102490
2015.000000	99.126678
2014.000000	99.151095
2013.000000	99.165729
2012.000000	99.169442
2011.000000	99.166619
2010.000000	99.155629
2009.000000	99.132794
2008.000000	99.108271
2007.000000	99.102141
2006.000000	99.117664
2005.000000	99.132553
2004.000000	99.127615
2003.000000	99.113063
2002.000000	99.114840
2001.000000	99.141666
2000.000000	99.174169
1999.000000	99.185085
1998.000000	99.163279
1997.000000	99.118772
1996.000000	99.071943
1995.000000	99.041069
1994.000000	99.036370
1993.000000	99.055951
1992.000000	99.081889
1991.000000	99.090254
1990.000000	99.074910
1989.000000	99.057803
1988.000000	99.067946
1987.000000	99.107630
1986.000000	99.145603
1985.000000	99.148534
1984.000000	99.114395
1983.000000	99.069417
1982.000000	99.039018
1981.000000	99.031105
1980.000000	99.041747
1979.000000	99.064673
1978.000000	99.093832
1977.000000	99.124260
1976.000000	99.152945
1975.000000	99.176088
1974.000000	99.189711
1973.000000	99.197933
1972.000000	99.212363
1971.000000	99.234187
1970.000000	99.244641
1969.000000	99.225347
1968.000000	99.184861
1967.000000	99.153610
1966.000000	99.152828
1965.000000	99.178482
1964.000000	99.213036
1963.000000	99.239768
1962.000000	99.247091
1961.000000	99.233064
1960.000000	99.207612
1959.000000	99.181194
1958.000000	99.152838
1957.000000	99.117097
1956.000000	99.079037
1955.000000	99.053652
1954.000000	99.051726
1953.000000	99.071135
1952.000000	99.099708
1951.000000	99.122715
1950.000000	99.131042
1949.000000	99.127082
1948.000000	99.119917
1947.000000	99.111614
1946.000000	99.094867
1945.000000	99.069578
1944.000000	99.053661
1943.000000	99.066466
1942.000000	99.103337
1941.000000	99.139371
1940.000000	99.156974
1939.000000	99.154828
1938.000000	99.137218
1937.000000	99.110309
1936.000000	99.085097
1935.000000	99.072929
1934.000000	99.078551
1933.000000	99.102243
1932.000000	99.142998
1931.000000	99.190734
1930.000000	99.220487
1929.000000	99.209280
1928.000000	99.162207
1927.000000	99.111217
1926.000000	99.086097
1925.000000	99.094678
1924.000000	99.126443
1923.000000	99.162258
1922.000000	99.181816
1921.000000	99.175282
1920.000000	99.149928
1919.000000	99.121829
1918.000000	99.101579
1917.000000	99.090001
1916.000000	99.086903
1915.000000	99.093827
1914.000000	99.107333
1913.000000	99.118801
1912.000000	99.123583
1911.000000	99.125211
1910.000000	99.127715
1909.000000	99.130781
1908.000000	99.136037
1907.000000	99.148714
1906.000000	99.167182
1905.000000	99.178542
1904.000000	99.170976
1903.000000	99.147123
1902.000000	99.120749
1901.000000	99.104382
1900.000000	99.102661
1899.000000	99.113440
1898.000000	99.130847
1897.000000	99.148112
1896.000000	99.160763
1895.000000	99.167935
1894.000000	99.170676
1893.000000	99.171015
1892.000000	99.172355
1891.000000	99.177775
1890.000000	99.187124
1889.000000	99.197654
1888.000000	99.207553
1887.000000	99.212966
1886.000000	99.205030
1885.000000	99.179076
1884.000000	99.145237
1883.000000	99.121428
1882.000000	99.114826
1881.000000	99.117301
1880.000000	99.118578
1879.000000	99.117014
1878.000000	99.116479
1877.000000	99.119238
1876.000000	99.125208
1875.000000	99.133895
1874.000000	99.143582
1873.000000	99.150547
1872.000000	99.151604
1871.000000	99.146313
1870.000000	99.136441
1869.000000	99.125790
1868.000000	99.121249
1867.000000	99.127410
1866.000000	99.139311
1865.000000	99.149173
1864.000000	99.155842
1863.000000	99.162209
1862.000000	99.167428
1861.000000	99.167381
1860.000000	99.162095
1859.000000	99.156489
1858.000000	99.153371
1857.000000	99.151312
1856.000000	99.149337
1855.000000	99.148209
1854.000000	99.148006
1853.000000	99.149328
1852.000000	99.155082
1851.000000	99.166540
1850.000000	99.179434
1849.000000	99.188881
1848.000000	99.196373
1847.000000	99.206563
1846.000000	99.217891
1845.000000	99.221333
1844.000000	99.210870
1843.000000	99.194223
1842.000000	99.182492
1841.000000	99.177182
1840.000000	99.176139
1839.000000	99.177967
1838.000000	99.179130
1837.000000	99.176449
1836.000000	99.172685
1835.000000	99.172110
1834.000000	99.172462
1833.000000	99.169536
1832.000000	99.167044
1831.000000	99.173646
1830.000000	99.187118
1829.000000	99.193068
1828.000000	99.187331
1827.000000	99.178729
1826.000000	99.173943
1825.000000	99.172553
1824.000000	99.173539
1823.000000	99.179248
1822.000000	99.188318
1821.000000	99.195094
1820.000000	99.198365
1819.000000	99.204114
1818.000000	99.216370
1817.000000	99.230200
1816.000000	99.238027
1815.000000	99.237902
1814.000000	99.231402
1813.000000	99.220197
1812.000000	99.208421
1811.000000	99.202343
1810.000000	99.202794
1809.000000	99.203228
1808.000000	99.200194
1807.000000	99.198308
1806.000000	99.201746
1805.000000	99.208032
1804.000000	99.212970
1803.000000	99.215696
1802.000000	99.215911
1801.000000	99.211730
1800.000000	99.206288
1799.000000	99.207930
1798.000000	99.217419
1797.000000	99.225536
1796.000000	99.226277
1795.000000	99.224309
1794.000000	99.227573
1793.000000	99.236176
1792.000000	99.241492
1791.000000	99.240496
1790.000000	99.238462
1789.000000	99.236307
1788.000000	99.232566
1787.000000	99.229140
1786.000000	99.227840
1785.000000	99.226798
1784.000000	99.225582
1783.000000	99.227595
1782.000000	99.233201
1781.000000	99.236966
1780.000000	99.235960
1779.000000	99.235543
1778.000000	99.241044
1777.000000	99.249792
1776.000000	99.256291
1775.000000	99.259748
1774.000000	99.264284
1773.000000	99.271731
1772.000000	99.275463
1771.000000	99.271618
1770.000000	99.265372
1769.000000	99.260529
1768.000000	99.260323
1767.000000	99.267855
1766.000000	99.279647
1765.000000	99.286847
1764.000000	99.286608
1763.000000	99.286795
1762.000000	99.295969
1761.000000	99.312157
1760.000000	99.328737
1759.000000	99.343747
1758.000000	99.358999
1757.000000	99.375596
1756.000000	99.392676
1755.000000	99.409633
1754.000000	99.425815
1753.000000	99.441953
1752.000000	99.463184
1751.000000	99.493640
1750.000000	99.529165
1749.000000	99.561833
1748.000000	99.588314
1747.000000	99.611199
1746.000000	99.632303
1745.000000	99.647922
1744.000000	99.653339
1743.000000	99.650581
1742.000000	99.648113
1741.000000	99.652332
1740.000000	99.662083
1739.000000	99.669979
1738.000000	99.668567
1737.000000	99.653123
1736.000000	99.626344
1735.000000	99.603181
1734.000000	99.593728
1733.000000	99.591649
1732.000000	99.594555
1731.000000	99.599812
1730.000000	99.602265
1729.000000	99.598460
1728.000000	99.589842
1727.000000	99.581773
1726.000000	99.577461
1725.000000	99.574712
1724.000000	99.570040
1723.000000	99.563401
1722.000000	99.555308
1721.000000	99.543327
1720.000000	99.530184
1719.000000	99.531862
1718.000000	99.560075
1717.000000	99.591780
1716.000000	99.601902
1715.000000	99.599443
1714.000000	99.593423
1713.000000	99.580009
1712.000000	99.557355
1711.000000	99.531017
1710.000000	99.505255
1709.000000	99.476798
1708.000000	99.440191
1707.000000	99.393202
1706.000000	99.331815
1705.000000	99.252782
1704.000000	99.167191
1703.000000	99.085192
1702.000000	98.999866
1701.000000	98.896686
1700.000000	98.783876
1699.000000	98.707721
1698.000000	98.669112
1697.000000	98.614403
1696.000000	98.512058
1695.000000	98.395391
1694.000000	98.310790
1693.000000	98.248086
1692.000000	98.180165
1691.000000	98.101136
1690.000000	98.017109
1689.000000	97.930591
1688.000000	97.842053
1687.000000	97.754603
1686.000000	97.667325
1685.000000	97.565246
1684.000000	97.432405
1683.000000	97.308150
1682.000000	97.225280
1681.000000	97.151077
1680.000000	97.060159
1679.000000	96.958670
1678.000000	96.857049
1677.000000	96.748482
1676.000000	96.622445
1675.000000	96.490469
1674.000000	96.380198
1673.000000	96.293163
1672.000000	96.206379
1671.000000	96.103246
1670.000000	95.978162
1669.000000	95.837424
1668.000000	95.705698
1667.000000	95.601392
1666.000000	95.516473
1665.000000	95.429400
1664.000000	95.323937
1663.000000	95.201013
1662.000000	95.078524
1661.000000	94.972127
1660.000000	94.881669
1659.000000	94.801803
1658.000000	94.729216
1657.000000	94.658876
1656.000000	94.585629
1655.000000	94.510725
1654.000000	94.428396
1653.000000	94.310498
1652.000000	94.204093
1651.000000	94.167350
1650.000000	94.157409
1649.000000	94.131361
1648.000000	94.072785
1647.000000	93.987336
1646.000000	93.902790
1645.000000	93.844482
1644.000000	93.806747
1643.000000	93.774249
1642.000000	93.738612
1641.000000	93.696577
1640.000000	93.650661
1639.000000	93.607828
1638.000000	93.570831
1637.000000	93.531971
1636.000000	93.478185
1635.000000	93.419697
1634.000000	93.387542
1633.000000	93.379811
1632.000000	93.376129
1631.000000	93.370945
1630.000000	93.371175
1629.000000	93.382779
1628.000000	93.405402
1627.000000	93.436295
1626.000000	93.474774
1625.000000	93.524277
1624.000000	93.592565
1623.000000	93.682609
1622.000000	93.781295
1621.000000	93.871049
1620.000000	93.946167
1619.000000	94.016195
1618.000000	94.103710
1617.000000	94.225474
1616.000000	94.365008
1615.000000	94.493226
1614.000000	94.604220
1613.000000	94.707436
1612.000000	94.812689
1611.000000	94.923300
1610.000000	95.036546
1609.000000	95.150628
1608.000000	95.265510
1607.000000	95.377137
1606.000000	95.480499
1605.000000	95.578043
1604.000000	95.676134
1603.000000	95.775004
1602.000000	95.869439
1601.000000	95.957982
1600.000000	96.042371
1599.000000	96.120068
1598.000000	96.186628
1597.000000	96.243920
1596.000000	96.298045
1595.000000	96.350011
1594.000000	96.396498
1593.000000	96.438215
1592.000000	96.478118
1591.000000	96.513313
1590.000000	96.538103
1589.000000	96.554380
1588.000000	96.569180
1587.000000	96.582935
1586.000000	96.590181
1585.000000	96.590486
1584.000000	96.588500
1583.000000	96.583771
1582.000000	96.571331
1581.000000	96.552088
1580.000000	96.531105
1579.000000	96.506828
1578.000000	96.472453
1577.000000	96.425140
1576.000000	96.369435
1575.000000	96.315649
1574.000000	96.270373
1573.000000	96.228371
1572.000000	96.181716
1571.000000	96.123753
1570.000000	96.046957
1569.000000	95.957315
1568.000000	95.876975
1567.000000	95.809796
1566.000000	95.741647
1565.000000	95.667292
1564.000000	95.594053
1563.000000	95.525019
1562.000000	95.452110
1561.000000	95.371269
1560.000000	95.291522
1559.000000	95.199362
1558.000000	95.091478
1557.000000	95.028231
1556.000000	94.993101
1555.000000	94.951822
1554.000000	94.900189
1553.000000	94.851015
1552.000000	94.810763
1551.000000	94.775136
1550.000000	94.740122
1549.000000	94.707892
1548.000000	94.681690
1547.000000	94.659616
1546.000000	94.639625
1545.000000	94.623700
1544.000000	94.613307
1543.000000	94.607642
1542.000000	94.606987
1541.000000	94.608564
1540.000000	94.598784
1539.000000	94.580817
1538.000000	94.580373
1537.000000	94.592639
1536.000000	94.599428
1535.000000	94.595893
1534.000000	94.587828
1533.000000	94.582165
1532.000000	94.586090
1531.000000	94.600820
1530.000000	94.617869
1529.000000	94.631007
1528.000000	94.642563
1527.000000	94.660566
1526.000000	94.689089
1525.000000	94.721492
1524.000000	94.748909
1523.000000	94.774182
1522.000000	94.810224
1521.000000	94.859874
1520.000000	94.914738
1519.000000	94.971248
1518.000000	95.027917
1517.000000	95.081810
1516.000000	95.129114
1515.000000	95.174163
1514.000000	95.224330
1513.000000	95.280895
1512.000000	95.340600
1511.000000	95.398317
1510.000000	95.451326
1509.000000	95.504233
1508.000000	95.571671
1507.000000	95.660086
1506.000000	95.752434
1505.000000	95.843947
1504.000000	95.930565
1503.000000	96.006838
1502.000000	96.077947
1501.000000	96.151185
1500.000000	96.227389
1499.000000	96.304095
1498.000000	96.383967
1497.000000	96.468081
1496.000000	96.549564
1495.000000	96.625255
1494.000000	96.696911
1493.000000	96.762522
1492.000000	96.822755
1491.000000	96.885646
1490.000000	96.954817
1489.000000	97.018715
1488.000000	97.069274
1487.000000	97.112359
1486.000000	97.151740
1485.000000	97.183825
1484.000000	97.207515
1483.000000	97.228393
1482.000000	97.251672
1481.000000	97.273136
1480.000000	97.284402
1479.000000	97.284436
1478.000000	97.277210
1477.000000	97.264347
1476.000000	97.246133
1475.000000	97.228171
1474.000000	97.216607
1473.000000	97.206117
1472.000000	97.187780
1471.000000	97.170946
1470.000000	97.163502
1469.000000	97.155430
1468.000000	97.137566
1467.000000	97.111578
1466.000000	97.081598
1465.000000	97.044100
1464.000000	96.997025
1463.000000	96.950342
1462.000000	96.908733
1461.000000	96.863481
1460.000000	96.805586
1459.000000	96.735377
1458.000000	96.658892
1457.000000	96.580359
1456.000000	96.516051
1455.000000	96.480622
1454.000000	96.455816
1453.000000	96.422985
1452.000000	96.384389
1451.000000	96.354326
1450.000000	96.341365
1449.000000	96.342560
1448.000000	96.350100
1447.000000	96.358583
1446.000000	96.366827
1445.000000	96.374860
1444.000000	96.383713
1443.000000	96.397063
1442.000000	96.417684
1441.000000	96.441731
1440.000000	96.460028
1439.000000	96.467909
1438.000000	96.475041
1437.000000	96.500147
1436.000000	96.549081
1435.000000	96.608907
1434.000000	96.665940
1433.000000	96.713297
1432.000000	96.750360
1431.000000	96.779672
1430.000000	96.805270
1429.000000	96.830652
1428.000000	96.855925
1427.000000	96.879724
1426.000000	96.903801
1425.000000	96.932573
1424.000000	96.963566
1423.000000	96.984990
1422.000000	96.989718
1421.000000	96.981507
1420.000000	96.970168
1419.000000	96.962684
1418.000000	96.961442
1417.000000	96.966559
1416.000000	96.971592
1415.000000	96.970735
1414.000000	96.963870
1413.000000	96.951720
1412.000000	96.932622
1411.000000	96.906537
1410.000000	96.878750
1409.000000	96.854434
1408.000000	96.833505
1407.000000	96.814901
1406.000000	96.801276
1405.000000	96.796309
1404.000000	96.798375
1403.000000	96.801024
1402.000000	96.799698
1401.000000	96.795953
1400.000000	96.796682
1399.000000	96.806426
1398.000000	96.822103
1397.000000	96.837606
1396.000000	96.849559
1395.000000	96.858249
1394.000000	96.867367
1393.000000	96.882198
1392.000000	96.902581
1391.000000	96.923147
1390.000000	96.939571
1389.000000	96.952172
1388.000000	96.965545
1387.000000	96.984593
1386.000000	97.010365
1385.000000	97.039035
1384.000000	97.064989
1383.000000	97.086091
1382.000000	97.104945
1381.000000	97.125323
1380.000000	97.148537
1379.000000	97.172433
1378.000000	97.193617
1377.000000	97.211558
1376.000000	97.229904
1375.000000	97.252398
1374.000000	97.278022
1373.000000	97.303500
1372.000000	97.328485
1371.000000	97.354025
1370.000000	97.380449
1369.000000	97.408963
1368.000000	97.440913
1367.000000	97.475253
1366.000000	97.508259
1365.000000	97.536248
1364.000000	97.558664
1363.000000	97.577669
1362.000000	97.595983
1361.000000	97.615642
1360.000000	97.635574
1359.000000	97.651510
1358.000000	97.659738
1357.000000	97.660018
1356.000000	97.654919
1355.000000	97.647191
1354.000000	97.637824
1353.000000	97.625857
1352.000000	97.609936
1351.000000	97.589811
1350.000000	97.565901
1349.000000	97.539247
1348.000000	97.510693
1347.000000	97.480219
1346.000000	97.447602
1345.000000	97.413831
1344.000000	97.381056
1343.000000	97.350786
1342.000000	97.322599
1341.000000	97.294632
1340.000000	97.264723
1339.000000	97.232316
1338.000000	97.201070
1337.000000	97.177196
1336.000000	97.164452
1335.000000	97.161850
1334.000000	97.164996
1333.000000	97.170396
1332.000000	97.178785
1331.000000	97.193489
1330.000000	97.215819
1329.000000	97.243397
1328.000000	97.272535
1327.000000	97.300210
1326.000000	97.324026
1325.000000	97.342780
1324.000000	97.356818
1323.000000	97.367492
1322.000000	97.376462
1321.000000	97.385537
1320.000000	97.396290
1319.000000	97.408955
1318.000000	97.421989
1317.000000	97.433402
1316.000000	97.442547
1315.000000	97.450789
1314.000000	97.461038
1313.000000	97.476271
1312.000000	97.497409
1311.000000	97.522223
1310.000000	97.546949
1309.000000	97.569262
1308.000000	97.589204
1307.000000	97.607396
1306.000000	97.623187
1305.000000	97.635578
1304.000000	97.644833
1303.000000	97.652556
1302.000000	97.660524
1301.000000	97.669890
1300.000000	97.680959
1299.000000	97.693112
1298.000000	97.704996
1297.000000	97.715098
1296.000000	97.722056
1295.000000	97.724274
1294.000000	97.720352
1293.000000	97.710349
1292.000000	97.695952
1291.000000	97.679018
1290.000000	97.660367
1289.000000	97.640919
1288.000000	97.622701
1287.000000	97.606733
1286.000000	97.590401
1285.000000	97.569580
1284.000000	97.544447
1283.000000	97.521294
1282.000000	97.507100
1281.000000	97.502931
1280.000000	97.504119
1279.000000	97.505734
1278.000000	97.506477
1277.000000	97.507875
1276.000000	97.510965
1275.000000	97.514303
1274.000000	97.515125
1273.000000	97.512637
1272.000000	97.509615
1271.000000	97.509401
1270.000000	97.511318
1269.000000	97.511033
1268.000000	97.505985
1267.000000	97.498465
1266.000000	97.492151
1265.000000	97.486904
1264.000000	97.478996
1263.000000	97.465761
1262.000000	97.447740
1261.000000	97.426352
1260.000000	97.401405
1259.000000	97.371912
1258.000000	97.338541
1257.000000	97.303995
1256.000000	97.271139
1255.000000	97.240657
1254.000000	97.210288
1253.000000	97.176867
1252.000000	97.139382
1251.000000	97.099579
1250.000000	97.059503
1249.000000	97.019431
1248.000000	96.978454
1247.000000	96.935742
1246.000000	96.890991
1245.000000	96.845026
1244.000000	96.800741
1243.000000	96.761889
1242.000000	96.729910
1241.000000	96.702950
1240.000000	96.678346
1239.000000	96.654686
1238.000000	96.631493
1237.000000	96.610089
1236.000000	96.595355
1235.000000	96.593572
1234.000000	96.606582
1233.000000	96.629426
1232.000000	96.655696
1231.000000	96.683033
1230.000000	96.712640
1229.000000	96.746480
1228.000000	96.786377
1227.000000	96.834339
1226.000000	96.890904
1225.000000	96.953755
1224.000000	97.019494
1223.000000	97.085756
1222.000000	97.150930
1221.000000	97.212962
1220.000000	97.269837
1219.000000	97.320595
1218.000000	97.365072
1217.000000	97.402941
1216.000000	97.433932
1215.000000	97.458844
1214.000000	97.478733
1213.000000	97.493548
1212.000000	97.502221
1211.000000	97.504254
1210.000000	97.500509
1209.000000	97.491728
1208.000000	97.477849
1207.000000	97.459244
1206.000000	97.438058
1205.000000	97.417892
1204.000000	97.402344
1203.000000	97.393762
1202.000000	97.392540
1201.000000	97.397520
1200.000000	97.407378
1199.000000	97.422426
1198.000000	97.444947
1197.000000	97.477607
1196.000000	97.520804
1195.000000	97.570403
1194.000000	97.619215
1193.000000	97.662135
1192.000000	97.700134
1191.000000	97.738405
1190.000000	97.780334
1189.000000	97.824361
1188.000000	97.866627
1187.000000	97.905175
1186.000000	97.940564
1185.000000	97.973688
1184.000000	98.004605
1183.000000	98.033536
1182.000000	98.061506
1181.000000	98.088899
1180.000000	98.114230
1179.000000	98.135054
1178.000000	98.150174
1177.000000	98.160694
1176.000000	98.169118
1175.000000	98.178027
1174.000000	98.188980
1173.000000	98.201782
1172.000000	98.214568
1171.000000	98.224400
1170.000000	98.228340
1169.000000	98.224551
1168.000000	98.213334
1167.000000	98.197688
1166.000000	98.182433
1165.000000	98.172087
1164.000000	98.168874
1163.000000	98.172004
1162.000000	98.178385
1161.000000	98.184598
1160.000000	98.189076
1159.000000	98.192682
1158.000000	98.197676
1157.000000	98.206362
1156.000000	98.220824
1155.000000	98.242229
1154.000000	98.269208
1153.000000	98.297900
1152.000000	98.324979
1151.000000	98.350550
1150.000000	98.376677
1149.000000	98.403380
1148.000000	98.428014
1147.000000	98.448971
1146.000000	98.467896
1145.000000	98.486822
1144.000000	98.504672
1143.000000	98.518624
1142.000000	98.528576
1141.000000	98.538218
1140.000000	98.551355
1139.000000	98.568488
1138.000000	98.587098
1137.000000	98.604159
1136.000000	98.617859
1135.000000	98.627986
1134.000000	98.635686
1133.000000	98.642636
1132.000000	98.650047
1131.000000	98.658345
1130.000000	98.667259
1129.000000	98.675664
1128.000000	98.681556
1127.000000	98.683631
1126.000000	98.683413
1125.000000	98.684795
1124.000000	98.690369
1123.000000	98.698384
1122.000000	98.704510
1121.000000	98.707117
1120.000000	98.709789
1119.000000	98.717236
1118.000000	98.728914
1117.000000	98.738435
1116.000000	98.740340
1115.000000	98.736139
1114.000000	98.732079
1113.000000	98.731397
1112.000000	98.730975
1111.000000	98.726110
1110.000000	98.716500
1109.000000	98.706460
1108.000000	98.700176
1107.000000	98.698165
1106.000000	98.697752
1105.000000	98.696181
1104.000000	98.693522
1103.000000	98.692476
1102.000000	98.694488
1101.000000	98.696400
1100.000000	98.692269
1099.000000	98.680024
1098.000000	98.663760
1097.000000	98.649335
1096.000000	98.639105
1095.000000	98.631857
1094.000000	98.625610
1093.000000	98.618168
1092.000000	98.606109
1091.000000	98.586040
1090.000000	98.556723
1089.000000	98.519156
1088.000000	98.475632
1087.000000	98.430244
1086.000000	98.388740
1085.000000	98.354694
1084.000000	98.326106
1083.000000	98.298217
1082.000000	98.270632
1081.000000	98.249583
1080.000000	98.242642
1079.000000	98.251946
1078.000000	98.273272
1077.000000	98.300759
1076.000000	98.330650
1075.000000	98.361548
1074.000000	98.392729
1073.000000	98.422862
1072.000000	98.449772
1071.000000	98.471299
1070.000000	98.486882
1069.000000	98.497970
1068.000000	98.506611
1067.000000	98.513984
1066.000000	98.520660
1065.000000	98.527113
1064.000000	98.533265
1063.000000	98.538577
1062.000000	98.543823
1061.000000	98.552051
1060.000000	98.566210
1059.000000	98.585654
1058.000000	98.606163
1057.000000	98.623380
1056.000000	98.635417
1055.000000	98.642663
1054.000000	98.646874
1053.000000	98.650560
1052.000000	98.655076
1051.000000	98.658338
1050.000000	98.656181
1049.000000	98.647743
1048.000000	98.638513
1047.000000	98.636280
1046.000000	98.643887
1045.000000	98.656911
1044.000000	98.668249
1043.000000	98.674083
1042.000000	98.675665
1041.000000	98.676214
1040.000000	98.676964
1039.000000	98.676301
1038.000000	98.671921
1037.000000	98.662257
1036.000000	98.645631
1035.000000	98.620441
1034.000000	98.588855
1033.000000	98.559540
1032.000000	98.543417
1031.000000	98.544837
1030.000000	98.558222
1029.000000	98.574556
1028.000000	98.589516
1027.000000	98.604678
1026.000000	98.623816
1025.000000	98.650248
1024.000000	98.685605
1023.000000	98.727302
1022.000000	98.768314
1021.000000	98.802511
1020.000000	98.829430
1019.000000	98.851486
1018.000000	98.868445
1017.000000	98.878709
1016.000000	98.884773
1015.000000	98.892202
1014.000000	98.901965
1013.000000	98.908679
1012.000000	98.908835
1011.000000	98.906949
1010.000000	98.910857
1009.000000	98.923466
1008.000000	98.941630
1007.000000	98.960944
1006.000000	98.979050
1005.000000	98.996140
1004.000000	99.014749
1003.000000	99.037275
1002.000000	99.061626
1001.000000	99.081334
1000.000000	99.092350
999.000000	99.097873
998.000000	99.103946
997.000000	99.112727
996.000000	99.123692
995.000000	99.138625
994.000000	99.159892
993.000000	99.184306
992.000000	99.204558
991.000000	99.217471
990.000000	99.226265
989.000000	99.233497
988.000000	99.237036
987.000000	99.235535
986.000000	99.232822
985.000000	99.233383
984.000000	99.236720
983.000000	99.239744
982.000000	99.241522
981.000000	99.242104
980.000000	99.239805
979.000000	99.234276
978.000000	99.229819
977.000000	99.230467
976.000000	99.233011
975.000000	99.230170
974.000000	99.220808
973.000000	99.211807
972.000000	99.209236
971.000000	99.212255
970.000000	99.216963
969.000000	99.221770
968.000000	99.226814
967.000000	99.232054
966.000000	99.239201
965.000000	99.252513
964.000000	99.273830
963.000000	99.298277
962.000000	99.317880
961.000000	99.328833
960.000000	99.332963
959.000000	99.333716
958.000000	99.334254
957.000000	99.338429
956.000000	99.349471
955.000000	99.366267
954.000000	99.383469
953.000000	99.396478
952.000000	99.404949
951.000000	99.410862
950.000000	99.415262
949.000000	99.418101
948.000000	99.419244
947.000000	99.418223
946.000000	99.414396
945.000000	99.409123
944.000000	99.406512
943.000000	99.409261
942.000000	99.413631
941.000000	99.411207
940.000000	99.397499
939.000000	99.377797
938.000000	99.363495
937.000000	99.362693
936.000000	99.375391
935.000000	99.396808
934.000000	99.422521
933.000000	99.449473
932.000000	99.473553
931.000000	99.489164
930.000000	99.492774
929.000000	99.486388
928.000000	99.476651
927.000000	99.470158
926.000000	99.469466
925.000000	99.472696
924.000000	99.476243
923.000000	99.477880
922.000000	99.478064
921.000000	99.478758
920.000000	99.481406
919.000000	99.486161
918.000000	99.493072
917.000000	99.503204
916.000000	99.517556
915.000000	99.534854
914.000000	99.551167
913.000000	99.562407
912.000000	99.567250
911.000000	99.567666
910.000000	99.567040
909.000000	99.567773
908.000000	99.570283
907.000000	99.573974
906.000000	99.578928
905.000000	99.586172
904.000000	99.595932
903.000000	99.606349
902.000000	99.615186
901.000000	99.622435
900.000000	99.629652
899.000000	99.636603
898.000000	99.640813
897.000000	99.641561
896.000000	99.642096
895.000000	99.645742
894.000000	99.651019
893.000000	99.653537
892.000000	99.652145
891.000000	99.650350
890.000000	99.651163
889.000000	99.652942
888.000000	99.651596
887.000000	99.644830
886.000000	99.633462
885.000000	99.620743
884.000000	99.611813
883.000000	99.611577
882.000000	99.620619
881.000000	99.633801
880.000000	99.644379
879.000000	99.648677
878.000000	99.646137
877.000000	99.637486
876.000000	99.625106
875.000000	99.613163
874.000000	99.603587
873.000000	99.592951
872.000000	99.576636
871.000000	99.556251
870.000000	99.539899
869.000000	99.534462
868.000000	99.539731
867.000000	99.550021
866.000000	99.559612
865.000000	99.566689
864.000000	99.573656
863.000000	99.583398
862.000000	99.593889
861.000000	99.597990
860.000000	99.591645
859.000000	99.580866
858.000000	99.576355
857.000000	99.580793
856.000000	99.585973
855.000000	99.584056
854.000000	99.576974
853.000000	99.572184
852.000000	99.573023
851.000000	99.577225
850.000000	99.582295
849.000000	99.587751
848.000000	99.593028
847.000000	99.596876
846.000000	99.598921
845.000000	99.599518
844.000000	99.598890
843.000000	99.598473
842.000000	99.601146
841.000000	99.606557
840.000000	99.608140
839.000000	99.599999
838.000000	99.587002
837.000000	99.582344
836.000000	99.592763
835.000000	99.610623
834.000000	99.623633
833.000000	99.629355
832.000000	99.635750
831.000000	99.648766
830.000000	99.664321
829.000000	99.673422
828.000000	99.672335
827.000000	99.665609
826.000000	99.659884
825.000000	99.656725
824.000000	99.652399
823.000000	99.644285
822.000000	99.635046
821.000000	99.628245
820.000000	99.622067
819.000000	99.611895
818.000000	99.600029
817.000000	99.597592
816.000000	99.612316
815.000000	99.636323
814.000000	99.651295
813.000000	99.647155
812.000000	99.631222
811.000000	99.617977
810.000000	99.614280
809.000000	99.617524
808.000000	99.624330
807.000000	99.634574
806.000000	99.646629
805.000000	99.654586
804.000000	99.654383
803.000000	99.650655
802.000000	99.652836
801.000000	99.663031
800.000000	99.670599
799.000000	99.662302
798.000000	99.637764
797.000000	99.611589
796.000000	99.598846
795.000000	99.600917
794.000000	99.608024
793.000000	99.612558
792.000000	99.614772
791.000000	99.616517
790.000000	99.616149
789.000000	99.612265
788.000000	99.607470
787.000000	99.604274
786.000000	99.600559
785.000000	99.593834
784.000000	99.587827
783.000000	99.589653
782.000000	99.600387
781.000000	99.612329
780.000000	99.616394
779.000000	99.609602
778.000000	99.595693
777.000000	99.581693
776.000000	99.574499
775.000000	99.577389
774.000000	99.587507
773.000000	99.597293
772.000000	99.599312
771.000000	99.590350
770.000000	99.573070
769.000000	99.555227
768.000000	99.545164
767.000000	99.545104
766.000000	99.549922
765.000000	99.554609
764.000000	99.560336
763.000000	99.569237
762.000000	99.576174
761.000000	99.572794
760.000000	99.559575
759.000000	99.546689
758.000000	99.540636
757.000000	99.536009
756.000000	99.524027
755.000000	99.505022
754.000000	99.488384
753.000000	99.482504
752.000000	99.487750
751.000000	99.497436
750.000000	99.503322
749.000000	99.501697
748.000000	99.495329
747.000000	99.487864
746.000000	99.477410
745.000000	99.460119
744.000000	99.440008
743.000000	99.428157
742.000000	99.428853
741.000000	99.432396
740.000000	99.426687
739.000000	99.411669
738.000000	99.396678
737.000000	99.387557
736.000000	99.382826
735.000000	99.380275
734.000000	99.379806
733.000000	99.379237
732.000000	99.373648
731.000000	99.361312
730.000000	99.346612
729.000000	99.334332
728.000000	99.323969
727.000000	99.311477
726.000000	99.294806
725.000000	99.277133
724.000000	99.264932
723.000000	99.262232
722.000000	99.265999
721.000000	99.268219
720.000000	99.263651
719.000000	99.253229
718.000000	99.239022
717.000000	99.220220
716.000000	99.197179
715.000000	99.175754
714.000000	99.161986
713.000000	99.153240
712.000000	99.139410
711.000000	99.113578
710.000000	99.078477
709.000000	99.042604
708.000000	99.013479
707.000000	98.994730
706.000000	98.985381
705.000000	98.981200
704.000000	98.978358
703.000000	98.974742
702.000000	98.967411
701.000000	98.951600
700.000000	98.925805
699.000000	98.897651
698.000000	98.879725
697.000000	98.878474
696.000000	98.889659
695.000000	98.903685
694.000000	98.913121
693.000000	98.914612
692.000000	98.907450
691.000000	98.894599
690.000000	98.881549
689.000000	98.870760
688.000000	98.857667
687.000000	98.835954
686.000000	98.809426
685.000000	98.793011
684.000000	98.797087
683.000000	98.812633
682.000000	98.817032
681.000000	98.796518
680.000000	98.760245
679.000000	98.731323
678.000000	98.725850
677.000000	98.741656
676.000000	98.766501
675.000000	98.789294
674.000000	98.803450
673.000000	98.806026
672.000000	98.799996
671.000000	98.794088
670.000000	98.796025
669.000000	98.801542
668.000000	98.783938
667.000000	98.734897
666.000000	98.690504
665.000000	98.652702
664.000000	98.614364
663.000000	98.582279
662.000000	98.561642
661.000000	98.544502
660.000000	98.521005
659.000000	98.495880
658.000000	98.482549
657.000000	98.483300
656.000000	98.488199
655.000000	98.488672
654.000000	98.484582
653.000000	98.480700
652.000000	98.481574
651.000000	98.486619
650.000000	98.489256
649.000000	98.484740
648.000000	98.478877
647.000000	98.481683
646.000000	98.492952
645.000000	98.503712
644.000000	98.510581
643.000000	98.518021
642.000000	98.526912
641.000000	98.529738
640.000000	98.520257
639.000000	98.502213
638.000000	98.485386
637.000000	98.477807
636.000000	98.481435
635.000000	98.488442
634.000000	98.484798
633.000000	98.465409
632.000000	98.441837
631.000000	98.427544
630.000000	98.419715
629.000000	98.407062
628.000000	98.391284
627.000000	98.386129
626.000000	98.395750
625.000000	98.410514
624.000000	98.425980
623.000000	98.447519
622.000000	98.472353
621.000000	98.483496
620.000000	98.470296
619.000000	98.444064
618.000000	98.427419
617.000000	98.434884
616.000000	98.464308
615.000000	98.497381
614.000000	98.508049
613.000000	98.484257
612.000000	98.444321
611.000000	98.418980
610.000000	98.414968
609.000000	98.411870
608.000000	98.397051
607.000000	98.383441
606.000000	98.384027
605.000000	98.390344
604.000000	98.389614
603.000000	98.385969
602.000000	98.389735
601.000000	98.397920
600.000000	98.400465
599.000000	98.394435
598.000000	98.381369
597.000000	98.359838
596.000000	98.331378
595.000000	98.305005
594.000000	98.287203
593.000000	98.276587
592.000000	98.275318
591.000000	98.291228
590.000000	98.318324
589.000000	98.332241
588.000000	98.317093
587.000000	98.283471
586.000000	98.251281
585.000000	98.228444
584.000000	98.219059
583.000000	98.235872
582.000000	98.282603
581.000000	98.333761
580.000000	98.354824
579.000000	98.339590
578.000000	98.310693
577.000000	98.287867
576.000000	98.273594
575.000000	98.264622
574.000000	98.258287
573.000000	98.247262
572.000000	98.223444
571.000000	98.189147
570.000000	98.154000
569.000000	98.121385
568.000000	98.089273
567.000000	98.063994
566.000000	98.060188
565.000000	98.085005
564.000000	98.129941
563.000000	98.173699
562.000000	98.189831
561.000000	98.162240
560.000000	98.102862
559.000000	98.049134
558.000000	98.032858
557.000000	98.053511
556.000000	98.088543
555.000000	98.117865
554.000000	98.127967
553.000000	98.108857
552.000000	98.066309
551.000000	98.031417
550.000000	98.037801
549.000000	98.084142
548.000000	98.133943
547.000000	98.154222
546.000000	98.145919
545.000000	98.137484
544.000000	98.155090
543.000000	98.199505
542.000000	98.245315
541.000000	98.265311
540.000000	98.258485
539.000000	98.246249
538.000000	98.241313
537.000000	98.233077
536.000000	98.211308
535.000000	98.187534
534.000000	98.177925
533.000000	98.176452
532.000000	98.163828
531.000000	98.135577
530.000000	98.107384
529.000000	98.099082
528.000000	98.124838
527.000000	98.185189
526.000000	98.251162
525.000000	98.276200
524.000000	98.246080
523.000000	98.197825
522.000000	98.179408
521.000000	98.205068
520.000000	98.253972
519.000000	98.297719
518.000000	98.318082
517.000000	98.311444
516.000000	98.293442
515.000000	98.291989
514.000000	98.320124
513.000000	98.360344
512.000000	98.384973
511.000000	98.386725
510.000000	98.381005
509.000000	98.384300
508.000000	98.405012
507.000000	98.444933
506.000000	98.496854
505.000000	98.548181
504.000000	98.592565
503.000000	98.630226
502.000000	98.653299
501.000000	98.649214
500.000000	98.625394
499.000000	98.607669
498.000000	98.610940
497.000000	98.624583
496.000000	98.633604
495.000000	98.641856
494.000000	98.659891
493.000000	98.685893
492.000000	98.714097
491.000000	98.747460
490.000000	98.790168
489.000000	98.835641
488.000000	98.874296
487.000000	98.901955
486.000000	98.913636
485.000000	98.908598
484.000000	98.906546
483.000000	98.932684
482.000000	98.977803
481.000000	99.004438
480.000000	99.000597
479.000000	98.993056
478.000000	98.996431
477.000000	98.982876
476.000000	98.931644
475.000000	98.879576
474.000000	98.886892
473.000000	98.963321
472.000000	99.054480
471.000000	99.106257
470.000000	99.111447
469.000000	99.088239
468.000000	99.065340
467.000000	99.084202
466.000000	99.163686
465.000000	99.263249
464.000000	99.319636
463.000000	99.315027
462.000000	99.296451
461.000000	99.326089
460.000000	99.428178
459.000000	99.580532
458.000000	99.712528
457.000000	99.743083
456.000000	99.678497
455.000000	99.604655
454.000000	99.586425
453.000000	99.623319
452.000000	99.666175
451.000000	99.666990
450.000000	99.616860
