PE IR       SUBTECH     SPECTRUM    ASCII       PEDS        4.00        
   -1
Chevre-PC2-F002_1.ASC
23/09/14
13:45:21.00
23/09/14
14:06:12.00
uco
Sample 002 By uco Date Thursday, September 14 2023
450.000000
#HDR
-1
-1
#GR
cm-1
%T
1.0
0.0
4000.000000
-1.000000
3551
8
99.417151
82.328707
#DATA
4000.000000	99.271370
3999.000000	99.273604
3998.000000	99.275855
3997.000000	99.273132
3996.000000	99.265715
3995.000000	99.255866
3994.000000	99.246505
3993.000000	99.239712
3992.000000	99.235949
3991.000000	99.234568
3990.000000	99.234881
3989.000000	99.236826
3988.000000	99.240565
3987.000000	99.245517
3986.000000	99.250044
3985.000000	99.252472
3984.000000	99.252480
3983.000000	99.251286
3982.000000	99.250166
3981.000000	99.248921
3980.000000	99.246225
3979.000000	99.241439
3978.000000	99.235735
3977.000000	99.231320
3976.000000	99.229633
3975.000000	99.230219
3974.000000	99.231121
3973.000000	99.230244
3972.000000	99.226765
3971.000000	99.221807
3970.000000	99.217757
3969.000000	99.216543
3968.000000	99.218058
3967.000000	99.220239
3966.000000	99.220965
3965.000000	99.219873
3964.000000	99.218457
3963.000000	99.218424
3962.000000	99.219915
3961.000000	99.221426
3960.000000	99.221533
3959.000000	99.220428
3958.000000	99.219615
3957.000000	99.220199
3956.000000	99.221695
3955.000000	99.222705
3954.000000	99.222467
3953.000000	99.221217
3952.000000	99.219059
3951.000000	99.215282
3950.000000	99.209396
3949.000000	99.202729
3948.000000	99.198166
3947.000000	99.197816
3946.000000	99.201167
3945.000000	99.205697
3944.000000	99.208920
3943.000000	99.209859
3942.000000	99.209145
3941.000000	99.208076
3940.000000	99.207536
3939.000000	99.207579
3938.000000	99.207815
3937.000000	99.207952
3936.000000	99.208113
3935.000000	99.208877
3934.000000	99.210952
3933.000000	99.214566
3932.000000	99.218911
3931.000000	99.222635
3930.000000	99.224951
3929.000000	99.225823
3928.000000	99.225210
3927.000000	99.222831
3926.000000	99.218952
3925.000000	99.215304
3924.000000	99.214455
3923.000000	99.217532
3922.000000	99.222851
3921.000000	99.227367
3920.000000	99.229191
3919.000000	99.228167
3918.000000	99.224488
3917.000000	99.218028
3916.000000	99.209770
3915.000000	99.202826
3914.000000	99.200890
3913.000000	99.205451
3912.000000	99.214480
3911.000000	99.223060
3910.000000	99.226021
3909.000000	99.221302
3908.000000	99.211438
3907.000000	99.202249
3906.000000	99.199877
3905.000000	99.207153
3904.000000	99.220771
3903.000000	99.233060
3902.000000	99.237933
3901.000000	99.234920
3900.000000	99.227827
3899.000000	99.221147
3898.000000	99.217098
3897.000000	99.215234
3896.000000	99.214080
3895.000000	99.212876
3894.000000	99.212194
3893.000000	99.213072
3892.000000	99.215611
3891.000000	99.218130
3890.000000	99.218454
3889.000000	99.215617
3888.000000	99.210166
3887.000000	99.204669
3886.000000	99.203042
3885.000000	99.206806
3884.000000	99.213063
3883.000000	99.217290
3882.000000	99.217037
3881.000000	99.213885
3880.000000	99.211663
3879.000000	99.212666
3878.000000	99.216194
3877.000000	99.219901
3876.000000	99.222028
3875.000000	99.222399
3874.000000	99.221917
3873.000000	99.221996
3872.000000	99.223591
3871.000000	99.225964
3870.000000	99.226957
3869.000000	99.225407
3868.000000	99.223075
3867.000000	99.222322
3866.000000	99.223900
3865.000000	99.227421
3864.000000	99.231175
3863.000000	99.232624
3862.000000	99.231020
3861.000000	99.228229
3860.000000	99.227040
3859.000000	99.228781
3858.000000	99.232719
3857.000000	99.237272
3856.000000	99.241220
3855.000000	99.243964
3854.000000	99.244696
3853.000000	99.242618
3852.000000	99.239210
3851.000000	99.236622
3850.000000	99.234653
3849.000000	99.232524
3848.000000	99.230039
3847.000000	99.227040
3846.000000	99.223863
3845.000000	99.221976
3844.000000	99.223153
3843.000000	99.227364
3842.000000	99.232534
3841.000000	99.236521
3840.000000	99.239030
3839.000000	99.241642
3838.000000	99.245507
3837.000000	99.249028
3836.000000	99.249030
3835.000000	99.243894
3834.000000	99.234562
3833.000000	99.223458
3832.000000	99.213240
3831.000000	99.206017
3830.000000	99.202907
3829.000000	99.203864
3828.000000	99.207988
3827.000000	99.213750
3826.000000	99.219563
3825.000000	99.224666
3824.000000	99.229205
3823.000000	99.233500
3822.000000	99.237728
3821.000000	99.241307
3820.000000	99.243385
3819.000000	99.243966
3818.000000	99.243029
3817.000000	99.240737
3816.000000	99.238121
3815.000000	99.236376
3814.000000	99.235858
3813.000000	99.235487
3812.000000	99.234039
3811.000000	99.232087
3810.000000	99.231374
3809.000000	99.233047
3808.000000	99.236758
3807.000000	99.240799
3806.000000	99.243617
3805.000000	99.245432
3804.000000	99.247557
3803.000000	99.250968
3802.000000	99.255020
3801.000000	99.256790
3800.000000	99.254590
3799.000000	99.249999
3798.000000	99.245228
3797.000000	99.241787
3796.000000	99.239765
3795.000000	99.238061
3794.000000	99.236137
3793.000000	99.234695
3792.000000	99.234891
3791.000000	99.236758
3790.000000	99.238205
3789.000000	99.236175
3788.000000	99.228981
3787.000000	99.217642
3786.000000	99.205568
3785.000000	99.197181
3784.000000	99.195665
3783.000000	99.200980
3782.000000	99.209942
3781.000000	99.218382
3780.000000	99.223882
3779.000000	99.226834
3778.000000	99.228820
3777.000000	99.229985
3776.000000	99.228897
3775.000000	99.224729
3774.000000	99.218818
3773.000000	99.214024
3772.000000	99.212962
3771.000000	99.216637
3770.000000	99.223782
3769.000000	99.231125
3768.000000	99.235320
3767.000000	99.234909
3766.000000	99.231005
3765.000000	99.226725
3764.000000	99.225266
3763.000000	99.227852
3762.000000	99.233161
3761.000000	99.238575
3760.000000	99.241671
3759.000000	99.240973
3758.000000	99.236598
3757.000000	99.230348
3756.000000	99.224578
3755.000000	99.220486
3754.000000	99.217624
3753.000000	99.215238
3752.000000	99.213953
3751.000000	99.215700
3750.000000	99.221332
3749.000000	99.229571
3748.000000	99.239599
3747.000000	99.251925
3746.000000	99.265803
3745.000000	99.276474
3744.000000	99.277245
3743.000000	99.268496
3742.000000	99.256327
3741.000000	99.243255
3740.000000	99.230583
3739.000000	99.221982
3738.000000	99.220941
3737.000000	99.227610
3736.000000	99.238121
3735.000000	99.247084
3734.000000	99.251593
3733.000000	99.251703
3732.000000	99.248546
3731.000000	99.244282
3730.000000	99.241539
3729.000000	99.241472
3728.000000	99.242537
3727.000000	99.241223
3726.000000	99.234959
3725.000000	99.225233
3724.000000	99.216471
3723.000000	99.212086
3722.000000	99.212587
3721.000000	99.216488
3720.000000	99.222065
3719.000000	99.227853
3718.000000	99.232174
3717.000000	99.233478
3716.000000	99.231679
3715.000000	99.228613
3714.000000	99.227621
3713.000000	99.232859
3712.000000	99.247295
3711.000000	99.268659
3710.000000	99.288704
3709.000000	99.298958
3708.000000	99.296407
3707.000000	99.283662
3706.000000	99.265878
3705.000000	99.248128
3704.000000	99.233918
3703.000000	99.224822
3702.000000	99.220014
3701.000000	99.216914
3700.000000	99.213872
3699.000000	99.212010
3698.000000	99.213525
3697.000000	99.218834
3696.000000	99.225452
3695.000000	99.229379
3694.000000	99.228308
3693.000000	99.224029
3692.000000	99.222340
3691.000000	99.228973
3690.000000	99.243326
3689.000000	99.256288
3688.000000	99.258828
3687.000000	99.251401
3686.000000	99.240510
3685.000000	99.231187
3684.000000	99.225412
3683.000000	99.223384
3682.000000	99.223282
3681.000000	99.221513
3680.000000	99.215233
3679.000000	99.205687
3678.000000	99.197568
3677.000000	99.195157
3676.000000	99.198624
3675.000000	99.203618
3674.000000	99.206582
3673.000000	99.207359
3672.000000	99.206285
3671.000000	99.204256
3670.000000	99.203098
3669.000000	99.203737
3668.000000	99.205328
3667.000000	99.205985
3666.000000	99.204432
3665.000000	99.200788
3664.000000	99.195943
3663.000000	99.190985
3662.000000	99.186715
3661.000000	99.183016
3660.000000	99.178938
3659.000000	99.174121
3658.000000	99.170068
3657.000000	99.169262
3656.000000	99.171648
3655.000000	99.173699
3654.000000	99.172470
3653.000000	99.168467
3652.000000	99.164795
3651.000000	99.163648
3650.000000	99.161965
3649.000000	99.154640
3648.000000	99.144622
3647.000000	99.140215
3646.000000	99.143024
3645.000000	99.147056
3644.000000	99.146184
3643.000000	99.139131
3642.000000	99.129197
3641.000000	99.119988
3640.000000	99.111787
3639.000000	99.102955
3638.000000	99.094265
3637.000000	99.090066
3636.000000	99.094279
3635.000000	99.106170
3634.000000	99.120553
3633.000000	99.132090
3632.000000	99.138074
3631.000000	99.137004
3630.000000	99.127146
3629.000000	99.109230
3628.000000	99.089850
3627.000000	99.075847
3626.000000	99.066049
3625.000000	99.054982
3624.000000	99.040238
3623.000000	99.023726
3622.000000	99.009443
3621.000000	99.001587
3620.000000	99.003110
3619.000000	99.013016
3618.000000	99.025349
3617.000000	99.033507
3616.000000	99.034494
3615.000000	99.029135
3614.000000	99.020472
3613.000000	99.011722
3612.000000	99.004453
3611.000000	98.998167
3610.000000	98.991350
3609.000000	98.982893
3608.000000	98.973000
3607.000000	98.963178
3606.000000	98.955303
3605.000000	98.950471
3604.000000	98.948458
3603.000000	98.947849
3602.000000	98.946478
3601.000000	98.943094
3600.000000	98.938856
3599.000000	98.936232
3598.000000	98.935989
3597.000000	98.935965
3596.000000	98.932961
3595.000000	98.925560
3594.000000	98.915488
3593.000000	98.905929
3592.000000	98.898494
3591.000000	98.892093
3590.000000	98.884765
3589.000000	98.876062
3588.000000	98.868023
3587.000000	98.863374
3586.000000	98.862575
3585.000000	98.863281
3584.000000	98.862432
3583.000000	98.858708
3582.000000	98.852902
3581.000000	98.846596
3580.000000	98.840766
3579.000000	98.835458
3578.000000	98.830251
3577.000000	98.824735
3576.000000	98.818752
3575.000000	98.812182
3574.000000	98.804883
3573.000000	98.796766
3572.000000	98.787949
3571.000000	98.778305
3570.000000	98.766885
3569.000000	98.751933
3568.000000	98.732526
3567.000000	98.711313
3566.000000	98.694796
3565.000000	98.688457
3564.000000	98.692121
3563.000000	98.701030
3562.000000	98.709535
3561.000000	98.713744
3560.000000	98.712597
3559.000000	98.707364
3558.000000	98.699949
3557.000000	98.691830
3556.000000	98.684436
3555.000000	98.679459
3554.000000	98.677905
3553.000000	98.678636
3552.000000	98.678517
3551.000000	98.674472
3550.000000	98.665194
3549.000000	98.651007
3548.000000	98.633514
3547.000000	98.615792
3546.000000	98.601936
3545.000000	98.595000
3544.000000	98.594840
3543.000000	98.598164
3542.000000	98.600761
3541.000000	98.599804
3540.000000	98.594654
3539.000000	98.586287
3538.000000	98.576265
3537.000000	98.566020
3536.000000	98.556591
3535.000000	98.548796
3534.000000	98.543583
3533.000000	98.541992
3532.000000	98.544236
3531.000000	98.548624
3530.000000	98.551636
3529.000000	98.549912
3528.000000	98.542611
3527.000000	98.531970
3526.000000	98.521711
3525.000000	98.514851
3524.000000	98.511998
3523.000000	98.510666
3522.000000	98.506889
3521.000000	98.498652
3520.000000	98.487879
3519.000000	98.478595
3518.000000	98.473173
3517.000000	98.470516
3516.000000	98.467730
3515.000000	98.462756
3514.000000	98.455223
3513.000000	98.445911
3512.000000	98.436298
3511.000000	98.428148
3510.000000	98.422394
3509.000000	98.418272
3508.000000	98.414304
3507.000000	98.410148
3506.000000	98.406775
3505.000000	98.404867
3504.000000	98.403717
3503.000000	98.401911
3502.000000	98.398711
3501.000000	98.394098
3500.000000	98.387898
3499.000000	98.379895
3498.000000	98.370890
3497.000000	98.362772
3496.000000	98.356980
3495.000000	98.353307
3494.000000	98.350596
3493.000000	98.348059
3492.000000	98.345287
3491.000000	98.341518
3490.000000	98.335962
3489.000000	98.328960
3488.000000	98.321983
3487.000000	98.316066
3486.000000	98.310779
3485.000000	98.305154
3484.000000	98.299115
3483.000000	98.293638
3482.000000	98.289883
3481.000000	98.288603
3480.000000	98.289995
3479.000000	98.293330
3478.000000	98.296684
3477.000000	98.297697
3476.000000	98.295031
3475.000000	98.289079
3474.000000	98.281106
3473.000000	98.271772
3472.000000	98.260817
3471.000000	98.248380
3470.000000	98.236399
3469.000000	98.228115
3468.000000	98.225581
3467.000000	98.227601
3466.000000	98.230575
3465.000000	98.231350
3464.000000	98.228921
3463.000000	98.223915
3462.000000	98.217606
3461.000000	98.211619
3460.000000	98.207184
3459.000000	98.203724
3458.000000	98.199019
3457.000000	98.191899
3456.000000	98.184364
3455.000000	98.179846
3454.000000	98.179214
3453.000000	98.179568
3452.000000	98.177215
3451.000000	98.171208
3450.000000	98.163709
3449.000000	98.157512
3448.000000	98.153563
3447.000000	98.150403
3446.000000	98.145893
3445.000000	98.139546
3444.000000	98.132862
3443.000000	98.127450
3442.000000	98.123381
3441.000000	98.119759
3440.000000	98.116236
3439.000000	98.113047
3438.000000	98.109944
3437.000000	98.106412
3436.000000	98.103128
3435.000000	98.101991
3434.000000	98.104056
3433.000000	98.108034
3432.000000	98.111241
3431.000000	98.111268
3430.000000	98.106601
3429.000000	98.097018
3428.000000	98.084620
3427.000000	98.073635
3426.000000	98.067606
3425.000000	98.066368
3424.000000	98.066354
3423.000000	98.063996
3422.000000	98.058545
3421.000000	98.051986
3420.000000	98.046837
3419.000000	98.043963
3418.000000	98.041933
3417.000000	98.038284
3416.000000	98.031710
3415.000000	98.023187
3414.000000	98.014880
3413.000000	98.008116
3412.000000	98.002939
3411.000000	97.999440
3410.000000	97.998481
3409.000000	98.000420
3408.000000	98.003597
3407.000000	98.005053
3406.000000	98.002940
3405.000000	97.997736
3404.000000	97.990921
3403.000000	97.983085
3402.000000	97.973936
3401.000000	97.963826
3400.000000	97.954232
3399.000000	97.946415
3398.000000	97.940219
3397.000000	97.934723
3396.000000	97.929725
3395.000000	97.926171
3394.000000	97.925299
3393.000000	97.927615
3392.000000	97.932224
3391.000000	97.936736
3390.000000	97.938289
3389.000000	97.935545
3388.000000	97.929891
3387.000000	97.924259
3386.000000	97.920753
3385.000000	97.919723
3384.000000	97.920815
3383.000000	97.923782
3382.000000	97.927816
3381.000000	97.930889
3380.000000	97.930650
3379.000000	97.926066
3378.000000	97.918147
3377.000000	97.909356
3376.000000	97.902350
3375.000000	97.898631
3374.000000	97.897803
3373.000000	97.898164
3372.000000	97.898172
3371.000000	97.897210
3370.000000	97.895193
3369.000000	97.892120
3368.000000	97.888311
3367.000000	97.884485
3366.000000	97.881115
3365.000000	97.878035
3364.000000	97.874964
3363.000000	97.871792
3362.000000	97.867990
3361.000000	97.862693
3360.000000	97.856416
3359.000000	97.852059
3358.000000	97.852593
3357.000000	97.857362
3356.000000	97.861777
3355.000000	97.861372
3354.000000	97.855593
3353.000000	97.847296
3352.000000	97.839536
3351.000000	97.833680
3350.000000	97.829747
3349.000000	97.827046
3348.000000	97.824398
3347.000000	97.820773
3346.000000	97.816202
3345.000000	97.811681
3344.000000	97.808192
3343.000000	97.806325
3342.000000	97.806588
3341.000000	97.808849
3340.000000	97.811085
3339.000000	97.810092
3338.000000	97.804626
3337.000000	97.797176
3336.000000	97.791304
3335.000000	97.787552
3334.000000	97.783326
3333.000000	97.776743
3332.000000	97.769035
3331.000000	97.762800
3330.000000	97.759492
3329.000000	97.759346
3328.000000	97.762323
3327.000000	97.767617
3326.000000	97.772809
3325.000000	97.775010
3324.000000	97.773131
3323.000000	97.768444
3322.000000	97.763090
3321.000000	97.758688
3320.000000	97.755835
3319.000000	97.753880
3318.000000	97.751286
3317.000000	97.747249
3316.000000	97.743074
3315.000000	97.741078
3314.000000	97.741930
3313.000000	97.743912
3312.000000	97.744908
3311.000000	97.744364
3310.000000	97.743229
3309.000000	97.742953
3308.000000	97.744865
3307.000000	97.749316
3306.000000	97.754570
3305.000000	97.757302
3304.000000	97.755106
3303.000000	97.748281
3302.000000	97.738899
3301.000000	97.728987
3300.000000	97.720384
3299.000000	97.715226
3298.000000	97.714539
3297.000000	97.716400
3296.000000	97.717190
3295.000000	97.715385
3294.000000	97.712928
3293.000000	97.712045
3292.000000	97.711943
3291.000000	97.710100
3290.000000	97.706305
3289.000000	97.703762
3288.000000	97.705775
3287.000000	97.712403
3286.000000	97.720980
3285.000000	97.729057
3284.000000	97.735912
3283.000000	97.741718
3282.000000	97.746398
3281.000000	97.749697
3280.000000	97.751712
3279.000000	97.752705
3278.000000	97.752444
3277.000000	97.750127
3276.000000	97.745355
3275.000000	97.739401
3274.000000	97.735379
3273.000000	97.736538
3272.000000	97.743630
3271.000000	97.753731
3270.000000	97.761954
3269.000000	97.764747
3268.000000	97.761963
3267.000000	97.756532
3266.000000	97.752566
3265.000000	97.753116
3264.000000	97.758447
3263.000000	97.765948
3262.000000	97.772352
3261.000000	97.776632
3260.000000	97.780421
3259.000000	97.785231
3258.000000	97.789906
3257.000000	97.791635
3256.000000	97.789337
3255.000000	97.785377
3254.000000	97.783652
3253.000000	97.786270
3252.000000	97.792263
3251.000000	97.799131
3250.000000	97.805333
3249.000000	97.811248
3248.000000	97.817849
3247.000000	97.824790
3246.000000	97.830084
3245.000000	97.831638
3244.000000	97.828803
3243.000000	97.822552
3242.000000	97.815040
3241.000000	97.809382
3240.000000	97.808780
3239.000000	97.814494
3238.000000	97.824541
3237.000000	97.835075
3236.000000	97.843249
3235.000000	97.848626
3234.000000	97.852341
3233.000000	97.855779
3232.000000	97.859834
3231.000000	97.864389
3230.000000	97.868212
3229.000000	97.870081
3228.000000	97.870204
3227.000000	97.869702
3226.000000	97.868460
3225.000000	97.864737
3224.000000	97.858009
3223.000000	97.851658
3222.000000	97.851342
3221.000000	97.860138
3220.000000	97.875672
3219.000000	97.892060
3218.000000	97.904267
3217.000000	97.910392
3216.000000	97.910950
3215.000000	97.907442
3214.000000	97.901751
3213.000000	97.895844
3212.000000	97.891087
3211.000000	97.887871
3210.000000	97.886291
3209.000000	97.886980
3208.000000	97.890802
3207.000000	97.897580
3206.000000	97.905424
3205.000000	97.911690
3204.000000	97.914914
3203.000000	97.916193
3202.000000	97.918583
3201.000000	97.924551
3200.000000	97.933396
3199.000000	97.941411
3198.000000	97.945353
3197.000000	97.945575
3196.000000	97.945202
3195.000000	97.946265
3194.000000	97.947862
3193.000000	97.948478
3192.000000	97.948975
3191.000000	97.952136
3190.000000	97.959454
3189.000000	97.969219
3188.000000	97.977916
3187.000000	97.983164
3186.000000	97.985321
3185.000000	97.986763
3184.000000	97.989692
3183.000000	97.994515
3182.000000	98.000065
3181.000000	98.005015
3180.000000	98.008678
3179.000000	98.010668
3178.000000	98.010791
3177.000000	98.009704
3176.000000	98.008956
3175.000000	98.009595
3174.000000	98.011091
3173.000000	98.012290
3172.000000	98.013250
3171.000000	98.015549
3170.000000	98.020705
3169.000000	98.028626
3168.000000	98.037456
3167.000000	98.044776
3166.000000	98.049307
3165.000000	98.051871
3164.000000	98.054358
3163.000000	98.057435
3162.000000	98.059703
3161.000000	98.059721
3160.000000	98.058462
3159.000000	98.059054
3158.000000	98.064183
3157.000000	98.074139
3156.000000	98.086653
3155.000000	98.097722
3154.000000	98.103247
3153.000000	98.101833
3152.000000	98.096756
3151.000000	98.093996
3150.000000	98.097207
3149.000000	98.104628
3148.000000	98.111256
3147.000000	98.113609
3146.000000	98.112312
3145.000000	98.110847
3144.000000	98.112699
3143.000000	98.119304
3142.000000	98.129646
3141.000000	98.141029
3140.000000	98.150259
3139.000000	98.154725
3138.000000	98.153547
3137.000000	98.148656
3136.000000	98.144597
3135.000000	98.145991
3134.000000	98.153977
3133.000000	98.165038
3132.000000	98.173827
3131.000000	98.177509
3130.000000	98.177412
3129.000000	98.176909
3128.000000	98.178134
3127.000000	98.180559
3126.000000	98.181917
3125.000000	98.180055
3124.000000	98.174319
3123.000000	98.166168
3122.000000	98.159023
3121.000000	98.156912
3120.000000	98.162068
3119.000000	98.173170
3118.000000	98.186002
3117.000000	98.196026
3116.000000	98.200592
3115.000000	98.199467
3114.000000	98.194320
3113.000000	98.188006
3112.000000	98.183325
3111.000000	98.181536
3110.000000	98.182072
3109.000000	98.183945
3108.000000	98.186888
3107.000000	98.190779
3106.000000	98.194675
3105.000000	98.197442
3104.000000	98.199185
3103.000000	98.201296
3102.000000	98.204981
3101.000000	98.210285
3100.000000	98.216470
3099.000000	98.222598
3098.000000	98.227341
3097.000000	98.228708
3096.000000	98.224762
3095.000000	98.215383
3094.000000	98.203692
3093.000000	98.195333
3092.000000	98.195022
3091.000000	98.202879
3090.000000	98.214185
3089.000000	98.223134
3088.000000	98.226704
3087.000000	98.225048
3086.000000	98.219490
3085.000000	98.211531
3084.000000	98.203274
3083.000000	98.197091
3082.000000	98.194182
3081.000000	98.194094
3080.000000	98.195955
3079.000000	98.199589
3078.000000	98.205062
3077.000000	98.211626
3076.000000	98.217618
3075.000000	98.221465
3074.000000	98.222829
3073.000000	98.222887
3072.000000	98.223331
3071.000000	98.224819
3070.000000	98.226369
3069.000000	98.226339
3068.000000	98.223793
3067.000000	98.219052
3066.000000	98.213632
3065.000000	98.209873
3064.000000	98.209803
3063.000000	98.213700
3062.000000	98.220132
3061.000000	98.227670
3060.000000	98.235889
3059.000000	98.244356
3058.000000	98.251880
3057.000000	98.257738
3056.000000	98.262655
3055.000000	98.267204
3054.000000	98.270056
3053.000000	98.269649
3052.000000	98.267326
3051.000000	98.266981
3050.000000	98.271131
3049.000000	98.278483
3048.000000	98.285776
3047.000000	98.290891
3046.000000	98.293718
3045.000000	98.295082
3044.000000	98.295773
3043.000000	98.296298
3042.000000	98.297016
3041.000000	98.298371
3040.000000	98.300715
3039.000000	98.303585
3038.000000	98.305725
3037.000000	98.306584
3036.000000	98.307345
3035.000000	98.309535
3034.000000	98.313091
3033.000000	98.316943
3032.000000	98.320943
3031.000000	98.325492
3030.000000	98.329543
3029.000000	98.331190
3028.000000	98.330703
3027.000000	98.330989
3026.000000	98.333993
3025.000000	98.338188
3024.000000	98.340809
3023.000000	98.341503
3022.000000	98.342346
3021.000000	98.344951
3020.000000	98.348815
3019.000000	98.352190
3018.000000	98.353723
3017.000000	98.353614
3016.000000	98.353814
3015.000000	98.356570
3014.000000	98.361978
3013.000000	98.367356
3012.000000	98.369635
3011.000000	98.367942
3010.000000	98.363324
3009.000000	98.356849
3008.000000	98.349314
3007.000000	98.342478
3006.000000	98.339007
3005.000000	98.340189
3004.000000	98.343977
3003.000000	98.346095
3002.000000	98.343626
3001.000000	98.337654
3000.000000	98.331972
2999.000000	98.328974
2998.000000	98.327220
2997.000000	98.323717
2996.000000	98.317938
2995.000000	98.312087
2994.000000	98.307283
2993.000000	98.301350
2992.000000	98.291703
2991.000000	98.279297
2990.000000	98.268020
2989.000000	98.260183
2988.000000	98.253850
2987.000000	98.244860
2986.000000	98.230641
2985.000000	98.211840
2984.000000	98.191021
2983.000000	98.170616
2982.000000	98.151781
2981.000000	98.134293
2980.000000	98.117086
2979.000000	98.099086
2978.000000	98.080127
2977.000000	98.061196
2976.000000	98.043484
2975.000000	98.026903
2974.000000	98.009705
2973.000000	97.989832
2972.000000	97.966516
2971.000000	97.940492
2970.000000	97.913087
2969.000000	97.885494
2968.000000	97.858403
2967.000000	97.831501
2966.000000	97.803253
2965.000000	97.771787
2964.000000	97.736300
2963.000000	97.697891
2962.000000	97.659642
2961.000000	97.626034
2960.000000	97.600910
2959.000000	97.584379
2958.000000	97.571944
2957.000000	97.557863
2956.000000	97.539965
2955.000000	97.520821
2954.000000	97.504764
2953.000000	97.494570
2952.000000	97.490244
2951.000000	97.489424
2950.000000	97.488698
2949.000000	97.485969
2948.000000	97.481935
2947.000000	97.478296
2946.000000	97.474213
2945.000000	97.465584
2944.000000	97.448299
2943.000000	97.421270
2942.000000	97.386209
2941.000000	97.345720
2940.000000	97.302089
2939.000000	97.256446
2938.000000	97.207701
2937.000000	97.153025
2936.000000	97.090310
2935.000000	97.020071
2934.000000	96.944746
2933.000000	96.866863
2932.000000	96.788288
2931.000000	96.709932
2930.000000	96.630950
2929.000000	96.548796
2928.000000	96.461270
2927.000000	96.368742
2926.000000	96.273663
2925.000000	96.178330
2924.000000	96.083949
2923.000000	95.991937
2922.000000	95.905341
2921.000000	95.828408
2920.000000	95.765545
2919.000000	95.721213
2918.000000	95.701303
2917.000000	95.713849
2916.000000	95.766376
2915.000000	95.860812
2914.000000	95.989779
2913.000000	96.138079
2912.000000	96.288276
2911.000000	96.426515
2910.000000	96.545524
2909.000000	96.644772
2908.000000	96.728438
2907.000000	96.801470
2906.000000	96.866428
2905.000000	96.923706
2904.000000	96.974321
2903.000000	97.020738
2902.000000	97.064354
2901.000000	97.103768
2900.000000	97.137161
2899.000000	97.165871
2898.000000	97.193948
2897.000000	97.224473
2896.000000	97.257279
2895.000000	97.290148
2894.000000	97.321054
2893.000000	97.348997
2892.000000	97.373815
2891.000000	97.396073
2890.000000	97.416901
2889.000000	97.437427
2888.000000	97.458177
2887.000000	97.478840
2886.000000	97.498402
2885.000000	97.515583
2884.000000	97.529635
2883.000000	97.540955
2882.000000	97.550726
2881.000000	97.559619
2880.000000	97.566603
2879.000000	97.569175
2878.000000	97.565215
2877.000000	97.555084
2876.000000	97.541895
2875.000000	97.529455
2874.000000	97.519866
2873.000000	97.512885
2872.000000	97.507071
2871.000000	97.501167
2870.000000	97.495019
2869.000000	97.490068
2868.000000	97.488650
2867.000000	97.491537
2866.000000	97.495634
2865.000000	97.494933
2864.000000	97.484289
2863.000000	97.462124
2862.000000	97.429436
2861.000000	97.387028
2860.000000	97.334275
2859.000000	97.269787
2858.000000	97.192740
2857.000000	97.103838
2856.000000	97.005156
2855.000000	96.898713
2854.000000	96.785940
2853.000000	96.670117
2852.000000	96.560819
2851.000000	96.475474
2850.000000	96.434239
2849.000000	96.451410
2848.000000	96.528697
2847.000000	96.654299
2846.000000	96.807794
2845.000000	96.968143
2844.000000	97.120341
2843.000000	97.257639
2842.000000	97.379097
2841.000000	97.485716
2840.000000	97.578619
2839.000000	97.658464
2838.000000	97.725233
2837.000000	97.778921
2836.000000	97.821321
2835.000000	97.856741
2834.000000	97.889803
2833.000000	97.922337
2832.000000	97.952983
2831.000000	97.979741
2830.000000	98.002079
2829.000000	98.020705
2828.000000	98.036340
2827.000000	98.049546
2826.000000	98.061506
2825.000000	98.074077
2824.000000	98.088528
2823.000000	98.104267
2822.000000	98.119205
2821.000000	98.131546
2820.000000	98.141054
2819.000000	98.148665
2818.000000	98.155513
2817.000000	98.162585
2816.000000	98.170423
2815.000000	98.178250
2814.000000	98.184012
2813.000000	98.186717
2812.000000	98.188680
2811.000000	98.194061
2810.000000	98.204655
2809.000000	98.217965
2808.000000	98.229926
2807.000000	98.238517
2806.000000	98.244235
2805.000000	98.248246
2804.000000	98.251296
2803.000000	98.253952
2802.000000	98.256755
2801.000000	98.259965
2800.000000	98.263559
2799.000000	98.267381
2798.000000	98.271095
2797.000000	98.274362
2796.000000	98.277343
2795.000000	98.280597
2794.000000	98.284285
2793.000000	98.288164
2792.000000	98.292619
2791.000000	98.298665
2790.000000	98.306062
2789.000000	98.312243
2788.000000	98.314497
2787.000000	98.313263
2786.000000	98.312307
2785.000000	98.315265
2784.000000	98.322440
2783.000000	98.331093
2782.000000	98.338349
2781.000000	98.343405
2780.000000	98.347022
2779.000000	98.349434
2778.000000	98.349626
2777.000000	98.347158
2776.000000	98.344179
2775.000000	98.344415
2774.000000	98.349629
2773.000000	98.357695
2772.000000	98.364698
2771.000000	98.368668
2770.000000	98.370950
2769.000000	98.374336
2768.000000	98.380232
2767.000000	98.387359
2766.000000	98.392826
2765.000000	98.394598
2764.000000	98.393070
2763.000000	98.390306
2762.000000	98.388127
2761.000000	98.387490
2760.000000	98.389265
2759.000000	98.394150
2758.000000	98.401208
2757.000000	98.407455
2756.000000	98.409970
2755.000000	98.408412
2754.000000	98.405061
2753.000000	98.402658
2752.000000	98.402503
2751.000000	98.404315
2750.000000	98.407317
2749.000000	98.411210
2748.000000	98.416080
2747.000000	98.421429
2746.000000	98.425782
2745.000000	98.427827
2744.000000	98.427844
2743.000000	98.427406
2742.000000	98.427784
2741.000000	98.429185
2740.000000	98.431310
2739.000000	98.433697
2738.000000	98.435540
2737.000000	98.436125
2736.000000	98.435687
2735.000000	98.435053
2734.000000	98.434431
2733.000000	98.433607
2732.000000	98.433482
2731.000000	98.435979
2730.000000	98.441679
2729.000000	98.448518
2728.000000	98.453688
2727.000000	98.456121
2726.000000	98.456542
2725.000000	98.456112
2724.000000	98.455988
2723.000000	98.457329
2722.000000	98.460358
2721.000000	98.463545
2720.000000	98.464719
2719.000000	98.463067
2718.000000	98.459734
2717.000000	98.456836
2716.000000	98.456260
2715.000000	98.458757
2714.000000	98.463440
2713.000000	98.468405
2712.000000	98.472377
2711.000000	98.475506
2710.000000	98.478329
2709.000000	98.480691
2708.000000	98.482377
2707.000000	98.484105
2706.000000	98.486795
2705.000000	98.489923
2704.000000	98.491441
2703.000000	98.489633
2702.000000	98.484891
2701.000000	98.479785
2700.000000	98.477469
2699.000000	98.479474
2698.000000	98.484539
2697.000000	98.489760
2696.000000	98.493186
2695.000000	98.495034
2694.000000	98.496277
2693.000000	98.496753
2692.000000	98.495208
2691.000000	98.490823
2690.000000	98.484303
2689.000000	98.477922
2688.000000	98.474861
2687.000000	98.477683
2686.000000	98.486271
2685.000000	98.497074
2684.000000	98.504997
2683.000000	98.506598
2682.000000	98.501971
2681.000000	98.494231
2680.000000	98.487377
2679.000000	98.483911
2678.000000	98.483727
2677.000000	98.485159
2676.000000	98.487170
2675.000000	98.490220
2674.000000	98.494956
2673.000000	98.500664
2672.000000	98.505496
2671.000000	98.508078
2670.000000	98.508645
2669.000000	98.508745
2668.000000	98.509708
2667.000000	98.510981
2666.000000	98.510160
2665.000000	98.505475
2664.000000	98.498380
2663.000000	98.492752
2662.000000	98.491143
2661.000000	98.492445
2660.000000	98.493524
2659.000000	98.492361
2658.000000	98.489214
2657.000000	98.485571
2656.000000	98.482838
2655.000000	98.481657
2654.000000	98.481979
2653.000000	98.483999
2652.000000	98.488828
2651.000000	98.497279
2650.000000	98.507746
2649.000000	98.516565
2648.000000	98.521334
2647.000000	98.522880
2646.000000	98.523158
2645.000000	98.522509
2644.000000	98.520510
2643.000000	98.518462
2642.000000	98.518881
2641.000000	98.522410
2640.000000	98.526819
2639.000000	98.529643
2638.000000	98.530727
2637.000000	98.531645
2636.000000	98.533557
2635.000000	98.536512
2634.000000	98.540500
2633.000000	98.546179
2632.000000	98.553948
2631.000000	98.562428
2630.000000	98.568705
2629.000000	98.570842
2628.000000	98.569920
2627.000000	98.568854
2626.000000	98.569384
2625.000000	98.571041
2624.000000	98.572808
2623.000000	98.574507
2622.000000	98.576535
2621.000000	98.579647
2620.000000	98.585125
2619.000000	98.593312
2618.000000	98.601370
2617.000000	98.604527
2616.000000	98.601143
2615.000000	98.595336
2614.000000	98.593208
2613.000000	98.597253
2612.000000	98.605268
2611.000000	98.613262
2610.000000	98.617870
2609.000000	98.617395
2608.000000	98.612799
2607.000000	98.607571
2606.000000	98.604988
2605.000000	98.605329
2604.000000	98.606340
2603.000000	98.605678
2602.000000	98.602133
2601.000000	98.595740
2600.000000	98.588290
2599.000000	98.582993
2598.000000	98.581990
2597.000000	98.584533
2596.000000	98.588736
2595.000000	98.594251
2594.000000	98.601507
2593.000000	98.608987
2592.000000	98.613492
2591.000000	98.613493
2590.000000	98.610599
2589.000000	98.607233
2588.000000	98.603932
2587.000000	98.599468
2586.000000	98.592981
2585.000000	98.585594
2584.000000	98.580175
2583.000000	98.579459
2582.000000	98.584322
2581.000000	98.594009
2580.000000	98.607647
2579.000000	98.624133
2578.000000	98.640268
2577.000000	98.651066
2576.000000	98.653685
2575.000000	98.650382
2574.000000	98.646217
2573.000000	98.644362
2572.000000	98.644606
2571.000000	98.645491
2570.000000	98.646245
2569.000000	98.646919
2568.000000	98.647957
2567.000000	98.649613
2566.000000	98.651198
2565.000000	98.651365
2564.000000	98.649850
2563.000000	98.648114
2562.000000	98.647357
2561.000000	98.646721
2560.000000	98.644357
2559.000000	98.639432
2558.000000	98.632167
2557.000000	98.623074
2556.000000	98.613613
2555.000000	98.606496
2554.000000	98.603467
2553.000000	98.603275
2552.000000	98.603559
2551.000000	98.604191
2550.000000	98.606997
2549.000000	98.612546
2548.000000	98.619302
2547.000000	98.626011
2546.000000	98.632679
2545.000000	98.638416
2544.000000	98.640421
2543.000000	98.636857
2542.000000	98.629708
2541.000000	98.623206
2540.000000	98.619564
2539.000000	98.617420
2538.000000	98.614426
2537.000000	98.609979
2536.000000	98.604759
2535.000000	98.598604
2534.000000	98.590222
2533.000000	98.578933
2532.000000	98.565497
2531.000000	98.551027
2530.000000	98.536376
2529.000000	98.523213
2528.000000	98.514166
2527.000000	98.510159
2526.000000	98.508113
2525.000000	98.502968
2524.000000	98.492300
2523.000000	98.478306
2522.000000	98.465602
2521.000000	98.457860
2520.000000	98.455724
2519.000000	98.456452
2518.000000	98.455820
2517.000000	98.451946
2516.000000	98.447346
2515.000000	98.445992
2514.000000	98.448613
2513.000000	98.452167
2512.000000	98.453651
2511.000000	98.452760
2510.000000	98.450857
2509.000000	98.449216
2508.000000	98.448759
2507.000000	98.450081
2506.000000	98.453126
2505.000000	98.457467
2504.000000	98.462723
2503.000000	98.467866
2502.000000	98.471091
2501.000000	98.472284
2500.000000	98.474884
2499.000000	98.483090
2498.000000	98.497249
2497.000000	98.514082
2496.000000	98.531148
2495.000000	98.548157
2494.000000	98.563878
2493.000000	98.575278
2492.000000	98.581703
2491.000000	98.587734
2490.000000	98.599547
2489.000000	98.618731
2488.000000	98.640344
2487.000000	98.656535
2486.000000	98.662253
2485.000000	98.658965
2484.000000	98.653033
2483.000000	98.649651
2482.000000	98.649203
2481.000000	98.650445
2480.000000	98.654621
2479.000000	98.662812
2478.000000	98.670972
2477.000000	98.673014
2476.000000	98.669336
2475.000000	98.667603
2474.000000	98.673559
2473.000000	98.685135
2472.000000	98.697047
2471.000000	98.706671
2470.000000	98.712949
2469.000000	98.713934
2468.000000	98.709510
2467.000000	98.704030
2466.000000	98.702624
2465.000000	98.706210
2464.000000	98.712335
2463.000000	98.718826
2462.000000	98.724343
2461.000000	98.727522
2460.000000	98.728290
2459.000000	98.728391
2458.000000	98.728568
2457.000000	98.727430
2456.000000	98.725162
2455.000000	98.725476
2454.000000	98.730661
2453.000000	98.737167
2452.000000	98.739783
2451.000000	98.738365
2450.000000	98.736660
2449.000000	98.736000
2448.000000	98.734479
2447.000000	98.731562
2446.000000	98.729375
2445.000000	98.729428
2444.000000	98.731724
2443.000000	98.737103
2442.000000	98.746489
2441.000000	98.756896
2440.000000	98.761876
2439.000000	98.758058
2438.000000	98.749201
2437.000000	98.742327
2436.000000	98.741267
2435.000000	98.745003
2434.000000	98.750563
2433.000000	98.755811
2432.000000	98.760146
2431.000000	98.763942
2430.000000	98.767568
2429.000000	98.770551
2428.000000	98.771710
2427.000000	98.770325
2426.000000	98.767447
2425.000000	98.766219
2424.000000	98.770269
2423.000000	98.780349
2422.000000	98.792041
2421.000000	98.798014
2420.000000	98.793790
2419.000000	98.781469
2418.000000	98.767803
2417.000000	98.759117
2416.000000	98.757853
2415.000000	98.762424
2414.000000	98.769278
2413.000000	98.775630
2412.000000	98.780873
2411.000000	98.785477
2410.000000	98.789255
2409.000000	98.791556
2408.000000	98.792512
2407.000000	98.792766
2406.000000	98.792615
2405.000000	98.793095
2404.000000	98.796941
2403.000000	98.805614
2402.000000	98.815538
2401.000000	98.820366
2400.000000	98.817683
2399.000000	98.811076
2398.000000	98.805061
2397.000000	98.800800
2396.000000	98.797478
2395.000000	98.794346
2394.000000	98.789951
2393.000000	98.782796
2392.000000	98.775097
2391.000000	98.772653
2390.000000	98.777860
2389.000000	98.785176
2388.000000	98.787227
2387.000000	98.783971
2386.000000	98.782127
2385.000000	98.786220
2384.000000	98.793769
2383.000000	98.799843
2382.000000	98.803141
2381.000000	98.805959
2380.000000	98.809794
2379.000000	98.812670
2378.000000	98.810768
2377.000000	98.802263
2376.000000	98.789809
2375.000000	98.779216
2374.000000	98.775202
2373.000000	98.778296
2372.000000	98.785454
2371.000000	98.792648
2370.000000	98.797101
2369.000000	98.799219
2368.000000	98.802911
2367.000000	98.811579
2366.000000	98.822383
2365.000000	98.826776
2364.000000	98.818944
2363.000000	98.802505
2362.000000	98.787242
2361.000000	98.778955
2360.000000	98.775835
2359.000000	98.774059
2358.000000	98.770989
2357.000000	98.767458
2356.000000	98.765362
2355.000000	98.764377
2354.000000	98.763771
2353.000000	98.762750
2352.000000	98.761303
2351.000000	98.759445
2350.000000	98.757708
2349.000000	98.755716
2348.000000	98.752259
2347.000000	98.748673
2346.000000	98.746091
2345.000000	98.742206
2344.000000	98.732106
2343.000000	98.717543
2342.000000	98.707927
2341.000000	98.706452
2340.000000	98.708854
2339.000000	98.710614
2338.000000	98.711633
2337.000000	98.713810
2336.000000	98.718224
2335.000000	98.723125
2334.000000	98.725417
2333.000000	98.723588
2332.000000	98.720712
2331.000000	98.721341
2330.000000	98.725951
2329.000000	98.728610
2328.000000	98.719985
2327.000000	98.696842
2326.000000	98.663200
2325.000000	98.630277
2324.000000	98.610216
2323.000000	98.609962
2322.000000	98.625951
2321.000000	98.645996
2320.000000	98.661265
2319.000000	98.672266
2318.000000	98.684007
2317.000000	98.696696
2316.000000	98.705750
2315.000000	98.708987
2314.000000	98.709442
2313.000000	98.712533
2312.000000	98.720592
2311.000000	98.732131
2310.000000	98.743035
2309.000000	98.750402
2308.000000	98.754102
2307.000000	98.756775
2306.000000	98.760192
2305.000000	98.764345
2304.000000	98.768899
2303.000000	98.774036
2302.000000	98.778556
2301.000000	98.779781
2300.000000	98.777528
2299.000000	98.776104
2298.000000	98.779143
2297.000000	98.784533
2296.000000	98.786243
2295.000000	98.781655
2294.000000	98.773406
2293.000000	98.766116
2292.000000	98.761879
2291.000000	98.759607
2290.000000	98.755817
2289.000000	98.747666
2288.000000	98.736771
2287.000000	98.729852
2286.000000	98.733054
2285.000000	98.745443
2284.000000	98.759778
2283.000000	98.769738
2282.000000	98.775362
2281.000000	98.781266
2280.000000	98.790806
2279.000000	98.801699
2278.000000	98.807536
2277.000000	98.804135
2276.000000	98.794185
2275.000000	98.783576
2274.000000	98.774282
2273.000000	98.764726
2272.000000	98.756795
2271.000000	98.756548
2270.000000	98.765077
2269.000000	98.774403
2268.000000	98.777537
2267.000000	98.778925
2266.000000	98.788742
2265.000000	98.808684
2264.000000	98.829522
2263.000000	98.842946
2262.000000	98.849922
2261.000000	98.855948
2260.000000	98.862356
2259.000000	98.865391
2258.000000	98.862476
2257.000000	98.856434
2256.000000	98.852478
2255.000000	98.851382
2254.000000	98.848432
2253.000000	98.841157
2252.000000	98.835761
2251.000000	98.841042
2250.000000	98.856369
2249.000000	98.870880
2248.000000	98.876312
2247.000000	98.876044
2246.000000	98.879094
2245.000000	98.889795
2244.000000	98.905836
2243.000000	98.922575
2242.000000	98.935306
2241.000000	98.940591
2240.000000	98.939404
2239.000000	98.936585
2238.000000	98.933717
2237.000000	98.925359
2236.000000	98.906638
2235.000000	98.883114
2234.000000	98.868701
2233.000000	98.872572
2232.000000	98.889299
2231.000000	98.902670
2230.000000	98.900346
2229.000000	98.886240
2228.000000	98.877794
2227.000000	98.889122
2226.000000	98.917720
2225.000000	98.949168
2224.000000	98.971255
2223.000000	98.978849
2222.000000	98.969082
2221.000000	98.941547
2220.000000	98.904349
2219.000000	98.871507
2218.000000	98.851862
2217.000000	98.846176
2216.000000	98.855027
2215.000000	98.881315
2214.000000	98.921412
2213.000000	98.960296
2212.000000	98.981202
2211.000000	98.978985
2210.000000	98.963532
2209.000000	98.953309
2208.000000	98.962976
2207.000000	98.990272
2206.000000	99.016490
2205.000000	99.026510
2204.000000	99.025330
2203.000000	99.026032
2202.000000	99.026463
2201.000000	99.013393
2200.000000	98.988535
2199.000000	98.971185
2198.000000	98.970776
2197.000000	98.974660
2196.000000	98.971808
2195.000000	98.972252
2194.000000	98.990066
2193.000000	99.018714
2192.000000	99.037456
2191.000000	99.035419
2190.000000	99.016507
2189.000000	98.987606
2188.000000	98.955902
2187.000000	98.934574
2186.000000	98.938202
2185.000000	98.968568
2184.000000	99.008588
2183.000000	99.031356
2182.000000	99.016280
2181.000000	98.964000
2180.000000	98.900251
2179.000000	98.859898
2178.000000	98.863672
2177.000000	98.909478
2176.000000	98.978980
2175.000000	99.046551
2174.000000	99.087666
2173.000000	99.091840
2172.000000	99.069635
2171.000000	99.037898
2170.000000	99.000322
2169.000000	98.952476
2168.000000	98.901343
2167.000000	98.863902
2166.000000	98.847641
2165.000000	98.848682
2164.000000	98.868365
2163.000000	98.911817
2162.000000	98.969053
2161.000000	99.023187
2160.000000	99.083661
2159.000000	99.178415
2158.000000	99.292852
2157.000000	99.361995
2156.000000	99.352264
2155.000000	99.303308
2154.000000	99.270984
2153.000000	99.266865
2152.000000	99.264457
2151.000000	99.239366
2150.000000	99.189827
2149.000000	99.134880
2148.000000	99.106193
2147.000000	99.127322
2146.000000	99.186059
2145.000000	99.235888
2144.000000	99.239432
2143.000000	99.204741
2142.000000	99.168464
2141.000000	99.153067
2140.000000	99.150868
2139.000000	99.143406
2138.000000	99.124241
2137.000000	99.102101
2136.000000	99.088970
2135.000000	99.086938
2134.000000	99.086821
2133.000000	99.080539
2132.000000	99.070874
2131.000000	99.064023
2130.000000	99.056892
2129.000000	99.041486
2128.000000	99.020871
2127.000000	99.010277
2126.000000	99.018976
2125.000000	99.038332
2124.000000	99.051550
2123.000000	99.048809
2122.000000	99.029622
2121.000000	98.997817
2120.000000	98.960458
2119.000000	98.927473
2118.000000	98.906799
2117.000000	98.900684
2116.000000	98.907084
2115.000000	98.920936
2114.000000	98.933344
2113.000000	98.935695
2112.000000	98.928434
2111.000000	98.921398
2110.000000	98.922420
2109.000000	98.929214
2108.000000	98.933732
2107.000000	98.930315
2106.000000	98.918825
2105.000000	98.905875
2104.000000	98.904107
2103.000000	98.922385
2102.000000	98.953047
2101.000000	98.975333
2100.000000	98.975931
2099.000000	98.961577
2098.000000	98.948782
2097.000000	98.947024
2096.000000	98.954726
2095.000000	98.964987
2094.000000	98.971002
2093.000000	98.970439
2092.000000	98.967070
2091.000000	98.963837
2090.000000	98.954733
2089.000000	98.931279
2088.000000	98.898867
2087.000000	98.878029
2086.000000	98.884868
2085.000000	98.915461
2084.000000	98.951269
2083.000000	98.973956
2082.000000	98.973962
2081.000000	98.954287
2080.000000	98.931619
2079.000000	98.925798
2078.000000	98.941757
2077.000000	98.966691
2076.000000	98.987311
2075.000000	99.002063
2074.000000	99.013224
2073.000000	99.017828
2072.000000	99.014579
2071.000000	99.011286
2070.000000	99.016528
2069.000000	99.028186
2068.000000	99.036141
2067.000000	99.033563
2066.000000	99.023200
2065.000000	99.017641
2064.000000	99.032119
2063.000000	99.067590
2062.000000	99.102098
2061.000000	99.109824
2060.000000	99.089797
2059.000000	99.063942
2058.000000	99.046190
2057.000000	99.030595
2056.000000	99.011963
2055.000000	98.997672
2054.000000	98.990178
2053.000000	98.977052
2052.000000	98.952646
2051.000000	98.934387
2050.000000	98.942978
2049.000000	98.974964
2048.000000	99.009120
2047.000000	99.034992
2046.000000	99.058724
2045.000000	99.087011
2044.000000	99.122371
2043.000000	99.165810
2042.000000	99.207676
2041.000000	99.223717
2040.000000	99.196779
2039.000000	99.136364
2038.000000	99.068003
2037.000000	99.017375
2036.000000	99.008441
2035.000000	99.054524
2034.000000	99.137965
2033.000000	99.214859
2032.000000	99.256617
2031.000000	99.271281
2030.000000	99.272297
2029.000000	99.254398
2028.000000	99.216382
2027.000000	99.178641
2026.000000	99.157134
2025.000000	99.142502
2024.000000	99.124345
2023.000000	99.114199
2022.000000	99.124325
2021.000000	99.144226
2020.000000	99.159524
2019.000000	99.175686
2018.000000	99.200328
2017.000000	99.218208
2016.000000	99.210593
2015.000000	99.186711
2014.000000	99.170881
2013.000000	99.171782
2012.000000	99.182794
2011.000000	99.198969
2010.000000	99.216283
2009.000000	99.224962
2008.000000	99.221767
2007.000000	99.218950
2006.000000	99.224311
2005.000000	99.224651
2004.000000	99.206368
2003.000000	99.179849
2002.000000	99.167037
2001.000000	99.173705
2000.000000	99.184794
1999.000000	99.182295
1998.000000	99.161739
1997.000000	99.138105
1996.000000	99.138947
1995.000000	99.179630
1994.000000	99.239612
1993.000000	99.272445
1992.000000	99.251845
1991.000000	99.199333
1990.000000	99.151804
1989.000000	99.121657
1988.000000	99.102918
1987.000000	99.092347
1986.000000	99.086420
1985.000000	99.072845
1984.000000	99.044604
1983.000000	99.013886
1982.000000	98.996227
1981.000000	98.989351
1980.000000	98.983611
1979.000000	98.987632
1978.000000	99.024869
1977.000000	99.101323
1976.000000	99.192035
1975.000000	99.264284
1974.000000	99.301531
1973.000000	99.307740
1972.000000	99.301271
1971.000000	99.298414
1970.000000	99.296046
1969.000000	99.278164
1968.000000	99.242789
1967.000000	99.210904
1966.000000	99.201945
1965.000000	99.212801
1964.000000	99.227603
1963.000000	99.235247
1962.000000	99.233187
1961.000000	99.228054
1960.000000	99.235526
1959.000000	99.264450
1958.000000	99.297839
1957.000000	99.304911
1956.000000	99.277379
1955.000000	99.240929
1954.000000	99.225618
1953.000000	99.235513
1952.000000	99.252232
1951.000000	99.258962
1950.000000	99.254388
1949.000000	99.248686
1948.000000	99.250439
1947.000000	99.255405
1946.000000	99.249156
1945.000000	99.224349
1944.000000	99.191679
1943.000000	99.168246
1942.000000	99.160284
1941.000000	99.166080
1940.000000	99.185547
1939.000000	99.211825
1938.000000	99.223471
1937.000000	99.203804
1936.000000	99.165215
1935.000000	99.135445
1934.000000	99.122090
1933.000000	99.111625
1932.000000	99.102018
1931.000000	99.111467
1930.000000	99.148417
1929.000000	99.193608
1928.000000	99.222097
1927.000000	99.228652
1926.000000	99.221629
1925.000000	99.207626
1924.000000	99.192603
1923.000000	99.184928
1922.000000	99.185858
1921.000000	99.186114
1920.000000	99.179622
1919.000000	99.171878
1918.000000	99.169670
1917.000000	99.171059
1916.000000	99.172903
1915.000000	99.177171
1914.000000	99.182526
1913.000000	99.181469
1912.000000	99.172376
1911.000000	99.165734
1910.000000	99.170924
1909.000000	99.183293
1908.000000	99.192456
1907.000000	99.195932
1906.000000	99.195427
1905.000000	99.189629
1904.000000	99.179123
1903.000000	99.170870
1902.000000	99.171320
1901.000000	99.179320
1900.000000	99.190168
1899.000000	99.200635
1898.000000	99.205717
1897.000000	99.199009
1896.000000	99.182836
1895.000000	99.170683
1894.000000	99.172061
1893.000000	99.181084
1892.000000	99.186433
1891.000000	99.185339
1890.000000	99.182515
1889.000000	99.181984
1888.000000	99.185325
1887.000000	99.191911
1886.000000	99.196657
1885.000000	99.194358
1884.000000	99.189553
1883.000000	99.194528
1882.000000	99.213230
1881.000000	99.234229
1880.000000	99.244685
1879.000000	99.244720
1878.000000	99.242301
1877.000000	99.241308
1876.000000	99.241224
1875.000000	99.241882
1874.000000	99.241748
1873.000000	99.235938
1872.000000	99.221727
1871.000000	99.203682
1870.000000	99.190579
1869.000000	99.188110
1868.000000	99.194948
1867.000000	99.204726
1866.000000	99.210036
1865.000000	99.208794
1864.000000	99.209533
1863.000000	99.223953
1862.000000	99.250900
1861.000000	99.273323
1860.000000	99.276071
1859.000000	99.261383
1858.000000	99.242159
1857.000000	99.228088
1856.000000	99.223225
1855.000000	99.228826
1854.000000	99.242234
1853.000000	99.257008
1852.000000	99.268046
1851.000000	99.274894
1850.000000	99.277580
1849.000000	99.274863
1848.000000	99.269806
1847.000000	99.268539
1846.000000	99.270192
1845.000000	99.264606
1844.000000	99.247962
1843.000000	99.232998
1842.000000	99.231276
1841.000000	99.240366
1840.000000	99.254699
1839.000000	99.272266
1838.000000	99.288285
1837.000000	99.293644
1836.000000	99.285385
1835.000000	99.272022
1834.000000	99.263200
1833.000000	99.260025
1832.000000	99.258341
1831.000000	99.256350
1830.000000	99.253918
1829.000000	99.249760
1828.000000	99.244694
1827.000000	99.240655
1826.000000	99.236974
1825.000000	99.233421
1824.000000	99.236070
1823.000000	99.251795
1822.000000	99.275618
1821.000000	99.292896
1820.000000	99.294519
1819.000000	99.285042
1818.000000	99.274470
1817.000000	99.267595
1816.000000	99.263951
1815.000000	99.261162
1814.000000	99.255456
1813.000000	99.244226
1812.000000	99.231497
1811.000000	99.224839
1810.000000	99.223775
1809.000000	99.219400
1808.000000	99.208019
1807.000000	99.195366
1806.000000	99.183186
1805.000000	99.160733
1804.000000	99.116344
1803.000000	99.052159
1802.000000	98.983168
1801.000000	98.923962
1800.000000	98.880160
1799.000000	98.848906
1798.000000	98.823659
1797.000000	98.800679
1796.000000	98.782275
1795.000000	98.773509
1794.000000	98.775807
1793.000000	98.786318
1792.000000	98.803357
1791.000000	98.830041
1790.000000	98.868888
1789.000000	98.913680
1788.000000	98.953696
1787.000000	98.985104
1786.000000	99.014175
1785.000000	99.048641
1784.000000	99.087676
1783.000000	99.122998
1782.000000	99.147805
1781.000000	99.161475
1780.000000	99.170414
1779.000000	99.182298
1778.000000	99.196721
1777.000000	99.207323
1776.000000	99.212814
1775.000000	99.219686
1774.000000	99.231503
1773.000000	99.240801
1772.000000	99.237420
1771.000000	99.223399
1770.000000	99.209919
1769.000000	99.204669
1768.000000	99.210425
1767.000000	99.226578
1766.000000	99.246498
1765.000000	99.259048
1764.000000	99.257431
1763.000000	99.244873
1762.000000	99.232096
1761.000000	99.227413
1760.000000	99.229691
1759.000000	99.231852
1758.000000	99.229043
1757.000000	99.223408
1756.000000	99.222572
1755.000000	99.229722
1754.000000	99.235615
1753.000000	99.226913
1752.000000	99.199173
1751.000000	99.162049
1750.000000	99.128302
1749.000000	99.101244
1748.000000	99.080770
1747.000000	99.068914
1746.000000	99.061976
1745.000000	99.049508
1744.000000	99.028307
1743.000000	99.007566
1742.000000	98.995326
1741.000000	98.986881
1740.000000	98.972750
1739.000000	98.952814
1738.000000	98.933615
1737.000000	98.918563
1736.000000	98.907031
1735.000000	98.901878
1734.000000	98.906701
1733.000000	98.913950
1732.000000	98.916321
1731.000000	98.917238
1730.000000	98.921278
1729.000000	98.929706
1728.000000	98.943594
1727.000000	98.963987
1726.000000	98.986017
1725.000000	98.999622
1724.000000	99.001793
1723.000000	99.000362
1722.000000	99.001700
1721.000000	99.002359
1720.000000	98.996763
1719.000000	98.986520
1718.000000	98.978252
1717.000000	98.972474
1716.000000	98.965486
1715.000000	98.961318
1714.000000	98.965685
1713.000000	98.977582
1712.000000	98.992261
1711.000000	99.005659
1710.000000	99.014195
1709.000000	99.013931
1708.000000	99.004875
1707.000000	98.993090
1706.000000	98.981355
1705.000000	98.964127
1704.000000	98.941757
1703.000000	98.923197
1702.000000	98.909428
1701.000000	98.885955
1700.000000	98.849960
1699.000000	98.824740
1698.000000	98.818762
1697.000000	98.814309
1696.000000	98.796615
1695.000000	98.770673
1694.000000	98.747623
1693.000000	98.724528
1692.000000	98.695959
1691.000000	98.661824
1690.000000	98.622795
1689.000000	98.581644
1688.000000	98.545710
1687.000000	98.519853
1686.000000	98.492295
1685.000000	98.436988
1684.000000	98.353232
1683.000000	98.280250
1682.000000	98.236104
1681.000000	98.202608
1680.000000	98.169400
1679.000000	98.141642
1678.000000	98.119377
1677.000000	98.087398
1676.000000	98.031988
1675.000000	97.965672
1674.000000	97.914600
1673.000000	97.880084
1672.000000	97.847547
1671.000000	97.812856
1670.000000	97.779445
1669.000000	97.747531
1668.000000	97.717709
1667.000000	97.694974
1666.000000	97.677306
1665.000000	97.654221
1664.000000	97.617773
1663.000000	97.573131
1662.000000	97.535055
1661.000000	97.508878
1660.000000	97.489154
1659.000000	97.471741
1658.000000	97.453055
1657.000000	97.429855
1656.000000	97.404858
1655.000000	97.384982
1654.000000	97.369629
1653.000000	97.353302
1652.000000	97.340667
1651.000000	97.331392
1650.000000	97.316228
1649.000000	97.297138
1648.000000	97.278974
1647.000000	97.269177
1646.000000	97.277097
1645.000000	97.298212
1644.000000	97.321057
1643.000000	97.341474
1642.000000	97.361106
1641.000000	97.377337
1640.000000	97.385981
1639.000000	97.390135
1638.000000	97.395804
1637.000000	97.403444
1636.000000	97.409887
1635.000000	97.416500
1634.000000	97.424622
1633.000000	97.431597
1632.000000	97.437880
1631.000000	97.447075
1630.000000	97.459253
1629.000000	97.470146
1628.000000	97.478425
1627.000000	97.488000
1626.000000	97.501002
1625.000000	97.514611
1624.000000	97.529692
1623.000000	97.553158
1622.000000	97.584334
1621.000000	97.613051
1620.000000	97.636242
1619.000000	97.661646
1618.000000	97.695912
1617.000000	97.734900
1616.000000	97.766313
1615.000000	97.785769
1614.000000	97.800069
1613.000000	97.815087
1612.000000	97.831514
1611.000000	97.847539
1610.000000	97.860128
1609.000000	97.865806
1608.000000	97.865611
1607.000000	97.866419
1606.000000	97.872862
1605.000000	97.881289
1604.000000	97.886088
1603.000000	97.886467
1602.000000	97.882972
1601.000000	97.874358
1600.000000	97.860856
1599.000000	97.845827
1598.000000	97.831211
1597.000000	97.815228
1596.000000	97.796777
1595.000000	97.777584
1594.000000	97.758122
1593.000000	97.735917
1592.000000	97.709779
1591.000000	97.680880
1590.000000	97.648640
1589.000000	97.611502
1588.000000	97.572555
1587.000000	97.537678
1586.000000	97.506379
1585.000000	97.471270
1584.000000	97.428240
1583.000000	97.382303
1582.000000	97.338623
1581.000000	97.295915
1580.000000	97.254588
1579.000000	97.222568
1578.000000	97.207570
1577.000000	97.211206
1576.000000	97.234578
1575.000000	97.273712
1574.000000	97.314990
1573.000000	97.350956
1572.000000	97.386008
1571.000000	97.427846
1570.000000	97.478918
1569.000000	97.528409
1568.000000	97.566510
1567.000000	97.598601
1566.000000	97.631170
1565.000000	97.662794
1564.000000	97.689166
1563.000000	97.708259
1562.000000	97.719983
1561.000000	97.718431
1560.000000	97.702096
1559.000000	97.687563
1558.000000	97.677519
1557.000000	97.663090
1556.000000	97.642374
1555.000000	97.616155
1554.000000	97.587210
1553.000000	97.551967
1552.000000	97.504210
1551.000000	97.442041
1550.000000	97.369251
1549.000000	97.294976
1548.000000	97.221492
1547.000000	97.133978
1546.000000	97.012934
1545.000000	96.857817
1544.000000	96.697975
1543.000000	96.563828
1542.000000	96.452408
1541.000000	96.339458
1540.000000	96.236979
1539.000000	96.188796
1538.000000	96.186984
1537.000000	96.190861
1536.000000	96.186845
1535.000000	96.176616
1534.000000	96.158383
1533.000000	96.132262
1532.000000	96.110797
1531.000000	96.099842
1530.000000	96.083518
1529.000000	96.042824
1528.000000	95.976904
1527.000000	95.903890
1526.000000	95.841657
1525.000000	95.792525
1524.000000	95.745719
1523.000000	95.684149
1522.000000	95.588474
1521.000000	95.468326
1520.000000	95.368072
1519.000000	95.300262
1518.000000	95.233159
1517.000000	95.144223
1516.000000	95.051687
1515.000000	94.984450
1514.000000	94.933214
1513.000000	94.868470
1512.000000	94.781854
1511.000000	94.689248
1510.000000	94.602894
1509.000000	94.515389
1508.000000	94.411540
1507.000000	94.296330
1506.000000	94.210625
1505.000000	94.169607
1504.000000	94.138178
1503.000000	94.093784
1502.000000	94.034005
1501.000000	93.957721
1500.000000	93.870553
1499.000000	93.781850
1498.000000	93.688442
1497.000000	93.578894
1496.000000	93.466246
1495.000000	93.377080
1494.000000	93.307971
1493.000000	93.232481
1492.000000	93.132486
1491.000000	93.008994
1490.000000	92.879748
1489.000000	92.767079
1488.000000	92.682620
1487.000000	92.619334
1486.000000	92.559773
1485.000000	92.492957
1484.000000	92.417749
1483.000000	92.333363
1482.000000	92.234876
1481.000000	92.125046
1480.000000	92.018303
1479.000000	91.919317
1478.000000	91.811812
1477.000000	91.681325
1476.000000	91.539357
1475.000000	91.406158
1474.000000	91.275528
1473.000000	91.128619
1472.000000	90.987018
1471.000000	90.889259
1470.000000	90.824866
1469.000000	90.758457
1468.000000	90.674759
1467.000000	90.575727
1466.000000	90.464523
1465.000000	90.346819
1464.000000	90.243975
1463.000000	90.171964
1462.000000	90.115117
1461.000000	90.048095
1460.000000	89.959322
1459.000000	89.847044
1458.000000	89.701780
1457.000000	89.532713
1456.000000	89.403915
1455.000000	89.344709
1454.000000	89.309512
1453.000000	89.259100
1452.000000	89.189258
1451.000000	89.110315
1450.000000	89.023338
1449.000000	88.919956
1448.000000	88.807387
1447.000000	88.709918
1446.000000	88.637063
1445.000000	88.573061
1444.000000	88.503187
1443.000000	88.426314
1442.000000	88.345265
1441.000000	88.262562
1440.000000	88.181617
1439.000000	88.099594
1438.000000	88.001695
1437.000000	87.881333
1436.000000	87.771377
1435.000000	87.705686
1434.000000	87.664093
1433.000000	87.608735
1432.000000	87.528122
1431.000000	87.431474
1430.000000	87.327713
1429.000000	87.221169
1428.000000	87.122893
1427.000000	87.038613
1426.000000	86.952037
1425.000000	86.840859
1424.000000	86.710957
1423.000000	86.592908
1422.000000	86.492237
1421.000000	86.375993
1420.000000	86.213477
1419.000000	86.022167
1418.000000	85.855551
1417.000000	85.735328
1416.000000	85.644498
1415.000000	85.563531
1414.000000	85.475103
1413.000000	85.366410
1412.000000	85.241258
1411.000000	85.115600
1410.000000	84.996976
1409.000000	84.881556
1408.000000	84.769550
1407.000000	84.665530
1406.000000	84.567117
1405.000000	84.472141
1404.000000	84.395398
1403.000000	84.349112
1402.000000	84.313954
1401.000000	84.258368
1400.000000	84.177270
1399.000000	84.095899
1398.000000	84.031118
1397.000000	83.971902
1396.000000	83.909580
1395.000000	83.855972
1394.000000	83.821265
1393.000000	83.798690
1392.000000	83.778707
1391.000000	83.755556
1390.000000	83.717734
1389.000000	83.651394
1388.000000	83.560107
1387.000000	83.468958
1386.000000	83.395484
1385.000000	83.331875
1384.000000	83.265060
1383.000000	83.190691
1382.000000	83.105531
1381.000000	83.006401
1380.000000	82.900883
1379.000000	82.805250
1378.000000	82.725373
1377.000000	82.650749
1376.000000	82.570856
1375.000000	82.487769
1374.000000	82.412749
1373.000000	82.359316
1372.000000	82.335730
1371.000000	82.335202
1370.000000	82.337868
1369.000000	82.331740
1368.000000	82.328707
1367.000000	82.346315
1366.000000	82.379803
1365.000000	82.411344
1364.000000	82.440047
1363.000000	82.484896
1362.000000	82.557775
1361.000000	82.652849
1360.000000	82.763557
1359.000000	82.886321
1358.000000	83.011189
1357.000000	83.128181
1356.000000	83.241454
1355.000000	83.362931
1354.000000	83.494098
1353.000000	83.628370
1352.000000	83.766661
1351.000000	83.914918
1350.000000	84.069611
1349.000000	84.221100
1348.000000	84.368306
1347.000000	84.516540
1346.000000	84.665725
1345.000000	84.813074
1344.000000	84.960495
1343.000000	85.107489
1342.000000	85.244384
1341.000000	85.365507
1340.000000	85.484068
1339.000000	85.620163
1338.000000	85.777102
1337.000000	85.944443
1336.000000	86.115479
1335.000000	86.286416
1334.000000	86.449309
1333.000000	86.599494
1332.000000	86.743429
1331.000000	86.888541
1330.000000	87.031654
1329.000000	87.167202
1328.000000	87.298973
1327.000000	87.433208
1326.000000	87.567707
1325.000000	87.698064
1324.000000	87.826408
1323.000000	87.953902
1322.000000	88.073379
1321.000000	88.179707
1320.000000	88.280548
1319.000000	88.387344
1318.000000	88.501242
1317.000000	88.617204
1316.000000	88.735112
1315.000000	88.857600
1314.000000	88.983844
1313.000000	89.113166
1312.000000	89.248010
1311.000000	89.386637
1310.000000	89.520297
1309.000000	89.644221
1308.000000	89.763733
1307.000000	89.883821
1306.000000	90.000604
1305.000000	90.109673
1304.000000	90.214730
1303.000000	90.320767
1302.000000	90.426293
1301.000000	90.528813
1300.000000	90.631051
1299.000000	90.735450
1298.000000	90.838867
1297.000000	90.938323
1296.000000	91.035826
1295.000000	91.132454
1294.000000	91.224417
1293.000000	91.309366
1292.000000	91.389772
1291.000000	91.466389
1290.000000	91.535538
1289.000000	91.597331
1288.000000	91.658957
1287.000000	91.725142
1286.000000	91.792177
1285.000000	91.855200
1284.000000	91.914315
1283.000000	91.969942
1282.000000	92.020105
1281.000000	92.066653
1280.000000	92.116660
1279.000000	92.173115
1278.000000	92.231060
1277.000000	92.286781
1276.000000	92.343623
1275.000000	92.404188
1274.000000	92.464285
1273.000000	92.519799
1272.000000	92.573069
1271.000000	92.627228
1270.000000	92.679679
1269.000000	92.726191
1268.000000	92.766551
1267.000000	92.802765
1266.000000	92.837327
1265.000000	92.875520
1264.000000	92.922536
1263.000000	92.974767
1262.000000	93.020414
1261.000000	93.053157
1260.000000	93.079073
1259.000000	93.106592
1258.000000	93.136604
1257.000000	93.166159
1256.000000	93.194872
1255.000000	93.222635
1254.000000	93.246789
1253.000000	93.266159
1252.000000	93.283520
1251.000000	93.300866
1250.000000	93.316399
1249.000000	93.328775
1248.000000	93.339730
1247.000000	93.349760
1246.000000	93.356212
1245.000000	93.358313
1244.000000	93.359436
1243.000000	93.361944
1242.000000	93.364321
1241.000000	93.365846
1240.000000	93.368973
1239.000000	93.374276
1238.000000	93.377982
1237.000000	93.378103
1236.000000	93.378879
1235.000000	93.385964
1234.000000	93.400716
1233.000000	93.421517
1232.000000	93.447116
1231.000000	93.475781
1230.000000	93.504654
1229.000000	93.532787
1228.000000	93.562096
1227.000000	93.594502
1226.000000	93.631200
1225.000000	93.674758
1224.000000	93.727214
1223.000000	93.784811
1222.000000	93.839646
1221.000000	93.887938
1220.000000	93.932521
1219.000000	93.976780
1218.000000	94.021144
1217.000000	94.065989
1216.000000	94.111952
1215.000000	94.155954
1214.000000	94.192422
1213.000000	94.220649
1212.000000	94.245910
1211.000000	94.271601
1210.000000	94.294967
1209.000000	94.311819
1208.000000	94.321448
1207.000000	94.325723
1206.000000	94.327546
1205.000000	94.330796
1204.000000	94.337305
1203.000000	94.343792
1202.000000	94.346308
1201.000000	94.347717
1200.000000	94.355390
1199.000000	94.371079
1198.000000	94.388690
1197.000000	94.402910
1196.000000	94.414568
1195.000000	94.426609
1194.000000	94.440673
1193.000000	94.458669
1192.000000	94.481827
1191.000000	94.506667
1190.000000	94.527457
1189.000000	94.543951
1188.000000	94.560859
1187.000000	94.578553
1186.000000	94.591151
1185.000000	94.596364
1184.000000	94.600392
1183.000000	94.609293
1182.000000	94.620690
1181.000000	94.627956
1180.000000	94.629260
1179.000000	94.628696
1178.000000	94.631058
1177.000000	94.638082
1176.000000	94.647167
1175.000000	94.652225
1174.000000	94.648581
1173.000000	94.638133
1172.000000	94.626927
1171.000000	94.618086
1170.000000	94.611357
1169.000000	94.608801
1168.000000	94.614701
1167.000000	94.628558
1166.000000	94.643956
1165.000000	94.656163
1164.000000	94.665746
1163.000000	94.673494
1162.000000	94.677904
1161.000000	94.680072
1160.000000	94.685101
1159.000000	94.695670
1158.000000	94.709181
1157.000000	94.723723
1156.000000	94.741772
1155.000000	94.765171
1154.000000	94.791757
1153.000000	94.820064
1152.000000	94.852032
1151.000000	94.887999
1150.000000	94.923972
1149.000000	94.957386
1148.000000	94.990983
1147.000000	95.027591
1146.000000	95.065840
1145.000000	95.104154
1144.000000	95.143957
1143.000000	95.184937
1142.000000	95.221585
1141.000000	95.248847
1140.000000	95.268529
1139.000000	95.287123
1138.000000	95.309672
1137.000000	95.337529
1136.000000	95.368371
1135.000000	95.396140
1134.000000	95.414869
1133.000000	95.424890
1132.000000	95.432442
1131.000000	95.441759
1130.000000	95.451200
1129.000000	95.458601
1128.000000	95.465904
1127.000000	95.476240
1126.000000	95.490175
1125.000000	95.506830
1124.000000	95.524717
1123.000000	95.539394
1122.000000	95.545078
1121.000000	95.541533
1120.000000	95.535413
1119.000000	95.532287
1118.000000	95.531075
1117.000000	95.528826
1116.000000	95.526424
1115.000000	95.525753
1114.000000	95.525207
1113.000000	95.522598
1112.000000	95.520260
1111.000000	95.523361
1110.000000	95.534614
1109.000000	95.552951
1108.000000	95.575206
1107.000000	95.596630
1106.000000	95.612317
1105.000000	95.620969
1104.000000	95.625453
1103.000000	95.628240
1102.000000	95.629006
1101.000000	95.628722
1100.000000	95.632084
1099.000000	95.643328
1098.000000	95.660845
1097.000000	95.678491
1096.000000	95.690579
1095.000000	95.693475
1094.000000	95.685444
1093.000000	95.667594
1092.000000	95.643732
1091.000000	95.617729
1090.000000	95.591637
1089.000000	95.566639
1088.000000	95.542896
1087.000000	95.517392
1086.000000	95.485477
1085.000000	95.446877
1084.000000	95.408098
1083.000000	95.376890
1082.000000	95.356427
1081.000000	95.346002
1080.000000	95.344756
1079.000000	95.352097
1078.000000	95.366879
1077.000000	95.389316
1076.000000	95.421220
1075.000000	95.462231
1074.000000	95.507416
1073.000000	95.550631
1072.000000	95.588344
1071.000000	95.618840
1070.000000	95.641065
1069.000000	95.656519
1068.000000	95.669445
1067.000000	95.682413
1066.000000	95.693981
1065.000000	95.702821
1064.000000	95.711811
1063.000000	95.725266
1062.000000	95.743812
1061.000000	95.764505
1060.000000	95.784403
1059.000000	95.801552
1058.000000	95.814107
1057.000000	95.821668
1056.000000	95.827267
1055.000000	95.835680
1054.000000	95.849191
1053.000000	95.865807
1052.000000	95.881239
1051.000000	95.892085
1050.000000	95.897960
1049.000000	95.901525
1048.000000	95.906248
1047.000000	95.913706
1046.000000	95.923098
1045.000000	95.932667
1044.000000	95.940581
1043.000000	95.945511
1042.000000	95.948405
1041.000000	95.953110
1040.000000	95.962364
1039.000000	95.972400
1038.000000	95.974424
1037.000000	95.963382
1036.000000	95.943898
1035.000000	95.925683
1034.000000	95.913961
1033.000000	95.906028
1032.000000	95.897296
1031.000000	95.889043
1030.000000	95.888415
1029.000000	95.901131
1028.000000	95.925461
1027.000000	95.954652
1026.000000	95.983847
1025.000000	96.011622
1024.000000	96.035582
1023.000000	96.051402
1022.000000	96.059239
1021.000000	96.066925
1020.000000	96.081936
1019.000000	96.102243
1018.000000	96.119940
1017.000000	96.132962
1016.000000	96.147659
1015.000000	96.169664
1014.000000	96.197716
1013.000000	96.228004
1012.000000	96.259946
1011.000000	96.294559
1010.000000	96.330341
1009.000000	96.364464
1008.000000	96.396990
1007.000000	96.431637
1006.000000	96.472612
1005.000000	96.521113
1004.000000	96.573746
1003.000000	96.623829
1002.000000	96.665954
1001.000000	96.700357
1000.000000	96.732150
999.000000	96.766322
998.000000	96.804523
997.000000	96.845986
996.000000	96.888822
995.000000	96.929860
994.000000	96.965493
993.000000	96.994577
992.000000	97.019982
991.000000	97.046620
990.000000	97.078032
989.000000	97.114166
988.000000	97.151321
987.000000	97.184574
986.000000	97.211800
985.000000	97.235780
984.000000	97.261232
983.000000	97.289720
982.000000	97.318683
981.000000	97.345012
980.000000	97.367865
979.000000	97.387399
978.000000	97.402602
977.000000	97.412408
976.000000	97.418638
975.000000	97.425971
974.000000	97.437709
973.000000	97.452694
972.000000	97.468040
971.000000	97.484316
970.000000	97.505179
969.000000	97.530821
968.000000	97.555144
967.000000	97.572303
966.000000	97.584655
965.000000	97.600666
964.000000	97.625492
963.000000	97.657101
962.000000	97.691010
961.000000	97.724785
960.000000	97.756739
959.000000	97.783965
958.000000	97.804256
957.000000	97.818419
956.000000	97.829480
955.000000	97.840728
954.000000	97.854277
953.000000	97.869182
952.000000	97.881506
951.000000	97.889344
950.000000	97.897237
949.000000	97.911614
948.000000	97.932318
947.000000	97.953338
946.000000	97.972396
945.000000	97.993551
944.000000	98.018366
943.000000	98.041131
942.000000	98.057028
941.000000	98.069326
940.000000	98.082314
939.000000	98.091782
938.000000	98.089749
937.000000	98.077662
936.000000	98.068371
935.000000	98.074565
934.000000	98.099269
933.000000	98.137044
932.000000	98.179782
931.000000	98.220220
930.000000	98.253976
929.000000	98.280608
928.000000	98.301511
927.000000	98.316852
926.000000	98.326757
925.000000	98.334839
924.000000	98.347485
923.000000	98.368489
922.000000	98.396046
921.000000	98.425433
920.000000	98.452783
919.000000	98.476458
918.000000	98.497453
917.000000	98.519479
916.000000	98.546512
915.000000	98.578477
914.000000	98.610143
913.000000	98.635836
912.000000	98.655085
911.000000	98.672814
910.000000	98.694492
909.000000	98.721691
908.000000	98.752349
907.000000	98.784426
906.000000	98.818318
905.000000	98.855414
904.000000	98.894402
903.000000	98.929921
902.000000	98.956532
901.000000	98.975071
900.000000	98.994307
899.000000	99.023837
898.000000	99.064470
897.000000	99.107713
896.000000	99.145961
895.000000	99.181005
894.000000	99.219538
893.000000	99.262330
892.000000	99.302773
891.000000	99.336509
890.000000	99.367205
889.000000	99.397945
888.000000	99.417151
887.000000	99.390838
886.000000	99.268758
885.000000	98.999309
884.000000	98.545721
883.000000	97.897337
882.000000	97.065457
881.000000	96.074060
880.000000	94.952653
879.000000	93.731205
878.000000	92.434027
877.000000	91.073481
876.000000	89.649510
875.000000	88.139229
874.000000	86.507561
873.000000	84.801292
872.000000	83.303066
871.000000	82.534442
870.000000	82.959749
869.000000	84.609038
868.000000	86.998101
867.000000	89.443241
866.000000	91.469692
865.000000	92.962852
864.000000	94.026312
863.000000	94.791900
862.000000	95.356118
861.000000	95.792312
860.000000	96.150342
859.000000	96.446711
858.000000	96.686525
857.000000	96.882894
856.000000	97.047124
855.000000	97.179805
854.000000	97.284740
853.000000	97.373806
852.000000	97.439764
851.000000	97.447261
850.000000	97.379696
849.000000	97.285892
848.000000	97.254423
847.000000	97.337029
846.000000	97.509502
845.000000	97.705381
844.000000	97.871101
843.000000	97.989513
842.000000	98.069758
841.000000	98.127431
840.000000	98.172690
839.000000	98.211036
838.000000	98.249510
837.000000	98.294666
836.000000	98.343453
835.000000	98.385226
834.000000	98.417365
833.000000	98.450887
832.000000	98.493693
831.000000	98.536899
830.000000	98.567050
829.000000	98.585249
828.000000	98.603885
827.000000	98.628448
826.000000	98.653938
825.000000	98.676852
824.000000	98.699718
823.000000	98.724127
822.000000	98.748237
821.000000	98.770850
820.000000	98.790601
819.000000	98.802161
818.000000	98.800623
817.000000	98.789804
816.000000	98.781117
815.000000	98.784060
814.000000	98.799906
813.000000	98.822218
812.000000	98.840660
811.000000	98.847556
810.000000	98.845428
809.000000	98.845933
808.000000	98.857303
807.000000	98.875552
806.000000	98.891014
805.000000	98.899708
804.000000	98.904190
803.000000	98.906863
802.000000	98.908268
801.000000	98.909554
800.000000	98.911237
799.000000	98.911058
798.000000	98.907222
797.000000	98.902651
796.000000	98.902942
795.000000	98.911017
794.000000	98.925290
793.000000	98.940429
792.000000	98.948455
791.000000	98.943482
790.000000	98.928595
789.000000	98.914394
788.000000	98.907873
787.000000	98.906322
786.000000	98.904076
785.000000	98.900327
784.000000	98.897057
783.000000	98.894014
782.000000	98.889862
781.000000	98.884076
780.000000	98.874102
779.000000	98.856130
778.000000	98.833880
777.000000	98.820929
776.000000	98.826500
775.000000	98.842251
774.000000	98.851231
773.000000	98.848639
772.000000	98.845844
771.000000	98.853639
770.000000	98.869007
769.000000	98.880824
768.000000	98.883001
767.000000	98.878726
766.000000	98.875947
765.000000	98.882575
764.000000	98.903779
763.000000	98.939068
762.000000	98.980156
761.000000	99.014027
760.000000	99.031548
759.000000	99.034818
758.000000	99.035163
757.000000	99.042524
756.000000	99.057930
755.000000	99.077437
754.000000	99.100084
753.000000	99.127183
752.000000	99.155560
751.000000	99.178365
750.000000	99.194225
749.000000	99.209595
748.000000	99.228406
747.000000	99.244174
746.000000	99.247145
745.000000	99.237073
744.000000	99.225130
743.000000	99.223854
742.000000	99.237118
741.000000	99.258216
740.000000	99.275566
739.000000	99.281790
738.000000	99.279300
737.000000	99.276632
736.000000	99.279126
735.000000	99.284098
734.000000	99.284171
733.000000	99.272830
732.000000	99.248042
731.000000	99.214561
730.000000	99.182244
729.000000	99.157121
728.000000	99.134102
727.000000	99.103003
726.000000	99.061279
725.000000	99.015116
724.000000	98.967367
723.000000	98.911008
722.000000	98.835677
721.000000	98.733537
720.000000	98.594256
719.000000	98.397106
718.000000	98.108595
717.000000	97.686434
716.000000	97.100881
715.000000	96.381631
714.000000	95.657172
713.000000	95.124644
712.000000	94.940941
711.000000	95.119466
710.000000	95.533174
709.000000	96.015859
708.000000	96.458244
707.000000	96.826642
706.000000	97.123529
705.000000	97.353925
704.000000	97.522587
703.000000	97.641147
702.000000	97.725788
701.000000	97.790076
700.000000	97.842876
699.000000	97.890095
698.000000	97.934833
697.000000	97.977254
696.000000	98.017267
695.000000	98.057262
694.000000	98.100934
693.000000	98.149133
692.000000	98.198076
691.000000	98.242073
690.000000	98.276417
689.000000	98.297903
688.000000	98.306045
687.000000	98.306137
686.000000	98.308542
685.000000	98.321443
684.000000	98.344230
683.000000	98.369335
682.000000	98.389687
681.000000	98.401949
680.000000	98.404940
679.000000	98.399278
678.000000	98.388315
677.000000	98.376655
676.000000	98.366925
675.000000	98.358791
674.000000	98.352895
673.000000	98.351216
672.000000	98.348945
671.000000	98.332723
670.000000	98.289791
669.000000	98.224353
668.000000	98.159180
667.000000	98.143649
666.000000	98.189877
665.000000	98.246582
664.000000	98.282038
663.000000	98.296828
662.000000	98.300917
661.000000	98.302828
660.000000	98.305792
659.000000	98.311075
658.000000	98.318905
657.000000	98.326898
656.000000	98.331390
655.000000	98.330172
654.000000	98.323802
653.000000	98.314768
652.000000	98.307801
651.000000	98.311028
650.000000	98.331118
649.000000	98.363124
648.000000	98.390556
647.000000	98.400904
646.000000	98.398744
645.000000	98.398355
644.000000	98.406097
643.000000	98.417350
642.000000	98.428095
641.000000	98.440248
640.000000	98.453131
639.000000	98.459264
638.000000	98.454387
637.000000	98.445228
636.000000	98.442285
635.000000	98.448387
634.000000	98.458155
633.000000	98.464536
632.000000	98.461618
631.000000	98.445957
630.000000	98.420031
629.000000	98.391103
628.000000	98.364273
627.000000	98.340404
626.000000	98.321679
625.000000	98.313165
624.000000	98.315748
623.000000	98.323567
622.000000	98.331766
621.000000	98.340275
620.000000	98.346024
619.000000	98.341005
618.000000	98.325297
617.000000	98.313978
616.000000	98.320384
615.000000	98.338311
614.000000	98.352131
613.000000	98.358342
612.000000	98.364122
611.000000	98.368969
610.000000	98.364170
609.000000	98.350553
608.000000	98.342065
607.000000	98.347542
606.000000	98.360356
605.000000	98.370924
604.000000	98.377818
603.000000	98.380592
602.000000	98.372856
601.000000	98.351700
600.000000	98.328071
599.000000	98.319197
598.000000	98.333345
597.000000	98.365752
596.000000	98.404016
595.000000	98.432341
594.000000	98.436635
593.000000	98.414216
592.000000	98.378558
591.000000	98.352343
590.000000	98.355266
589.000000	98.394672
588.000000	98.459740
587.000000	98.521402
586.000000	98.547919
585.000000	98.529410
584.000000	98.484591
583.000000	98.440141
582.000000	98.411110
581.000000	98.401934
580.000000	98.413645
579.000000	98.439640
578.000000	98.461770
577.000000	98.462677
576.000000	98.442530
575.000000	98.420921
574.000000	98.420975
573.000000	98.451238
572.000000	98.500346
571.000000	98.542581
570.000000	98.552646
569.000000	98.524620
568.000000	98.474398
567.000000	98.424342
566.000000	98.390976
565.000000	98.382613
564.000000	98.395805
563.000000	98.407246
562.000000	98.384969
561.000000	98.322842
560.000000	98.256076
559.000000	98.228532
558.000000	98.247476
557.000000	98.282599
556.000000	98.304972
555.000000	98.309512
554.000000	98.301911
553.000000	98.285614
552.000000	98.269821
551.000000	98.274686
550.000000	98.313346
549.000000	98.372655
548.000000	98.420709
547.000000	98.430048
546.000000	98.396971
545.000000	98.349582
544.000000	98.332120
543.000000	98.366961
542.000000	98.429229
541.000000	98.470571
540.000000	98.473338
539.000000	98.463250
538.000000	98.463818
537.000000	98.460726
536.000000	98.429156
535.000000	98.378916
534.000000	98.346085
533.000000	98.345324
532.000000	98.356900
531.000000	98.357228
530.000000	98.340904
529.000000	98.312720
528.000000	98.278756
527.000000	98.252363
526.000000	98.252854
525.000000	98.286109
524.000000	98.334968
523.000000	98.375440
522.000000	98.395648
521.000000	98.401280
520.000000	98.410824
519.000000	98.439305
518.000000	98.476292
517.000000	98.490220
516.000000	98.467658
515.000000	98.432120
514.000000	98.411981
513.000000	98.408284
512.000000	98.409017
511.000000	98.418455
510.000000	98.448809
509.000000	98.490195
508.000000	98.520528
507.000000	98.542642
506.000000	98.579179
505.000000	98.626689
504.000000	98.647055
503.000000	98.617902
502.000000	98.572393
501.000000	98.563034
500.000000	98.596370
499.000000	98.636973
498.000000	98.659524
497.000000	98.669304
496.000000	98.680997
495.000000	98.697451
494.000000	98.711491
493.000000	98.716676
492.000000	98.713690
491.000000	98.713181
490.000000	98.732170
489.000000	98.777369
488.000000	98.834865
487.000000	98.880015
486.000000	98.900250
485.000000	98.908874
484.000000	98.929598
483.000000	98.965417
482.000000	98.991859
481.000000	98.986795
480.000000	98.959542
479.000000	98.940286
478.000000	98.945802
477.000000	98.964244
476.000000	98.974485
475.000000	98.968801
474.000000	98.949982
473.000000	98.917452
472.000000	98.875439
471.000000	98.843833
470.000000	98.840714
469.000000	98.863189
468.000000	98.895446
467.000000	98.928050
466.000000	98.963427
465.000000	99.004507
464.000000	99.052926
463.000000	99.113701
462.000000	99.180089
461.000000	99.225452
460.000000	99.214133
459.000000	99.158209
458.000000	99.093010
457.000000	99.165766
456.000000	99.170281
455.000000	99.143033
454.000000	99.109359
453.000000	99.089738
452.000000	99.122216
451.000000	99.208421
450.000000	99.329352
