PE IR       SUBTECH     SPECTRUM    ASCII       PEDS        4.00        
   -1
CVT-Veau-F001_1.ASC
23/09/14
10:33:09.00
23/09/14
11:18:22.00
uco
Sample 001 By uco Date Thursday, September 14 2023
450.000000
#HDR
-1
-1
#GR
cm-1
%T
1.0
0.0
4000.000000
-1.000000
3551
8
99.344982
92.499347
#DATA
4000.000000	99.250538
3999.000000	99.249540
3998.000000	99.248316
3997.000000	99.246511
3996.000000	99.245453
3995.000000	99.246436
3994.000000	99.249639
3993.000000	99.253842
3992.000000	99.256983
3991.000000	99.256957
3990.000000	99.252787
3989.000000	99.245801
3988.000000	99.239525
3987.000000	99.237485
3986.000000	99.240455
3985.000000	99.245617
3984.000000	99.248504
3983.000000	99.246196
3982.000000	99.238952
3981.000000	99.229478
3980.000000	99.221013
3979.000000	99.215764
3978.000000	99.214451
3977.000000	99.216656
3976.000000	99.221436
3975.000000	99.227427
3974.000000	99.232654
3973.000000	99.234946
3972.000000	99.233328
3971.000000	99.229065
3970.000000	99.224676
3969.000000	99.222037
3968.000000	99.221559
3967.000000	99.223110
3966.000000	99.226912
3965.000000	99.232740
3964.000000	99.238631
3963.000000	99.241471
3962.000000	99.239693
3961.000000	99.235063
3960.000000	99.231273
3959.000000	99.230786
3958.000000	99.233105
3957.000000	99.235935
3956.000000	99.237180
3955.000000	99.235690
3954.000000	99.231365
3953.000000	99.225568
3952.000000	99.221192
3951.000000	99.220955
3950.000000	99.224659
3949.000000	99.228782
3948.000000	99.229760
3947.000000	99.227388
3946.000000	99.224531
3945.000000	99.223915
3944.000000	99.225552
3943.000000	99.226826
3942.000000	99.225299
3941.000000	99.220844
3940.000000	99.215219
3939.000000	99.210344
3938.000000	99.206922
3937.000000	99.205065
3936.000000	99.205580
3935.000000	99.209856
3934.000000	99.218160
3933.000000	99.228005
3932.000000	99.235264
3931.000000	99.236698
3930.000000	99.231456
3929.000000	99.220916
3928.000000	99.207847
3927.000000	99.196461
3926.000000	99.191187
3925.000000	99.194124
3924.000000	99.203420
3923.000000	99.214438
3922.000000	99.223006
3921.000000	99.227603
3920.000000	99.228891
3919.000000	99.227910
3918.000000	99.224901
3917.000000	99.219756
3916.000000	99.213382
3915.000000	99.207621
3914.000000	99.203883
3913.000000	99.202232
3912.000000	99.201766
3911.000000	99.201350
3910.000000	99.200217
3909.000000	99.198716
3908.000000	99.198734
3907.000000	99.202904
3906.000000	99.212623
3905.000000	99.226183
3904.000000	99.239172
3903.000000	99.247377
3902.000000	99.248589
3901.000000	99.242810
3900.000000	99.231736
3899.000000	99.218420
3898.000000	99.206156
3897.000000	99.196654
3896.000000	99.189992
3895.000000	99.185830
3894.000000	99.183602
3893.000000	99.183040
3892.000000	99.184985
3891.000000	99.190759
3890.000000	99.199418
3889.000000	99.207714
3888.000000	99.213840
3887.000000	99.218120
3886.000000	99.220717
3885.000000	99.221916
3884.000000	99.222677
3883.000000	99.223744
3882.000000	99.224634
3881.000000	99.224132
3880.000000	99.222030
3879.000000	99.219291
3878.000000	99.216051
3877.000000	99.212435
3876.000000	99.209569
3875.000000	99.208114
3874.000000	99.207564
3873.000000	99.206832
3872.000000	99.204504
3871.000000	99.199376
3870.000000	99.192400
3869.000000	99.187247
3868.000000	99.186299
3867.000000	99.188477
3866.000000	99.191458
3865.000000	99.192572
3864.000000	99.190647
3863.000000	99.188105
3862.000000	99.188203
3861.000000	99.191675
3860.000000	99.196778
3859.000000	99.201196
3858.000000	99.203415
3857.000000	99.203648
3856.000000	99.203307
3855.000000	99.203387
3854.000000	99.202294
3853.000000	99.200198
3852.000000	99.199599
3851.000000	99.198855
3850.000000	99.195642
3849.000000	99.191589
3848.000000	99.188668
3847.000000	99.187641
3846.000000	99.187282
3845.000000	99.185003
3844.000000	99.179052
3843.000000	99.170628
3842.000000	99.162565
3841.000000	99.157024
3840.000000	99.155258
3839.000000	99.158493
3838.000000	99.166682
3837.000000	99.176434
3836.000000	99.183323
3835.000000	99.185628
3834.000000	99.184407
3833.000000	99.181397
3832.000000	99.178457
3831.000000	99.178075
3830.000000	99.182034
3829.000000	99.189352
3828.000000	99.196241
3827.000000	99.198514
3826.000000	99.194730
3825.000000	99.187278
3824.000000	99.180292
3823.000000	99.175820
3822.000000	99.171722
3821.000000	99.165016
3820.000000	99.158191
3819.000000	99.154998
3818.000000	99.155859
3817.000000	99.161232
3816.000000	99.171104
3815.000000	99.183973
3814.000000	99.195688
3813.000000	99.201682
3812.000000	99.200505
3811.000000	99.194142
3810.000000	99.186076
3809.000000	99.179007
3808.000000	99.172972
3807.000000	99.166161
3806.000000	99.158027
3805.000000	99.150309
3804.000000	99.145786
3803.000000	99.147093
3802.000000	99.153689
3801.000000	99.162155
3800.000000	99.169831
3799.000000	99.175075
3798.000000	99.178247
3797.000000	99.181848
3796.000000	99.187884
3795.000000	99.195505
3794.000000	99.201355
3793.000000	99.202955
3792.000000	99.201106
3791.000000	99.198111
3790.000000	99.194933
3789.000000	99.190876
3788.000000	99.185640
3787.000000	99.180493
3786.000000	99.176716
3785.000000	99.174220
3784.000000	99.172395
3783.000000	99.171422
3782.000000	99.171387
3781.000000	99.171437
3780.000000	99.170510
3779.000000	99.169201
3778.000000	99.169346
3777.000000	99.171359
3776.000000	99.174283
3775.000000	99.177250
3774.000000	99.179453
3773.000000	99.180045
3772.000000	99.179283
3771.000000	99.178851
3770.000000	99.180426
3769.000000	99.184092
3768.000000	99.188061
3767.000000	99.190154
3766.000000	99.189470
3765.000000	99.186810
3764.000000	99.184301
3763.000000	99.184185
3762.000000	99.186788
3761.000000	99.190460
3760.000000	99.193051
3759.000000	99.194123
3758.000000	99.194336
3757.000000	99.192933
3756.000000	99.188960
3755.000000	99.183690
3754.000000	99.180126
3753.000000	99.180745
3752.000000	99.185548
3751.000000	99.192259
3750.000000	99.198710
3749.000000	99.203973
3748.000000	99.208636
3747.000000	99.214895
3746.000000	99.223231
3745.000000	99.229168
3744.000000	99.230168
3743.000000	99.229489
3742.000000	99.229062
3741.000000	99.228764
3740.000000	99.229077
3739.000000	99.230355
3738.000000	99.232334
3737.000000	99.234138
3736.000000	99.236104
3735.000000	99.240555
3734.000000	99.248552
3733.000000	99.256519
3732.000000	99.260556
3731.000000	99.260363
3730.000000	99.256935
3729.000000	99.251159
3728.000000	99.244719
3727.000000	99.239743
3726.000000	99.236692
3725.000000	99.234009
3724.000000	99.231159
3723.000000	99.230404
3722.000000	99.233573
3721.000000	99.238508
3720.000000	99.240767
3719.000000	99.238595
3718.000000	99.234058
3717.000000	99.229835
3716.000000	99.227231
3715.000000	99.225981
3714.000000	99.223357
3713.000000	99.215072
3712.000000	99.200547
3711.000000	99.188649
3710.000000	99.189402
3709.000000	99.202103
3708.000000	99.218630
3707.000000	99.232396
3706.000000	99.241768
3705.000000	99.247710
3704.000000	99.251426
3703.000000	99.252559
3702.000000	99.249008
3701.000000	99.239801
3700.000000	99.227430
3699.000000	99.216309
3698.000000	99.210103
3697.000000	99.209679
3696.000000	99.212783
3695.000000	99.215835
3694.000000	99.215674
3693.000000	99.211188
3692.000000	99.203701
3691.000000	99.196978
3690.000000	99.194185
3689.000000	99.195082
3688.000000	99.196733
3687.000000	99.196090
3686.000000	99.192515
3685.000000	99.188017
3684.000000	99.185268
3683.000000	99.185234
3682.000000	99.185955
3681.000000	99.183578
3680.000000	99.176234
3679.000000	99.166730
3678.000000	99.160238
3677.000000	99.159104
3676.000000	99.159493
3675.000000	99.158125
3674.000000	99.156540
3673.000000	99.154001
3672.000000	99.149358
3671.000000	99.143758
3670.000000	99.138495
3669.000000	99.137054
3668.000000	99.141360
3667.000000	99.147911
3666.000000	99.152818
3665.000000	99.155003
3664.000000	99.155523
3663.000000	99.155886
3662.000000	99.156299
3661.000000	99.155992
3660.000000	99.155612
3659.000000	99.157499
3658.000000	99.162424
3657.000000	99.166807
3656.000000	99.165802
3655.000000	99.158966
3654.000000	99.150356
3653.000000	99.144443
3652.000000	99.143221
3651.000000	99.143217
3650.000000	99.135672
3649.000000	99.117348
3648.000000	99.098571
3647.000000	99.089990
3646.000000	99.089597
3645.000000	99.089798
3644.000000	99.087130
3643.000000	99.083330
3642.000000	99.080561
3641.000000	99.077918
3640.000000	99.072561
3639.000000	99.063027
3638.000000	99.051493
3637.000000	99.042381
3636.000000	99.038811
3635.000000	99.040080
3634.000000	99.042693
3633.000000	99.045095
3632.000000	99.050106
3631.000000	99.060488
3630.000000	99.071397
3629.000000	99.071139
3628.000000	99.057974
3627.000000	99.042586
3626.000000	99.031023
3625.000000	99.024166
3624.000000	99.022800
3623.000000	99.027247
3622.000000	99.034835
3621.000000	99.037926
3620.000000	99.027300
3619.000000	99.002222
3618.000000	98.974138
3617.000000	98.954870
3616.000000	98.947799
3615.000000	98.949662
3614.000000	98.953052
3613.000000	98.950964
3612.000000	98.943432
3611.000000	98.936208
3610.000000	98.932213
3609.000000	98.927573
3608.000000	98.917488
3607.000000	98.903777
3606.000000	98.892191
3605.000000	98.884599
3604.000000	98.877913
3603.000000	98.867452
3602.000000	98.850709
3601.000000	98.830085
3600.000000	98.812739
3599.000000	98.805856
3598.000000	98.810474
3597.000000	98.820370
3596.000000	98.827139
3595.000000	98.826218
3594.000000	98.819239
3593.000000	98.811159
3592.000000	98.805419
3591.000000	98.802156
3590.000000	98.798710
3589.000000	98.791284
3588.000000	98.778181
3587.000000	98.762316
3586.000000	98.747706
3585.000000	98.734161
3584.000000	98.720241
3583.000000	98.706517
3582.000000	98.693918
3581.000000	98.681835
3580.000000	98.669956
3579.000000	98.660149
3578.000000	98.654588
3577.000000	98.652940
3576.000000	98.652108
3575.000000	98.648999
3574.000000	98.642634
3573.000000	98.635168
3572.000000	98.630541
3571.000000	98.631566
3570.000000	98.636705
3569.000000	98.639661
3568.000000	98.632412
3567.000000	98.611903
3566.000000	98.583572
3565.000000	98.555740
3564.000000	98.533308
3563.000000	98.518051
3562.000000	98.509170
3561.000000	98.503480
3560.000000	98.497234
3559.000000	98.488376
3558.000000	98.476453
3557.000000	98.462020
3556.000000	98.446685
3555.000000	98.432411
3554.000000	98.419849
3553.000000	98.408492
3552.000000	98.399039
3551.000000	98.393631
3550.000000	98.392807
3549.000000	98.394117
3548.000000	98.394059
3547.000000	98.389520
3546.000000	98.377641
3545.000000	98.356852
3544.000000	98.329909
3543.000000	98.303737
3542.000000	98.284629
3541.000000	98.273799
3540.000000	98.267871
3539.000000	98.262809
3538.000000	98.257234
3537.000000	98.252667
3536.000000	98.251393
3535.000000	98.253393
3534.000000	98.255399
3533.000000	98.253150
3532.000000	98.244592
3531.000000	98.230788
3530.000000	98.214689
3529.000000	98.200106
3528.000000	98.191072
3527.000000	98.189573
3526.000000	98.192657
3525.000000	98.193352
3524.000000	98.185891
3523.000000	98.170480
3522.000000	98.152885
3521.000000	98.139551
3520.000000	98.133089
3519.000000	98.131162
3518.000000	98.128881
3517.000000	98.122793
3516.000000	98.113407
3515.000000	98.103440
3514.000000	98.094905
3513.000000	98.088864
3512.000000	98.086486
3511.000000	98.087518
3510.000000	98.087814
3509.000000	98.081716
3508.000000	98.068376
3507.000000	98.053819
3506.000000	98.045522
3505.000000	98.046523
3504.000000	98.053954
3503.000000	98.061318
3502.000000	98.062076
3501.000000	98.052835
3500.000000	98.034628
3499.000000	98.011613
3498.000000	97.988723
3497.000000	97.970282
3496.000000	97.959215
3495.000000	97.955373
3494.000000	97.954614
3493.000000	97.951665
3492.000000	97.944599
3491.000000	97.935195
3490.000000	97.925137
3489.000000	97.913812
3488.000000	97.900663
3487.000000	97.887677
3486.000000	97.877974
3485.000000	97.872792
3484.000000	97.871018
3483.000000	97.870510
3482.000000	97.869142
3481.000000	97.865541
3480.000000	97.859589
3479.000000	97.851852
3478.000000	97.842428
3477.000000	97.831115
3476.000000	97.818353
3475.000000	97.805173
3474.000000	97.792483
3473.000000	97.781531
3472.000000	97.774527
3471.000000	97.772823
3470.000000	97.774365
3469.000000	97.774895
3468.000000	97.772102
3467.000000	97.767241
3466.000000	97.762433
3465.000000	97.757999
3464.000000	97.752745
3463.000000	97.744974
3462.000000	97.732836
3461.000000	97.715639
3460.000000	97.695836
3459.000000	97.678273
3458.000000	97.666702
3457.000000	97.661864
3456.000000	97.662559
3455.000000	97.666479
3454.000000	97.669888
3453.000000	97.668782
3452.000000	97.661701
3451.000000	97.650334
3450.000000	97.637077
3449.000000	97.623720
3448.000000	97.612380
3447.000000	97.604904
3446.000000	97.600069
3445.000000	97.593916
3444.000000	97.584508
3443.000000	97.574501
3442.000000	97.567664
3441.000000	97.564307
3440.000000	97.561343
3439.000000	97.555570
3438.000000	97.545878
3437.000000	97.533521
3436.000000	97.521438
3435.000000	97.512191
3434.000000	97.505845
3433.000000	97.500403
3432.000000	97.494535
3431.000000	97.488519
3430.000000	97.482405
3429.000000	97.475158
3428.000000	97.466209
3427.000000	97.456238
3426.000000	97.445844
3425.000000	97.435063
3424.000000	97.424754
3423.000000	97.416660
3422.000000	97.411169
3421.000000	97.406452
3420.000000	97.400598
3419.000000	97.393133
3418.000000	97.383955
3417.000000	97.372790
3416.000000	97.360776
3415.000000	97.350752
3414.000000	97.344435
3413.000000	97.340269
3412.000000	97.335107
3411.000000	97.327172
3410.000000	97.316912
3409.000000	97.306203
3408.000000	97.297416
3407.000000	97.291954
3406.000000	97.288686
3405.000000	97.284520
3404.000000	97.277220
3403.000000	97.267129
3402.000000	97.256346
3401.000000	97.247449
3400.000000	97.242811
3399.000000	97.243010
3398.000000	97.244980
3397.000000	97.243383
3396.000000	97.235187
3395.000000	97.222356
3394.000000	97.209664
3393.000000	97.200926
3392.000000	97.197132
3391.000000	97.196420
3390.000000	97.195086
3389.000000	97.190040
3388.000000	97.181576
3387.000000	97.173355
3386.000000	97.169082
3385.000000	97.169336
3384.000000	97.171533
3383.000000	97.171919
3382.000000	97.167954
3381.000000	97.160259
3380.000000	97.152588
3379.000000	97.148431
3378.000000	97.147307
3377.000000	97.145568
3376.000000	97.140813
3375.000000	97.133903
3374.000000	97.126386
3373.000000	97.117998
3372.000000	97.107729
3371.000000	97.095920
3370.000000	97.084107
3369.000000	97.073755
3368.000000	97.065812
3367.000000	97.060525
3366.000000	97.056950
3365.000000	97.053401
3364.000000	97.048843
3363.000000	97.043054
3362.000000	97.035409
3361.000000	97.024815
3360.000000	97.011318
3359.000000	96.996639
3358.000000	96.982767
3357.000000	96.970735
3356.000000	96.960674
3355.000000	96.951873
3354.000000	96.942672
3353.000000	96.931680
3352.000000	96.919460
3351.000000	96.907994
3350.000000	96.898385
3349.000000	96.890159
3348.000000	96.882409
3347.000000	96.874256
3346.000000	96.864483
3345.000000	96.852485
3344.000000	96.839883
3343.000000	96.829431
3342.000000	96.821823
3341.000000	96.815099
3340.000000	96.807409
3339.000000	96.798844
3338.000000	96.790231
3337.000000	96.781643
3336.000000	96.772490
3335.000000	96.761898
3334.000000	96.748838
3333.000000	96.733197
3332.000000	96.716971
3331.000000	96.702962
3330.000000	96.692076
3329.000000	96.683067
3328.000000	96.674747
3327.000000	96.667059
3326.000000	96.660277
3325.000000	96.654618
3324.000000	96.650320
3323.000000	96.646288
3322.000000	96.639209
3321.000000	96.626489
3320.000000	96.609936
3319.000000	96.594219
3318.000000	96.581732
3317.000000	96.571341
3316.000000	96.562310
3315.000000	96.556271
3314.000000	96.554212
3313.000000	96.554415
3312.000000	96.554797
3311.000000	96.554993
3310.000000	96.554736
3309.000000	96.552290
3308.000000	96.546497
3307.000000	96.538852
3306.000000	96.531794
3305.000000	96.526044
3304.000000	96.520610
3303.000000	96.514077
3302.000000	96.505168
3301.000000	96.493571
3300.000000	96.481414
3299.000000	96.472432
3298.000000	96.468392
3297.000000	96.467424
3296.000000	96.466713
3295.000000	96.465593
3294.000000	96.464920
3293.000000	96.464903
3292.000000	96.464956
3291.000000	96.464655
3290.000000	96.463663
3289.000000	96.461370
3288.000000	96.457529
3287.000000	96.452719
3286.000000	96.447666
3285.000000	96.443007
3284.000000	96.439984
3283.000000	96.440102
3282.000000	96.443342
3281.000000	96.447788
3280.000000	96.451822
3279.000000	96.455580
3278.000000	96.459676
3277.000000	96.463448
3276.000000	96.465347
3275.000000	96.464597
3274.000000	96.462004
3273.000000	96.459850
3272.000000	96.461031
3271.000000	96.467069
3270.000000	96.476246
3269.000000	96.484377
3268.000000	96.487716
3267.000000	96.485021
3266.000000	96.477872
3265.000000	96.470435
3264.000000	96.468160
3263.000000	96.474238
3262.000000	96.486665
3261.000000	96.500315
3260.000000	96.512122
3259.000000	96.522522
3258.000000	96.531887
3257.000000	96.538423
3256.000000	96.540769
3255.000000	96.540466
3254.000000	96.540173
3253.000000	96.541086
3252.000000	96.543964
3251.000000	96.551016
3250.000000	96.564170
3249.000000	96.581464
3248.000000	96.597157
3247.000000	96.606321
3246.000000	96.609044
3245.000000	96.609990
3244.000000	96.613667
3243.000000	96.620349
3242.000000	96.627009
3241.000000	96.632105
3240.000000	96.638168
3239.000000	96.648437
3238.000000	96.662064
3237.000000	96.674588
3236.000000	96.682884
3235.000000	96.687565
3234.000000	96.690299
3233.000000	96.691229
3232.000000	96.690070
3231.000000	96.688057
3230.000000	96.687377
3229.000000	96.689493
3228.000000	96.694672
3227.000000	96.702048
3226.000000	96.709506
3225.000000	96.714638
3224.000000	96.716777
3223.000000	96.717657
3222.000000	96.719706
3221.000000	96.724381
3220.000000	96.731916
3219.000000	96.741227
3218.000000	96.749644
3217.000000	96.754274
3216.000000	96.754723
3215.000000	96.753985
3214.000000	96.756041
3213.000000	96.762925
3212.000000	96.773890
3211.000000	96.786048
3210.000000	96.795545
3209.000000	96.799709
3208.000000	96.799280
3207.000000	96.798106
3206.000000	96.799943
3205.000000	96.805904
3204.000000	96.814657
3203.000000	96.824032
3202.000000	96.832245
3201.000000	96.838615
3200.000000	96.843762
3199.000000	96.848792
3198.000000	96.854279
3197.000000	96.860487
3196.000000	96.868009
3195.000000	96.877089
3194.000000	96.886549
3193.000000	96.894603
3192.000000	96.900705
3191.000000	96.905625
3190.000000	96.909935
3189.000000	96.913550
3188.000000	96.916607
3187.000000	96.919670
3186.000000	96.923198
3185.000000	96.927992
3184.000000	96.935868
3183.000000	96.948359
3182.000000	96.964617
3181.000000	96.981460
3180.000000	96.995413
3179.000000	97.004114
3178.000000	97.007095
3177.000000	97.006817
3176.000000	97.007961
3175.000000	97.013503
3174.000000	97.021865
3173.000000	97.029777
3172.000000	97.037116
3171.000000	97.046539
3170.000000	97.058653
3169.000000	97.070568
3168.000000	97.079655
3167.000000	97.086274
3166.000000	97.092156
3165.000000	97.098616
3164.000000	97.107074
3163.000000	97.118736
3162.000000	97.132338
3161.000000	97.144265
3160.000000	97.152298
3159.000000	97.157798
3158.000000	97.163211
3157.000000	97.169194
3156.000000	97.175380
3155.000000	97.182212
3154.000000	97.190493
3153.000000	97.200240
3152.000000	97.211135
3151.000000	97.223053
3150.000000	97.235165
3149.000000	97.245595
3148.000000	97.252935
3147.000000	97.257407
3146.000000	97.260053
3145.000000	97.261909
3144.000000	97.264482
3143.000000	97.269621
3142.000000	97.277981
3141.000000	97.288151
3140.000000	97.297973
3139.000000	97.306157
3138.000000	97.312719
3137.000000	97.318705
3136.000000	97.325368
3135.000000	97.332580
3134.000000	97.338494
3133.000000	97.342164
3132.000000	97.345889
3131.000000	97.352498
3130.000000	97.360587
3129.000000	97.365240
3128.000000	97.364165
3127.000000	97.360691
3126.000000	97.359712
3125.000000	97.362872
3124.000000	97.368893
3123.000000	97.376171
3122.000000	97.383194
3121.000000	97.388199
3120.000000	97.390639
3119.000000	97.392197
3118.000000	97.395023
3117.000000	97.399611
3116.000000	97.405090
3115.000000	97.410473
3114.000000	97.414942
3113.000000	97.418088
3112.000000	97.420551
3111.000000	97.423016
3110.000000	97.423994
3109.000000	97.420552
3108.000000	97.412327
3107.000000	97.403038
3106.000000	97.396676
3105.000000	97.393652
3104.000000	97.392010
3103.000000	97.390829
3102.000000	97.390642
3101.000000	97.391599
3100.000000	97.393147
3099.000000	97.395023
3098.000000	97.397214
3097.000000	97.399155
3096.000000	97.400130
3095.000000	97.400309
3094.000000	97.400597
3093.000000	97.401557
3092.000000	97.402869
3091.000000	97.403529
3090.000000	97.402450
3089.000000	97.399521
3088.000000	97.396206
3087.000000	97.394365
3086.000000	97.394455
3085.000000	97.395811
3084.000000	97.398427
3083.000000	97.402845
3082.000000	97.407996
3081.000000	97.410899
3080.000000	97.409444
3079.000000	97.404433
3078.000000	97.398308
3077.000000	97.393112
3076.000000	97.390141
3075.000000	97.389982
3074.000000	97.391929
3073.000000	97.394671
3072.000000	97.398449
3071.000000	97.405258
3070.000000	97.415920
3069.000000	97.427934
3068.000000	97.437236
3067.000000	97.441269
3066.000000	97.439835
3065.000000	97.434292
3064.000000	97.427198
3063.000000	97.422023
3062.000000	97.421798
3061.000000	97.427800
3060.000000	97.439290
3059.000000	97.453700
3058.000000	97.467071
3057.000000	97.476016
3056.000000	97.480422
3055.000000	97.483467
3054.000000	97.488281
3053.000000	97.495241
3052.000000	97.502921
3051.000000	97.510504
3050.000000	97.518195
3049.000000	97.525911
3048.000000	97.532549
3047.000000	97.536844
3046.000000	97.538961
3045.000000	97.541516
3044.000000	97.548381
3043.000000	97.561122
3042.000000	97.576359
3041.000000	97.587920
3040.000000	97.592279
3039.000000	97.591438
3038.000000	97.590597
3037.000000	97.593823
3036.000000	97.601787
3035.000000	97.612095
3034.000000	97.621243
3033.000000	97.627401
3032.000000	97.631793
3031.000000	97.636884
3030.000000	97.643431
3029.000000	97.650582
3028.000000	97.658375
3027.000000	97.667921
3026.000000	97.678711
3025.000000	97.688079
3024.000000	97.694544
3023.000000	97.699962
3022.000000	97.706785
3021.000000	97.714378
3020.000000	97.719610
3019.000000	97.720567
3018.000000	97.718628
3017.000000	97.717307
3016.000000	97.719726
3015.000000	97.726574
3014.000000	97.735776
3013.000000	97.744474
3012.000000	97.751348
3011.000000	97.756361
3010.000000	97.758785
3009.000000	97.757480
3008.000000	97.753465
3007.000000	97.750089
3006.000000	97.749448
3005.000000	97.750160
3004.000000	97.749924
3003.000000	97.748873
3002.000000	97.748805
3001.000000	97.750298
3000.000000	97.752444
2999.000000	97.754767
2998.000000	97.757409
2997.000000	97.759487
2996.000000	97.759074
2995.000000	97.755375
2994.000000	97.749855
2993.000000	97.744469
2992.000000	97.739399
2991.000000	97.733098
2990.000000	97.724377
2989.000000	97.713832
2988.000000	97.703024
2987.000000	97.692694
2986.000000	97.682606
2985.000000	97.673155
2984.000000	97.665916
2983.000000	97.661501
2982.000000	97.657644
2981.000000	97.650683
2980.000000	97.638939
2979.000000	97.623528
2978.000000	97.606417
2977.000000	97.589330
2976.000000	97.574384
2975.000000	97.563493
2974.000000	97.555974
2973.000000	97.548201
2972.000000	97.536756
2971.000000	97.521199
2970.000000	97.503068
2969.000000	97.483254
2968.000000	97.461406
2967.000000	97.437368
2966.000000	97.412240
2965.000000	97.388053
2964.000000	97.366420
2963.000000	97.347175
2962.000000	97.328529
2961.000000	97.309563
2960.000000	97.292428
2959.000000	97.280750
2958.000000	97.275585
2957.000000	97.274076
2956.000000	97.272582
2955.000000	97.269973
2954.000000	97.267631
2953.000000	97.267509
2952.000000	97.270672
2951.000000	97.276373
2950.000000	97.281683
2949.000000	97.283203
2948.000000	97.279921
2947.000000	97.273501
2946.000000	97.265031
2945.000000	97.252785
2944.000000	97.234389
2943.000000	97.210157
2942.000000	97.183020
2941.000000	97.155493
2940.000000	97.127866
2939.000000	97.098946
2938.000000	97.067450
2937.000000	97.032683
2936.000000	96.994544
2935.000000	96.953241
2934.000000	96.909049
2933.000000	96.862473
2932.000000	96.814451
2931.000000	96.765729
2930.000000	96.716070
2929.000000	96.664919
2928.000000	96.612889
2927.000000	96.561657
2926.000000	96.512109
2925.000000	96.463786
2924.000000	96.416821
2923.000000	96.373590
2922.000000	96.337624
2921.000000	96.311209
2920.000000	96.294906
2919.000000	96.288989
2918.000000	96.295142
2917.000000	96.316637
2916.000000	96.356442
2915.000000	96.414387
2914.000000	96.485713
2913.000000	96.563191
2912.000000	96.640856
2911.000000	96.715588
2910.000000	96.785599
2909.000000	96.848855
2908.000000	96.903702
2907.000000	96.949990
2906.000000	96.989112
2905.000000	97.023284
2904.000000	97.054961
2903.000000	97.085624
2902.000000	97.114371
2901.000000	97.138114
2900.000000	97.154789
2899.000000	97.165946
2898.000000	97.176466
2897.000000	97.191471
2896.000000	97.212855
2895.000000	97.237788
2894.000000	97.260659
2893.000000	97.277724
2892.000000	97.290336
2891.000000	97.303113
2890.000000	97.318970
2889.000000	97.336923
2888.000000	97.354298
2887.000000	97.369202
2886.000000	97.380424
2885.000000	97.386889
2884.000000	97.388897
2883.000000	97.389120
2882.000000	97.391045
2881.000000	97.396540
2880.000000	97.405004
2879.000000	97.413928
2878.000000	97.419664
2877.000000	97.419013
2876.000000	97.411686
2875.000000	97.401046
2874.000000	97.391667
2873.000000	97.386168
2872.000000	97.384513
2871.000000	97.385403
2870.000000	97.387520
2869.000000	97.390161
2868.000000	97.393431
2867.000000	97.397394
2866.000000	97.400520
2865.000000	97.399856
2864.000000	97.393413
2863.000000	97.381603
2862.000000	97.365490
2861.000000	97.344647
2860.000000	97.318079
2859.000000	97.286307
2858.000000	97.250907
2857.000000	97.212122
2856.000000	97.168463
2855.000000	97.118924
2854.000000	97.065036
2853.000000	97.010897
2852.000000	96.962496
2851.000000	96.927597
2850.000000	96.914788
2849.000000	96.931041
2848.000000	96.978259
2847.000000	97.051238
2846.000000	97.138919
2845.000000	97.229033
2844.000000	97.312898
2843.000000	97.387067
2842.000000	97.451364
2841.000000	97.506395
2840.000000	97.553208
2839.000000	97.593442
2838.000000	97.628511
2837.000000	97.658871
2836.000000	97.684580
2835.000000	97.705937
2834.000000	97.722960
2833.000000	97.735199
2832.000000	97.743261
2831.000000	97.749997
2830.000000	97.758844
2829.000000	97.771054
2828.000000	97.785360
2827.000000	97.800073
2826.000000	97.814532
2825.000000	97.828530
2824.000000	97.841466
2823.000000	97.852498
2822.000000	97.861025
2821.000000	97.866706
2820.000000	97.869365
2819.000000	97.869275
2818.000000	97.867699
2817.000000	97.867227
2816.000000	97.870932
2815.000000	97.879921
2814.000000	97.891268
2813.000000	97.899672
2812.000000	97.902283
2811.000000	97.901478
2810.000000	97.902122
2809.000000	97.906727
2808.000000	97.914217
2807.000000	97.922429
2806.000000	97.929932
2805.000000	97.935685
2804.000000	97.938919
2803.000000	97.940138
2802.000000	97.941054
2801.000000	97.942909
2800.000000	97.945689
2799.000000	97.949274
2798.000000	97.954157
2797.000000	97.960324
2796.000000	97.966487
2795.000000	97.971428
2794.000000	97.975356
2793.000000	97.978950
2792.000000	97.981777
2791.000000	97.983086
2790.000000	97.983953
2789.000000	97.986932
2788.000000	97.992787
2787.000000	97.998671
2786.000000	98.000813
2785.000000	97.998772
2784.000000	97.996089
2783.000000	97.996569
2782.000000	98.000744
2781.000000	98.006241
2780.000000	98.010844
2779.000000	98.014353
2778.000000	98.017897
2777.000000	98.022487
2776.000000	98.028527
2775.000000	98.035855
2774.000000	98.043582
2773.000000	98.050160
2772.000000	98.054353
2771.000000	98.056340
2770.000000	98.057604
2769.000000	98.059683
2768.000000	98.063049
2767.000000	98.067038
2766.000000	98.070573
2765.000000	98.072920
2764.000000	98.074040
2763.000000	98.074511
2762.000000	98.075067
2761.000000	98.075996
2760.000000	98.076894
2759.000000	98.077205
2758.000000	98.077145
2757.000000	98.077789
2756.000000	98.079904
2755.000000	98.082915
2754.000000	98.085673
2753.000000	98.088216
2752.000000	98.091837
2751.000000	98.096899
2750.000000	98.101536
2749.000000	98.103675
2748.000000	98.104091
2747.000000	98.106112
2746.000000	98.111845
2745.000000	98.119397
2744.000000	98.124411
2743.000000	98.124063
2742.000000	98.119407
2741.000000	98.114333
2740.000000	98.112587
2739.000000	98.115355
2738.000000	98.120998
2737.000000	98.126770
2736.000000	98.130872
2735.000000	98.133173
2734.000000	98.134607
2733.000000	98.136307
2732.000000	98.138842
2731.000000	98.141624
2730.000000	98.143167
2729.000000	98.142613
2728.000000	98.140939
2727.000000	98.139909
2726.000000	98.139938
2725.000000	98.139901
2724.000000	98.139183
2723.000000	98.138886
2722.000000	98.140486
2721.000000	98.144116
2720.000000	98.148759
2719.000000	98.153418
2718.000000	98.157459
2717.000000	98.160441
2716.000000	98.162432
2715.000000	98.164263
2714.000000	98.166859
2713.000000	98.170506
2712.000000	98.174951
2711.000000	98.179628
2710.000000	98.183305
2709.000000	98.184374
2708.000000	98.182584
2707.000000	98.180163
2706.000000	98.180106
2705.000000	98.183257
2704.000000	98.187842
2703.000000	98.191774
2702.000000	98.194421
2701.000000	98.195875
2700.000000	98.195699
2699.000000	98.193337
2698.000000	98.189437
2697.000000	98.185883
2696.000000	98.184324
2695.000000	98.184931
2694.000000	98.186611
2693.000000	98.188148
2692.000000	98.189117
2691.000000	98.190026
2690.000000	98.191828
2689.000000	98.195165
2688.000000	98.199675
2687.000000	98.203938
2686.000000	98.206469
2685.000000	98.207028
2684.000000	98.206670
2683.000000	98.206199
2682.000000	98.205005
2681.000000	98.202158
2680.000000	98.198477
2679.000000	98.196489
2678.000000	98.197865
2677.000000	98.201541
2676.000000	98.204895
2675.000000	98.206364
2674.000000	98.206561
2673.000000	98.207282
2672.000000	98.209897
2671.000000	98.214280
2670.000000	98.218710
2669.000000	98.221025
2668.000000	98.220400
2667.000000	98.217935
2666.000000	98.215247
2665.000000	98.212888
2664.000000	98.210477
2663.000000	98.207757
2662.000000	98.204764
2661.000000	98.201372
2660.000000	98.197652
2659.000000	98.194488
2658.000000	98.192751
2657.000000	98.191892
2656.000000	98.190689
2655.000000	98.189816
2654.000000	98.192295
2653.000000	98.200189
2652.000000	98.211460
2651.000000	98.221377
2650.000000	98.226918
2649.000000	98.228942
2648.000000	98.230298
2647.000000	98.232997
2646.000000	98.237412
2645.000000	98.242959
2644.000000	98.248562
2643.000000	98.252875
2642.000000	98.254920
2641.000000	98.254502
2640.000000	98.251884
2639.000000	98.247633
2638.000000	98.243387
2637.000000	98.242158
2636.000000	98.246537
2635.000000	98.256137
2634.000000	98.267545
2633.000000	98.277383
2632.000000	98.284991
2631.000000	98.291778
2630.000000	98.298506
2629.000000	98.304131
2628.000000	98.307218
2627.000000	98.307727
2626.000000	98.307054
2625.000000	98.306658
2624.000000	98.306894
2623.000000	98.306885
2622.000000	98.305507
2621.000000	98.302908
2620.000000	98.301326
2619.000000	98.303979
2618.000000	98.312535
2617.000000	98.325310
2616.000000	98.337921
2615.000000	98.345915
2614.000000	98.347419
2613.000000	98.344373
2612.000000	98.341626
2611.000000	98.343839
2610.000000	98.351702
2609.000000	98.360828
2608.000000	98.365289
2607.000000	98.363229
2606.000000	98.358930
2605.000000	98.358854
2604.000000	98.365689
2603.000000	98.376270
2602.000000	98.384884
2601.000000	98.388102
2600.000000	98.386679
2599.000000	98.383775
2598.000000	98.381797
2597.000000	98.380719
2596.000000	98.379145
2595.000000	98.376759
2594.000000	98.375365
2593.000000	98.377245
2592.000000	98.382850
2591.000000	98.390674
2590.000000	98.399047
2589.000000	98.406992
2588.000000	98.413350
2587.000000	98.416472
2586.000000	98.415901
2585.000000	98.413768
2584.000000	98.413421
2583.000000	98.416496
2582.000000	98.421758
2581.000000	98.426581
2580.000000	98.429003
2579.000000	98.428702
2578.000000	98.426883
2577.000000	98.425410
2576.000000	98.425388
2575.000000	98.426127
2574.000000	98.425803
2573.000000	98.423469
2572.000000	98.420293
2571.000000	98.418535
2570.000000	98.419269
2569.000000	98.421361
2568.000000	98.423029
2567.000000	98.424501
2566.000000	98.428389
2565.000000	98.436705
2564.000000	98.447759
2563.000000	98.457203
2562.000000	98.462250
2561.000000	98.463535
2560.000000	98.462343
2559.000000	98.457938
2558.000000	98.449807
2557.000000	98.441601
2556.000000	98.439996
2555.000000	98.448425
2554.000000	98.463288
2553.000000	98.477289
2552.000000	98.485444
2551.000000	98.487161
2550.000000	98.484179
2549.000000	98.478826
2548.000000	98.474230
2547.000000	98.473672
2546.000000	98.477821
2545.000000	98.483213
2544.000000	98.485125
2543.000000	98.482606
2542.000000	98.479729
2541.000000	98.481358
2540.000000	98.488173
2539.000000	98.496526
2538.000000	98.502203
2537.000000	98.503186
2536.000000	98.499299
2535.000000	98.491304
2534.000000	98.481298
2533.000000	98.472730
2532.000000	98.468659
2531.000000	98.469858
2530.000000	98.474778
2529.000000	98.480727
2528.000000	98.485267
2527.000000	98.487837
2526.000000	98.490411
2525.000000	98.494905
2524.000000	98.499254
2523.000000	98.497913
2522.000000	98.488048
2521.000000	98.473861
2520.000000	98.463013
2519.000000	98.459616
2518.000000	98.462519
2517.000000	98.469064
2516.000000	98.477757
2515.000000	98.487328
2514.000000	98.495818
2513.000000	98.501278
2512.000000	98.502098
2511.000000	98.497007
2510.000000	98.486771
2509.000000	98.475479
2508.000000	98.467519
2507.000000	98.462876
2506.000000	98.457907
2505.000000	98.451249
2504.000000	98.446263
2503.000000	98.446463
2502.000000	98.451123
2501.000000	98.457293
2500.000000	98.463840
2499.000000	98.471242
2498.000000	98.478550
2497.000000	98.483265
2496.000000	98.484122
2495.000000	98.482243
2494.000000	98.479452
2493.000000	98.476729
2492.000000	98.474827
2491.000000	98.475602
2490.000000	98.481724
2489.000000	98.494201
2488.000000	98.509910
2487.000000	98.522651
2486.000000	98.528163
2485.000000	98.527918
2484.000000	98.526780
2483.000000	98.527401
2482.000000	98.528807
2481.000000	98.529989
2480.000000	98.532004
2479.000000	98.535507
2478.000000	98.538694
2477.000000	98.539477
2476.000000	98.538163
2475.000000	98.536690
2474.000000	98.536616
2473.000000	98.538984
2472.000000	98.544265
2471.000000	98.550652
2470.000000	98.554068
2469.000000	98.552066
2468.000000	98.546711
2467.000000	98.541767
2466.000000	98.538210
2465.000000	98.534783
2464.000000	98.531900
2463.000000	98.531682
2462.000000	98.534017
2461.000000	98.535513
2460.000000	98.533605
2459.000000	98.529487
2458.000000	98.525403
2457.000000	98.520944
2456.000000	98.514452
2455.000000	98.507713
2454.000000	98.506591
2453.000000	98.515763
2452.000000	98.533577
2451.000000	98.553089
2450.000000	98.567673
2449.000000	98.574663
2448.000000	98.574782
2447.000000	98.570657
2446.000000	98.566276
2445.000000	98.565150
2444.000000	98.566895
2443.000000	98.566951
2442.000000	98.562145
2441.000000	98.555513
2440.000000	98.552933
2439.000000	98.555544
2438.000000	98.558506
2437.000000	98.557410
2436.000000	98.552872
2435.000000	98.547893
2434.000000	98.543887
2433.000000	98.541089
2432.000000	98.540137
2431.000000	98.540726
2430.000000	98.540685
2429.000000	98.539218
2428.000000	98.540174
2427.000000	98.549153
2426.000000	98.567035
2425.000000	98.588064
2424.000000	98.604449
2423.000000	98.611635
2422.000000	98.609506
2421.000000	98.600542
2420.000000	98.587924
2419.000000	98.574655
2418.000000	98.563167
2417.000000	98.554977
2416.000000	98.550571
2415.000000	98.550091
2414.000000	98.554496
2413.000000	98.565001
2412.000000	98.579957
2411.000000	98.593119
2410.000000	98.597744
2409.000000	98.593317
2408.000000	98.586625
2407.000000	98.585095
2406.000000	98.590289
2405.000000	98.598463
2404.000000	98.605429
2403.000000	98.609651
2402.000000	98.612088
2401.000000	98.614605
2400.000000	98.617662
2399.000000	98.618788
2398.000000	98.614852
2397.000000	98.606803
2396.000000	98.600251
2395.000000	98.599573
2394.000000	98.602720
2393.000000	98.603859
2392.000000	98.600037
2391.000000	98.593409
2390.000000	98.587490
2389.000000	98.583257
2388.000000	98.579483
2387.000000	98.575429
2386.000000	98.573605
2385.000000	98.579176
2384.000000	98.594922
2383.000000	98.616687
2382.000000	98.634654
2381.000000	98.641982
2380.000000	98.639995
2379.000000	98.633900
2378.000000	98.626325
2377.000000	98.617700
2376.000000	98.610567
2375.000000	98.608180
2374.000000	98.610259
2373.000000	98.613971
2372.000000	98.618747
2371.000000	98.625193
2370.000000	98.630360
2369.000000	98.630063
2368.000000	98.624496
2367.000000	98.619695
2366.000000	98.621551
2365.000000	98.629268
2364.000000	98.634894
2363.000000	98.629839
2362.000000	98.614964
2361.000000	98.601030
2360.000000	98.595586
2359.000000	98.594570
2358.000000	98.592413
2357.000000	98.592884
2356.000000	98.598897
2355.000000	98.605259
2354.000000	98.614598
2353.000000	98.635751
2352.000000	98.662233
2351.000000	98.672408
2350.000000	98.657127
2349.000000	98.625767
2348.000000	98.596030
2347.000000	98.583432
2346.000000	98.588113
2345.000000	98.590979
2344.000000	98.576973
2343.000000	98.553799
2342.000000	98.536832
2341.000000	98.533389
2340.000000	98.539534
2339.000000	98.547244
2338.000000	98.552358
2337.000000	98.554680
2336.000000	98.553523
2335.000000	98.550182
2334.000000	98.551476
2333.000000	98.563843
2332.000000	98.581986
2331.000000	98.594798
2330.000000	98.597275
2329.000000	98.589836
2328.000000	98.568685
2327.000000	98.529893
2326.000000	98.480778
2325.000000	98.440118
2324.000000	98.422903
2323.000000	98.429939
2322.000000	98.447885
2321.000000	98.461242
2320.000000	98.461852
2319.000000	98.452916
2318.000000	98.443675
2317.000000	98.442625
2316.000000	98.451324
2315.000000	98.464973
2314.000000	98.476762
2313.000000	98.485066
2312.000000	98.494354
2311.000000	98.510271
2310.000000	98.532250
2309.000000	98.553494
2308.000000	98.567727
2307.000000	98.574552
2306.000000	98.576067
2305.000000	98.572606
2304.000000	98.564126
2303.000000	98.554431
2302.000000	98.548404
2301.000000	98.545916
2300.000000	98.542136
2299.000000	98.535857
2298.000000	98.532515
2297.000000	98.537452
2296.000000	98.546688
2295.000000	98.549639
2294.000000	98.540085
2293.000000	98.523177
2292.000000	98.509874
2291.000000	98.506873
2290.000000	98.512234
2289.000000	98.519472
2288.000000	98.523549
2287.000000	98.523421
2286.000000	98.521074
2285.000000	98.519895
2284.000000	98.523687
2283.000000	98.534579
2282.000000	98.550841
2281.000000	98.567095
2280.000000	98.578158
2279.000000	98.582566
2278.000000	98.582306
2277.000000	98.580186
2276.000000	98.578063
2275.000000	98.576932
2274.000000	98.577287
2273.000000	98.578857
2272.000000	98.580845
2271.000000	98.583411
2270.000000	98.588643
2269.000000	98.599217
2268.000000	98.615539
2267.000000	98.634371
2266.000000	98.650508
2265.000000	98.659897
2264.000000	98.661644
2263.000000	98.657343
2262.000000	98.649062
2261.000000	98.638173
2260.000000	98.625711
2259.000000	98.613416
2258.000000	98.604485
2257.000000	98.603784
2256.000000	98.616367
2255.000000	98.642930
2254.000000	98.675059
2253.000000	98.697193
2252.000000	98.697900
2251.000000	98.680424
2250.000000	98.660044
2249.000000	98.650334
2248.000000	98.653821
2247.000000	98.665935
2246.000000	98.683953
2245.000000	98.706919
2244.000000	98.728959
2243.000000	98.739781
2242.000000	98.735054
2241.000000	98.722635
2240.000000	98.714846
2239.000000	98.716161
2238.000000	98.722088
2237.000000	98.728299
2236.000000	98.735655
2235.000000	98.745136
2234.000000	98.752561
2233.000000	98.752270
2232.000000	98.744678
2231.000000	98.736872
2230.000000	98.735327
2229.000000	98.739775
2228.000000	98.744433
2227.000000	98.743892
2226.000000	98.737689
2225.000000	98.730387
2224.000000	98.727388
2223.000000	98.729275
2222.000000	98.729434
2221.000000	98.718883
2220.000000	98.696412
2219.000000	98.673969
2218.000000	98.667613
2217.000000	98.679204
2216.000000	98.689515
2215.000000	98.677150
2214.000000	98.646534
2213.000000	98.629650
2212.000000	98.652980
2211.000000	98.705659
2210.000000	98.748977
2209.000000	98.756851
2208.000000	98.739378
2207.000000	98.724992
2206.000000	98.727978
2205.000000	98.740551
2204.000000	98.749882
2203.000000	98.752758
2202.000000	98.753155
2201.000000	98.754283
2200.000000	98.757926
2199.000000	98.766607
2198.000000	98.780490
2197.000000	98.792768
2196.000000	98.792918
2195.000000	98.776358
2194.000000	98.749198
2193.000000	98.722767
2192.000000	98.704987
2191.000000	98.698298
2190.000000	98.704352
2189.000000	98.726092
2188.000000	98.762581
2187.000000	98.804091
2186.000000	98.836881
2185.000000	98.855111
2184.000000	98.866935
2183.000000	98.885114
2182.000000	98.909608
2181.000000	98.922829
2180.000000	98.907459
2179.000000	98.869252
2178.000000	98.836776
2177.000000	98.835463
2176.000000	98.863223
2175.000000	98.894851
2174.000000	98.908497
2173.000000	98.901704
2172.000000	98.882058
2171.000000	98.852347
2170.000000	98.811472
2169.000000	98.766048
2168.000000	98.733870
2167.000000	98.732666
2166.000000	98.764366
2165.000000	98.806806
2164.000000	98.823737
2163.000000	98.796593
2162.000000	98.754072
2161.000000	98.763431
2160.000000	98.875190
2159.000000	99.064476
2158.000000	99.241261
2157.000000	99.333375
2156.000000	99.344982
2155.000000	99.326890
2154.000000	99.314633
2153.000000	99.303112
2152.000000	99.265317
2151.000000	99.186977
2150.000000	99.085869
2149.000000	99.000842
2148.000000	98.962527
2147.000000	98.974310
2146.000000	99.016847
2145.000000	99.062356
2144.000000	99.085747
2143.000000	99.075040
2142.000000	99.039044
2141.000000	99.000533
2140.000000	98.974680
2139.000000	98.956800
2138.000000	98.936667
2137.000000	98.918042
2136.000000	98.913698
2135.000000	98.923326
2134.000000	98.929361
2133.000000	98.919000
2132.000000	98.900574
2131.000000	98.892725
2130.000000	98.903450
2129.000000	98.924615
2128.000000	98.941497
2127.000000	98.942668
2126.000000	98.924077
2125.000000	98.891165
2124.000000	98.857589
2123.000000	98.835812
2122.000000	98.826364
2121.000000	98.819162
2120.000000	98.806898
2119.000000	98.793682
2118.000000	98.788095
2117.000000	98.790839
2116.000000	98.792831
2115.000000	98.784947
2114.000000	98.766263
2113.000000	98.743762
2112.000000	98.727630
2111.000000	98.726484
2110.000000	98.741740
2109.000000	98.763667
2108.000000	98.776946
2107.000000	98.775691
2106.000000	98.771276
2105.000000	98.780239
2104.000000	98.804344
2103.000000	98.827034
2102.000000	98.831306
2101.000000	98.817983
2100.000000	98.803479
2099.000000	98.801210
2098.000000	98.808810
2097.000000	98.813825
2096.000000	98.810305
2095.000000	98.806530
2094.000000	98.814546
2093.000000	98.833845
2092.000000	98.849356
2091.000000	98.847434
2090.000000	98.830092
2089.000000	98.810333
2088.000000	98.796116
2087.000000	98.784605
2086.000000	98.772671
2085.000000	98.764930
2084.000000	98.766679
2083.000000	98.773834
2082.000000	98.776924
2081.000000	98.773480
2080.000000	98.770376
2079.000000	98.773894
2078.000000	98.782853
2077.000000	98.793059
2076.000000	98.804225
2075.000000	98.819140
2074.000000	98.838132
2073.000000	98.856478
2072.000000	98.866270
2071.000000	98.861610
2070.000000	98.844730
2069.000000	98.828030
2068.000000	98.826352
2067.000000	98.844089
2066.000000	98.871517
2065.000000	98.895004
2064.000000	98.909356
2063.000000	98.917476
2062.000000	98.919580
2061.000000	98.909196
2060.000000	98.881684
2059.000000	98.843168
2058.000000	98.808063
2057.000000	98.788657
2056.000000	98.787552
2055.000000	98.797868
2054.000000	98.808193
2053.000000	98.808955
2052.000000	98.799918
2051.000000	98.795055
2050.000000	98.816228
2049.000000	98.873161
2048.000000	98.947048
2047.000000	99.003373
2046.000000	99.022769
2045.000000	99.011262
2044.000000	98.983279
2043.000000	98.946240
2042.000000	98.906156
2041.000000	98.879067
2040.000000	98.885166
2039.000000	98.930502
2038.000000	98.999654
2037.000000	99.065078
2036.000000	99.104911
2035.000000	99.118830
2034.000000	99.127521
2033.000000	99.151939
2032.000000	99.190081
2031.000000	99.219184
2030.000000	99.222631
2029.000000	99.206824
2028.000000	99.190073
2027.000000	99.182360
2026.000000	99.180906
2025.000000	99.180163
2024.000000	99.178476
2023.000000	99.180565
2022.000000	99.197452
2021.000000	99.237559
2020.000000	99.291292
2019.000000	99.329831
2018.000000	99.326774
2017.000000	99.281410
2016.000000	99.217952
2015.000000	99.161019
2014.000000	99.119867
2013.000000	99.094490
2012.000000	99.083985
2011.000000	99.087124
2010.000000	99.101399
2009.000000	99.124748
2008.000000	99.157318
2007.000000	99.200239
2006.000000	99.249930
2005.000000	99.292241
2004.000000	99.306904
2003.000000	99.284989
2002.000000	99.237962
2001.000000	99.184718
2000.000000	99.132819
1999.000000	99.080241
1998.000000	99.038858
1997.000000	99.037090
1996.000000	99.084816
1995.000000	99.148711
1994.000000	99.178779
1993.000000	99.154990
1992.000000	99.101102
1991.000000	99.052258
1990.000000	99.021897
1989.000000	99.007126
1988.000000	99.007979
1987.000000	99.028274
1986.000000	99.063240
1985.000000	99.093851
1984.000000	99.094524
1983.000000	99.049498
1982.000000	98.968782
1981.000000	98.891843
1980.000000	98.868919
1979.000000	98.926668
1978.000000	99.046946
1977.000000	99.171855
1976.000000	99.238363
1975.000000	99.221805
1974.000000	99.150254
1973.000000	99.079728
1972.000000	99.052694
1971.000000	99.075236
1970.000000	99.129760
1969.000000	99.196367
1968.000000	99.256343
1967.000000	99.289630
1966.000000	99.284405
1965.000000	99.248164
1964.000000	99.201474
1963.000000	99.164208
1962.000000	99.150973
1961.000000	99.168618
1960.000000	99.207999
1959.000000	99.245843
1958.000000	99.263693
1957.000000	99.262015
1956.000000	99.251926
1955.000000	99.238203
1954.000000	99.217435
1953.000000	99.188899
1952.000000	99.158287
1951.000000	99.132341
1950.000000	99.113531
1949.000000	99.102403
1948.000000	99.100763
1947.000000	99.109216
1946.000000	99.123745
1945.000000	99.136257
1944.000000	99.138077
1943.000000	99.125054
1942.000000	99.102767
1941.000000	99.084248
1940.000000	99.075482
1939.000000	99.068476
1938.000000	99.053865
1937.000000	99.034685
1936.000000	99.023169
1935.000000	99.025454
1934.000000	99.035589
1933.000000	99.044833
1932.000000	99.052418
1931.000000	99.064932
1930.000000	99.083084
1929.000000	99.098148
1928.000000	99.102369
1927.000000	99.097169
1926.000000	99.090395
1925.000000	99.084206
1924.000000	99.075786
1923.000000	99.063842
1922.000000	99.050707
1921.000000	99.037638
1920.000000	99.022793
1919.000000	99.008061
1918.000000	99.001002
1917.000000	99.001739
1916.000000	98.999508
1915.000000	98.986537
1914.000000	98.971057
1913.000000	98.971184
1912.000000	98.995718
1911.000000	99.035592
1910.000000	99.073137
1909.000000	99.096621
1908.000000	99.103802
1907.000000	99.095687
1906.000000	99.075227
1905.000000	99.048125
1904.000000	99.026430
1903.000000	99.022663
1902.000000	99.039045
1901.000000	99.064353
1900.000000	99.081286
1899.000000	99.079869
1898.000000	99.066663
1897.000000	99.056401
1896.000000	99.058010
1895.000000	99.068222
1894.000000	99.077968
1893.000000	99.080771
1892.000000	99.073380
1891.000000	99.055470
1890.000000	99.033885
1889.000000	99.021244
1888.000000	99.023745
1887.000000	99.033051
1886.000000	99.037349
1885.000000	99.035937
1884.000000	99.037049
1883.000000	99.045035
1882.000000	99.055271
1881.000000	99.062546
1880.000000	99.065150
1879.000000	99.060531
1878.000000	99.047796
1877.000000	99.033828
1876.000000	99.031125
1875.000000	99.047684
1874.000000	99.078890
1873.000000	99.110116
1872.000000	99.127765
1871.000000	99.127940
1870.000000	99.118051
1869.000000	99.109409
1868.000000	99.105977
1867.000000	99.103356
1866.000000	99.095543
1865.000000	99.082268
1864.000000	99.069630
1863.000000	99.062608
1862.000000	99.059773
1861.000000	99.056945
1860.000000	99.053414
1859.000000	99.052140
1858.000000	99.056357
1857.000000	99.067501
1856.000000	99.083351
1855.000000	99.097102
1854.000000	99.100761
1853.000000	99.092577
1852.000000	99.079578
1851.000000	99.066856
1850.000000	99.059163
1849.000000	99.064300
1848.000000	99.086778
1847.000000	99.116826
1846.000000	99.135459
1845.000000	99.135064
1844.000000	99.129018
1843.000000	99.132951
1842.000000	99.144530
1841.000000	99.152932
1840.000000	99.154115
1839.000000	99.150893
1838.000000	99.146330
1837.000000	99.138397
1836.000000	99.127276
1835.000000	99.118177
1834.000000	99.114976
1833.000000	99.116019
1832.000000	99.116823
1831.000000	99.116581
1830.000000	99.121406
1829.000000	99.131775
1828.000000	99.139138
1827.000000	99.133903
1826.000000	99.118376
1825.000000	99.107509
1824.000000	99.110536
1823.000000	99.121028
1822.000000	99.126943
1821.000000	99.124615
1820.000000	99.119220
1819.000000	99.118737
1818.000000	99.128934
1817.000000	99.146857
1816.000000	99.163136
1815.000000	99.168517
1814.000000	99.160638
1813.000000	99.147143
1812.000000	99.137960
1811.000000	99.138520
1810.000000	99.143479
1809.000000	99.142147
1808.000000	99.132884
1807.000000	99.123442
1806.000000	99.118723
1805.000000	99.114978
1804.000000	99.107578
1803.000000	99.098026
1802.000000	99.090729
1801.000000	99.088129
1800.000000	99.085357
1799.000000	99.079583
1798.000000	99.072617
1797.000000	99.069956
1796.000000	99.076439
1795.000000	99.088305
1794.000000	99.094228
1793.000000	99.090045
1792.000000	99.081847
1791.000000	99.079219
1790.000000	99.084586
1789.000000	99.091141
1788.000000	99.092468
1787.000000	99.090595
1786.000000	99.094083
1785.000000	99.108840
1784.000000	99.131909
1783.000000	99.152194
1782.000000	99.159978
1781.000000	99.161608
1780.000000	99.166630
1779.000000	99.177655
1778.000000	99.189192
1777.000000	99.201774
1776.000000	99.223381
1775.000000	99.250876
1774.000000	99.269928
1773.000000	99.276993
1772.000000	99.278962
1771.000000	99.273572
1770.000000	99.255355
1769.000000	99.224337
1768.000000	99.193862
1767.000000	99.183094
1766.000000	99.193565
1765.000000	99.207325
1764.000000	99.206121
1763.000000	99.188508
1762.000000	99.168490
1761.000000	99.159655
1760.000000	99.158133
1759.000000	99.152066
1758.000000	99.133246
1757.000000	99.112039
1756.000000	99.105945
1755.000000	99.114909
1754.000000	99.123565
1753.000000	99.121479
1752.000000	99.114897
1751.000000	99.114349
1750.000000	99.114465
1749.000000	99.101006
1748.000000	99.079234
1747.000000	99.062363
1746.000000	99.052859
1745.000000	99.046374
1744.000000	99.039800
1743.000000	99.034752
1742.000000	99.028948
1741.000000	99.018197
1740.000000	99.013966
1739.000000	99.039997
1738.000000	99.094143
1737.000000	99.148156
1736.000000	99.177097
1735.000000	99.192162
1734.000000	99.230449
1733.000000	99.276542
1732.000000	99.289544
1731.000000	99.270053
1730.000000	99.243242
1729.000000	99.228808
1728.000000	99.230639
1727.000000	99.238948
1726.000000	99.244926
1725.000000	99.246775
1724.000000	99.244157
1723.000000	99.243480
1722.000000	99.250589
1721.000000	99.262622
1720.000000	99.271314
1719.000000	99.275877
1718.000000	99.282816
1717.000000	99.274306
1716.000000	99.229768
1715.000000	99.164112
1714.000000	99.101426
1713.000000	99.050367
1712.000000	99.008108
1711.000000	98.971072
1710.000000	98.937493
1709.000000	98.903586
1708.000000	98.859462
1707.000000	98.797404
1706.000000	98.729348
1705.000000	98.679829
1704.000000	98.660288
1703.000000	98.647052
1702.000000	98.593250
1701.000000	98.490090
1700.000000	98.409846
1699.000000	98.397215
1698.000000	98.393233
1697.000000	98.324147
1696.000000	98.181262
1695.000000	98.034776
1694.000000	97.932926
1693.000000	97.853260
1692.000000	97.772469
1691.000000	97.690310
1690.000000	97.615964
1689.000000	97.561735
1688.000000	97.534807
1687.000000	97.519042
1686.000000	97.473105
1685.000000	97.360544
1684.000000	97.199800
1683.000000	97.048215
1682.000000	96.928429
1681.000000	96.817736
1680.000000	96.710778
1679.000000	96.616373
1678.000000	96.524731
1677.000000	96.406477
1676.000000	96.252432
1675.000000	96.100720
1674.000000	95.987936
1673.000000	95.898899
1672.000000	95.796444
1671.000000	95.666790
1670.000000	95.514157
1669.000000	95.352891
1668.000000	95.205365
1667.000000	95.083866
1666.000000	94.977832
1665.000000	94.863632
1664.000000	94.727094
1663.000000	94.583291
1662.000000	94.453826
1661.000000	94.341266
1660.000000	94.235102
1659.000000	94.135481
1658.000000	94.056938
1657.000000	94.011855
1656.000000	93.991348
1655.000000	93.963450
1654.000000	93.909187
1653.000000	93.841136
1652.000000	93.776917
1651.000000	93.720389
1650.000000	93.659311
1649.000000	93.602985
1648.000000	93.556831
1647.000000	93.519799
1646.000000	93.486731
1645.000000	93.452435
1644.000000	93.412816
1643.000000	93.372009
1642.000000	93.336873
1641.000000	93.312645
1640.000000	93.301594
1639.000000	93.302715
1638.000000	93.308055
1637.000000	93.302375
1636.000000	93.278209
1635.000000	93.240098
1634.000000	93.207117
1633.000000	93.181539
1632.000000	93.160582
1631.000000	93.148429
1630.000000	93.151039
1629.000000	93.174341
1628.000000	93.219701
1627.000000	93.277522
1626.000000	93.333778
1625.000000	93.386770
1624.000000	93.449737
1623.000000	93.535237
1622.000000	93.632698
1621.000000	93.729408
1620.000000	93.827383
1619.000000	93.933837
1618.000000	94.055939
1617.000000	94.198126
1616.000000	94.341834
1615.000000	94.455340
1614.000000	94.539207
1613.000000	94.617353
1612.000000	94.708339
1611.000000	94.812914
1610.000000	94.918813
1609.000000	95.020086
1608.000000	95.120795
1607.000000	95.220944
1606.000000	95.313066
1605.000000	95.399079
1604.000000	95.486174
1603.000000	95.572904
1602.000000	95.650854
1601.000000	95.717347
1600.000000	95.776109
1599.000000	95.827211
1598.000000	95.869320
1597.000000	95.907416
1596.000000	95.947807
1595.000000	95.988142
1594.000000	96.020723
1593.000000	96.044807
1592.000000	96.063778
1591.000000	96.074391
1590.000000	96.070227
1589.000000	96.054368
1588.000000	96.034796
1587.000000	96.010159
1586.000000	95.971625
1585.000000	95.917893
1584.000000	95.857488
1583.000000	95.790908
1582.000000	95.716251
1581.000000	95.644472
1580.000000	95.593163
1579.000000	95.562395
1578.000000	95.534565
1577.000000	95.494225
1576.000000	95.445228
1575.000000	95.395048
1574.000000	95.345136
1573.000000	95.301238
1572.000000	95.264713
1571.000000	95.231701
1570.000000	95.203190
1569.000000	95.182022
1568.000000	95.165460
1567.000000	95.138792
1566.000000	95.095264
1565.000000	95.050446
1564.000000	95.028680
1563.000000	95.029957
1562.000000	95.029036
1561.000000	94.992597
1560.000000	94.927231
1559.000000	94.866701
1558.000000	94.779307
1557.000000	94.686525
1556.000000	94.589999
1555.000000	94.477152
1554.000000	94.357495
1553.000000	94.252032
1552.000000	94.161245
1551.000000	94.074916
1550.000000	93.994080
1549.000000	93.923510
1548.000000	93.860442
1547.000000	93.791076
1546.000000	93.714255
1545.000000	93.648553
1544.000000	93.607253
1543.000000	93.581226
1542.000000	93.561508
1541.000000	93.549902
1540.000000	93.549918
1539.000000	93.551582
1538.000000	93.552210
1537.000000	93.550676
1536.000000	93.555253
1535.000000	93.584603
1534.000000	93.663592
1533.000000	93.784735
1532.000000	93.893023
1531.000000	93.965831
1530.000000	94.019303
1529.000000	94.073936
1528.000000	94.143067
1527.000000	94.229334
1526.000000	94.326962
1525.000000	94.425553
1524.000000	94.512833
1523.000000	94.585315
1522.000000	94.652629
1521.000000	94.714463
1520.000000	94.753533
1519.000000	94.767606
1518.000000	94.775556
1517.000000	94.800087
1516.000000	94.842679
1515.000000	94.886957
1514.000000	94.922297
1513.000000	94.954465
1512.000000	94.995953
1511.000000	95.055809
1510.000000	95.131728
1509.000000	95.219931
1508.000000	95.320913
1507.000000	95.421856
1506.000000	95.482962
1505.000000	95.510791
1504.000000	95.518773
1503.000000	95.515861
1502.000000	95.516803
1501.000000	95.529099
1500.000000	95.553733
1499.000000	95.586725
1498.000000	95.622284
1497.000000	95.650292
1496.000000	95.664033
1495.000000	95.670841
1494.000000	95.676254
1493.000000	95.678173
1492.000000	95.677056
1491.000000	95.684337
1490.000000	95.703398
1489.000000	95.710249
1488.000000	95.689298
1487.000000	95.655698
1486.000000	95.621271
1485.000000	95.583839
1484.000000	95.540817
1483.000000	95.488691
1482.000000	95.429356
1481.000000	95.364973
1480.000000	95.296465
1479.000000	95.220881
1478.000000	95.136316
1477.000000	95.048699
1476.000000	94.968596
1475.000000	94.897248
1474.000000	94.816742
1473.000000	94.712626
1472.000000	94.593510
1471.000000	94.486043
1470.000000	94.398320
1469.000000	94.320510
1468.000000	94.246201
1467.000000	94.173729
1466.000000	94.097724
1465.000000	94.017778
1464.000000	93.944577
1463.000000	93.887660
1462.000000	93.844702
1461.000000	93.807961
1460.000000	93.773650
1459.000000	93.730961
1458.000000	93.663980
1457.000000	93.573164
1456.000000	93.489053
1455.000000	93.424522
1454.000000	93.361798
1453.000000	93.299617
1452.000000	93.247499
1451.000000	93.208331
1450.000000	93.174153
1449.000000	93.137742
1448.000000	93.100598
1447.000000	93.066651
1446.000000	93.033502
1445.000000	93.004140
1444.000000	92.981656
1443.000000	92.965637
1442.000000	92.953085
1441.000000	92.942537
1440.000000	92.930443
1439.000000	92.905533
1438.000000	92.863156
1437.000000	92.821277
1436.000000	92.803789
1435.000000	92.801530
1434.000000	92.792448
1433.000000	92.771067
1432.000000	92.746293
1431.000000	92.724046
1430.000000	92.702631
1429.000000	92.680606
1428.000000	92.661940
1427.000000	92.646137
1426.000000	92.625223
1425.000000	92.604346
1424.000000	92.594839
1423.000000	92.593403
1422.000000	92.584376
1421.000000	92.557914
1420.000000	92.524527
1419.000000	92.504773
1418.000000	92.499691
1417.000000	92.499347
1416.000000	92.501913
1415.000000	92.507623
1414.000000	92.516777
1413.000000	92.534633
1412.000000	92.566230
1411.000000	92.607499
1410.000000	92.649938
1409.000000	92.690047
1408.000000	92.729016
1407.000000	92.767818
1406.000000	92.805688
1405.000000	92.848234
1404.000000	92.898650
1403.000000	92.947843
1402.000000	92.985095
1401.000000	93.013152
1400.000000	93.047302
1399.000000	93.092934
1398.000000	93.138077
1397.000000	93.175947
1396.000000	93.215479
1395.000000	93.265201
1394.000000	93.321233
1393.000000	93.377774
1392.000000	93.429887
1391.000000	93.473638
1390.000000	93.510509
1389.000000	93.549832
1388.000000	93.600163
1387.000000	93.655569
1386.000000	93.701022
1385.000000	93.734831
1384.000000	93.764512
1383.000000	93.793335
1382.000000	93.821802
1381.000000	93.851913
1380.000000	93.887334
1379.000000	93.927517
1378.000000	93.968758
1377.000000	94.010682
1376.000000	94.056837
1375.000000	94.108124
1374.000000	94.161306
1373.000000	94.216256
1372.000000	94.274504
1371.000000	94.333022
1370.000000	94.390031
1369.000000	94.454676
1368.000000	94.532881
1367.000000	94.614587
1366.000000	94.687349
1365.000000	94.754645
1364.000000	94.830975
1363.000000	94.919698
1362.000000	95.005209
1361.000000	95.075444
1360.000000	95.132717
1359.000000	95.181092
1358.000000	95.223034
1357.000000	95.263859
1356.000000	95.306808
1355.000000	95.347254
1354.000000	95.379126
1353.000000	95.402505
1352.000000	95.419549
1351.000000	95.429464
1350.000000	95.430932
1349.000000	95.430282
1348.000000	95.432487
1347.000000	95.433340
1346.000000	95.427120
1345.000000	95.416356
1344.000000	95.405233
1343.000000	95.391488
1342.000000	95.373780
1341.000000	95.360465
1340.000000	95.359250
1339.000000	95.363146
1338.000000	95.362335
1337.000000	95.361517
1336.000000	95.370117
1335.000000	95.387867
1334.000000	95.409097
1333.000000	95.433337
1332.000000	95.463016
1331.000000	95.495864
1330.000000	95.528089
1329.000000	95.561220
1328.000000	95.596752
1327.000000	95.628988
1326.000000	95.651294
1325.000000	95.666389
1324.000000	95.680172
1323.000000	95.692387
1322.000000	95.701717
1321.000000	95.713228
1320.000000	95.731566
1319.000000	95.752275
1318.000000	95.769121
1317.000000	95.784492
1316.000000	95.804242
1315.000000	95.829396
1314.000000	95.860077
1313.000000	95.899080
1312.000000	95.943959
1311.000000	95.983950
1310.000000	96.012665
1309.000000	96.036455
1308.000000	96.063532
1307.000000	96.093639
1306.000000	96.123830
1305.000000	96.156741
1304.000000	96.193424
1303.000000	96.228084
1302.000000	96.257740
1301.000000	96.288693
1300.000000	96.325295
1299.000000	96.361535
1298.000000	96.391734
1297.000000	96.419376
1296.000000	96.447454
1295.000000	96.469580
1294.000000	96.480571
1293.000000	96.485552
1292.000000	96.489921
1291.000000	96.490559
1290.000000	96.485224
1289.000000	96.480134
1288.000000	96.478510
1287.000000	96.472540
1286.000000	96.457266
1285.000000	96.441820
1284.000000	96.435836
1283.000000	96.435540
1282.000000	96.433568
1281.000000	96.433036
1280.000000	96.440394
1279.000000	96.452234
1278.000000	96.461054
1277.000000	96.466864
1276.000000	96.473227
1275.000000	96.478833
1274.000000	96.482753
1273.000000	96.490023
1272.000000	96.502339
1271.000000	96.510751
1270.000000	96.507633
1269.000000	96.498057
1268.000000	96.489846
1267.000000	96.480835
1266.000000	96.466141
1265.000000	96.449019
1264.000000	96.434276
1263.000000	96.418699
1262.000000	96.397510
1261.000000	96.373256
1260.000000	96.349453
1259.000000	96.323425
1258.000000	96.294134
1257.000000	96.267644
1256.000000	96.246746
1255.000000	96.224459
1254.000000	96.195395
1253.000000	96.164340
1252.000000	96.135939
1251.000000	96.105565
1250.000000	96.068817
1249.000000	96.030510
1248.000000	95.995585
1247.000000	95.959707
1246.000000	95.918170
1245.000000	95.875249
1244.000000	95.836371
1243.000000	95.799419
1242.000000	95.762471
1241.000000	95.731452
1240.000000	95.711323
1239.000000	95.697583
1238.000000	95.684552
1237.000000	95.675049
1236.000000	95.673635
1235.000000	95.678130
1234.000000	95.685704
1233.000000	95.699341
1232.000000	95.721307
1231.000000	95.748040
1230.000000	95.778273
1229.000000	95.817465
1228.000000	95.866664
1227.000000	95.917521
1226.000000	95.965789
1225.000000	96.019353
1224.000000	96.084140
1223.000000	96.151998
1222.000000	96.212288
1221.000000	96.265299
1220.000000	96.314926
1219.000000	96.358309
1218.000000	96.393276
1217.000000	96.425722
1216.000000	96.458785
1215.000000	96.484109
1214.000000	96.493662
1213.000000	96.492031
1212.000000	96.486988
1211.000000	96.477443
1210.000000	96.460597
1209.000000	96.441392
1208.000000	96.425168
1207.000000	96.409200
1206.000000	96.390508
1205.000000	96.373915
1204.000000	96.364199
1203.000000	96.358897
1202.000000	96.356681
1201.000000	96.363938
1200.000000	96.384691
1199.000000	96.413569
1198.000000	96.445985
1197.000000	96.485311
1196.000000	96.532207
1195.000000	96.577243
1194.000000	96.613226
1193.000000	96.644786
1192.000000	96.677681
1191.000000	96.709183
1190.000000	96.737128
1189.000000	96.766945
1188.000000	96.800777
1187.000000	96.830746
1186.000000	96.851688
1185.000000	96.869643
1184.000000	96.889295
1183.000000	96.905199
1182.000000	96.913834
1181.000000	96.921231
1180.000000	96.929486
1179.000000	96.928892
1178.000000	96.914248
1177.000000	96.895093
1176.000000	96.878955
1175.000000	96.859223
1174.000000	96.830104
1173.000000	96.800027
1172.000000	96.778062
1171.000000	96.759082
1170.000000	96.734435
1169.000000	96.705760
1168.000000	96.677030
1167.000000	96.644605
1166.000000	96.606200
1165.000000	96.568504
1164.000000	96.535388
1163.000000	96.500572
1162.000000	96.461867
1161.000000	96.429498
1160.000000	96.409556
1159.000000	96.392872
1158.000000	96.372161
1157.000000	96.355704
1156.000000	96.351386
1155.000000	96.351064
1154.000000	96.345411
1153.000000	96.341678
1152.000000	96.351114
1151.000000	96.370286
1150.000000	96.389439
1149.000000	96.408833
1148.000000	96.431800
1147.000000	96.451703
1146.000000	96.460867
1145.000000	96.463872
1144.000000	96.468764
1143.000000	96.473681
1142.000000	96.473887
1141.000000	96.472486
1140.000000	96.472899
1139.000000	96.470692
1138.000000	96.463087
1137.000000	96.456240
1136.000000	96.453061
1135.000000	96.445208
1134.000000	96.427299
1133.000000	96.406864
1132.000000	96.390510
1131.000000	96.372585
1130.000000	96.347088
1129.000000	96.317416
1128.000000	96.284211
1127.000000	96.238824
1126.000000	96.180322
1125.000000	96.123979
1124.000000	96.080536
1123.000000	96.040714
1122.000000	95.992569
1121.000000	95.940506
1120.000000	95.894232
1119.000000	95.852262
1118.000000	95.808830
1117.000000	95.764795
1116.000000	95.720085
1115.000000	95.668491
1114.000000	95.610628
1113.000000	95.558666
1112.000000	95.518044
1111.000000	95.479577
1110.000000	95.439872
1109.000000	95.411877
1108.000000	95.402190
1107.000000	95.395024
1106.000000	95.373400
1105.000000	95.341122
1104.000000	95.309877
1103.000000	95.280388
1102.000000	95.250867
1101.000000	95.228301
1100.000000	95.215567
1099.000000	95.201997
1098.000000	95.179997
1097.000000	95.157545
1096.000000	95.140378
1095.000000	95.117362
1094.000000	95.077934
1093.000000	95.029391
1092.000000	94.982230
1091.000000	94.934114
1090.000000	94.881999
1089.000000	94.834366
1088.000000	94.795469
1087.000000	94.752413
1086.000000	94.693697
1085.000000	94.627204
1084.000000	94.565945
1083.000000	94.510465
1082.000000	94.460075
1081.000000	94.425182
1080.000000	94.412256
1079.000000	94.409687
1078.000000	94.405323
1077.000000	94.405735
1076.000000	94.422348
1075.000000	94.451885
1074.000000	94.484819
1073.000000	94.520326
1072.000000	94.558423
1071.000000	94.590203
1070.000000	94.610196
1069.000000	94.626130
1068.000000	94.643652
1067.000000	94.655096
1066.000000	94.655322
1065.000000	94.653701
1064.000000	94.657142
1063.000000	94.656965
1062.000000	94.645284
1061.000000	94.629981
1060.000000	94.620717
1059.000000	94.615062
1058.000000	94.609707
1057.000000	94.608362
1056.000000	94.607440
1055.000000	94.591805
1054.000000	94.558486
1053.000000	94.526729
1052.000000	94.511125
1051.000000	94.501902
1050.000000	94.486079
1049.000000	94.467974
1048.000000	94.453813
1047.000000	94.437433
1046.000000	94.416888
1045.000000	94.404124
1044.000000	94.402514
1043.000000	94.395074
1042.000000	94.369540
1041.000000	94.336797
1040.000000	94.309377
1039.000000	94.281644
1038.000000	94.245917
1037.000000	94.208324
1036.000000	94.172536
1035.000000	94.128169
1034.000000	94.072268
1033.000000	94.022807
1032.000000	93.993743
1031.000000	93.975438
1030.000000	93.956910
1029.000000	93.947577
1028.000000	93.958579
1027.000000	93.981370
1026.000000	94.004566
1025.000000	94.033081
1024.000000	94.071522
1023.000000	94.105978
1022.000000	94.123592
1021.000000	94.134599
1020.000000	94.155078
1019.000000	94.183459
1018.000000	94.211335
1017.000000	94.242239
1016.000000	94.281575
1015.000000	94.323847
1014.000000	94.366333
1013.000000	94.419110
1012.000000	94.485164
1011.000000	94.548904
1010.000000	94.600420
1009.000000	94.653182
1008.000000	94.720140
1007.000000	94.791316
1006.000000	94.854352
1005.000000	94.918137
1004.000000	94.996309
1003.000000	95.082483
1002.000000	95.162152
1001.000000	95.234876
1000.000000	95.307225
999.000000	95.377675
998.000000	95.445450
997.000000	95.520053
996.000000	95.606500
995.000000	95.694929
994.000000	95.778150
993.000000	95.863360
992.000000	95.953364
991.000000	96.035809
990.000000	96.105194
989.000000	96.176114
988.000000	96.257892
987.000000	96.337011
986.000000	96.400542
985.000000	96.457383
984.000000	96.518199
983.000000	96.575057
982.000000	96.620115
981.000000	96.663982
980.000000	96.715966
979.000000	96.764190
978.000000	96.795868
977.000000	96.819611
976.000000	96.849360
975.000000	96.882984
974.000000	96.915317
973.000000	96.954285
972.000000	97.005835
971.000000	97.059761
970.000000	97.107901
969.000000	97.158914
968.000000	97.218308
967.000000	97.273265
966.000000	97.314775
965.000000	97.356079
964.000000	97.409789
963.000000	97.466176
962.000000	97.512213
961.000000	97.554581
960.000000	97.604654
959.000000	97.658457
958.000000	97.708936
957.000000	97.760088
956.000000	97.812196
955.000000	97.852512
954.000000	97.878265
953.000000	97.908473
952.000000	97.955805
951.000000	98.005991
950.000000	98.043105
949.000000	98.073558
948.000000	98.107309
947.000000	98.136911
946.000000	98.155489
945.000000	98.174619
944.000000	98.204059
943.000000	98.232755
942.000000	98.248724
941.000000	98.259300
940.000000	98.273856
939.000000	98.287773
938.000000	98.300306
937.000000	98.326371
936.000000	98.371028
935.000000	98.415057
934.000000	98.444408
933.000000	98.472020
932.000000	98.510393
931.000000	98.546910
930.000000	98.569119
929.000000	98.590466
928.000000	98.626909
927.000000	98.667684
926.000000	98.694269
925.000000	98.709169
924.000000	98.724331
923.000000	98.738568
922.000000	98.748023
921.000000	98.760661
920.000000	98.780222
919.000000	98.794598
918.000000	98.799384
917.000000	98.812608
916.000000	98.845726
915.000000	98.881335
914.000000	98.899692
913.000000	98.907846
912.000000	98.920873
911.000000	98.936104
910.000000	98.947300
909.000000	98.963906
908.000000	98.993401
907.000000	99.023830
906.000000	99.044571
905.000000	99.064410
904.000000	99.089674
903.000000	99.106374
902.000000	99.105873
901.000000	99.105405
900.000000	99.121823
899.000000	99.145912
898.000000	99.164810
897.000000	99.185989
896.000000	99.216703
895.000000	99.242455
894.000000	99.250722
893.000000	99.255140
892.000000	99.272037
891.000000	99.293369
890.000000	99.303484
889.000000	99.301402
888.000000	99.284192
887.000000	99.231323
886.000000	99.130021
885.000000	98.995281
884.000000	98.840438
883.000000	98.649760
882.000000	98.399958
881.000000	98.090023
880.000000	97.730481
879.000000	97.329006
878.000000	96.908805
877.000000	96.515754
876.000000	96.186386
875.000000	95.932060
874.000000	95.774790
873.000000	95.763319
872.000000	95.927478
871.000000	96.233939
870.000000	96.612647
869.000000	97.007138
868.000000	97.377990
867.000000	97.690929
866.000000	97.934054
865.000000	98.128675
864.000000	98.295195
863.000000	98.427637
862.000000	98.519177
861.000000	98.587480
860.000000	98.650217
859.000000	98.701546
858.000000	98.736999
857.000000	98.774690
856.000000	98.827027
855.000000	98.877325
854.000000	98.908916
853.000000	98.931481
852.000000	98.954429
851.000000	98.962088
850.000000	98.943419
849.000000	98.919804
848.000000	98.917109
847.000000	98.933302
846.000000	98.957693
845.000000	98.994995
844.000000	99.045354
843.000000	99.087918
842.000000	99.110898
841.000000	99.132456
840.000000	99.167083
839.000000	99.199017
838.000000	99.212827
837.000000	99.222210
836.000000	99.241625
835.000000	99.258818
834.000000	99.261592
833.000000	99.263710
832.000000	99.276495
831.000000	99.283140
830.000000	99.269670
829.000000	99.253943
828.000000	99.255434
827.000000	99.263417
826.000000	99.263175
825.000000	99.262621
824.000000	99.264635
823.000000	99.248658
822.000000	99.211795
821.000000	99.189027
820.000000	99.200572
819.000000	99.217094
818.000000	99.208883
817.000000	99.192154
816.000000	99.193142
815.000000	99.201591
814.000000	99.195571
813.000000	99.183276
812.000000	99.183121
811.000000	99.188233
810.000000	99.184649
809.000000	99.181097
808.000000	99.188577
807.000000	99.194117
806.000000	99.184829
805.000000	99.174131
804.000000	99.175590
803.000000	99.175631
802.000000	99.160011
801.000000	99.141195
800.000000	99.132428
799.000000	99.121474
798.000000	99.097356
797.000000	99.075111
796.000000	99.067327
795.000000	99.060185
794.000000	99.043825
793.000000	99.035781
792.000000	99.047033
791.000000	99.055273
790.000000	99.040651
789.000000	99.019503
788.000000	99.014645
787.000000	99.020043
786.000000	99.021438
785.000000	99.024695
784.000000	99.037566
783.000000	99.049123
782.000000	99.051940
781.000000	99.058941
780.000000	99.075999
779.000000	99.085597
778.000000	99.079937
777.000000	99.081697
776.000000	99.108816
775.000000	99.146870
774.000000	99.177851
773.000000	99.206382
772.000000	99.235396
771.000000	99.248405
770.000000	99.240459
769.000000	99.235775
768.000000	99.250162
767.000000	99.265854
766.000000	99.265667
765.000000	99.260191
764.000000	99.259322
763.000000	99.250826
762.000000	99.230902
761.000000	99.220516
760.000000	99.227452
759.000000	99.227819
758.000000	99.210843
757.000000	99.204233
756.000000	99.227097
755.000000	99.254414
754.000000	99.258447
753.000000	99.250888
752.000000	99.253173
751.000000	99.259475
750.000000	99.258933
749.000000	99.262090
748.000000	99.274589
747.000000	99.277063
746.000000	99.259578
745.000000	99.244292
744.000000	99.246694
743.000000	99.249065
742.000000	99.238889
741.000000	99.235922
740.000000	99.252794
739.000000	99.266536
738.000000	99.260091
737.000000	99.253410
736.000000	99.262961
735.000000	99.267928
734.000000	99.249985
733.000000	99.228368
732.000000	99.223014
731.000000	99.220023
730.000000	99.205858
729.000000	99.195739
728.000000	99.197189
727.000000	99.186091
726.000000	99.150400
725.000000	99.120184
724.000000	99.117690
723.000000	99.117630
722.000000	99.092601
721.000000	99.060977
720.000000	99.050703
719.000000	99.049833
718.000000	99.030464
717.000000	98.980815
716.000000	98.877351
715.000000	98.677664
714.000000	98.396751
713.000000	98.149871
712.000000	98.061815
711.000000	98.150282
710.000000	98.337973
709.000000	98.543204
708.000000	98.714893
707.000000	98.819374
706.000000	98.851381
705.000000	98.848304
704.000000	98.851361
703.000000	98.860892
702.000000	98.859534
701.000000	98.854972
700.000000	98.862353
699.000000	98.875349
698.000000	98.885065
697.000000	98.904000
696.000000	98.940135
695.000000	98.971956
694.000000	98.984923
693.000000	98.999478
692.000000	99.028426
691.000000	99.046787
690.000000	99.034525
689.000000	99.013665
688.000000	99.007363
687.000000	98.996452
686.000000	98.965364
685.000000	98.944116
684.000000	98.958420
683.000000	98.982739
682.000000	98.985907
681.000000	98.980352
680.000000	98.983397
679.000000	98.975140
678.000000	98.939264
677.000000	98.898222
676.000000	98.876001
675.000000	98.856676
674.000000	98.820444
673.000000	98.786274
672.000000	98.781243
671.000000	98.804266
670.000000	98.853767
669.000000	98.945910
668.000000	99.015353
667.000000	98.949641
666.000000	98.853253
665.000000	98.803199
664.000000	98.790400
663.000000	98.789148
662.000000	98.784006
661.000000	98.792270
660.000000	98.830654
659.000000	98.878055
658.000000	98.906319
657.000000	98.917181
656.000000	98.929274
655.000000	98.942256
654.000000	98.944507
653.000000	98.941097
652.000000	98.945532
651.000000	98.955756
650.000000	98.966474
649.000000	98.985765
648.000000	99.015004
647.000000	99.032733
646.000000	99.023662
645.000000	99.006613
644.000000	99.002205
643.000000	98.999729
642.000000	98.987293
641.000000	98.980324
640.000000	98.989209
639.000000	98.992502
638.000000	98.974172
637.000000	98.955654
636.000000	98.959475
635.000000	98.968605
634.000000	98.962232
633.000000	98.957994
632.000000	98.976705
631.000000	98.999693
630.000000	99.001544
629.000000	98.993351
628.000000	98.994736
627.000000	98.994877
626.000000	98.977628
625.000000	98.959852
624.000000	98.960157
623.000000	98.961821
622.000000	98.948224
621.000000	98.941017
620.000000	98.959229
619.000000	98.977756
618.000000	98.970877
617.000000	98.962727
616.000000	98.984554
615.000000	99.016539
614.000000	99.023235
613.000000	99.010740
612.000000	99.002456
611.000000	98.992122
610.000000	98.968632
609.000000	98.952138
608.000000	98.960513
607.000000	98.971501
606.000000	98.963173
605.000000	98.959495
604.000000	98.985322
603.000000	99.013017
602.000000	99.005538
601.000000	98.976494
600.000000	98.958373
599.000000	98.950675
598.000000	98.947114
597.000000	98.972634
596.000000	99.039044
595.000000	99.103975
594.000000	99.124981
593.000000	99.122799
592.000000	99.139718
591.000000	99.169626
590.000000	99.182711
589.000000	99.182883
588.000000	99.188771
587.000000	99.193155
586.000000	99.187381
585.000000	99.189132
584.000000	99.206361
583.000000	99.210348
582.000000	99.186442
581.000000	99.165597
580.000000	99.167351
579.000000	99.161355
578.000000	99.130056
577.000000	99.113216
576.000000	99.142655
575.000000	99.185522
574.000000	99.201684
573.000000	99.203967
572.000000	99.209821
571.000000	99.198270
570.000000	99.160808
569.000000	99.138419
568.000000	99.151951
567.000000	99.156408
566.000000	99.117975
565.000000	99.072665
564.000000	99.057793
563.000000	99.051933
562.000000	99.035453
561.000000	99.042419
560.000000	99.095117
559.000000	99.147987
558.000000	99.158002
557.000000	99.149812
556.000000	99.156823
555.000000	99.162694
554.000000	99.156196
553.000000	99.171120
552.000000	99.213085
551.000000	99.219247
550.000000	99.155957
549.000000	99.088500
548.000000	99.083186
547.000000	99.116723
546.000000	99.145787
545.000000	99.190510
544.000000	99.270367
543.000000	99.333724
542.000000	99.332739
541.000000	99.303968
540.000000	99.298128
539.000000	99.289097
538.000000	99.228636
537.000000	99.135375
536.000000	99.058327
535.000000	99.001729
534.000000	98.950437
533.000000	98.911383
532.000000	98.879482
531.000000	98.819951
530.000000	98.734574
529.000000	98.678719
528.000000	98.671979
527.000000	98.662897
526.000000	98.629952
525.000000	98.635849
524.000000	98.707733
523.000000	98.772551
522.000000	98.775320
521.000000	98.757124
520.000000	98.758471
519.000000	98.736030
518.000000	98.655601
517.000000	98.586814
516.000000	98.596507
515.000000	98.641649
514.000000	98.665638
513.000000	98.696716
512.000000	98.771346
511.000000	98.846104
510.000000	98.873050
509.000000	98.889134
508.000000	98.944589
507.000000	99.002206
506.000000	98.999751
505.000000	98.952401
504.000000	98.902305
503.000000	98.841686
502.000000	98.767079
501.000000	98.739355
500.000000	98.799931
499.000000	98.901270
498.000000	98.984936
497.000000	99.048065
496.000000	99.089242
495.000000	99.069337
494.000000	98.986295
493.000000	98.912726
492.000000	98.890803
491.000000	98.866586
490.000000	98.798995
489.000000	98.735983
488.000000	98.712208
487.000000	98.673791
486.000000	98.573884
485.000000	98.456187
484.000000	98.372322
483.000000	98.299799
482.000000	98.222609
481.000000	98.187105
480.000000	98.203830
479.000000	98.203903
478.000000	98.162263
477.000000	98.148936
476.000000	98.180631
475.000000	98.141998
474.000000	97.955483
473.000000	97.725770
472.000000	97.597698
471.000000	97.554288
470.000000	97.517814
469.000000	97.509905
468.000000	97.562761
467.000000	97.610256
466.000000	97.594845
465.000000	97.581713
464.000000	97.642738
463.000000	97.738857
462.000000	97.814705
461.000000	97.911986
460.000000	98.080487
459.000000	98.271997
458.000000	98.419076
457.000000	98.542441
456.000000	98.675269
455.000000	98.783894
454.000000	98.868715
453.000000	99.039164
452.000000	99.197441
451.000000	99.276251
450.000000	99.286653
