PE IR       SUBTECH     SPECTRUM    ASCII       PEDS        4.00        
   -1
CVT-Veau-F002_1.ASC
23/09/14
10:33:46.00
23/09/14
11:18:22.00
uco
Sample 002 By uco Date Thursday, September 14 2023
450.000000
#HDR
-1
-1
#GR
cm-1
%T
1.0
0.0
4000.000000
-1.000000
3551
8
99.593228
91.566282
#DATA
4000.000000	99.413038
3999.000000	99.412642
3998.000000	99.416541
3997.000000	99.422017
3996.000000	99.425862
3995.000000	99.426386
3994.000000	99.424302
3993.000000	99.421496
3992.000000	99.419161
3991.000000	99.417020
3990.000000	99.414042
3989.000000	99.409794
3988.000000	99.405188
3987.000000	99.402091
3986.000000	99.402038
3985.000000	99.404760
3984.000000	99.407791
3983.000000	99.407998
3982.000000	99.404030
3981.000000	99.397578
3980.000000	99.392084
3979.000000	99.390137
3978.000000	99.391984
3977.000000	99.396140
3976.000000	99.401021
3975.000000	99.405710
3974.000000	99.409521
3973.000000	99.411503
3972.000000	99.410919
3971.000000	99.408050
3970.000000	99.404072
3969.000000	99.400307
3968.000000	99.397656
3967.000000	99.396716
3966.000000	99.397841
3965.000000	99.400625
3964.000000	99.403610
3963.000000	99.405193
3962.000000	99.405180
3961.000000	99.404998
3960.000000	99.406192
3959.000000	99.408820
3958.000000	99.411454
3957.000000	99.412671
3956.000000	99.411998
3955.000000	99.409592
3954.000000	99.405764
3953.000000	99.401196
3952.000000	99.397344
3951.000000	99.395706
3950.000000	99.396274
3949.000000	99.396930
3948.000000	99.395073
3947.000000	99.390144
3946.000000	99.384370
3945.000000	99.380997
3944.000000	99.381637
3943.000000	99.384600
3942.000000	99.386158
3941.000000	99.383416
3940.000000	99.376448
3939.000000	99.368000
3938.000000	99.361443
3937.000000	99.359482
3936.000000	99.363276
3935.000000	99.372003
3934.000000	99.382842
3933.000000	99.391429
3932.000000	99.394428
3931.000000	99.391856
3930.000000	99.386673
3929.000000	99.381893
3928.000000	99.378328
3927.000000	99.375830
3926.000000	99.374726
3925.000000	99.375382
3924.000000	99.376984
3923.000000	99.377620
3922.000000	99.376247
3921.000000	99.374117
3920.000000	99.373539
3919.000000	99.375429
3918.000000	99.378177
3917.000000	99.379322
3916.000000	99.378257
3915.000000	99.376266
3914.000000	99.374620
3913.000000	99.373354
3912.000000	99.371903
3911.000000	99.369973
3910.000000	99.367566
3909.000000	99.364926
3908.000000	99.362588
3907.000000	99.361675
3906.000000	99.363925
3905.000000	99.370635
3904.000000	99.380986
3903.000000	99.391549
3902.000000	99.398274
3901.000000	99.399649
3900.000000	99.396880
3899.000000	99.392097
3898.000000	99.386666
3897.000000	99.380535
3896.000000	99.373477
3895.000000	99.366501
3894.000000	99.361747
3893.000000	99.361724
3892.000000	99.367145
3891.000000	99.375059
3890.000000	99.380380
3889.000000	99.380418
3888.000000	99.376867
3887.000000	99.373888
3886.000000	99.374770
3885.000000	99.379129
3884.000000	99.383035
3883.000000	99.383276
3882.000000	99.379831
3881.000000	99.375532
3880.000000	99.373682
3879.000000	99.374946
3878.000000	99.377466
3877.000000	99.380081
3876.000000	99.383119
3875.000000	99.386848
3874.000000	99.390203
3873.000000	99.391137
3872.000000	99.388453
3871.000000	99.382962
3870.000000	99.377219
3869.000000	99.373235
3868.000000	99.370246
3867.000000	99.366621
3866.000000	99.362569
3865.000000	99.359856
3864.000000	99.360157
3863.000000	99.363186
3862.000000	99.367049
3861.000000	99.370848
3860.000000	99.374944
3859.000000	99.379788
3858.000000	99.384866
3857.000000	99.389108
3856.000000	99.391552
3855.000000	99.391629
3854.000000	99.389848
3853.000000	99.387911
3852.000000	99.385451
3851.000000	99.381146
3850.000000	99.375237
3849.000000	99.368728
3848.000000	99.362683
3847.000000	99.358037
3846.000000	99.354901
3845.000000	99.352485
3844.000000	99.350384
3843.000000	99.349520
3842.000000	99.351223
3841.000000	99.356025
3840.000000	99.363398
3839.000000	99.372778
3838.000000	99.383466
3837.000000	99.393462
3836.000000	99.400438
3835.000000	99.403422
3834.000000	99.402580
3833.000000	99.397933
3832.000000	99.389406
3831.000000	99.378740
3830.000000	99.369687
3829.000000	99.365596
3828.000000	99.366998
3827.000000	99.371649
3826.000000	99.376180
3825.000000	99.378317
3824.000000	99.377510
3823.000000	99.373327
3822.000000	99.365615
3821.000000	99.356837
3820.000000	99.351416
3819.000000	99.351004
3818.000000	99.354058
3817.000000	99.358342
3816.000000	99.361567
3815.000000	99.363303
3814.000000	99.364951
3813.000000	99.367807
3812.000000	99.371434
3811.000000	99.373721
3810.000000	99.372316
3809.000000	99.365718
3808.000000	99.354301
3807.000000	99.340941
3806.000000	99.329777
3805.000000	99.323514
3804.000000	99.323033
3803.000000	99.328658
3802.000000	99.339475
3801.000000	99.352134
3800.000000	99.362409
3799.000000	99.368038
3798.000000	99.369738
3797.000000	99.369582
3796.000000	99.369649
3795.000000	99.370608
3794.000000	99.371665
3793.000000	99.371922
3792.000000	99.371171
3791.000000	99.369375
3790.000000	99.366378
3789.000000	99.362308
3788.000000	99.357875
3787.000000	99.354074
3786.000000	99.351542
3785.000000	99.350605
3784.000000	99.351594
3783.000000	99.354551
3782.000000	99.358233
3781.000000	99.360235
3780.000000	99.358809
3779.000000	99.355039
3778.000000	99.352050
3777.000000	99.351693
3776.000000	99.353463
3775.000000	99.355757
3774.000000	99.357237
3773.000000	99.357360
3772.000000	99.356690
3771.000000	99.356711
3770.000000	99.358628
3769.000000	99.361866
3768.000000	99.363883
3767.000000	99.362653
3766.000000	99.358849
3765.000000	99.355215
3764.000000	99.354166
3763.000000	99.356175
3762.000000	99.360188
3761.000000	99.365425
3760.000000	99.371942
3759.000000	99.379978
3758.000000	99.388163
3757.000000	99.393271
3756.000000	99.392719
3755.000000	99.386639
3754.000000	99.378633
3753.000000	99.374617
3752.000000	99.378860
3751.000000	99.389071
3750.000000	99.397462
3749.000000	99.399751
3748.000000	99.398108
3747.000000	99.394938
3746.000000	99.389494
3745.000000	99.380510
3744.000000	99.372550
3743.000000	99.372077
3742.000000	99.379310
3741.000000	99.390759
3740.000000	99.402981
3739.000000	99.413271
3738.000000	99.419316
3737.000000	99.420077
3736.000000	99.418138
3735.000000	99.418485
3734.000000	99.423197
3733.000000	99.427966
3732.000000	99.427302
3731.000000	99.420166
3730.000000	99.409002
3729.000000	99.397223
3728.000000	99.388284
3727.000000	99.384812
3726.000000	99.386593
3725.000000	99.390158
3724.000000	99.392080
3723.000000	99.391843
3722.000000	99.391031
3721.000000	99.390504
3720.000000	99.389636
3719.000000	99.388250
3718.000000	99.387291
3717.000000	99.387567
3716.000000	99.389365
3715.000000	99.392242
3714.000000	99.394059
3713.000000	99.390977
3712.000000	99.381524
3711.000000	99.371741
3710.000000	99.369832
3709.000000	99.376884
3708.000000	99.387324
3707.000000	99.395809
3706.000000	99.401094
3705.000000	99.404303
3704.000000	99.406063
3703.000000	99.405920
3702.000000	99.403811
3701.000000	99.401394
3700.000000	99.399999
3699.000000	99.398934
3698.000000	99.396874
3697.000000	99.393270
3696.000000	99.388801
3695.000000	99.384796
3694.000000	99.382730
3693.000000	99.383893
3692.000000	99.388621
3691.000000	99.395086
3690.000000	99.399096
3689.000000	99.396985
3688.000000	99.389465
3687.000000	99.380470
3686.000000	99.372802
3685.000000	99.367230
3684.000000	99.363901
3683.000000	99.363051
3682.000000	99.364079
3681.000000	99.365123
3680.000000	99.364200
3679.000000	99.361032
3678.000000	99.357788
3677.000000	99.357569
3676.000000	99.361115
3675.000000	99.365733
3674.000000	99.367470
3673.000000	99.363733
3672.000000	99.354423
3671.000000	99.340746
3670.000000	99.326041
3669.000000	99.316123
3668.000000	99.313354
3667.000000	99.314576
3666.000000	99.316221
3665.000000	99.316884
3664.000000	99.316859
3663.000000	99.316533
3662.000000	99.315416
3661.000000	99.312773
3660.000000	99.309085
3659.000000	99.305962
3658.000000	99.304543
3657.000000	99.304037
3656.000000	99.302588
3655.000000	99.299482
3654.000000	99.296068
3653.000000	99.294289
3652.000000	99.295067
3651.000000	99.296617
3650.000000	99.293123
3649.000000	99.279035
3648.000000	99.257677
3647.000000	99.239653
3646.000000	99.230950
3645.000000	99.229350
3644.000000	99.229628
3643.000000	99.228362
3642.000000	99.224968
3641.000000	99.220338
3640.000000	99.214745
3639.000000	99.207489
3638.000000	99.199063
3637.000000	99.191743
3636.000000	99.187627
3635.000000	99.186882
3634.000000	99.188838
3633.000000	99.194343
3632.000000	99.205156
3631.000000	99.219747
3630.000000	99.229410
3629.000000	99.222265
3628.000000	99.199098
3627.000000	99.174370
3626.000000	99.157613
3625.000000	99.149362
3624.000000	99.147324
3623.000000	99.149959
3622.000000	99.155791
3621.000000	99.160631
3620.000000	99.157195
3619.000000	99.141837
3618.000000	99.121005
3617.000000	99.105510
3616.000000	99.100345
3615.000000	99.102093
3614.000000	99.102690
3613.000000	99.096187
3612.000000	99.084097
3611.000000	99.072321
3610.000000	99.064009
3609.000000	99.056901
3608.000000	99.047306
3607.000000	99.035546
3606.000000	99.025491
3605.000000	99.020014
3604.000000	99.018459
3603.000000	99.017380
3602.000000	99.012749
3601.000000	99.002700
3600.000000	98.989524
3599.000000	98.978748
3598.000000	98.975046
3597.000000	98.977960
3596.000000	98.981701
3595.000000	98.979123
3594.000000	98.968803
3593.000000	98.956837
3592.000000	98.950597
3591.000000	98.951732
3590.000000	98.955276
3589.000000	98.953053
3588.000000	98.939166
3587.000000	98.915150
3586.000000	98.888819
3585.000000	98.866314
3584.000000	98.849144
3583.000000	98.836674
3582.000000	98.827843
3581.000000	98.820922
3580.000000	98.814254
3579.000000	98.807408
3578.000000	98.801534
3577.000000	98.797951
3576.000000	98.796633
3575.000000	98.796152
3574.000000	98.794908
3573.000000	98.792483
3572.000000	98.789183
3571.000000	98.784671
3570.000000	98.777233
3569.000000	98.764463
3568.000000	98.744792
3567.000000	98.720210
3566.000000	98.697064
3565.000000	98.681397
3564.000000	98.673614
3563.000000	98.669627
3562.000000	98.665145
3561.000000	98.658799
3560.000000	98.651926
3559.000000	98.645647
3558.000000	98.638598
3557.000000	98.628467
3556.000000	98.614625
3555.000000	98.598200
3554.000000	98.580249
3553.000000	98.561564
3552.000000	98.544277
3551.000000	98.531428
3550.000000	98.524066
3549.000000	98.520053
3548.000000	98.515906
3547.000000	98.508927
3546.000000	98.497921
3545.000000	98.483355
3544.000000	98.467582
3543.000000	98.453866
3542.000000	98.444327
3541.000000	98.438525
3540.000000	98.434031
3539.000000	98.428551
3538.000000	98.421637
3537.000000	98.414448
3536.000000	98.408150
3535.000000	98.402588
3534.000000	98.396754
3533.000000	98.389790
3532.000000	98.381271
3531.000000	98.370836
3530.000000	98.358707
3529.000000	98.347093
3528.000000	98.339919
3527.000000	98.339445
3526.000000	98.342870
3525.000000	98.343348
3524.000000	98.335046
3523.000000	98.317991
3522.000000	98.298239
3521.000000	98.283153
3520.000000	98.276048
3519.000000	98.274329
3518.000000	98.272077
3517.000000	98.264827
3516.000000	98.252994
3515.000000	98.240302
3514.000000	98.229679
3513.000000	98.221114
3512.000000	98.213201
3511.000000	98.205234
3510.000000	98.197354
3509.000000	98.189757
3508.000000	98.182982
3507.000000	98.178487
3506.000000	98.177351
3505.000000	98.178317
3504.000000	98.177704
3503.000000	98.172156
3502.000000	98.161353
3501.000000	98.147495
3500.000000	98.133018
3499.000000	98.119958
3498.000000	98.110568
3497.000000	98.106388
3496.000000	98.105983
3495.000000	98.104717
3494.000000	98.098137
3493.000000	98.085797
3492.000000	98.071239
3491.000000	98.058453
3490.000000	98.048759
3489.000000	98.040886
3488.000000	98.033429
3487.000000	98.026523
3486.000000	98.021122
3485.000000	98.017168
3484.000000	98.013202
3483.000000	98.007656
3482.000000	98.000300
3481.000000	97.991998
3480.000000	97.982984
3479.000000	97.972052
3478.000000	97.957953
3477.000000	97.941325
3476.000000	97.924591
3475.000000	97.909985
3474.000000	97.898134
3473.000000	97.888848
3472.000000	97.882434
3471.000000	97.879333
3470.000000	97.878762
3469.000000	97.878635
3468.000000	97.877039
3467.000000	97.873413
3466.000000	97.868166
3465.000000	97.861671
3464.000000	97.853889
3463.000000	97.844433
3462.000000	97.832713
3461.000000	97.818458
3460.000000	97.802816
3459.000000	97.788778
3458.000000	97.779550
3457.000000	97.775870
3456.000000	97.774994
3455.000000	97.772796
3454.000000	97.767359
3453.000000	97.759960
3452.000000	97.752508
3451.000000	97.744649
3450.000000	97.734502
3449.000000	97.722226
3448.000000	97.711520
3447.000000	97.706373
3446.000000	97.706494
3445.000000	97.707210
3444.000000	97.703632
3443.000000	97.693972
3442.000000	97.679668
3441.000000	97.664133
3440.000000	97.651363
3439.000000	97.644063
3438.000000	97.641735
3437.000000	97.640755
3436.000000	97.637284
3435.000000	97.630322
3434.000000	97.621869
3433.000000	97.614115
3432.000000	97.607051
3431.000000	97.598935
3430.000000	97.588752
3429.000000	97.577648
3428.000000	97.567522
3427.000000	97.558651
3426.000000	97.549487
3425.000000	97.538895
3424.000000	97.527846
3423.000000	97.518487
3422.000000	97.512180
3421.000000	97.508789
3420.000000	97.507080
3419.000000	97.504949
3418.000000	97.500009
3417.000000	97.491425
3416.000000	97.481419
3415.000000	97.473988
3414.000000	97.471471
3413.000000	97.472522
3412.000000	97.473371
3411.000000	97.470461
3410.000000	97.462023
3409.000000	97.448459
3408.000000	97.432303
3407.000000	97.417468
3406.000000	97.407363
3405.000000	97.402857
3404.000000	97.401797
3403.000000	97.400590
3402.000000	97.396938
3401.000000	97.391459
3400.000000	97.386744
3399.000000	97.384373
3398.000000	97.382767
3397.000000	97.378501
3396.000000	97.370096
3395.000000	97.360245
3394.000000	97.353798
3393.000000	97.353415
3392.000000	97.357000
3391.000000	97.359257
3390.000000	97.355659
3389.000000	97.345233
3388.000000	97.330627
3387.000000	97.316240
3386.000000	97.305787
3385.000000	97.300299
3384.000000	97.297707
3383.000000	97.294632
3382.000000	97.289325
3381.000000	97.283036
3380.000000	97.278403
3379.000000	97.276476
3378.000000	97.275524
3377.000000	97.272691
3376.000000	97.266555
3375.000000	97.258221
3374.000000	97.250265
3373.000000	97.244664
3372.000000	97.241198
3371.000000	97.237632
3370.000000	97.231699
3369.000000	97.223190
3368.000000	97.213874
3367.000000	97.205181
3366.000000	97.196346
3365.000000	97.185438
3364.000000	97.172074
3363.000000	97.158530
3362.000000	97.147809
3361.000000	97.140549
3360.000000	97.133982
3359.000000	97.124289
3358.000000	97.110384
3357.000000	97.095389
3356.000000	97.083919
3355.000000	97.077673
3354.000000	97.073930
3353.000000	97.068509
3352.000000	97.059732
3351.000000	97.049284
3350.000000	97.039789
3349.000000	97.032163
3348.000000	97.025039
3347.000000	97.016113
3346.000000	97.003998
3345.000000	96.989247
3344.000000	96.974144
3343.000000	96.961512
3342.000000	96.953269
3341.000000	96.949308
3340.000000	96.947095
3339.000000	96.942873
3338.000000	96.934381
3337.000000	96.922775
3336.000000	96.911168
3335.000000	96.901071
3334.000000	96.891095
3333.000000	96.879527
3332.000000	96.866879
3331.000000	96.854788
3330.000000	96.843433
3329.000000	96.831540
3328.000000	96.818744
3327.000000	96.806588
3326.000000	96.796749
3325.000000	96.788935
3324.000000	96.780914
3323.000000	96.770296
3322.000000	96.756470
3321.000000	96.741447
3320.000000	96.728565
3319.000000	96.719514
3318.000000	96.712676
3317.000000	96.705192
3316.000000	96.696695
3315.000000	96.689876
3314.000000	96.687092
3313.000000	96.687620
3312.000000	96.688753
3311.000000	96.688362
3310.000000	96.685461
3309.000000	96.679267
3308.000000	96.669491
3307.000000	96.657760
3306.000000	96.647343
3305.000000	96.640695
3304.000000	96.637433
3303.000000	96.634847
3302.000000	96.630321
3301.000000	96.623438
3300.000000	96.616266
3299.000000	96.611720
3298.000000	96.611332
3297.000000	96.614086
3296.000000	96.617364
3295.000000	96.618999
3294.000000	96.618358
3293.000000	96.615797
3292.000000	96.611778
3291.000000	96.606731
3290.000000	96.601268
3289.000000	96.596038
3288.000000	96.591509
3287.000000	96.588198
3286.000000	96.586789
3285.000000	96.587507
3284.000000	96.589587
3283.000000	96.592139
3282.000000	96.595493
3281.000000	96.600845
3280.000000	96.608217
3279.000000	96.615627
3278.000000	96.620778
3277.000000	96.622908
3276.000000	96.622439
3275.000000	96.619660
3274.000000	96.615184
3273.000000	96.611212
3272.000000	96.610744
3271.000000	96.614844
3270.000000	96.621285
3269.000000	96.626273
3268.000000	96.627046
3267.000000	96.623276
3266.000000	96.617289
3265.000000	96.613292
3264.000000	96.614993
3263.000000	96.623027
3262.000000	96.635051
3261.000000	96.648648
3260.000000	96.663182
3259.000000	96.678119
3258.000000	96.690986
3257.000000	96.698871
3256.000000	96.701675
3255.000000	96.702423
3254.000000	96.704094
3253.000000	96.707509
3252.000000	96.712652
3251.000000	96.720305
3250.000000	96.730980
3249.000000	96.742919
3248.000000	96.752768
3247.000000	96.758518
3246.000000	96.760963
3245.000000	96.762017
3244.000000	96.762458
3243.000000	96.762233
3242.000000	96.762444
3241.000000	96.765746
3240.000000	96.774119
3239.000000	96.786727
3238.000000	96.800585
3237.000000	96.813216
3236.000000	96.824227
3235.000000	96.834351
3234.000000	96.843564
3233.000000	96.850470
3232.000000	96.853492
3231.000000	96.852697
3230.000000	96.850513
3229.000000	96.850421
3228.000000	96.854467
3227.000000	96.861777
3226.000000	96.869643
3225.000000	96.875778
3224.000000	96.879443
3223.000000	96.881031
3222.000000	96.881494
3221.000000	96.882204
3220.000000	96.884237
3219.000000	96.887155
3218.000000	96.889071
3217.000000	96.888660
3216.000000	96.887005
3215.000000	96.887217
3214.000000	96.892198
3213.000000	96.902615
3212.000000	96.916420
3211.000000	96.929944
3210.000000	96.940035
3209.000000	96.945922
3208.000000	96.949194
3207.000000	96.951940
3206.000000	96.955154
3205.000000	96.958965
3204.000000	96.963555
3203.000000	96.969292
3202.000000	96.976275
3201.000000	96.984204
3200.000000	96.992351
3199.000000	96.999507
3198.000000	97.004695
3197.000000	97.008702
3196.000000	97.014352
3195.000000	97.024118
3194.000000	97.037539
3193.000000	97.051612
3192.000000	97.063717
3191.000000	97.073583
3190.000000	97.082401
3189.000000	97.090881
3188.000000	97.098531
3187.000000	97.104531
3186.000000	97.108864
3185.000000	97.112728
3184.000000	97.117820
3183.000000	97.125139
3182.000000	97.134395
3181.000000	97.144446
3180.000000	97.154020
3179.000000	97.161962
3178.000000	97.167539
3177.000000	97.171112
3176.000000	97.174195
3175.000000	97.178357
3174.000000	97.184221
3173.000000	97.191810
3172.000000	97.201271
3171.000000	97.212584
3170.000000	97.224932
3169.000000	97.237173
3168.000000	97.248789
3167.000000	97.259751
3166.000000	97.269819
3165.000000	97.279011
3164.000000	97.288549
3163.000000	97.300021
3162.000000	97.313156
3161.000000	97.325382
3160.000000	97.334236
3159.000000	97.339578
3158.000000	97.343156
3157.000000	97.346803
3156.000000	97.351705
3155.000000	97.358621
3154.000000	97.367733
3153.000000	97.378195
3152.000000	97.388439
3151.000000	97.397028
3150.000000	97.403125
3149.000000	97.406458
3148.000000	97.407371
3147.000000	97.407119
3146.000000	97.407897
3145.000000	97.412219
3144.000000	97.421643
3143.000000	97.435334
3142.000000	97.449880
3141.000000	97.461190
3140.000000	97.467477
3139.000000	97.470482
3138.000000	97.473842
3137.000000	97.480092
3136.000000	97.489117
3135.000000	97.498785
3134.000000	97.506933
3133.000000	97.512964
3132.000000	97.517970
3131.000000	97.523032
3130.000000	97.527479
3129.000000	97.529314
3128.000000	97.527786
3127.000000	97.525140
3126.000000	97.525129
3125.000000	97.529682
3124.000000	97.537274
3123.000000	97.544467
3122.000000	97.548667
3121.000000	97.549559
3120.000000	97.548657
3119.000000	97.548259
3118.000000	97.550739
3117.000000	97.557759
3116.000000	97.568858
3115.000000	97.580623
3114.000000	97.588260
3113.000000	97.589005
3112.000000	97.584057
3111.000000	97.576935
3110.000000	97.570325
3109.000000	97.565134
3108.000000	97.561880
3107.000000	97.561352
3106.000000	97.563219
3105.000000	97.565218
3104.000000	97.564897
3103.000000	97.562096
3102.000000	97.558943
3101.000000	97.557518
3100.000000	97.558025
3099.000000	97.559165
3098.000000	97.559541
3097.000000	97.558577
3096.000000	97.556894
3095.000000	97.556344
3094.000000	97.558808
3093.000000	97.563782
3092.000000	97.567450
3091.000000	97.565574
3090.000000	97.558062
3089.000000	97.549714
3088.000000	97.545518
3087.000000	97.545735
3086.000000	97.546758
3085.000000	97.546235
3084.000000	97.545673
3083.000000	97.547730
3082.000000	97.552439
3081.000000	97.557122
3080.000000	97.559103
3079.000000	97.557603
3078.000000	97.553760
3077.000000	97.549942
3076.000000	97.548660
3075.000000	97.550898
3074.000000	97.555259
3073.000000	97.559605
3072.000000	97.563685
3071.000000	97.569395
3070.000000	97.578252
3069.000000	97.589112
3068.000000	97.598698
3067.000000	97.604113
3066.000000	97.604907
3065.000000	97.603217
3064.000000	97.602082
3063.000000	97.603438
3062.000000	97.607440
3061.000000	97.613398
3060.000000	97.620661
3059.000000	97.628397
3058.000000	97.635322
3057.000000	97.640715
3056.000000	97.645605
3055.000000	97.651930
3054.000000	97.660224
3053.000000	97.668859
3052.000000	97.675903
3051.000000	97.681111
3050.000000	97.685579
3049.000000	97.690061
3048.000000	97.694533
3047.000000	97.699507
3046.000000	97.706790
3045.000000	97.717960
3044.000000	97.732128
3043.000000	97.745891
3042.000000	97.755817
3041.000000	97.760967
3040.000000	97.762960
3039.000000	97.764414
3038.000000	97.767715
3037.000000	97.774469
3036.000000	97.784802
3035.000000	97.796897
3034.000000	97.808037
3033.000000	97.816596
3032.000000	97.822695
3031.000000	97.827143
3030.000000	97.830724
3029.000000	97.834702
3028.000000	97.840757
3027.000000	97.849272
3026.000000	97.858235
3025.000000	97.865070
3024.000000	97.869608
3023.000000	97.874257
3022.000000	97.880840
3021.000000	97.887987
3020.000000	97.892312
3019.000000	97.892221
3018.000000	97.890180
3017.000000	97.890849
3016.000000	97.896695
3015.000000	97.905670
3014.000000	97.913359
3013.000000	97.917181
3012.000000	97.917920
3011.000000	97.917747
3010.000000	97.917899
3009.000000	97.918453
3008.000000	97.919108
3007.000000	97.919408
3006.000000	97.918973
3005.000000	97.918215
3004.000000	97.918383
3003.000000	97.920369
3002.000000	97.923887
3001.000000	97.928061
3000.000000	97.932043
2999.000000	97.934732
2998.000000	97.934915
2997.000000	97.932482
2996.000000	97.928730
2995.000000	97.924790
2994.000000	97.920450
2993.000000	97.915184
2992.000000	97.909307
2991.000000	97.903059
2990.000000	97.895475
2989.000000	97.885433
2988.000000	97.873329
2987.000000	97.860568
2986.000000	97.848088
2985.000000	97.836644
2984.000000	97.827761
2983.000000	97.822351
2982.000000	97.818385
2981.000000	97.811676
2980.000000	97.799788
2979.000000	97.784213
2978.000000	97.768507
2977.000000	97.755252
2976.000000	97.744907
2975.000000	97.736255
2974.000000	97.727218
2973.000000	97.716002
2972.000000	97.702094
2971.000000	97.685977
2970.000000	97.668044
2969.000000	97.648451
2968.000000	97.627710
2967.000000	97.606328
2966.000000	97.583738
2965.000000	97.558792
2964.000000	97.531712
2963.000000	97.504804
2962.000000	97.480931
2961.000000	97.461936
2960.000000	97.448533
2959.000000	97.440362
2958.000000	97.435679
2957.000000	97.431857
2956.000000	97.427225
2955.000000	97.422155
2954.000000	97.418324
2953.000000	97.417346
2952.000000	97.419825
2951.000000	97.424516
2950.000000	97.428075
2949.000000	97.427020
2948.000000	97.420856
2947.000000	97.412525
2946.000000	97.404844
2945.000000	97.397035
2944.000000	97.385704
2943.000000	97.368807
2942.000000	97.347638
2941.000000	97.324879
2940.000000	97.301641
2939.000000	97.276857
2938.000000	97.248927
2937.000000	97.217227
2936.000000	97.181874
2935.000000	97.142731
2934.000000	97.099541
2933.000000	97.053013
2932.000000	97.004947
2931.000000	96.956664
2930.000000	96.908046
2929.000000	96.858947
2928.000000	96.811022
2927.000000	96.766824
2926.000000	96.726859
2925.000000	96.688598
2924.000000	96.649059
2923.000000	96.608169
2922.000000	96.569599
2921.000000	96.538572
2920.000000	96.519043
2919.000000	96.512258
2918.000000	96.517992
2917.000000	96.537196
2916.000000	96.572839
2915.000000	96.627223
2914.000000	96.698035
2913.000000	96.777858
2912.000000	96.858010
2911.000000	96.932978
2910.000000	97.001284
2909.000000	97.062944
2908.000000	97.117183
2907.000000	97.162580
2906.000000	97.199122
2905.000000	97.229212
2904.000000	97.256331
2903.000000	97.282525
2902.000000	97.307601
2901.000000	97.330294
2900.000000	97.350183
2899.000000	97.367621
2898.000000	97.383310
2897.000000	97.398458
2896.000000	97.414592
2895.000000	97.432263
2894.000000	97.450347
2893.000000	97.467616
2892.000000	97.484496
2891.000000	97.502127
2890.000000	97.519779
2889.000000	97.534557
2888.000000	97.544010
2887.000000	97.548348
2886.000000	97.549973
2885.000000	97.551587
2884.000000	97.554667
2883.000000	97.558979
2882.000000	97.563298
2881.000000	97.567086
2880.000000	97.571291
2879.000000	97.576752
2878.000000	97.582161
2877.000000	97.584638
2876.000000	97.582473
2875.000000	97.576508
2874.000000	97.569103
2873.000000	97.562761
2872.000000	97.559585
2871.000000	97.560648
2870.000000	97.565283
2869.000000	97.571661
2868.000000	97.578069
2867.000000	97.582942
2866.000000	97.584214
2865.000000	97.580405
2864.000000	97.572369
2863.000000	97.562186
2862.000000	97.549693
2861.000000	97.531797
2860.000000	97.506087
2859.000000	97.473495
2858.000000	97.436575
2857.000000	97.396830
2856.000000	97.354998
2855.000000	97.312338
2854.000000	97.270058
2853.000000	97.228713
2852.000000	97.190599
2851.000000	97.162850
2850.000000	97.155941
2849.000000	97.177884
2848.000000	97.229009
2847.000000	97.301475
2846.000000	97.383096
2845.000000	97.462922
2844.000000	97.535125
2843.000000	97.599115
2842.000000	97.656410
2841.000000	97.707658
2840.000000	97.752608
2839.000000	97.791182
2838.000000	97.823607
2837.000000	97.850207
2836.000000	97.872084
2835.000000	97.891387
2834.000000	97.909645
2833.000000	97.926058
2832.000000	97.938629
2831.000000	97.947210
2830.000000	97.954533
2829.000000	97.964089
2828.000000	97.977419
2827.000000	97.993321
2826.000000	98.009076
2825.000000	98.022301
2824.000000	98.032135
2823.000000	98.038973
2822.000000	98.043368
2821.000000	98.045645
2820.000000	98.046553
2819.000000	98.047396
2818.000000	98.048977
2817.000000	98.051086
2816.000000	98.053594
2815.000000	98.057336
2814.000000	98.063170
2813.000000	98.070760
2812.000000	98.079107
2811.000000	98.087583
2810.000000	98.095422
2809.000000	98.100885
2808.000000	98.102550
2807.000000	98.101455
2806.000000	98.100524
2805.000000	98.101592
2804.000000	98.104019
2803.000000	98.106410
2802.000000	98.108361
2801.000000	98.109985
2800.000000	98.111132
2799.000000	98.112216
2798.000000	98.114942
2797.000000	98.120807
2796.000000	98.129073
2795.000000	98.137366
2794.000000	98.144273
2793.000000	98.150205
2792.000000	98.155598
2791.000000	98.159656
2790.000000	98.161922
2789.000000	98.164185
2788.000000	98.169009
2787.000000	98.176066
2786.000000	98.181368
2785.000000	98.181258
2784.000000	98.176656
2783.000000	98.172344
2782.000000	98.172307
2781.000000	98.176670
2780.000000	98.182989
2779.000000	98.189069
2778.000000	98.193969
2777.000000	98.197514
2776.000000	98.200202
2775.000000	98.203369
2774.000000	98.208384
2773.000000	98.215253
2772.000000	98.222312
2771.000000	98.227399
2770.000000	98.229350
2769.000000	98.228757
2768.000000	98.227648
2767.000000	98.228041
2766.000000	98.230200
2765.000000	98.232345
2764.000000	98.232604
2763.000000	98.231311
2762.000000	98.230857
2761.000000	98.233010
2760.000000	98.236748
2759.000000	98.239236
2758.000000	98.238924
2757.000000	98.237304
2756.000000	98.237354
2755.000000	98.240493
2754.000000	98.245536
2753.000000	98.250525
2752.000000	98.254823
2751.000000	98.258873
2750.000000	98.262595
2749.000000	98.265222
2748.000000	98.266881
2747.000000	98.269222
2746.000000	98.273592
2745.000000	98.278891
2744.000000	98.282064
2743.000000	98.280979
2742.000000	98.276586
2741.000000	98.272163
2740.000000	98.270499
2739.000000	98.271855
2738.000000	98.274521
2737.000000	98.277084
2736.000000	98.279764
2735.000000	98.283442
2734.000000	98.287957
2733.000000	98.292035
2732.000000	98.294812
2731.000000	98.296747
2730.000000	98.298854
2729.000000	98.301544
2728.000000	98.304483
2727.000000	98.307202
2726.000000	98.309505
2725.000000	98.311438
2724.000000	98.313120
2723.000000	98.314553
2722.000000	98.315554
2721.000000	98.316004
2720.000000	98.316158
2719.000000	98.316492
2718.000000	98.317308
2717.000000	98.318741
2716.000000	98.321006
2715.000000	98.324202
2714.000000	98.327873
2713.000000	98.331171
2712.000000	98.333539
2711.000000	98.334964
2710.000000	98.335706
2709.000000	98.336302
2708.000000	98.337700
2707.000000	98.340545
2706.000000	98.344087
2705.000000	98.346520
2704.000000	98.346848
2703.000000	98.345871
2702.000000	98.344804
2701.000000	98.343501
2700.000000	98.340975
2699.000000	98.337628
2698.000000	98.335937
2697.000000	98.338241
2696.000000	98.344080
2695.000000	98.350332
2694.000000	98.354105
2693.000000	98.355029
2692.000000	98.354567
2691.000000	98.353919
2690.000000	98.353588
2689.000000	98.354567
2688.000000	98.358227
2687.000000	98.364182
2686.000000	98.369469
2685.000000	98.371209
2684.000000	98.369555
2683.000000	98.366849
2682.000000	98.364323
2681.000000	98.361195
2680.000000	98.356952
2679.000000	98.352902
2678.000000	98.350725
2677.000000	98.350600
2676.000000	98.351535
2675.000000	98.352855
2674.000000	98.354778
2673.000000	98.358081
2672.000000	98.363622
2671.000000	98.371446
2670.000000	98.379711
2669.000000	98.385096
2668.000000	98.385260
2667.000000	98.380910
2666.000000	98.375021
2665.000000	98.370230
2664.000000	98.367272
2663.000000	98.365466
2662.000000	98.363967
2661.000000	98.362429
2660.000000	98.360891
2659.000000	98.359220
2658.000000	98.356780
2657.000000	98.353000
2656.000000	98.348561
2655.000000	98.345720
2654.000000	98.346900
2653.000000	98.352770
2652.000000	98.361604
2651.000000	98.370440
2650.000000	98.376921
2649.000000	98.380557
2648.000000	98.382801
2647.000000	98.385936
2646.000000	98.391412
2645.000000	98.398754
2644.000000	98.405845
2643.000000	98.410456
2642.000000	98.411916
2641.000000	98.411382
2640.000000	98.410399
2639.000000	98.409443
2638.000000	98.408386
2637.000000	98.408112
2636.000000	98.410382
2635.000000	98.415581
2634.000000	98.421761
2633.000000	98.426874
2632.000000	98.431123
2631.000000	98.435988
2630.000000	98.441692
2629.000000	98.447072
2628.000000	98.451327
2627.000000	98.454317
2626.000000	98.455541
2625.000000	98.454702
2624.000000	98.453401
2623.000000	98.454316
2622.000000	98.458193
2621.000000	98.463146
2620.000000	98.467429
2619.000000	98.471369
2618.000000	98.476095
2617.000000	98.481856
2616.000000	98.488299
2615.000000	98.494796
2614.000000	98.499770
2613.000000	98.501494
2612.000000	98.500968
2611.000000	98.502478
2610.000000	98.509302
2609.000000	98.519583
2608.000000	98.528002
2607.000000	98.531385
2606.000000	98.531303
2605.000000	98.531113
2604.000000	98.531812
2603.000000	98.531270
2602.000000	98.527182
2601.000000	98.520175
2600.000000	98.513450
2599.000000	98.509407
2598.000000	98.507704
2597.000000	98.507699
2596.000000	98.511449
2595.000000	98.521603
2594.000000	98.536178
2593.000000	98.548278
2592.000000	98.552852
2591.000000	98.552073
2590.000000	98.552534
2589.000000	98.558539
2588.000000	98.569405
2587.000000	98.581542
2586.000000	98.590653
2585.000000	98.592999
2584.000000	98.587734
2583.000000	98.578765
2582.000000	98.572247
2581.000000	98.571352
2580.000000	98.574261
2579.000000	98.577337
2578.000000	98.578946
2577.000000	98.579716
2576.000000	98.580621
2575.000000	98.581837
2574.000000	98.582719
2573.000000	98.581906
2572.000000	98.578108
2571.000000	98.572054
2570.000000	98.567640
2569.000000	98.569727
2568.000000	98.579598
2567.000000	98.592800
2566.000000	98.602385
2565.000000	98.604757
2564.000000	98.602468
2563.000000	98.601366
2562.000000	98.605389
2561.000000	98.613618
2560.000000	98.621263
2559.000000	98.623199
2558.000000	98.617660
2557.000000	98.607750
2556.000000	98.599463
2555.000000	98.597709
2554.000000	98.603740
2553.000000	98.615317
2552.000000	98.627764
2551.000000	98.635112
2550.000000	98.632983
2549.000000	98.622813
2548.000000	98.612476
2547.000000	98.610641
2546.000000	98.619548
2545.000000	98.633709
2544.000000	98.644977
2543.000000	98.648465
2542.000000	98.644610
2541.000000	98.637570
2540.000000	98.631864
2539.000000	98.629447
2538.000000	98.629292
2537.000000	98.629350
2536.000000	98.628131
2535.000000	98.624578
2534.000000	98.618429
2533.000000	98.611840
2532.000000	98.608849
2531.000000	98.611170
2530.000000	98.615628
2529.000000	98.617693
2528.000000	98.616636
2527.000000	98.615106
2526.000000	98.614464
2525.000000	98.613167
2524.000000	98.609809
2523.000000	98.605404
2522.000000	98.602128
2521.000000	98.601363
2520.000000	98.603333
2519.000000	98.607255
2518.000000	98.611486
2517.000000	98.614655
2516.000000	98.616780
2515.000000	98.618443
2514.000000	98.619045
2513.000000	98.616851
2512.000000	98.610620
2511.000000	98.600814
2510.000000	98.590178
2509.000000	98.583585
2508.000000	98.585126
2507.000000	98.593408
2506.000000	98.601420
2505.000000	98.603395
2504.000000	98.600694
2503.000000	98.598583
2502.000000	98.598881
2501.000000	98.599456
2500.000000	98.599904
2499.000000	98.603250
2498.000000	98.610756
2497.000000	98.618603
2496.000000	98.621803
2495.000000	98.619603
2494.000000	98.615702
2493.000000	98.614231
2492.000000	98.616436
2491.000000	98.620440
2490.000000	98.623701
2489.000000	98.626235
2488.000000	98.630754
2487.000000	98.638766
2486.000000	98.648055
2485.000000	98.655817
2484.000000	98.662855
2483.000000	98.671598
2482.000000	98.680996
2481.000000	98.687105
2480.000000	98.688736
2479.000000	98.688835
2478.000000	98.689437
2477.000000	98.688969
2476.000000	98.685995
2475.000000	98.682607
2474.000000	98.681820
2473.000000	98.683581
2472.000000	98.685424
2471.000000	98.685752
2470.000000	98.685018
2469.000000	98.684772
2468.000000	98.686762
2467.000000	98.691900
2466.000000	98.698888
2465.000000	98.704244
2464.000000	98.704462
2463.000000	98.697948
2462.000000	98.685550
2461.000000	98.670692
2460.000000	98.658811
2459.000000	98.654665
2458.000000	98.659106
2457.000000	98.668823
2456.000000	98.679278
2455.000000	98.687502
2454.000000	98.692984
2453.000000	98.697365
2452.000000	98.702585
2451.000000	98.708024
2450.000000	98.710162
2449.000000	98.706741
2448.000000	98.700213
2447.000000	98.695370
2446.000000	98.694562
2445.000000	98.697322
2444.000000	98.702910
2443.000000	98.709879
2442.000000	98.714506
2441.000000	98.713712
2440.000000	98.709481
2439.000000	98.706442
2438.000000	98.704901
2437.000000	98.700232
2436.000000	98.690237
2435.000000	98.679370
2434.000000	98.673922
2433.000000	98.675704
2432.000000	98.681799
2431.000000	98.688147
2430.000000	98.692072
2429.000000	98.693461
2428.000000	98.694910
2427.000000	98.699102
2426.000000	98.705570
2425.000000	98.711775
2424.000000	98.717106
2423.000000	98.723055
2422.000000	98.729163
2421.000000	98.732097
2420.000000	98.729818
2419.000000	98.724012
2418.000000	98.717322
2417.000000	98.710839
2416.000000	98.705536
2415.000000	98.703429
2414.000000	98.705604
2413.000000	98.710969
2412.000000	98.718145
2411.000000	98.726653
2410.000000	98.735533
2409.000000	98.743174
2408.000000	98.749718
2407.000000	98.757099
2406.000000	98.765128
2405.000000	98.769799
2404.000000	98.767514
2403.000000	98.759407
2402.000000	98.749887
2401.000000	98.742534
2400.000000	98.738824
2399.000000	98.739038
2398.000000	98.742188
2397.000000	98.745578
2396.000000	98.746292
2395.000000	98.743270
2394.000000	98.737521
2393.000000	98.730960
2392.000000	98.725581
2391.000000	98.723045
2390.000000	98.723871
2389.000000	98.726704
2388.000000	98.728971
2387.000000	98.728430
2386.000000	98.725736
2385.000000	98.725250
2384.000000	98.731578
2383.000000	98.744650
2382.000000	98.758314
2381.000000	98.766432
2380.000000	98.768033
2379.000000	98.764727
2378.000000	98.755437
2377.000000	98.737176
2376.000000	98.711260
2375.000000	98.685243
2374.000000	98.669418
2373.000000	98.672232
2372.000000	98.696233
2371.000000	98.733005
2370.000000	98.764791
2369.000000	98.778477
2368.000000	98.776289
2367.000000	98.770842
2366.000000	98.770341
2365.000000	98.772664
2364.000000	98.770457
2363.000000	98.755574
2362.000000	98.725284
2361.000000	98.689270
2360.000000	98.662357
2359.000000	98.653559
2358.000000	98.662516
2357.000000	98.681836
2356.000000	98.703245
2355.000000	98.715087
2354.000000	98.719706
2353.000000	98.730653
2352.000000	98.753776
2351.000000	98.776104
2350.000000	98.780353
2349.000000	98.761686
2348.000000	98.729784
2347.000000	98.704862
2346.000000	98.700367
2345.000000	98.705467
2344.000000	98.702018
2343.000000	98.685534
2342.000000	98.669212
2341.000000	98.663785
2340.000000	98.666179
2339.000000	98.668637
2338.000000	98.669395
2337.000000	98.672557
2336.000000	98.677717
2335.000000	98.683543
2334.000000	98.690078
2333.000000	98.700870
2332.000000	98.710201
2331.000000	98.713243
2330.000000	98.705724
2329.000000	98.692259
2328.000000	98.669000
2327.000000	98.633177
2326.000000	98.587881
2325.000000	98.547650
2324.000000	98.526354
2323.000000	98.526043
2322.000000	98.535489
2321.000000	98.542927
2320.000000	98.544119
2319.000000	98.544712
2318.000000	98.546698
2317.000000	98.552253
2316.000000	98.561739
2315.000000	98.579319
2314.000000	98.600213
2313.000000	98.617076
2312.000000	98.623982
2311.000000	98.626454
2310.000000	98.629454
2309.000000	98.634866
2308.000000	98.641389
2307.000000	98.651596
2306.000000	98.664120
2305.000000	98.671743
2304.000000	98.667218
2303.000000	98.654749
2302.000000	98.643588
2301.000000	98.638667
2300.000000	98.635977
2299.000000	98.633810
2298.000000	98.633537
2297.000000	98.637790
2296.000000	98.643697
2295.000000	98.648299
2294.000000	98.650249
2293.000000	98.651135
2292.000000	98.652150
2291.000000	98.653238
2290.000000	98.652233
2289.000000	98.646577
2288.000000	98.637261
2287.000000	98.629264
2286.000000	98.627429
2285.000000	98.632138
2284.000000	98.642415
2283.000000	98.658574
2282.000000	98.680242
2281.000000	98.702641
2280.000000	98.720509
2279.000000	98.733242
2278.000000	98.743026
2277.000000	98.749569
2276.000000	98.750751
2275.000000	98.747722
2274.000000	98.743818
2273.000000	98.739429
2272.000000	98.731674
2271.000000	98.721227
2270.000000	98.715655
2269.000000	98.723759
2268.000000	98.745783
2267.000000	98.769571
2266.000000	98.777822
2265.000000	98.763447
2264.000000	98.738904
2263.000000	98.727051
2262.000000	98.739436
2261.000000	98.764914
2260.000000	98.781187
2259.000000	98.775648
2258.000000	98.755222
2257.000000	98.739198
2256.000000	98.744883
2255.000000	98.775404
2254.000000	98.817332
2253.000000	98.851583
2252.000000	98.868035
2251.000000	98.869023
2250.000000	98.860046
2249.000000	98.844231
2248.000000	98.826934
2247.000000	98.818489
2246.000000	98.827044
2245.000000	98.850253
2244.000000	98.875886
2243.000000	98.888700
2242.000000	98.878667
2241.000000	98.849723
2240.000000	98.822122
2239.000000	98.817685
2238.000000	98.838742
2237.000000	98.866597
2236.000000	98.883033
2235.000000	98.886728
2234.000000	98.886385
2233.000000	98.887729
2232.000000	98.892915
2231.000000	98.902906
2230.000000	98.911289
2229.000000	98.903416
2228.000000	98.873188
2227.000000	98.837620
2226.000000	98.824293
2225.000000	98.843638
2224.000000	98.878989
2223.000000	98.903581
2222.000000	98.902362
2221.000000	98.879198
2220.000000	98.849300
2219.000000	98.825824
2218.000000	98.811358
2217.000000	98.800937
2216.000000	98.791879
2215.000000	98.788323
2214.000000	98.797132
2213.000000	98.822230
2212.000000	98.860451
2211.000000	98.898212
2210.000000	98.915750
2209.000000	98.904009
2208.000000	98.877337
2207.000000	98.860673
2206.000000	98.864384
2205.000000	98.880994
2204.000000	98.903241
2203.000000	98.930512
2202.000000	98.955678
2201.000000	98.963155
2200.000000	98.949742
2199.000000	98.934255
2198.000000	98.936252
2197.000000	98.953847
2196.000000	98.970286
2195.000000	98.973279
2194.000000	98.959339
2193.000000	98.928658
2192.000000	98.886911
2191.000000	98.847247
2190.000000	98.822370
2189.000000	98.816929
2188.000000	98.828585
2187.000000	98.850132
2186.000000	98.870576
2185.000000	98.885322
2184.000000	98.907547
2183.000000	98.954366
2182.000000	99.015645
2181.000000	99.054075
2180.000000	99.047324
2179.000000	99.013807
2178.000000	98.985427
2177.000000	98.972173
2176.000000	98.965864
2175.000000	98.962874
2174.000000	98.967187
2173.000000	98.979132
2172.000000	98.995395
2171.000000	99.014411
2170.000000	99.031311
2169.000000	99.035405
2168.000000	99.023403
2167.000000	99.008206
2166.000000	99.003279
2165.000000	99.004605
2164.000000	98.999236
2163.000000	98.989971
2162.000000	99.003237
2161.000000	99.073971
2160.000000	99.218680
2159.000000	99.405438
2158.000000	99.553120
2157.000000	99.593228
2156.000000	99.535969
2155.000000	99.448235
2154.000000	99.379816
2153.000000	99.333474
2152.000000	99.291835
2151.000000	99.246677
2150.000000	99.200835
2149.000000	99.161906
2148.000000	99.142976
2147.000000	99.154058
2146.000000	99.184212
2145.000000	99.204632
2144.000000	99.199218
2143.000000	99.180794
2142.000000	99.169145
2141.000000	99.165306
2140.000000	99.156380
2139.000000	99.136160
2138.000000	99.110612
2137.000000	99.089009
2136.000000	99.078103
2135.000000	99.080722
2134.000000	99.093853
2133.000000	99.110181
2132.000000	99.124120
2131.000000	99.133120
2130.000000	99.133455
2129.000000	99.121494
2128.000000	99.099299
2127.000000	99.071740
2126.000000	99.038286
2125.000000	98.996578
2124.000000	98.955042
2123.000000	98.930406
2122.000000	98.927857
2121.000000	98.932268
2120.000000	98.926089
2119.000000	98.909419
2118.000000	98.895868
2117.000000	98.894869
2116.000000	98.904693
2115.000000	98.917922
2114.000000	98.925616
2113.000000	98.919474
2112.000000	98.898652
2111.000000	98.874243
2110.000000	98.860528
2109.000000	98.861361
2108.000000	98.868986
2107.000000	98.876516
2106.000000	98.887426
2105.000000	98.910777
2104.000000	98.948294
2103.000000	98.987339
2102.000000	99.008598
2101.000000	99.003489
2100.000000	98.982661
2099.000000	98.963389
2098.000000	98.951694
2097.000000	98.943452
2096.000000	98.940540
2095.000000	98.952444
2094.000000	98.978002
2093.000000	98.996859
2092.000000	98.987744
2091.000000	98.950417
2090.000000	98.904685
2089.000000	98.872400
2088.000000	98.863291
2087.000000	98.873485
2086.000000	98.892749
2085.000000	98.913227
2084.000000	98.933141
2083.000000	98.951815
2082.000000	98.963683
2081.000000	98.963098
2080.000000	98.953744
2079.000000	98.945704
2078.000000	98.943107
2077.000000	98.943005
2076.000000	98.946447
2075.000000	98.959425
2074.000000	98.980038
2073.000000	98.995532
2072.000000	98.997177
2071.000000	98.988996
2070.000000	98.977495
2069.000000	98.963053
2068.000000	98.947288
2067.000000	98.939304
2066.000000	98.948029
2065.000000	98.974581
2064.000000	99.015006
2063.000000	99.061305
2062.000000	99.095524
2061.000000	99.095964
2060.000000	99.059043
2059.000000	99.007109
2058.000000	98.968153
2057.000000	98.956355
2056.000000	98.973003
2055.000000	99.010030
2054.000000	99.045043
2053.000000	99.050101
2052.000000	99.021446
2051.000000	98.990802
2050.000000	98.994862
2049.000000	99.036785
2048.000000	99.086436
2047.000000	99.116590
2046.000000	99.125264
2045.000000	99.125989
2044.000000	99.133047
2043.000000	99.153189
2042.000000	99.178943
2041.000000	99.193028
2040.000000	99.187783
2039.000000	99.172493
2038.000000	99.155589
2037.000000	99.135706
2036.000000	99.119743
2035.000000	99.132203
2034.000000	99.188503
2033.000000	99.269745
2032.000000	99.339815
2031.000000	99.379231
2030.000000	99.388685
2029.000000	99.375665
2028.000000	99.354956
2027.000000	99.346255
2026.000000	99.354731
2025.000000	99.365225
2024.000000	99.366398
2023.000000	99.369119
2022.000000	99.389433
2021.000000	99.425481
2020.000000	99.461958
2019.000000	99.484611
2018.000000	99.480306
2017.000000	99.439064
2016.000000	99.370634
2015.000000	99.303866
2014.000000	99.259387
2013.000000	99.235298
2012.000000	99.221362
2011.000000	99.214985
2010.000000	99.220456
2009.000000	99.246512
2008.000000	99.306782
2007.000000	99.403326
2006.000000	99.503234
2005.000000	99.552995
2004.000000	99.529598
2003.000000	99.460688
2002.000000	99.386561
2001.000000	99.322300
2000.000000	99.262311
1999.000000	99.204781
1998.000000	99.162667
1997.000000	99.154655
1996.000000	99.188113
1995.000000	99.247432
1994.000000	99.298681
1993.000000	99.311368
1992.000000	99.282277
1991.000000	99.233320
1990.000000	99.184597
1989.000000	99.143936
1988.000000	99.118273
1987.000000	99.113393
1986.000000	99.121426
1985.000000	99.125227
1984.000000	99.116683
1983.000000	99.098836
1982.000000	99.075854
1981.000000	99.061729
1980.000000	99.093052
1979.000000	99.198629
1978.000000	99.346855
1977.000000	99.454497
1976.000000	99.474262
1975.000000	99.440179
1974.000000	99.406697
1973.000000	99.389469
1972.000000	99.380570
1971.000000	99.380689
1970.000000	99.392658
1969.000000	99.406908
1968.000000	99.413357
1967.000000	99.414517
1966.000000	99.412876
1965.000000	99.400760
1964.000000	99.375795
1963.000000	99.351872
1962.000000	99.345374
1961.000000	99.360214
1960.000000	99.389285
1959.000000	99.419784
1958.000000	99.434458
1957.000000	99.422198
1956.000000	99.392640
1955.000000	99.367639
1954.000000	99.356447
1953.000000	99.349769
1952.000000	99.335831
1951.000000	99.309281
1950.000000	99.265378
1949.000000	99.206445
1948.000000	99.156666
1947.000000	99.148727
1946.000000	99.187867
1945.000000	99.244274
1944.000000	99.285950
1943.000000	99.304534
1942.000000	99.305775
1941.000000	99.294654
1940.000000	99.278196
1939.000000	99.266854
1938.000000	99.264169
1937.000000	99.261606
1936.000000	99.250219
1935.000000	99.231957
1934.000000	99.214513
1933.000000	99.203314
1932.000000	99.202986
1931.000000	99.216919
1930.000000	99.236997
1929.000000	99.245616
1928.000000	99.235331
1927.000000	99.217320
1926.000000	99.206186
1925.000000	99.202905
1924.000000	99.200295
1923.000000	99.193976
1922.000000	99.183589
1921.000000	99.171126
1920.000000	99.162990
1919.000000	99.168583
1918.000000	99.187734
1917.000000	99.203527
1916.000000	99.202489
1915.000000	99.188490
1914.000000	99.172464
1913.000000	99.161953
1912.000000	99.160785
1911.000000	99.170300
1910.000000	99.185703
1909.000000	99.198061
1908.000000	99.204051
1907.000000	99.207044
1906.000000	99.208761
1905.000000	99.206838
1904.000000	99.204439
1903.000000	99.208576
1902.000000	99.216365
1901.000000	99.215981
1900.000000	99.204306
1899.000000	99.191877
1898.000000	99.187446
1897.000000	99.187253
1896.000000	99.186761
1895.000000	99.191488
1894.000000	99.206335
1893.000000	99.223413
1892.000000	99.230676
1891.000000	99.226033
1890.000000	99.215403
1889.000000	99.202818
1888.000000	99.190735
1887.000000	99.182543
1886.000000	99.179691
1885.000000	99.181400
1884.000000	99.187106
1883.000000	99.196406
1882.000000	99.205423
1881.000000	99.208403
1880.000000	99.203979
1879.000000	99.196230
1878.000000	99.190822
1877.000000	99.192390
1876.000000	99.204409
1875.000000	99.226439
1874.000000	99.249811
1873.000000	99.262880
1872.000000	99.263810
1871.000000	99.262259
1870.000000	99.266563
1869.000000	99.271477
1868.000000	99.266628
1867.000000	99.254105
1866.000000	99.239719
1865.000000	99.223990
1864.000000	99.209772
1863.000000	99.203349
1862.000000	99.204815
1861.000000	99.206151
1860.000000	99.202669
1859.000000	99.198953
1858.000000	99.200669
1857.000000	99.208179
1856.000000	99.220405
1855.000000	99.236320
1854.000000	99.250016
1853.000000	99.253150
1852.000000	99.246635
1851.000000	99.239916
1850.000000	99.241708
1849.000000	99.253257
1848.000000	99.270507
1847.000000	99.287098
1846.000000	99.294407
1845.000000	99.287336
1844.000000	99.272972
1843.000000	99.265007
1842.000000	99.266018
1841.000000	99.268262
1840.000000	99.268527
1839.000000	99.270549
1838.000000	99.276089
1837.000000	99.279615
1836.000000	99.278447
1835.000000	99.276915
1834.000000	99.276738
1833.000000	99.273412
1832.000000	99.265392
1831.000000	99.260717
1830.000000	99.267831
1829.000000	99.280084
1828.000000	99.286233
1827.000000	99.283149
1826.000000	99.275823
1825.000000	99.271828
1824.000000	99.274455
1823.000000	99.281806
1822.000000	99.287350
1821.000000	99.286110
1820.000000	99.281337
1819.000000	99.282668
1818.000000	99.295103
1817.000000	99.310923
1816.000000	99.319071
1815.000000	99.315962
1814.000000	99.303853
1813.000000	99.287333
1812.000000	99.272829
1811.000000	99.268587
1810.000000	99.275646
1809.000000	99.284277
1808.000000	99.286228
1807.000000	99.281775
1806.000000	99.272633
1805.000000	99.257382
1804.000000	99.237625
1803.000000	99.220235
1802.000000	99.208971
1801.000000	99.200494
1800.000000	99.190710
1799.000000	99.183571
1798.000000	99.182270
1797.000000	99.184843
1796.000000	99.189931
1795.000000	99.196568
1794.000000	99.200309
1793.000000	99.199219
1792.000000	99.198109
1791.000000	99.205250
1790.000000	99.220575
1789.000000	99.233189
1788.000000	99.235743
1787.000000	99.233426
1786.000000	99.237239
1785.000000	99.252026
1784.000000	99.274165
1783.000000	99.295853
1782.000000	99.308950
1781.000000	99.313186
1780.000000	99.315426
1779.000000	99.324623
1778.000000	99.340897
1777.000000	99.360300
1776.000000	99.384449
1775.000000	99.412994
1774.000000	99.437042
1773.000000	99.448166
1772.000000	99.444178
1771.000000	99.427781
1770.000000	99.403757
1769.000000	99.372798
1768.000000	99.342532
1767.000000	99.328478
1766.000000	99.331610
1765.000000	99.333700
1764.000000	99.319128
1763.000000	99.291735
1762.000000	99.267269
1761.000000	99.253792
1760.000000	99.246202
1759.000000	99.238769
1758.000000	99.228205
1757.000000	99.217827
1756.000000	99.215928
1755.000000	99.226453
1754.000000	99.242950
1753.000000	99.254538
1752.000000	99.258305
1751.000000	99.259180
1750.000000	99.257143
1749.000000	99.245823
1748.000000	99.229080
1747.000000	99.216780
1746.000000	99.210305
1745.000000	99.204607
1744.000000	99.199129
1743.000000	99.200180
1742.000000	99.207095
1741.000000	99.209664
1740.000000	99.207897
1739.000000	99.219695
1738.000000	99.252097
1737.000000	99.289794
1736.000000	99.315645
1735.000000	99.339396
1734.000000	99.385378
1733.000000	99.430172
1732.000000	99.441390
1731.000000	99.427471
1730.000000	99.410641
1729.000000	99.401145
1728.000000	99.399724
1727.000000	99.404076
1726.000000	99.411063
1725.000000	99.416423
1724.000000	99.416479
1723.000000	99.415712
1722.000000	99.419728
1721.000000	99.427053
1720.000000	99.434422
1719.000000	99.445121
1718.000000	99.457988
1717.000000	99.442805
1716.000000	99.384021
1715.000000	99.310892
1714.000000	99.250295
1713.000000	99.204118
1712.000000	99.163656
1711.000000	99.125089
1710.000000	99.088528
1709.000000	99.050811
1708.000000	99.005266
1707.000000	98.949494
1706.000000	98.889889
1705.000000	98.836358
1704.000000	98.799026
1703.000000	98.771001
1702.000000	98.719014
1701.000000	98.626505
1700.000000	98.544006
1699.000000	98.521931
1698.000000	98.523044
1697.000000	98.475743
1696.000000	98.354291
1695.000000	98.215857
1694.000000	98.115172
1693.000000	98.038245
1692.000000	97.963767
1691.000000	97.888147
1690.000000	97.815392
1689.000000	97.754082
1688.000000	97.715220
1687.000000	97.694676
1686.000000	97.658646
1685.000000	97.564743
1684.000000	97.410273
1683.000000	97.254931
1682.000000	97.140472
1681.000000	97.039696
1680.000000	96.933547
1679.000000	96.828375
1678.000000	96.723673
1677.000000	96.596861
1676.000000	96.436767
1675.000000	96.278989
1674.000000	96.164055
1673.000000	96.076829
1672.000000	95.977654
1671.000000	95.850620
1670.000000	95.699137
1669.000000	95.537180
1668.000000	95.390320
1667.000000	95.275065
1666.000000	95.181472
1665.000000	95.084438
1664.000000	94.966667
1663.000000	94.836324
1662.000000	94.710764
1661.000000	94.595124
1660.000000	94.485649
1659.000000	94.385716
1658.000000	94.306028
1657.000000	94.254129
1656.000000	94.226269
1655.000000	94.203540
1654.000000	94.164180
1653.000000	94.087395
1652.000000	93.997143
1651.000000	93.927041
1650.000000	93.863300
1649.000000	93.808998
1648.000000	93.761491
1647.000000	93.714885
1646.000000	93.671655
1645.000000	93.635246
1644.000000	93.598119
1643.000000	93.560565
1642.000000	93.528069
1641.000000	93.499887
1640.000000	93.475372
1639.000000	93.460894
1638.000000	93.458472
1637.000000	93.453552
1636.000000	93.427416
1635.000000	93.384061
1634.000000	93.354082
1633.000000	93.340764
1632.000000	93.334896
1631.000000	93.337059
1630.000000	93.350604
1629.000000	93.376837
1628.000000	93.414078
1627.000000	93.458446
1626.000000	93.506369
1625.000000	93.560038
1624.000000	93.630477
1623.000000	93.725817
1622.000000	93.832274
1621.000000	93.934630
1620.000000	94.036504
1619.000000	94.150691
1618.000000	94.285204
1617.000000	94.434195
1616.000000	94.571181
1615.000000	94.675697
1614.000000	94.759753
1613.000000	94.846126
1612.000000	94.946615
1611.000000	95.058274
1610.000000	95.169744
1609.000000	95.275109
1608.000000	95.377542
1607.000000	95.478714
1606.000000	95.573604
1605.000000	95.661776
1604.000000	95.748612
1603.000000	95.835047
1602.000000	95.914402
1601.000000	95.982143
1600.000000	96.041247
1599.000000	96.094956
1598.000000	96.143272
1597.000000	96.187624
1596.000000	96.231601
1595.000000	96.274391
1594.000000	96.309364
1593.000000	96.332993
1592.000000	96.347762
1591.000000	96.354929
1590.000000	96.352055
1589.000000	96.340146
1588.000000	96.323598
1587.000000	96.301116
1586.000000	96.265348
1585.000000	96.214249
1584.000000	96.155394
1583.000000	96.092246
1582.000000	96.022103
1581.000000	95.949762
1580.000000	95.891956
1579.000000	95.858932
1578.000000	95.840728
1577.000000	95.813634
1576.000000	95.764470
1575.000000	95.703460
1574.000000	95.647652
1573.000000	95.605533
1572.000000	95.575020
1571.000000	95.547847
1570.000000	95.517653
1569.000000	95.482313
1568.000000	95.448074
1567.000000	95.413789
1566.000000	95.372534
1565.000000	95.328766
1564.000000	95.298762
1563.000000	95.289973
1562.000000	95.287723
1561.000000	95.260203
1560.000000	95.201860
1559.000000	95.115958
1558.000000	94.983840
1557.000000	94.875637
1556.000000	94.786514
1555.000000	94.690353
1554.000000	94.587889
1553.000000	94.490774
1552.000000	94.399102
1551.000000	94.308794
1550.000000	94.224120
1549.000000	94.151068
1548.000000	94.088323
1547.000000	94.024231
1546.000000	93.954698
1545.000000	93.889871
1544.000000	93.839402
1543.000000	93.804244
1542.000000	93.785838
1541.000000	93.782105
1540.000000	93.780745
1539.000000	93.776064
1538.000000	93.777621
1537.000000	93.779660
1536.000000	93.788208
1535.000000	93.823284
1534.000000	93.904028
1533.000000	94.015829
1532.000000	94.114983
1531.000000	94.190028
1530.000000	94.249992
1529.000000	94.302485
1528.000000	94.356624
1527.000000	94.422153
1526.000000	94.500780
1525.000000	94.582567
1524.000000	94.657802
1523.000000	94.727556
1522.000000	94.791678
1521.000000	94.830935
1520.000000	94.838358
1519.000000	94.838293
1518.000000	94.851826
1517.000000	94.880955
1516.000000	94.912942
1515.000000	94.943428
1514.000000	94.973862
1513.000000	95.003007
1512.000000	95.033046
1511.000000	95.073166
1510.000000	95.130002
1509.000000	95.205207
1508.000000	95.297552
1507.000000	95.381883
1506.000000	95.414284
1505.000000	95.415930
1504.000000	95.404529
1503.000000	95.389611
1502.000000	95.384123
1501.000000	95.386907
1500.000000	95.392708
1499.000000	95.403583
1498.000000	95.421856
1497.000000	95.435319
1496.000000	95.433047
1495.000000	95.425778
1494.000000	95.421638
1493.000000	95.413965
1492.000000	95.398623
1491.000000	95.386375
1490.000000	95.382962
1489.000000	95.367975
1488.000000	95.330785
1487.000000	95.286872
1486.000000	95.243474
1485.000000	95.193948
1484.000000	95.136235
1483.000000	95.073221
1482.000000	95.007399
1481.000000	94.934953
1480.000000	94.854487
1479.000000	94.769503
1478.000000	94.681899
1477.000000	94.592101
1476.000000	94.503687
1475.000000	94.420580
1474.000000	94.332661
1473.000000	94.222120
1472.000000	94.091397
1471.000000	93.973188
1470.000000	93.880843
1469.000000	93.800160
1468.000000	93.721190
1467.000000	93.644610
1466.000000	93.569370
1465.000000	93.491529
1464.000000	93.415201
1463.000000	93.349613
1462.000000	93.292037
1461.000000	93.232986
1460.000000	93.172710
1459.000000	93.113982
1458.000000	93.049453
1457.000000	92.964351
1456.000000	92.872745
1455.000000	92.797464
1454.000000	92.728050
1453.000000	92.658880
1452.000000	92.595328
1451.000000	92.541815
1450.000000	92.493118
1449.000000	92.441580
1448.000000	92.390261
1447.000000	92.349303
1446.000000	92.317816
1445.000000	92.288840
1444.000000	92.259791
1443.000000	92.233490
1442.000000	92.209362
1441.000000	92.182604
1440.000000	92.150000
1439.000000	92.109944
1438.000000	92.065955
1437.000000	92.031032
1436.000000	92.015229
1435.000000	92.007820
1434.000000	91.991468
1433.000000	91.960246
1432.000000	91.923565
1431.000000	91.894225
1430.000000	91.874027
1429.000000	91.853372
1428.000000	91.826662
1427.000000	91.795278
1426.000000	91.759677
1425.000000	91.726332
1424.000000	91.703244
1423.000000	91.687107
1422.000000	91.665077
1421.000000	91.629067
1420.000000	91.591363
1419.000000	91.573185
1418.000000	91.569738
1417.000000	91.566723
1416.000000	91.566282
1415.000000	91.573153
1414.000000	91.584349
1413.000000	91.598102
1412.000000	91.620707
1411.000000	91.657840
1410.000000	91.705393
1409.000000	91.754657
1408.000000	91.803253
1407.000000	91.855378
1406.000000	91.913176
1405.000000	91.976300
1404.000000	92.040817
1403.000000	92.097878
1402.000000	92.139183
1401.000000	92.167936
1400.000000	92.201537
1399.000000	92.250461
1398.000000	92.303319
1397.000000	92.348676
1396.000000	92.394563
1395.000000	92.454016
1394.000000	92.523570
1393.000000	92.590923
1392.000000	92.649263
1391.000000	92.698815
1390.000000	92.742344
1389.000000	92.784874
1388.000000	92.832650
1387.000000	92.884164
1386.000000	92.929258
1385.000000	92.965617
1384.000000	93.001034
1383.000000	93.041386
1382.000000	93.084119
1381.000000	93.122960
1380.000000	93.158626
1379.000000	93.196466
1378.000000	93.237571
1377.000000	93.280682
1376.000000	93.330762
1375.000000	93.395275
1374.000000	93.470538
1373.000000	93.544402
1372.000000	93.612049
1371.000000	93.677147
1370.000000	93.745002
1369.000000	93.822800
1368.000000	93.912836
1367.000000	94.006914
1366.000000	94.093808
1365.000000	94.172461
1364.000000	94.254234
1363.000000	94.347152
1362.000000	94.442177
1361.000000	94.526942
1360.000000	94.600818
1359.000000	94.668050
1358.000000	94.730195
1357.000000	94.787656
1356.000000	94.841306
1355.000000	94.890523
1354.000000	94.932592
1353.000000	94.965433
1352.000000	94.989512
1351.000000	95.006507
1350.000000	95.016767
1349.000000	95.023354
1348.000000	95.029870
1347.000000	95.035845
1346.000000	95.037455
1345.000000	95.034053
1344.000000	95.029189
1343.000000	95.025505
1342.000000	95.023186
1341.000000	95.023764
1340.000000	95.029182
1339.000000	95.036869
1338.000000	95.043359
1337.000000	95.050672
1336.000000	95.063377
1335.000000	95.083159
1334.000000	95.108976
1333.000000	95.140881
1332.000000	95.179670
1331.000000	95.222351
1330.000000	95.262474
1329.000000	95.297111
1328.000000	95.329122
1327.000000	95.361253
1326.000000	95.392002
1325.000000	95.419544
1324.000000	95.443532
1323.000000	95.463142
1322.000000	95.477983
1321.000000	95.491674
1320.000000	95.509835
1319.000000	95.533037
1318.000000	95.555992
1317.000000	95.575555
1316.000000	95.595330
1315.000000	95.621029
1314.000000	95.654907
1313.000000	95.695396
1312.000000	95.739216
1311.000000	95.782607
1310.000000	95.822778
1309.000000	95.859741
1308.000000	95.895779
1307.000000	95.932946
1306.000000	95.971392
1305.000000	96.010586
1304.000000	96.049575
1303.000000	96.087541
1302.000000	96.125295
1301.000000	96.165185
1300.000000	96.207686
1299.000000	96.249755
1298.000000	96.288405
1297.000000	96.323674
1296.000000	96.356211
1295.000000	96.384044
1294.000000	96.405032
1293.000000	96.419889
1292.000000	96.429905
1291.000000	96.434368
1290.000000	96.433149
1289.000000	96.429573
1288.000000	96.426726
1287.000000	96.422790
1286.000000	96.414177
1285.000000	96.401805
1284.000000	96.390519
1283.000000	96.383673
1282.000000	96.381555
1281.000000	96.383831
1280.000000	96.389877
1279.000000	96.396714
1278.000000	96.400594
1277.000000	96.401040
1276.000000	96.400950
1275.000000	96.402775
1274.000000	96.407136
1273.000000	96.414260
1272.000000	96.423179
1271.000000	96.429444
1270.000000	96.427266
1269.000000	96.415157
1268.000000	96.397139
1267.000000	96.377928
1266.000000	96.359215
1265.000000	96.340376
1264.000000	96.320571
1263.000000	96.299260
1262.000000	96.275802
1261.000000	96.249697
1260.000000	96.221024
1259.000000	96.190685
1258.000000	96.160695
1257.000000	96.132966
1256.000000	96.107120
1255.000000	96.080045
1254.000000	96.048537
1253.000000	96.012022
1252.000000	95.972125
1251.000000	95.930471
1250.000000	95.887965
1249.000000	95.845527
1248.000000	95.804361
1247.000000	95.765328
1246.000000	95.728600
1245.000000	95.693331
1244.000000	95.657575
1243.000000	95.619732
1242.000000	95.580985
1241.000000	95.545147
1240.000000	95.515215
1239.000000	95.490885
1238.000000	95.470159
1237.000000	95.452999
1236.000000	95.441970
1235.000000	95.439767
1234.000000	95.447286
1233.000000	95.463130
1232.000000	95.484537
1231.000000	95.509239
1230.000000	95.537638
1229.000000	95.572391
1228.000000	95.614131
1227.000000	95.659811
1226.000000	95.706854
1225.000000	95.756865
1224.000000	95.812287
1223.000000	95.870748
1222.000000	95.926765
1221.000000	95.977945
1220.000000	96.025655
1219.000000	96.070003
1218.000000	96.108616
1217.000000	96.140175
1216.000000	96.165053
1215.000000	96.182321
1214.000000	96.189566
1213.000000	96.187157
1212.000000	96.178983
1211.000000	96.168050
1210.000000	96.154403
1209.000000	96.138171
1208.000000	96.121935
1207.000000	96.107793
1206.000000	96.094369
1205.000000	96.079526
1204.000000	96.065434
1203.000000	96.058420
1202.000000	96.063490
1201.000000	96.080515
1200.000000	96.105689
1199.000000	96.136056
1198.000000	96.171715
1197.000000	96.213933
1196.000000	96.261763
1195.000000	96.310922
1194.000000	96.356784
1193.000000	96.397805
1192.000000	96.435610
1191.000000	96.472580
1190.000000	96.510021
1189.000000	96.547628
1188.000000	96.583673
1187.000000	96.616382
1186.000000	96.645473
1185.000000	96.671488
1184.000000	96.693440
1183.000000	96.709508
1182.000000	96.720767
1181.000000	96.730786
1180.000000	96.739855
1179.000000	96.742192
1178.000000	96.732070
1177.000000	96.710828
1176.000000	96.684808
1175.000000	96.658839
1174.000000	96.634060
1173.000000	96.610368
1172.000000	96.587728
1171.000000	96.565070
1170.000000	96.540615
1169.000000	96.513325
1168.000000	96.482573
1167.000000	96.447216
1166.000000	96.406950
1165.000000	96.364340
1164.000000	96.323663
1163.000000	96.287873
1162.000000	96.257549
1161.000000	96.231957
1160.000000	96.209700
1159.000000	96.189435
1158.000000	96.172329
1157.000000	96.162368
1156.000000	96.161887
1155.000000	96.167220
1154.000000	96.171893
1153.000000	96.174209
1152.000000	96.178145
1151.000000	96.186816
1150.000000	96.198528
1149.000000	96.210341
1148.000000	96.221767
1147.000000	96.232821
1146.000000	96.241672
1145.000000	96.247045
1144.000000	96.250924
1143.000000	96.255782
1142.000000	96.260174
1141.000000	96.259413
1140.000000	96.250653
1139.000000	96.235860
1138.000000	96.219724
1137.000000	96.205833
1136.000000	96.194693
1135.000000	96.184101
1134.000000	96.170688
1133.000000	96.151097
1132.000000	96.123093
1131.000000	96.086935
1130.000000	96.046096
1129.000000	96.005362
1128.000000	95.966401
1127.000000	95.925827
1126.000000	95.879067
1125.000000	95.826214
1124.000000	95.772610
1123.000000	95.722852
1122.000000	95.675629
1121.000000	95.625774
1120.000000	95.570489
1119.000000	95.511829
1118.000000	95.452955
1117.000000	95.393788
1116.000000	95.331693
1115.000000	95.265675
1114.000000	95.198315
1113.000000	95.133512
1112.000000	95.073913
1111.000000	95.021352
1110.000000	94.978402
1109.000000	94.946556
1108.000000	94.921812
1107.000000	94.894306
1106.000000	94.855216
1105.000000	94.804931
1104.000000	94.752786
1103.000000	94.708697
1102.000000	94.675792
1101.000000	94.650600
1100.000000	94.627520
1099.000000	94.603110
1098.000000	94.576981
1097.000000	94.550246
1096.000000	94.521819
1095.000000	94.486502
1094.000000	94.439094
1093.000000	94.380526
1092.000000	94.317090
1091.000000	94.253696
1090.000000	94.190876
1089.000000	94.128868
1088.000000	94.069742
1087.000000	94.012863
1086.000000	93.952904
1085.000000	93.886303
1084.000000	93.816791
1083.000000	93.750650
1082.000000	93.690428
1081.000000	93.637608
1080.000000	93.598145
1079.000000	93.578125
1078.000000	93.575336
1077.000000	93.582604
1076.000000	93.597603
1075.000000	93.623331
1074.000000	93.658826
1073.000000	93.696447
1072.000000	93.729666
1071.000000	93.757725
1070.000000	93.781900
1069.000000	93.801760
1068.000000	93.816591
1067.000000	93.826512
1066.000000	93.831426
1065.000000	93.831658
1064.000000	93.829880
1063.000000	93.829072
1062.000000	93.828344
1061.000000	93.824450
1060.000000	93.817350
1059.000000	93.810515
1058.000000	93.805529
1057.000000	93.800088
1056.000000	93.791894
1055.000000	93.780821
1054.000000	93.766795
1053.000000	93.749624
1052.000000	93.731761
1051.000000	93.717175
1050.000000	93.705617
1049.000000	93.692090
1048.000000	93.674128
1047.000000	93.655681
1046.000000	93.641138
1045.000000	93.628462
1044.000000	93.611246
1043.000000	93.586098
1042.000000	93.556049
1041.000000	93.527331
1040.000000	93.503960
1039.000000	93.484897
1038.000000	93.465485
1037.000000	93.441230
1036.000000	93.410326
1035.000000	93.373332
1034.000000	93.332878
1033.000000	93.294280
1032.000000	93.263633
1031.000000	93.243039
1030.000000	93.229948
1029.000000	93.223978
1028.000000	93.230683
1027.000000	93.254419
1026.000000	93.290093
1025.000000	93.327466
1024.000000	93.362381
1023.000000	93.397789
1022.000000	93.434870
1021.000000	93.469764
1020.000000	93.499825
1019.000000	93.527450
1018.000000	93.555903
1017.000000	93.586123
1016.000000	93.620153
1015.000000	93.663118
1014.000000	93.718413
1013.000000	93.782629
1012.000000	93.848148
1011.000000	93.910178
1010.000000	93.969974
1009.000000	94.032637
1008.000000	94.102155
1007.000000	94.177831
1006.000000	94.255148
1005.000000	94.330409
1004.000000	94.404513
1003.000000	94.481497
1002.000000	94.563843
1001.000000	94.650241
1000.000000	94.737194
999.000000	94.821897
998.000000	94.903915
997.000000	94.985054
996.000000	95.068260
995.000000	95.156299
994.000000	95.250630
993.000000	95.349615
992.000000	95.447341
991.000000	95.536837
990.000000	95.617241
989.000000	95.696152
988.000000	95.781372
987.000000	95.871804
986.000000	95.959387
985.000000	96.038830
984.000000	96.111016
983.000000	96.177772
982.000000	96.239263
981.000000	96.296780
980.000000	96.352692
979.000000	96.405547
978.000000	96.450056
977.000000	96.484811
976.000000	96.516134
975.000000	96.551767
974.000000	96.593944
973.000000	96.641583
972.000000	96.695592
971.000000	96.757828
970.000000	96.826366
969.000000	96.895763
968.000000	96.961684
967.000000	97.023019
966.000000	97.081117
965.000000	97.139095
964.000000	97.200466
963.000000	97.265652
962.000000	97.330607
961.000000	97.391221
960.000000	97.448571
959.000000	97.507170
958.000000	97.568165
957.000000	97.626724
956.000000	97.677222
955.000000	97.719781
954.000000	97.760352
953.000000	97.804783
952.000000	97.853976
951.000000	97.904980
950.000000	97.955217
949.000000	98.003837
948.000000	98.049530
947.000000	98.089971
946.000000	98.124743
945.000000	98.156393
944.000000	98.186721
943.000000	98.213716
942.000000	98.234989
941.000000	98.253247
940.000000	98.275181
939.000000	98.304837
938.000000	98.340167
937.000000	98.376740
936.000000	98.413103
935.000000	98.451465
934.000000	98.494124
933.000000	98.539809
932.000000	98.583221
931.000000	98.618826
930.000000	98.645935
929.000000	98.669614
928.000000	98.695509
927.000000	98.724150
926.000000	98.751499
925.000000	98.774350
924.000000	98.794160
923.000000	98.815664
922.000000	98.842031
921.000000	98.871115
920.000000	98.896448
919.000000	98.913396
918.000000	98.924844
917.000000	98.938770
916.000000	98.959532
915.000000	98.983517
914.000000	99.004369
913.000000	99.020393
912.000000	99.034871
911.000000	99.051403
910.000000	99.071728
909.000000	99.096693
908.000000	99.126247
907.000000	99.158032
906.000000	99.187755
905.000000	99.211336
904.000000	99.226767
903.000000	99.235629
902.000000	99.244093
901.000000	99.260349
900.000000	99.288289
899.000000	99.323607
898.000000	99.357493
897.000000	99.383511
896.000000	99.400588
895.000000	99.411709
894.000000	99.421789
893.000000	99.435554
892.000000	99.454629
891.000000	99.475906
890.000000	99.491803
889.000000	99.490008
888.000000	99.453394
887.000000	99.364043
886.000000	99.213539
885.000000	99.008985
884.000000	98.765414
883.000000	98.491333
882.000000	98.178770
881.000000	97.809243
880.000000	97.371688
879.000000	96.878234
878.000000	96.362632
877.000000	95.864117
876.000000	95.417048
875.000000	95.056662
874.000000	94.829004
873.000000	94.782244
872.000000	94.944603
871.000000	95.300938
870.000000	95.789810
869.000000	96.327720
868.000000	96.839415
867.000000	97.278102
866.000000	97.629972
865.000000	97.907343
864.000000	98.132588
863.000000	98.322930
862.000000	98.484399
861.000000	98.615604
860.000000	98.714389
859.000000	98.782475
858.000000	98.829205
857.000000	98.869385
856.000000	98.914554
855.000000	98.966104
854.000000	99.017414
853.000000	99.060762
852.000000	99.089236
851.000000	99.096028
850.000000	99.079712
849.000000	99.052499
848.000000	99.037981
847.000000	99.055039
846.000000	99.102894
845.000000	99.163313
844.000000	99.216579
843.000000	99.255037
842.000000	99.283770
841.000000	99.311144
840.000000	99.339822
839.000000	99.365741
838.000000	99.383878
837.000000	99.394010
836.000000	99.401055
835.000000	99.411091
834.000000	99.426659
833.000000	99.444053
832.000000	99.454887
831.000000	99.452451
830.000000	99.438560
829.000000	99.423379
828.000000	99.416753
827.000000	99.419677
826.000000	99.424367
825.000000	99.421775
824.000000	99.408848
823.000000	99.390601
822.000000	99.376185
821.000000	99.371098
820.000000	99.371712
819.000000	99.368303
818.000000	99.355129
817.000000	99.336585
816.000000	99.322024
815.000000	99.315758
814.000000	99.314039
813.000000	99.310997
812.000000	99.304780
811.000000	99.297785
810.000000	99.293741
809.000000	99.295633
808.000000	99.303793
807.000000	99.313599
806.000000	99.316502
805.000000	99.306671
804.000000	99.287273
803.000000	99.268024
802.000000	99.255450
801.000000	99.246503
800.000000	99.232583
799.000000	99.208483
798.000000	99.176232
797.000000	99.142100
796.000000	99.113212
795.000000	99.097012
794.000000	99.099434
793.000000	99.119232
792.000000	99.144603
791.000000	99.158973
790.000000	99.153178
789.000000	99.132479
788.000000	99.111313
787.000000	99.101480
786.000000	99.105013
785.000000	99.116607
784.000000	99.130894
783.000000	99.146138
782.000000	99.162188
781.000000	99.177412
780.000000	99.189413
779.000000	99.198163
778.000000	99.206720
777.000000	99.218942
776.000000	99.237859
775.000000	99.265583
774.000000	99.301772
773.000000	99.340593
772.000000	99.371927
771.000000	99.389070
770.000000	99.394920
769.000000	99.398116
768.000000	99.403892
767.000000	99.411320
766.000000	99.418059
765.000000	99.423510
764.000000	99.426913
763.000000	99.426793
762.000000	99.424418
761.000000	99.423993
760.000000	99.426247
759.000000	99.424787
758.000000	99.413533
757.000000	99.397106
756.000000	99.388881
755.000000	99.396948
754.000000	99.414902
753.000000	99.428968
752.000000	99.432628
751.000000	99.431285
750.000000	99.432754
749.000000	99.436759
748.000000	99.436292
747.000000	99.427323
746.000000	99.413682
745.000000	99.402131
744.000000	99.395981
743.000000	99.395616
742.000000	99.401797
741.000000	99.413947
740.000000	99.426364
739.000000	99.431210
738.000000	99.426856
737.000000	99.420596
736.000000	99.421258
735.000000	99.429998
734.000000	99.438924
733.000000	99.437795
732.000000	99.422815
731.000000	99.401030
730.000000	99.384595
729.000000	99.377223
728.000000	99.370619
727.000000	99.356920
726.000000	99.338961
725.000000	99.324314
724.000000	99.312625
723.000000	99.295932
722.000000	99.270973
721.000000	99.245388
720.000000	99.229280
719.000000	99.221668
718.000000	99.202969
717.000000	99.133176
716.000000	98.962433
715.000000	98.669635
714.000000	98.310895
713.000000	98.016311
712.000000	97.909773
711.000000	98.016386
710.000000	98.251803
709.000000	98.498451
708.000000	98.684575
707.000000	98.801695
706.000000	98.869588
705.000000	98.906160
704.000000	98.924482
703.000000	98.935227
702.000000	98.946191
701.000000	98.964359
700.000000	98.995326
699.000000	99.038380
698.000000	99.081191
697.000000	99.108617
696.000000	99.120131
695.000000	99.128712
694.000000	99.146130
693.000000	99.172250
692.000000	99.196264
691.000000	99.208286
690.000000	99.204256
689.000000	99.186549
688.000000	99.163684
687.000000	99.144400
686.000000	99.134185
685.000000	99.134660
684.000000	99.142437
683.000000	99.151753
682.000000	99.158758
681.000000	99.163136
680.000000	99.164825
679.000000	99.162160
678.000000	99.152935
677.000000	99.129726
676.000000	99.090378
675.000000	99.045812
674.000000	99.015866
673.000000	99.014558
672.000000	99.041359
671.000000	99.088652
670.000000	99.154639
669.000000	99.235046
668.000000	99.267490
667.000000	99.195235
666.000000	99.123252
665.000000	99.080545
664.000000	99.052471
663.000000	99.053765
662.000000	99.087878
661.000000	99.128295
660.000000	99.150027
659.000000	99.155601
658.000000	99.155922
657.000000	99.145032
656.000000	99.124458
655.000000	99.117213
654.000000	99.135050
653.000000	99.157261
652.000000	99.165258
651.000000	99.167902
650.000000	99.177554
649.000000	99.184733
648.000000	99.180501
647.000000	99.177496
646.000000	99.186540
645.000000	99.198397
644.000000	99.203440
643.000000	99.206382
642.000000	99.209965
641.000000	99.202059
640.000000	99.176859
639.000000	99.153167
638.000000	99.149468
637.000000	99.157269
636.000000	99.158956
635.000000	99.154407
634.000000	99.154324
633.000000	99.161429
632.000000	99.173414
631.000000	99.193941
630.000000	99.223896
629.000000	99.251101
628.000000	99.264926
627.000000	99.270406
626.000000	99.273149
625.000000	99.265174
624.000000	99.239353
623.000000	99.207284
622.000000	99.190102
621.000000	99.196033
620.000000	99.215774
619.000000	99.235148
618.000000	99.245949
617.000000	99.251309
616.000000	99.264023
615.000000	99.291015
614.000000	99.316297
613.000000	99.312832
612.000000	99.276658
611.000000	99.235759
610.000000	99.216847
609.000000	99.217838
608.000000	99.222966
607.000000	99.228587
606.000000	99.238792
605.000000	99.251631
604.000000	99.261888
603.000000	99.267029
602.000000	99.262314
601.000000	99.241381
600.000000	99.212176
599.000000	99.198934
598.000000	99.217725
597.000000	99.259486
596.000000	99.304975
595.000000	99.343277
594.000000	99.370228
593.000000	99.384426
592.000000	99.393433
591.000000	99.408267
590.000000	99.421830
589.000000	99.412070
588.000000	99.377960
587.000000	99.351904
586.000000	99.360602
585.000000	99.388889
584.000000	99.402845
583.000000	99.394948
582.000000	99.382631
581.000000	99.374819
580.000000	99.366898
579.000000	99.362089
578.000000	99.373537
577.000000	99.402712
576.000000	99.434262
575.000000	99.453720
574.000000	99.457793
573.000000	99.447755
572.000000	99.426451
571.000000	99.403261
570.000000	99.388649
569.000000	99.382854
568.000000	99.378815
567.000000	99.372253
566.000000	99.360642
565.000000	99.340527
564.000000	99.317135
563.000000	99.306697
562.000000	99.318199
561.000000	99.339717
560.000000	99.354219
559.000000	99.359783
558.000000	99.362707
557.000000	99.363003
556.000000	99.360016
555.000000	99.360656
554.000000	99.366774
553.000000	99.364919
552.000000	99.343650
551.000000	99.311003
550.000000	99.283008
549.000000	99.265979
548.000000	99.264611
547.000000	99.291645
546.000000	99.349769
545.000000	99.415477
544.000000	99.460515
543.000000	99.478249
542.000000	99.476894
541.000000	99.462114
540.000000	99.439498
539.000000	99.418414
538.000000	99.398644
537.000000	99.367590
536.000000	99.322824
535.000000	99.278199
534.000000	99.235810
533.000000	99.175871
532.000000	99.095560
531.000000	99.028316
530.000000	98.994724
529.000000	98.962650
528.000000	98.892124
527.000000	98.795533
526.000000	98.719519
525.000000	98.676794
524.000000	98.641814
523.000000	98.610399
522.000000	98.609808
521.000000	98.651082
520.000000	98.706852
519.000000	98.740009
518.000000	98.735203
517.000000	98.703426
516.000000	98.674848
515.000000	98.683717
514.000000	98.741945
513.000000	98.826779
512.000000	98.903971
511.000000	98.955016
510.000000	98.976215
509.000000	98.968165
508.000000	98.943863
507.000000	98.927372
506.000000	98.925075
505.000000	98.916201
504.000000	98.888202
503.000000	98.860436
502.000000	98.857871
501.000000	98.884848
500.000000	98.942360
499.000000	99.033443
498.000000	99.127913
497.000000	99.161236
496.000000	99.105757
495.000000	99.011650
494.000000	98.942372
493.000000	98.902683
492.000000	98.866476
491.000000	98.838076
490.000000	98.836128
489.000000	98.840778
488.000000	98.812514
487.000000	98.744372
486.000000	98.656746
485.000000	98.558412
484.000000	98.448339
483.000000	98.341830
482.000000	98.256205
481.000000	98.190170
480.000000	98.144268
479.000000	98.130996
478.000000	98.134435
477.000000	98.095427
476.000000	97.981125
475.000000	97.832274
474.000000	97.704352
473.000000	97.591522
472.000000	97.460994
471.000000	97.338616
470.000000	97.278375
469.000000	97.281864
468.000000	97.316679
467.000000	97.363533
466.000000	97.410976
465.000000	97.446493
464.000000	97.492514
463.000000	97.609059
462.000000	97.808622
461.000000	98.017499
460.000000	98.179038
459.000000	98.329112
458.000000	98.513208
457.000000	98.684679
456.000000	98.881355
455.000000	98.971901
454.000000	99.134125
453.000000	99.301118
452.000000	99.379659
451.000000	99.393987
450.000000	99.426679
