PE IR       SUBTECH     SPECTRUM    ASCII       PEDS        4.00        
   -1
Chevre2-F002_1.ASC
23/09/14
14:24:11.00
23/09/14
14:38:19.00
uco
Sample 002 By uco Date Thursday, September 14 2023
450.000000
#HDR
-1
-1
#GR
cm-1
%T
1.0
0.0
4000.000000
-1.000000
3551
8
99.213636
90.178544
#DATA
4000.000000	99.051018
3999.000000	99.054381
3998.000000	99.057867
3997.000000	99.062487
3996.000000	99.062995
3995.000000	99.060490
3994.000000	99.054182
3993.000000	99.046728
3992.000000	99.040947
3991.000000	99.038009
3990.000000	99.037107
3989.000000	99.036576
3988.000000	99.035223
3987.000000	99.032952
3986.000000	99.030426
3985.000000	99.028226
3984.000000	99.026315
3983.000000	99.024268
3982.000000	99.022064
3981.000000	99.020647
3980.000000	99.021462
3979.000000	99.025282
3978.000000	99.031408
3977.000000	99.037889
3976.000000	99.042560
3975.000000	99.044142
3974.000000	99.042779
3973.000000	99.039835
3972.000000	99.037087
3971.000000	99.035758
3970.000000	99.035840
3969.000000	99.036131
3968.000000	99.035152
3967.000000	99.032214
3966.000000	99.027921
3965.000000	99.023878
3964.000000	99.021771
3963.000000	99.022523
3962.000000	99.025837
3961.000000	99.030305
3960.000000	99.034166
3959.000000	99.036164
3958.000000	99.036040
3957.000000	99.034427
3956.000000	99.032302
3955.000000	99.030433
3954.000000	99.029248
3953.000000	99.029006
3952.000000	99.029731
3951.000000	99.030825
3950.000000	99.030846
3949.000000	99.028355
3948.000000	99.023590
3947.000000	99.018843
3946.000000	99.016603
3945.000000	99.017486
3944.000000	99.019984
3943.000000	99.021898
3942.000000	99.022452
3941.000000	99.023003
3940.000000	99.025120
3939.000000	99.028397
3938.000000	99.030746
3937.000000	99.030453
3936.000000	99.027776
3935.000000	99.024753
3934.000000	99.023669
3933.000000	99.025120
3932.000000	99.027127
3931.000000	99.026785
3930.000000	99.023185
3929.000000	99.018284
3928.000000	99.014785
3927.000000	99.013945
3926.000000	99.014813
3925.000000	99.015148
3924.000000	99.013566
3923.000000	99.010729
3922.000000	99.007937
3921.000000	99.005661
3920.000000	99.004054
3919.000000	99.003776
3918.000000	99.005463
3917.000000	99.008388
3916.000000	99.010414
3915.000000	99.009554
3914.000000	99.005444
3913.000000	98.999784
3912.000000	98.995812
3911.000000	98.996527
3910.000000	99.002925
3909.000000	99.013453
3908.000000	99.024874
3907.000000	99.033213
3906.000000	99.034740
3905.000000	99.027896
3904.000000	99.015591
3903.000000	99.004677
3902.000000	99.000092
3901.000000	99.000271
3900.000000	99.000480
3899.000000	98.999081
3898.000000	98.998688
3897.000000	99.001825
3896.000000	99.007925
3895.000000	99.015376
3894.000000	99.023639
3893.000000	99.031848
3892.000000	99.036697
3891.000000	99.035016
3890.000000	99.028772
3889.000000	99.021961
3888.000000	99.015154
3887.000000	99.006997
3886.000000	98.997178
3885.000000	98.987749
3884.000000	98.982587
3883.000000	98.983243
3882.000000	98.987077
3881.000000	98.990257
3880.000000	98.990671
3879.000000	98.990627
3878.000000	98.994387
3877.000000	99.001983
3876.000000	99.009917
3875.000000	99.015337
3874.000000	99.017083
3873.000000	99.015981
3872.000000	99.013897
3871.000000	99.011536
3870.000000	99.008377
3869.000000	99.004955
3868.000000	99.003164
3867.000000	99.002476
3866.000000	99.000822
3865.000000	98.998119
3864.000000	98.995240
3863.000000	98.992236
3862.000000	98.989399
3861.000000	98.988211
3860.000000	98.990171
3859.000000	98.994403
3858.000000	98.997950
3857.000000	98.999073
3856.000000	99.000142
3855.000000	99.007019
3854.000000	99.022498
3853.000000	99.039025
3852.000000	99.049100
3851.000000	99.051945
3850.000000	99.045328
3849.000000	99.030514
3848.000000	99.014105
3847.000000	99.002302
3846.000000	98.998013
3845.000000	99.001525
3844.000000	99.011261
3843.000000	99.024211
3842.000000	99.036694
3841.000000	99.045749
3840.000000	99.049646
3839.000000	99.047860
3838.000000	99.041293
3837.000000	99.032075
3836.000000	99.022384
3835.000000	99.013502
3834.000000	99.005996
3833.000000	98.999881
3832.000000	98.994719
3831.000000	98.991107
3830.000000	98.991111
3829.000000	98.995804
3828.000000	99.003532
3827.000000	99.011456
3826.000000	99.018051
3825.000000	99.024057
3824.000000	99.030863
3823.000000	99.038243
3822.000000	99.042803
3821.000000	99.039148
3820.000000	99.029379
3819.000000	99.023580
3818.000000	99.026570
3817.000000	99.035359
3816.000000	99.042604
3815.000000	99.041793
3814.000000	99.032784
3813.000000	99.019718
3812.000000	99.007082
3811.000000	98.999366
3810.000000	98.999084
3809.000000	99.005497
3808.000000	99.015273
3807.000000	99.024069
3806.000000	99.030008
3805.000000	99.034400
3804.000000	99.038056
3803.000000	99.040510
3802.000000	99.039890
3801.000000	99.034192
3800.000000	99.027081
3799.000000	99.023415
3798.000000	99.022318
3797.000000	99.020793
3796.000000	99.017153
3795.000000	99.011989
3794.000000	99.007630
3793.000000	99.005231
3792.000000	99.004279
3791.000000	99.004446
3790.000000	99.006125
3789.000000	99.009508
3788.000000	99.013293
3787.000000	99.014566
3786.000000	99.010758
3785.000000	99.002504
3784.000000	98.994083
3783.000000	98.989995
3782.000000	98.990862
3781.000000	98.993303
3780.000000	98.993479
3779.000000	98.991091
3778.000000	98.990165
3777.000000	98.994098
3776.000000	99.001355
3775.000000	99.007430
3774.000000	99.009437
3773.000000	99.007602
3772.000000	99.003917
3771.000000	98.999909
3770.000000	98.995608
3769.000000	98.991008
3768.000000	98.987530
3767.000000	98.986301
3766.000000	98.987276
3765.000000	98.990300
3764.000000	98.995380
3763.000000	99.001867
3762.000000	99.007444
3761.000000	99.009494
3760.000000	99.007318
3759.000000	99.003637
3758.000000	99.003590
3757.000000	99.010166
3756.000000	99.021699
3755.000000	99.034403
3754.000000	99.046259
3753.000000	99.057482
3752.000000	99.067651
3751.000000	99.072980
3750.000000	99.070146
3749.000000	99.062096
3748.000000	99.052862
3747.000000	99.042766
3746.000000	99.032643
3745.000000	99.024253
3744.000000	99.018909
3743.000000	99.020800
3742.000000	99.029025
3741.000000	99.033544
3740.000000	99.030376
3739.000000	99.024595
3738.000000	99.022081
3737.000000	99.024097
3736.000000	99.026142
3735.000000	99.021499
3734.000000	99.009987
3733.000000	98.999346
3732.000000	98.996726
3731.000000	99.002795
3730.000000	99.012312
3729.000000	99.019453
3728.000000	99.022839
3727.000000	99.025381
3726.000000	99.030059
3725.000000	99.036832
3724.000000	99.042294
3723.000000	99.042061
3722.000000	99.034147
3721.000000	99.020680
3720.000000	99.006084
3719.000000	98.994669
3718.000000	98.989679
3717.000000	98.991967
3716.000000	98.999617
3715.000000	99.009430
3714.000000	99.019648
3713.000000	99.030013
3712.000000	99.038452
3711.000000	99.040731
3710.000000	99.036035
3709.000000	99.029282
3708.000000	99.025386
3707.000000	99.024726
3706.000000	99.024175
3705.000000	99.021359
3704.000000	99.016967
3703.000000	99.013527
3702.000000	99.011682
3701.000000	99.009550
3700.000000	99.006218
3699.000000	99.002882
3698.000000	99.000953
3697.000000	99.001230
3696.000000	99.004246
3695.000000	99.009919
3694.000000	99.017464
3693.000000	99.025917
3692.000000	99.035272
3691.000000	99.045884
3690.000000	99.056073
3689.000000	99.061551
3688.000000	99.060385
3687.000000	99.054813
3686.000000	99.045544
3685.000000	99.032514
3684.000000	99.019288
3683.000000	99.011730
3682.000000	99.012211
3681.000000	99.016869
3680.000000	99.018603
3679.000000	99.013744
3678.000000	99.006000
3677.000000	99.003341
3676.000000	99.008003
3675.000000	99.011481
3674.000000	99.008489
3673.000000	99.001380
3672.000000	98.990351
3671.000000	98.975608
3670.000000	98.959705
3669.000000	98.946201
3668.000000	98.939443
3667.000000	98.940747
3666.000000	98.947294
3665.000000	98.955407
3664.000000	98.961231
3663.000000	98.960583
3662.000000	98.951071
3661.000000	98.934449
3660.000000	98.916317
3659.000000	98.903220
3658.000000	98.899150
3657.000000	98.903329
3656.000000	98.910436
3655.000000	98.915706
3654.000000	98.917652
3653.000000	98.916386
3652.000000	98.914838
3651.000000	98.917385
3650.000000	98.921810
3649.000000	98.917286
3648.000000	98.898016
3647.000000	98.871885
3646.000000	98.850079
3645.000000	98.837650
3644.000000	98.834179
3643.000000	98.836991
3642.000000	98.842407
3641.000000	98.846002
3640.000000	98.844530
3639.000000	98.837465
3638.000000	98.826611
3637.000000	98.814227
3636.000000	98.801710
3635.000000	98.790076
3634.000000	98.780345
3633.000000	98.772670
3632.000000	98.765652
3631.000000	98.757976
3630.000000	98.750480
3629.000000	98.744315
3628.000000	98.740344
3627.000000	98.740931
3626.000000	98.743347
3625.000000	98.741070
3624.000000	98.733145
3623.000000	98.723466
3622.000000	98.715476
3621.000000	98.709378
3620.000000	98.701467
3619.000000	98.687116
3618.000000	98.667472
3617.000000	98.649296
3616.000000	98.636715
3615.000000	98.628691
3614.000000	98.622086
3613.000000	98.614305
3612.000000	98.605019
3611.000000	98.595674
3610.000000	98.587146
3609.000000	98.579139
3608.000000	98.571438
3607.000000	98.565256
3606.000000	98.562198
3605.000000	98.561716
3604.000000	98.560914
3603.000000	98.556734
3602.000000	98.547725
3601.000000	98.534351
3600.000000	98.518269
3599.000000	98.501602
3598.000000	98.486678
3597.000000	98.475415
3596.000000	98.468218
3595.000000	98.463112
3594.000000	98.456923
3593.000000	98.448253
3592.000000	98.438069
3591.000000	98.427796
3590.000000	98.418536
3589.000000	98.410850
3588.000000	98.402837
3587.000000	98.390732
3586.000000	98.374807
3585.000000	98.359940
3584.000000	98.349177
3583.000000	98.341748
3582.000000	98.335584
3581.000000	98.328859
3580.000000	98.320496
3579.000000	98.310216
3578.000000	98.298597
3577.000000	98.287150
3576.000000	98.278100
3575.000000	98.272918
3574.000000	98.270702
3573.000000	98.268131
3572.000000	98.261752
3571.000000	98.250001
3570.000000	98.233839
3569.000000	98.216299
3568.000000	98.200904
3567.000000	98.189249
3566.000000	98.180937
3565.000000	98.174923
3564.000000	98.169037
3563.000000	98.160715
3562.000000	98.149389
3561.000000	98.136500
3560.000000	98.123521
3559.000000	98.110969
3558.000000	98.098874
3557.000000	98.086895
3556.000000	98.073999
3555.000000	98.059229
3554.000000	98.043641
3553.000000	98.030636
3552.000000	98.022889
3551.000000	98.018655
3550.000000	98.012367
3549.000000	97.999412
3548.000000	97.980314
3547.000000	97.960390
3546.000000	97.945125
3545.000000	97.935507
3544.000000	97.928111
3543.000000	97.918945
3542.000000	97.906852
3541.000000	97.893836
3540.000000	97.882696
3539.000000	97.873881
3538.000000	97.864490
3537.000000	97.850627
3536.000000	97.831318
3535.000000	97.810001
3534.000000	97.791492
3533.000000	97.777934
3532.000000	97.767741
3531.000000	97.758183
3530.000000	97.748293
3529.000000	97.739484
3528.000000	97.733455
3527.000000	97.730105
3526.000000	97.727718
3525.000000	97.724474
3524.000000	97.718998
3523.000000	97.710299
3522.000000	97.698493
3521.000000	97.685384
3520.000000	97.673247
3519.000000	97.662590
3518.000000	97.651730
3517.000000	97.638867
3516.000000	97.624390
3515.000000	97.610743
3514.000000	97.600258
3513.000000	97.593323
3512.000000	97.588145
3511.000000	97.581861
3510.000000	97.572339
3509.000000	97.559721
3508.000000	97.546144
3507.000000	97.533547
3506.000000	97.521807
3505.000000	97.509187
3504.000000	97.494023
3503.000000	97.476224
3502.000000	97.457973
3501.000000	97.442864
3500.000000	97.433335
3499.000000	97.428426
3498.000000	97.424109
3497.000000	97.416049
3496.000000	97.402804
3495.000000	97.386854
3494.000000	97.372865
3493.000000	97.364549
3492.000000	97.361991
3491.000000	97.361071
3490.000000	97.355971
3489.000000	97.343655
3488.000000	97.326316
3487.000000	97.309232
3486.000000	97.296299
3485.000000	97.287876
3484.000000	97.282010
3483.000000	97.276352
3482.000000	97.269053
3481.000000	97.259274
3480.000000	97.247398
3479.000000	97.234374
3478.000000	97.220912
3477.000000	97.207857
3476.000000	97.196945
3475.000000	97.189878
3474.000000	97.186211
3473.000000	97.182968
3472.000000	97.177040
3471.000000	97.167842
3470.000000	97.157418
3469.000000	97.148296
3468.000000	97.141401
3467.000000	97.135584
3466.000000	97.128787
3465.000000	97.119682
3464.000000	97.108525
3463.000000	97.096726
3462.000000	97.085672
3461.000000	97.076009
3460.000000	97.067763
3459.000000	97.060801
3458.000000	97.054986
3457.000000	97.049943
3456.000000	97.044745
3455.000000	97.037915
3454.000000	97.028132
3453.000000	97.015398
3452.000000	97.001430
3451.000000	96.988758
3450.000000	96.979238
3449.000000	96.973285
3448.000000	96.969630
3447.000000	96.965299
3446.000000	96.956922
3445.000000	96.943571
3444.000000	96.928399
3443.000000	96.916775
3442.000000	96.911949
3441.000000	96.912036
3440.000000	96.911444
3439.000000	96.905332
3438.000000	96.893137
3437.000000	96.878693
3436.000000	96.867317
3435.000000	96.861920
3434.000000	96.860820
3433.000000	96.859125
3432.000000	96.852792
3431.000000	96.841856
3430.000000	96.829819
3429.000000	96.819978
3428.000000	96.812321
3427.000000	96.803741
3426.000000	96.790962
3425.000000	96.773485
3424.000000	96.754367
3423.000000	96.738632
3422.000000	96.730352
3421.000000	96.729870
3420.000000	96.733093
3419.000000	96.734261
3418.000000	96.730607
3417.000000	96.724502
3416.000000	96.720557
3415.000000	96.720480
3414.000000	96.721288
3413.000000	96.718851
3412.000000	96.712307
3411.000000	96.704018
3410.000000	96.695991
3409.000000	96.687884
3408.000000	96.678738
3407.000000	96.669233
3406.000000	96.661334
3405.000000	96.656120
3404.000000	96.652556
3403.000000	96.648332
3402.000000	96.641807
3401.000000	96.633384
3400.000000	96.625197
3399.000000	96.619263
3398.000000	96.615753
3397.000000	96.613059
3396.000000	96.609365
3395.000000	96.603836
3394.000000	96.596516
3393.000000	96.587904
3392.000000	96.579030
3391.000000	96.571361
3390.000000	96.565846
3389.000000	96.561893
3388.000000	96.557588
3387.000000	96.551134
3386.000000	96.542228
3385.000000	96.532074
3384.000000	96.522025
3383.000000	96.512310
3382.000000	96.502164
3381.000000	96.491039
3380.000000	96.479261
3379.000000	96.467413
3378.000000	96.455623
3377.000000	96.443939
3376.000000	96.433033
3375.000000	96.423779
3374.000000	96.416016
3373.000000	96.408341
3372.000000	96.399571
3371.000000	96.390199
3370.000000	96.382018
3369.000000	96.376209
3368.000000	96.371806
3367.000000	96.366033
3366.000000	96.356262
3365.000000	96.341888
3364.000000	96.324538
3363.000000	96.306780
3362.000000	96.290732
3361.000000	96.277393
3360.000000	96.266384
3359.000000	96.255768
3358.000000	96.242687
3357.000000	96.225181
3356.000000	96.203852
3355.000000	96.181627
3354.000000	96.161667
3353.000000	96.145305
3352.000000	96.131506
3351.000000	96.117852
3350.000000	96.102289
3349.000000	96.084443
3348.000000	96.065318
3347.000000	96.045553
3346.000000	96.024531
3345.000000	96.002023
3344.000000	95.980363
3343.000000	95.963448
3342.000000	95.952548
3341.000000	95.943999
3340.000000	95.932243
3339.000000	95.915007
3338.000000	95.894640
3337.000000	95.874569
3336.000000	95.855756
3335.000000	95.837133
3334.000000	95.818205
3333.000000	95.799598
3332.000000	95.781315
3331.000000	95.762266
3330.000000	95.742332
3329.000000	95.723707
3328.000000	95.708879
3327.000000	95.697592
3326.000000	95.687110
3325.000000	95.675658
3324.000000	95.664263
3323.000000	95.654320
3322.000000	95.644407
3321.000000	95.631122
3320.000000	95.613081
3319.000000	95.593019
3318.000000	95.575383
3317.000000	95.562308
3316.000000	95.552485
3315.000000	95.543614
3314.000000	95.535152
3313.000000	95.528305
3312.000000	95.523691
3311.000000	95.519706
3310.000000	95.513634
3309.000000	95.504333
3308.000000	95.493363
3307.000000	95.483074
3306.000000	95.473880
3305.000000	95.464007
3304.000000	95.451897
3303.000000	95.438146
3302.000000	95.424712
3301.000000	95.412717
3300.000000	95.401847
3299.000000	95.391823
3298.000000	95.383536
3297.000000	95.378178
3296.000000	95.375710
3295.000000	95.374659
3294.000000	95.373093
3293.000000	95.369407
3292.000000	95.362753
3291.000000	95.353727
3290.000000	95.344516
3289.000000	95.337259
3288.000000	95.331897
3287.000000	95.326455
3286.000000	95.319886
3285.000000	95.313746
3284.000000	95.310433
3283.000000	95.310568
3282.000000	95.312969
3281.000000	95.316514
3280.000000	95.320601
3279.000000	95.323957
3278.000000	95.324742
3277.000000	95.322692
3276.000000	95.320416
3275.000000	95.321657
3274.000000	95.328160
3273.000000	95.338389
3272.000000	95.348901
3271.000000	95.356721
3270.000000	95.360744
3269.000000	95.361468
3268.000000	95.359774
3267.000000	95.356238
3266.000000	95.351713
3265.000000	95.348195
3264.000000	95.348354
3263.000000	95.353804
3262.000000	95.363835
3261.000000	95.375767
3260.000000	95.386704
3259.000000	95.395408
3258.000000	95.402981
3257.000000	95.411577
3256.000000	95.422192
3255.000000	95.434012
3254.000000	95.446112
3253.000000	95.458979
3252.000000	95.473427
3251.000000	95.488590
3250.000000	95.502206
3249.000000	95.512977
3248.000000	95.521528
3247.000000	95.528836
3246.000000	95.534819
3245.000000	95.539086
3244.000000	95.542423
3243.000000	95.546704
3242.000000	95.553525
3241.000000	95.563295
3240.000000	95.575392
3239.000000	95.588869
3238.000000	95.602943
3237.000000	95.616736
3236.000000	95.628547
3235.000000	95.636191
3234.000000	95.639044
3233.000000	95.639524
3232.000000	95.641406
3231.000000	95.646247
3230.000000	95.652211
3229.000000	95.656703
3228.000000	95.659394
3227.000000	95.662351
3226.000000	95.667881
3225.000000	95.676751
3224.000000	95.687817
3223.000000	95.698612
3222.000000	95.706552
3221.000000	95.710222
3220.000000	95.709907
3219.000000	95.707381
3218.000000	95.705598
3217.000000	95.708069
3216.000000	95.717068
3215.000000	95.731527
3214.000000	95.747275
3213.000000	95.760165
3212.000000	95.768896
3211.000000	95.774941
3210.000000	95.780539
3209.000000	95.787174
3208.000000	95.794930
3207.000000	95.802350
3206.000000	95.807490
3205.000000	95.810052
3204.000000	95.812308
3203.000000	95.817121
3202.000000	95.825131
3201.000000	95.834599
3200.000000	95.843780
3199.000000	95.852543
3198.000000	95.861361
3197.000000	95.869644
3196.000000	95.875977
3195.000000	95.879878
3194.000000	95.882655
3193.000000	95.886393
3192.000000	95.892561
3191.000000	95.901740
3190.000000	95.913903
3189.000000	95.927913
3188.000000	95.941086
3187.000000	95.950864
3186.000000	95.957794
3185.000000	95.965773
3184.000000	95.978124
3183.000000	95.994130
3182.000000	96.010443
3181.000000	96.024904
3180.000000	96.037113
3179.000000	96.046044
3178.000000	96.050174
3177.000000	96.050988
3176.000000	96.053813
3175.000000	96.062923
3174.000000	96.076828
3173.000000	96.090232
3172.000000	96.100097
3171.000000	96.108397
3170.000000	96.119006
3169.000000	96.133543
3168.000000	96.150507
3167.000000	96.167420
3166.000000	96.183065
3165.000000	96.197938
3164.000000	96.212788
3163.000000	96.226686
3162.000000	96.236872
3161.000000	96.241204
3160.000000	96.240931
3159.000000	96.240820
3158.000000	96.246297
3157.000000	96.260131
3156.000000	96.280974
3155.000000	96.304420
3154.000000	96.325749
3153.000000	96.342441
3152.000000	96.354582
3151.000000	96.363268
3150.000000	96.369409
3149.000000	96.374127
3148.000000	96.379205
3147.000000	96.386149
3146.000000	96.395158
3145.000000	96.405704
3144.000000	96.417476
3143.000000	96.429881
3142.000000	96.441192
3141.000000	96.449708
3140.000000	96.455980
3139.000000	96.462838
3138.000000	96.472721
3137.000000	96.485437
3136.000000	96.498612
3135.000000	96.509670
3134.000000	96.517507
3133.000000	96.523197
3132.000000	96.529469
3131.000000	96.538523
3130.000000	96.549753
3129.000000	96.560124
3128.000000	96.567422
3127.000000	96.572761
3126.000000	96.579224
3125.000000	96.588355
3124.000000	96.598827
3123.000000	96.608577
3122.000000	96.617223
3121.000000	96.625682
3120.000000	96.633936
3119.000000	96.640385
3118.000000	96.643760
3117.000000	96.644863
3116.000000	96.645481
3115.000000	96.645873
3114.000000	96.644628
3113.000000	96.641395
3112.000000	96.638666
3111.000000	96.639680
3110.000000	96.644492
3109.000000	96.648896
3108.000000	96.647623
3107.000000	96.638822
3106.000000	96.625738
3105.000000	96.614488
3104.000000	96.609900
3103.000000	96.612559
3102.000000	96.619034
3101.000000	96.624719
3100.000000	96.626762
3099.000000	96.624842
3098.000000	96.620070
3097.000000	96.613643
3096.000000	96.606253
3095.000000	96.598102
3094.000000	96.589475
3093.000000	96.581503
3092.000000	96.576086
3091.000000	96.574445
3090.000000	96.575557
3089.000000	96.576410
3088.000000	96.574200
3087.000000	96.568544
3086.000000	96.561672
3085.000000	96.556509
3084.000000	96.554288
3083.000000	96.553709
3082.000000	96.552343
3081.000000	96.548954
3080.000000	96.544592
3079.000000	96.541557
3078.000000	96.541312
3077.000000	96.543100
3076.000000	96.544239
3075.000000	96.542079
3074.000000	96.536476
3073.000000	96.530541
3072.000000	96.528381
3071.000000	96.531611
3070.000000	96.538157
3069.000000	96.544400
3068.000000	96.548018
3067.000000	96.548920
3066.000000	96.548470
3065.000000	96.548560
3064.000000	96.550707
3063.000000	96.555168
3062.000000	96.561069
3061.000000	96.567899
3060.000000	96.576642
3059.000000	96.588695
3058.000000	96.603565
3057.000000	96.617972
3056.000000	96.627681
3055.000000	96.630784
3054.000000	96.629783
3053.000000	96.630204
3052.000000	96.636220
3051.000000	96.647180
3050.000000	96.658993
3049.000000	96.669163
3048.000000	96.679349
3047.000000	96.692250
3046.000000	96.707271
3045.000000	96.720935
3044.000000	96.731157
3043.000000	96.739508
3042.000000	96.749105
3041.000000	96.761406
3040.000000	96.775607
3039.000000	96.790160
3038.000000	96.803983
3037.000000	96.816353
3036.000000	96.826482
3035.000000	96.833919
3034.000000	96.839552
3033.000000	96.845693
3032.000000	96.854197
3031.000000	96.864127
3030.000000	96.872192
3029.000000	96.876402
3028.000000	96.878857
3027.000000	96.884024
3026.000000	96.894235
3025.000000	96.907486
3024.000000	96.919591
3023.000000	96.927947
3022.000000	96.932969
3021.000000	96.936521
3020.000000	96.939530
3019.000000	96.941367
3018.000000	96.941622
3017.000000	96.941958
3016.000000	96.945028
3015.000000	96.950981
3014.000000	96.955975
3013.000000	96.955478
3012.000000	96.948832
3011.000000	96.939729
3010.000000	96.932446
3009.000000	96.928711
3008.000000	96.928079
3007.000000	96.929687
3006.000000	96.932867
3005.000000	96.936927
3004.000000	96.941393
3003.000000	96.946337
3002.000000	96.951949
3001.000000	96.957939
3000.000000	96.963702
2999.000000	96.968809
2998.000000	96.972804
2997.000000	96.974607
2996.000000	96.972881
2995.000000	96.967588
2994.000000	96.960812
2993.000000	96.955096
2992.000000	96.950553
2991.000000	96.944291
2990.000000	96.933299
2989.000000	96.917282
2988.000000	96.897854
2987.000000	96.875751
2986.000000	96.850550
2985.000000	96.823087
2984.000000	96.795987
2983.000000	96.770788
2982.000000	96.746171
2981.000000	96.720320
2980.000000	96.693809
2979.000000	96.668266
2978.000000	96.642890
2977.000000	96.614307
2976.000000	96.579900
2975.000000	96.539856
2974.000000	96.495610
2973.000000	96.447661
2972.000000	96.395650
2971.000000	96.339773
2970.000000	96.281488
2969.000000	96.222757
2968.000000	96.164461
2967.000000	96.105284
2966.000000	96.042597
2965.000000	95.975207
2964.000000	95.905030
2963.000000	95.835769
2962.000000	95.770572
2961.000000	95.711576
2960.000000	95.660642
2959.000000	95.618727
2958.000000	95.584780
2957.000000	95.556604
2956.000000	95.533399
2955.000000	95.516431
2954.000000	95.507120
2953.000000	95.505192
2952.000000	95.508516
2951.000000	95.513712
2950.000000	95.516469
2949.000000	95.512556
2948.000000	95.499222
2947.000000	95.475564
2946.000000	95.441397
2945.000000	95.395986
2944.000000	95.337984
2943.000000	95.265921
2942.000000	95.179137
2941.000000	95.078643
2940.000000	94.966876
2939.000000	94.845924
2938.000000	94.716038
2937.000000	94.576814
2936.000000	94.429127
2935.000000	94.274846
2934.000000	94.114911
2933.000000	93.949350
2932.000000	93.779808
2931.000000	93.610589
2930.000000	93.446512
2929.000000	93.290386
2928.000000	93.143812
2927.000000	93.010212
2926.000000	92.896083
2925.000000	92.809033
2924.000000	92.754185
2923.000000	92.733044
2922.000000	92.745356
2921.000000	92.791154
2920.000000	92.869932
2919.000000	92.977784
2918.000000	93.107443
2917.000000	93.251724
2916.000000	93.406451
2915.000000	93.568967
2914.000000	93.734880
2913.000000	93.898231
2912.000000	94.054348
2911.000000	94.201187
2910.000000	94.337439
2909.000000	94.461178
2908.000000	94.571347
2907.000000	94.669424
2906.000000	94.758584
2905.000000	94.841584
2904.000000	94.920099
2903.000000	94.995169
2902.000000	95.067252
2901.000000	95.135943
2900.000000	95.200588
2899.000000	95.261461
2898.000000	95.319668
2897.000000	95.376222
2896.000000	95.431288
2895.000000	95.484359
2894.000000	95.535136
2893.000000	95.584407
2892.000000	95.633811
2891.000000	95.684165
2890.000000	95.734046
2889.000000	95.780783
2888.000000	95.822969
2887.000000	95.861158
2886.000000	95.895999
2885.000000	95.926861
2884.000000	95.953049
2883.000000	95.975454
2882.000000	95.995657
2881.000000	96.013494
2880.000000	96.026190
2879.000000	96.030062
2878.000000	96.022922
2877.000000	96.005342
2876.000000	95.980412
2875.000000	95.952416
2874.000000	95.925400
2873.000000	95.902312
2872.000000	95.884657
2871.000000	95.872207
2870.000000	95.863215
2869.000000	95.855635
2868.000000	95.847900
2867.000000	95.837357
2866.000000	95.817911
2865.000000	95.781106
2864.000000	95.720977
2863.000000	95.637793
2862.000000	95.536329
2861.000000	95.420959
2860.000000	95.293287
2859.000000	95.154033
2858.000000	95.006155
2857.000000	94.856656
2856.000000	94.716497
2855.000000	94.598714
2854.000000	94.515985
2853.000000	94.478248
2852.000000	94.491159
2851.000000	94.555375
2850.000000	94.666144
2849.000000	94.814089
2848.000000	94.987576
2847.000000	95.175089
2846.000000	95.366387
2845.000000	95.553166
2844.000000	95.729425
2843.000000	95.891463
2842.000000	96.036850
2841.000000	96.163757
2840.000000	96.272360
2839.000000	96.365818
2838.000000	96.448317
2837.000000	96.521934
2836.000000	96.586274
2835.000000	96.641144
2834.000000	96.688202
2833.000000	96.729477
2832.000000	96.765757
2831.000000	96.797598
2830.000000	96.827061
2829.000000	96.857016
2828.000000	96.888453
2827.000000	96.919394
2826.000000	96.947126
2825.000000	96.971128
2824.000000	96.993434
2823.000000	97.016258
2822.000000	97.039755
2821.000000	97.062197
2820.000000	97.081870
2819.000000	97.098551
2818.000000	97.113566
2817.000000	97.128993
2816.000000	97.146445
2815.000000	97.165658
2814.000000	97.184050
2813.000000	97.198518
2812.000000	97.208334
2811.000000	97.216018
2810.000000	97.225004
2809.000000	97.236703
2808.000000	97.249990
2807.000000	97.262902
2806.000000	97.274294
2805.000000	97.284307
2804.000000	97.293858
2803.000000	97.303422
2802.000000	97.311921
2801.000000	97.317360
2800.000000	97.319378
2799.000000	97.320869
2798.000000	97.326012
2797.000000	97.336379
2796.000000	97.349542
2795.000000	97.361804
2794.000000	97.371809
2793.000000	97.381177
2792.000000	97.392016
2791.000000	97.404416
2790.000000	97.416511
2789.000000	97.426679
2788.000000	97.435098
2787.000000	97.442849
2786.000000	97.450002
2785.000000	97.455428
2784.000000	97.458590
2783.000000	97.460571
2782.000000	97.462835
2781.000000	97.465839
2780.000000	97.469732
2779.000000	97.475652
2778.000000	97.484861
2777.000000	97.496503
2776.000000	97.507442
2775.000000	97.514981
2774.000000	97.519289
2773.000000	97.522891
2772.000000	97.528274
2771.000000	97.536084
2770.000000	97.544869
2769.000000	97.552117
2768.000000	97.556187
2767.000000	97.557960
2766.000000	97.560360
2765.000000	97.565616
2764.000000	97.573069
2763.000000	97.579908
2762.000000	97.583834
2761.000000	97.584594
2760.000000	97.583418
2759.000000	97.581979
2758.000000	97.582008
2757.000000	97.584856
2756.000000	97.590598
2755.000000	97.597843
2754.000000	97.604981
2753.000000	97.611461
2752.000000	97.617476
2751.000000	97.622818
2750.000000	97.626910
2749.000000	97.629991
2748.000000	97.633412
2747.000000	97.638264
2746.000000	97.644142
2745.000000	97.649537
2744.000000	97.653099
2743.000000	97.654346
2742.000000	97.653756
2741.000000	97.652757
2740.000000	97.653149
2739.000000	97.655757
2738.000000	97.659678
2737.000000	97.663433
2736.000000	97.666763
2735.000000	97.670725
2734.000000	97.676062
2733.000000	97.682099
2732.000000	97.687385
2731.000000	97.690783
2730.000000	97.691751
2729.000000	97.690370
2728.000000	97.687895
2727.000000	97.686994
2726.000000	97.690411
2725.000000	97.698717
2724.000000	97.709378
2723.000000	97.718311
2722.000000	97.722601
2721.000000	97.722074
2720.000000	97.718953
2719.000000	97.716547
2718.000000	97.717928
2717.000000	97.724441
2716.000000	97.734404
2715.000000	97.743728
2714.000000	97.749198
2713.000000	97.751487
2712.000000	97.754163
2711.000000	97.759563
2710.000000	97.766625
2709.000000	97.772957
2708.000000	97.777588
2707.000000	97.780779
2706.000000	97.782572
2705.000000	97.783271
2704.000000	97.784567
2703.000000	97.788205
2702.000000	97.793458
2701.000000	97.797630
2700.000000	97.799512
2699.000000	97.800924
2698.000000	97.804168
2697.000000	97.809005
2696.000000	97.812853
2695.000000	97.813306
2694.000000	97.810086
2693.000000	97.805392
2692.000000	97.802828
2691.000000	97.804874
2690.000000	97.810392
2689.000000	97.815263
2688.000000	97.816487
2687.000000	97.815432
2686.000000	97.816142
2685.000000	97.820622
2684.000000	97.826679
2683.000000	97.830465
2682.000000	97.830206
2681.000000	97.826949
2680.000000	97.822557
2679.000000	97.818213
2678.000000	97.815040
2677.000000	97.814892
2676.000000	97.819056
2675.000000	97.826117
2674.000000	97.832274
2673.000000	97.834545
2672.000000	97.833285
2671.000000	97.831202
2670.000000	97.830576
2669.000000	97.831935
2668.000000	97.834460
2667.000000	97.836449
2666.000000	97.835954
2665.000000	97.832554
2664.000000	97.828683
2663.000000	97.827909
2662.000000	97.831348
2661.000000	97.836479
2660.000000	97.839670
2659.000000	97.839230
2658.000000	97.836054
2657.000000	97.832437
2656.000000	97.830771
2655.000000	97.832486
2654.000000	97.837440
2653.000000	97.844525
2652.000000	97.852829
2651.000000	97.861689
2650.000000	97.869908
2649.000000	97.876234
2648.000000	97.880950
2647.000000	97.885722
2646.000000	97.891295
2645.000000	97.896485
2644.000000	97.900231
2643.000000	97.903426
2642.000000	97.907578
2641.000000	97.912480
2640.000000	97.916464
2639.000000	97.918630
2638.000000	97.919716
2637.000000	97.920964
2636.000000	97.923029
2635.000000	97.926032
2634.000000	97.929965
2633.000000	97.934797
2632.000000	97.940255
2631.000000	97.945493
2630.000000	97.949333
2629.000000	97.951739
2628.000000	97.955137
2627.000000	97.963031
2626.000000	97.976426
2625.000000	97.992111
2624.000000	98.005060
2623.000000	98.012198
2622.000000	98.013880
2621.000000	98.012927
2620.000000	98.012812
2619.000000	98.015745
2618.000000	98.021343
2617.000000	98.027411
2616.000000	98.032294
2615.000000	98.035750
2614.000000	98.037648
2613.000000	98.037413
2612.000000	98.035648
2611.000000	98.034876
2610.000000	98.037255
2609.000000	98.042290
2608.000000	98.047771
2607.000000	98.052180
2606.000000	98.055302
2605.000000	98.057578
2604.000000	98.060015
2603.000000	98.063662
2602.000000	98.067730
2601.000000	98.069221
2600.000000	98.066249
2599.000000	98.061253
2598.000000	98.059224
2597.000000	98.062735
2596.000000	98.070059
2595.000000	98.078005
2594.000000	98.085087
2593.000000	98.091833
2592.000000	98.099262
2591.000000	98.107512
2590.000000	98.115198
2589.000000	98.119994
2588.000000	98.120570
2587.000000	98.118037
2586.000000	98.114933
2585.000000	98.112943
2584.000000	98.112229
2583.000000	98.112649
2582.000000	98.114501
2581.000000	98.117816
2580.000000	98.121600
2579.000000	98.124289
2578.000000	98.125060
2577.000000	98.124978
2576.000000	98.126889
2575.000000	98.133545
2574.000000	98.145261
2573.000000	98.159586
2572.000000	98.173326
2571.000000	98.184161
2570.000000	98.190121
2569.000000	98.189069
2568.000000	98.180588
2567.000000	98.168247
2566.000000	98.158397
2565.000000	98.155573
2564.000000	98.158911
2563.000000	98.163387
2562.000000	98.164745
2561.000000	98.163398
2560.000000	98.163638
2559.000000	98.169010
2558.000000	98.178706
2557.000000	98.188518
2556.000000	98.194783
2555.000000	98.197225
2554.000000	98.198933
2553.000000	98.204185
2552.000000	98.215019
2551.000000	98.228302
2550.000000	98.236952
2549.000000	98.236067
2548.000000	98.227870
2547.000000	98.219156
2546.000000	98.214369
2545.000000	98.213024
2544.000000	98.213103
2543.000000	98.213944
2542.000000	98.215295
2541.000000	98.216359
2540.000000	98.217053
2539.000000	98.218378
2538.000000	98.220823
2537.000000	98.224373
2536.000000	98.230404
2535.000000	98.240580
2534.000000	98.252731
2533.000000	98.260765
2532.000000	98.260608
2531.000000	98.254170
2530.000000	98.245888
2529.000000	98.238318
2528.000000	98.233198
2527.000000	98.233599
2526.000000	98.241138
2525.000000	98.252524
2524.000000	98.262330
2523.000000	98.268163
2522.000000	98.270254
2521.000000	98.267447
2520.000000	98.258115
2519.000000	98.245313
2518.000000	98.236994
2517.000000	98.239329
2516.000000	98.251355
2515.000000	98.266588
2514.000000	98.277974
2513.000000	98.281535
2512.000000	98.278517
2511.000000	98.275200
2510.000000	98.277917
2509.000000	98.286360
2508.000000	98.293627
2507.000000	98.294762
2506.000000	98.293496
2505.000000	98.297810
2504.000000	98.309614
2503.000000	98.321719
2502.000000	98.325920
2501.000000	98.321774
2500.000000	98.315509
2499.000000	98.311698
2498.000000	98.308894
2497.000000	98.304214
2496.000000	98.299347
2495.000000	98.299038
2494.000000	98.304395
2493.000000	98.310943
2492.000000	98.314457
2491.000000	98.316281
2490.000000	98.320811
2489.000000	98.329228
2488.000000	98.338232
2487.000000	98.344371
2486.000000	98.346999
2485.000000	98.346695
2484.000000	98.343270
2483.000000	98.337005
2482.000000	98.330584
2481.000000	98.327838
2480.000000	98.330404
2479.000000	98.336492
2478.000000	98.342904
2477.000000	98.347357
2476.000000	98.348929
2475.000000	98.347838
2474.000000	98.346124
2473.000000	98.347696
2472.000000	98.355540
2471.000000	98.368004
2470.000000	98.379102
2469.000000	98.383728
2468.000000	98.382171
2467.000000	98.378839
2466.000000	98.377207
2465.000000	98.376942
2464.000000	98.375316
2463.000000	98.370090
2462.000000	98.361484
2461.000000	98.352693
2460.000000	98.348349
2459.000000	98.351016
2458.000000	98.358603
2457.000000	98.365611
2456.000000	98.367153
2455.000000	98.362009
2454.000000	98.353160
2453.000000	98.346436
2452.000000	98.346940
2451.000000	98.354408
2450.000000	98.362431
2449.000000	98.364430
2448.000000	98.360621
2447.000000	98.357471
2446.000000	98.360129
2445.000000	98.366977
2444.000000	98.371689
2443.000000	98.369150
2442.000000	98.359834
2441.000000	98.350126
2440.000000	98.347739
2439.000000	98.354524
2438.000000	98.364036
2437.000000	98.368356
2436.000000	98.366909
2435.000000	98.365648
2434.000000	98.368121
2433.000000	98.371477
2432.000000	98.372129
2431.000000	98.371206
2430.000000	98.371931
2429.000000	98.374762
2428.000000	98.377820
2427.000000	98.379893
2426.000000	98.380441
2425.000000	98.378511
2424.000000	98.374523
2423.000000	98.372137
2422.000000	98.375915
2421.000000	98.387119
2420.000000	98.402564
2419.000000	98.416379
2418.000000	98.422339
2417.000000	98.417204
2416.000000	98.404125
2415.000000	98.391241
2414.000000	98.384719
2413.000000	98.384218
2412.000000	98.386558
2411.000000	98.391563
2410.000000	98.401434
2409.000000	98.415736
2408.000000	98.430240
2407.000000	98.440619
2406.000000	98.445043
2405.000000	98.443726
2404.000000	98.438721
2403.000000	98.433964
2402.000000	98.432575
2401.000000	98.433349
2400.000000	98.431848
2399.000000	98.425789
2398.000000	98.417751
2397.000000	98.411820
2396.000000	98.409198
2395.000000	98.408214
2394.000000	98.407631
2393.000000	98.408512
2392.000000	98.412703
2391.000000	98.420183
2390.000000	98.428409
2389.000000	98.434472
2388.000000	98.437706
2387.000000	98.439416
2386.000000	98.440209
2385.000000	98.438770
2384.000000	98.434151
2383.000000	98.428292
2382.000000	98.424684
2381.000000	98.424980
2380.000000	98.427769
2379.000000	98.430479
2378.000000	98.431596
2377.000000	98.431260
2376.000000	98.431051
2375.000000	98.433073
2374.000000	98.437780
2373.000000	98.442212
2372.000000	98.442028
2371.000000	98.436401
2370.000000	98.429633
2369.000000	98.426575
2368.000000	98.427332
2367.000000	98.428050
2366.000000	98.425983
2365.000000	98.421863
2364.000000	98.417380
2363.000000	98.411354
2362.000000	98.402617
2361.000000	98.397520
2360.000000	98.402709
2359.000000	98.417190
2358.000000	98.432461
2357.000000	98.437754
2356.000000	98.433003
2355.000000	98.423544
2354.000000	98.414519
2353.000000	98.411269
2352.000000	98.417444
2351.000000	98.429000
2350.000000	98.430797
2349.000000	98.413822
2348.000000	98.381657
2347.000000	98.348926
2346.000000	98.333931
2345.000000	98.343723
2344.000000	98.369211
2343.000000	98.390455
2342.000000	98.399345
2341.000000	98.400546
2340.000000	98.397581
2339.000000	98.392529
2338.000000	98.388177
2337.000000	98.387411
2336.000000	98.389835
2335.000000	98.393496
2334.000000	98.397121
2333.000000	98.400791
2332.000000	98.404076
2331.000000	98.408109
2330.000000	98.411051
2329.000000	98.411342
2328.000000	98.403399
2327.000000	98.381039
2326.000000	98.346218
2325.000000	98.309614
2324.000000	98.289481
2323.000000	98.293850
2322.000000	98.316843
2321.000000	98.343114
2320.000000	98.361155
2319.000000	98.370536
2318.000000	98.375878
2317.000000	98.382265
2316.000000	98.390112
2315.000000	98.397304
2314.000000	98.401196
2313.000000	98.402234
2312.000000	98.403730
2311.000000	98.407540
2310.000000	98.412089
2309.000000	98.415519
2308.000000	98.419945
2307.000000	98.426887
2306.000000	98.433397
2305.000000	98.433433
2304.000000	98.426807
2303.000000	98.419103
2302.000000	98.414563
2301.000000	98.412068
2300.000000	98.409894
2299.000000	98.410998
2298.000000	98.418368
2297.000000	98.428416
2296.000000	98.431707
2295.000000	98.422077
2294.000000	98.403892
2293.000000	98.389487
2292.000000	98.389800
2291.000000	98.403334
2290.000000	98.416225
2289.000000	98.413758
2288.000000	98.395027
2287.000000	98.372462
2286.000000	98.358706
2285.000000	98.356617
2284.000000	98.363374
2283.000000	98.377574
2282.000000	98.398454
2281.000000	98.421484
2280.000000	98.440403
2279.000000	98.452715
2278.000000	98.459656
2277.000000	98.462950
2276.000000	98.464365
2275.000000	98.467303
2274.000000	98.474281
2273.000000	98.484476
2272.000000	98.495686
2271.000000	98.506566
2270.000000	98.514616
2269.000000	98.515354
2268.000000	98.508041
2267.000000	98.498981
2266.000000	98.494048
2265.000000	98.490513
2264.000000	98.481942
2263.000000	98.470162
2262.000000	98.466217
2261.000000	98.478568
2260.000000	98.505183
2259.000000	98.536331
2258.000000	98.561120
2257.000000	98.571029
2256.000000	98.563606
2255.000000	98.545924
2254.000000	98.530470
2253.000000	98.525219
2252.000000	98.528276
2251.000000	98.533029
2250.000000	98.535514
2249.000000	98.535990
2248.000000	98.536189
2247.000000	98.537200
2246.000000	98.539147
2245.000000	98.541654
2244.000000	98.545414
2243.000000	98.553168
2242.000000	98.567005
2241.000000	98.583087
2240.000000	98.591038
2239.000000	98.582211
2238.000000	98.560017
2237.000000	98.539526
2236.000000	98.533140
2235.000000	98.536936
2234.000000	98.536115
2233.000000	98.525753
2232.000000	98.520423
2231.000000	98.537246
2230.000000	98.572485
2229.000000	98.602626
2228.000000	98.608607
2227.000000	98.592017
2226.000000	98.566892
2225.000000	98.544566
2224.000000	98.530597
2223.000000	98.527882
2222.000000	98.534421
2221.000000	98.541307
2220.000000	98.540799
2219.000000	98.537076
2218.000000	98.544405
2217.000000	98.573301
2216.000000	98.618859
2215.000000	98.661487
2214.000000	98.678860
2213.000000	98.661419
2212.000000	98.621040
2211.000000	98.583303
2210.000000	98.568615
2209.000000	98.579947
2208.000000	98.605839
2207.000000	98.630897
2206.000000	98.642998
2205.000000	98.636016
2204.000000	98.611393
2203.000000	98.576916
2202.000000	98.542454
2201.000000	98.516485
2200.000000	98.503302
2199.000000	98.499773
2198.000000	98.496668
2197.000000	98.487992
2196.000000	98.478127
2195.000000	98.474999
2194.000000	98.478668
2193.000000	98.484195
2192.000000	98.494790
2191.000000	98.521114
2190.000000	98.564031
2189.000000	98.607853
2188.000000	98.637470
2187.000000	98.655532
2186.000000	98.674559
2185.000000	98.697371
2184.000000	98.714138
2183.000000	98.716984
2182.000000	98.710133
2181.000000	98.703628
2180.000000	98.699878
2179.000000	98.688959
2178.000000	98.660632
2177.000000	98.623049
2176.000000	98.602985
2175.000000	98.617552
2174.000000	98.648030
2173.000000	98.654548
2172.000000	98.619092
2171.000000	98.562475
2170.000000	98.517876
2169.000000	98.499828
2168.000000	98.501740
2167.000000	98.512984
2166.000000	98.529347
2165.000000	98.551860
2164.000000	98.584123
2163.000000	98.629144
2162.000000	98.686717
2161.000000	98.759622
2160.000000	98.861358
2159.000000	98.999039
2158.000000	99.138235
2157.000000	99.213636
2156.000000	99.195011
2155.000000	99.116993
2154.000000	99.035646
2153.000000	98.977781
2152.000000	98.935949
2151.000000	98.897283
2150.000000	98.864417
2149.000000	98.847682
2148.000000	98.846238
2147.000000	98.844419
2146.000000	98.826491
2145.000000	98.790829
2144.000000	98.747020
2143.000000	98.703339
2142.000000	98.665280
2141.000000	98.645094
2140.000000	98.658552
2139.000000	98.703170
2138.000000	98.748490
2137.000000	98.761215
2136.000000	98.740194
2135.000000	98.716423
2134.000000	98.717452
2133.000000	98.742537
2132.000000	98.772027
2131.000000	98.787894
2130.000000	98.781060
2129.000000	98.750934
2128.000000	98.708390
2127.000000	98.674114
2126.000000	98.664818
2125.000000	98.678732
2124.000000	98.697162
2123.000000	98.701396
2122.000000	98.687562
2121.000000	98.666136
2120.000000	98.648557
2119.000000	98.636052
2118.000000	98.622907
2117.000000	98.608753
2116.000000	98.602163
2115.000000	98.609722
2114.000000	98.626850
2113.000000	98.643585
2112.000000	98.654649
2111.000000	98.657712
2110.000000	98.647110
2109.000000	98.620515
2108.000000	98.590302
2107.000000	98.576110
2106.000000	98.582951
2105.000000	98.595773
2104.000000	98.598653
2103.000000	98.590958
2102.000000	98.581134
2101.000000	98.574125
2100.000000	98.572211
2099.000000	98.580413
2098.000000	98.601366
2097.000000	98.626616
2096.000000	98.640844
2095.000000	98.636180
2094.000000	98.618922
2093.000000	98.603183
2092.000000	98.599750
2091.000000	98.609195
2090.000000	98.623587
2089.000000	98.635502
2088.000000	98.644886
2087.000000	98.653906
2086.000000	98.657315
2085.000000	98.645880
2084.000000	98.620771
2083.000000	98.596546
2082.000000	98.585610
2081.000000	98.586045
2080.000000	98.589051
2079.000000	98.592305
2078.000000	98.600063
2077.000000	98.614293
2076.000000	98.633091
2075.000000	98.655684
2074.000000	98.681599
2073.000000	98.705479
2072.000000	98.717519
2071.000000	98.710699
2070.000000	98.686871
2069.000000	98.657047
2068.000000	98.635831
2067.000000	98.631157
2066.000000	98.637549
2065.000000	98.641723
2064.000000	98.637288
2063.000000	98.632282
2062.000000	98.640997
2061.000000	98.670810
2060.000000	98.715267
2059.000000	98.756289
2058.000000	98.775152
2057.000000	98.766807
2056.000000	98.743238
2055.000000	98.717834
2054.000000	98.690360
2053.000000	98.656721
2052.000000	98.627548
2051.000000	98.621530
2050.000000	98.638868
2049.000000	98.654096
2048.000000	98.644899
2047.000000	98.619593
2046.000000	98.604980
2045.000000	98.618269
2044.000000	98.660659
2043.000000	98.723885
2042.000000	98.790669
2041.000000	98.840102
2040.000000	98.866599
2039.000000	98.883859
2038.000000	98.900404
2037.000000	98.905947
2036.000000	98.893556
2035.000000	98.879346
2034.000000	98.883137
2033.000000	98.904255
2032.000000	98.935407
2031.000000	98.983157
2030.000000	99.048093
2029.000000	99.096554
2028.000000	99.084341
2027.000000	99.011215
2026.000000	98.929089
2025.000000	98.894117
2024.000000	98.920290
2023.000000	98.977444
2022.000000	99.023116
2021.000000	99.032577
2020.000000	99.010582
2019.000000	98.979946
2018.000000	98.959037
2017.000000	98.952916
2016.000000	98.962523
2015.000000	98.988875
2014.000000	99.020675
2013.000000	99.029736
2012.000000	98.994193
2011.000000	98.923689
2010.000000	98.851357
2009.000000	98.806367
2008.000000	98.800807
2007.000000	98.834410
2006.000000	98.895695
2005.000000	98.957314
2004.000000	98.988232
2003.000000	98.979698
2002.000000	98.952507
2001.000000	98.933094
2000.000000	98.927245
1999.000000	98.919165
1998.000000	98.895682
1997.000000	98.865389
1996.000000	98.847382
1995.000000	98.848332
1994.000000	98.860878
1993.000000	98.880544
1992.000000	98.908707
1991.000000	98.936702
1990.000000	98.944186
1989.000000	98.924066
1988.000000	98.895829
1987.000000	98.881436
1986.000000	98.877236
1985.000000	98.863792
1984.000000	98.836921
1983.000000	98.811817
1982.000000	98.799325
1981.000000	98.795120
1980.000000	98.795959
1979.000000	98.810294
1978.000000	98.848254
1977.000000	98.910469
1976.000000	98.986973
1975.000000	99.058669
1974.000000	99.100682
1973.000000	99.100162
1972.000000	99.072524
1971.000000	99.046210
1970.000000	99.032662
1969.000000	99.023745
1968.000000	99.012000
1967.000000	98.998332
1966.000000	98.983033
1965.000000	98.965716
1964.000000	98.953726
1963.000000	98.956186
1962.000000	98.969503
1961.000000	98.979671
1960.000000	98.978668
1959.000000	98.967369
1958.000000	98.944862
1957.000000	98.909812
1956.000000	98.871790
1955.000000	98.848087
1954.000000	98.847835
1953.000000	98.868430
1952.000000	98.904034
1951.000000	98.948461
1950.000000	98.989018
1949.000000	99.008229
1948.000000	98.999915
1947.000000	98.975807
1946.000000	98.953667
1945.000000	98.944717
1944.000000	98.951846
1943.000000	98.970512
1942.000000	98.987982
1941.000000	98.991173
1940.000000	98.977030
1939.000000	98.950072
1938.000000	98.916479
1937.000000	98.886376
1936.000000	98.873615
1935.000000	98.884102
1934.000000	98.907493
1933.000000	98.928446
1932.000000	98.942046
1931.000000	98.953353
1930.000000	98.963050
1929.000000	98.963368
1928.000000	98.953727
1927.000000	98.943526
1926.000000	98.941064
1925.000000	98.944639
1924.000000	98.948708
1923.000000	98.953778
1922.000000	98.960558
1921.000000	98.964267
1920.000000	98.959366
1919.000000	98.945698
1918.000000	98.926347
1917.000000	98.904215
1916.000000	98.885742
1915.000000	98.879635
1914.000000	98.888255
1913.000000	98.904641
1912.000000	98.916320
1911.000000	98.915714
1910.000000	98.906314
1909.000000	98.899879
1908.000000	98.908237
1907.000000	98.929825
1906.000000	98.950781
1905.000000	98.956363
1904.000000	98.942378
1903.000000	98.917805
1902.000000	98.892221
1901.000000	98.871044
1900.000000	98.861050
1899.000000	98.866985
1898.000000	98.884262
1897.000000	98.900826
1896.000000	98.909493
1895.000000	98.915985
1894.000000	98.927442
1893.000000	98.940730
1892.000000	98.947590
1891.000000	98.945907
1890.000000	98.941375
1889.000000	98.940459
1888.000000	98.943820
1887.000000	98.945964
1886.000000	98.940330
1885.000000	98.926800
1884.000000	98.913942
1883.000000	98.911227
1882.000000	98.917981
1881.000000	98.924937
1880.000000	98.926542
1879.000000	98.922955
1878.000000	98.914608
1877.000000	98.901768
1876.000000	98.886961
1875.000000	98.876868
1874.000000	98.879880
1873.000000	98.900087
1872.000000	98.934101
1871.000000	98.971652
1870.000000	98.998711
1869.000000	99.004945
1868.000000	98.995607
1867.000000	98.986554
1866.000000	98.983203
1865.000000	98.980317
1864.000000	98.975638
1863.000000	98.970723
1862.000000	98.964416
1861.000000	98.954281
1860.000000	98.943605
1859.000000	98.938298
1858.000000	98.937569
1857.000000	98.935651
1856.000000	98.931467
1855.000000	98.928909
1854.000000	98.929569
1853.000000	98.930955
1852.000000	98.936166
1851.000000	98.947977
1850.000000	98.961705
1849.000000	98.974813
1848.000000	98.991737
1847.000000	99.014119
1846.000000	99.029389
1845.000000	99.021899
1844.000000	98.993308
1843.000000	98.967454
1842.000000	98.962332
1841.000000	98.969860
1840.000000	98.976585
1839.000000	98.979367
1838.000000	98.979530
1837.000000	98.974817
1836.000000	98.966546
1835.000000	98.965656
1834.000000	98.980465
1833.000000	99.008542
1832.000000	99.041745
1831.000000	99.067796
1830.000000	99.074258
1829.000000	99.063995
1828.000000	99.054208
1827.000000	99.053043
1826.000000	99.052836
1825.000000	99.045576
1824.000000	99.033447
1823.000000	99.024154
1822.000000	99.018038
1821.000000	99.011032
1820.000000	99.005021
1819.000000	99.004237
1818.000000	99.008619
1817.000000	99.012180
1816.000000	99.011947
1815.000000	99.013400
1814.000000	99.019040
1813.000000	99.026226
1812.000000	99.031063
1811.000000	99.032292
1810.000000	99.030820
1809.000000	99.023867
1808.000000	99.012081
1807.000000	99.003654
1806.000000	99.004418
1805.000000	99.011772
1804.000000	99.020635
1803.000000	99.030429
1802.000000	99.037831
1801.000000	99.038265
1800.000000	99.032533
1799.000000	99.027250
1798.000000	99.027680
1797.000000	99.032313
1796.000000	99.040063
1795.000000	99.051744
1794.000000	99.064618
1793.000000	99.073316
1792.000000	99.071537
1791.000000	99.061058
1790.000000	99.050321
1789.000000	99.040981
1788.000000	99.033356
1787.000000	99.030673
1786.000000	99.031895
1785.000000	99.031010
1784.000000	99.029191
1783.000000	99.035051
1782.000000	99.041937
1781.000000	99.039026
1780.000000	99.029007
1779.000000	99.023112
1778.000000	99.028150
1777.000000	99.040479
1776.000000	99.058170
1775.000000	99.075586
1774.000000	99.081265
1773.000000	99.071792
1772.000000	99.060005
1771.000000	99.062087
1770.000000	99.069970
1769.000000	99.056384
1768.000000	99.016753
1767.000000	98.981167
1766.000000	98.972565
1765.000000	98.979491
1764.000000	98.977447
1763.000000	98.960888
1762.000000	98.939596
1761.000000	98.923791
1760.000000	98.913789
1759.000000	98.899344
1758.000000	98.863025
1757.000000	98.796729
1756.000000	98.723804
1755.000000	98.670010
1754.000000	98.626903
1753.000000	98.567720
1752.000000	98.489273
1751.000000	98.414586
1750.000000	98.361031
1749.000000	98.313458
1748.000000	98.252195
1747.000000	98.184128
1746.000000	98.120615
1745.000000	98.064462
1744.000000	98.015166
1743.000000	97.979430
1742.000000	97.963161
1741.000000	97.958157
1740.000000	97.956608
1739.000000	97.970933
1738.000000	98.008473
1737.000000	98.043738
1736.000000	98.047124
1735.000000	98.039615
1734.000000	98.065490
1733.000000	98.131608
1732.000000	98.221614
1731.000000	98.306838
1730.000000	98.356223
1729.000000	98.366875
1728.000000	98.362534
1727.000000	98.362090
1726.000000	98.364383
1725.000000	98.363867
1724.000000	98.357088
1723.000000	98.351196
1722.000000	98.357792
1721.000000	98.368604
1720.000000	98.359925
1719.000000	98.321298
1718.000000	98.270442
1717.000000	98.225753
1716.000000	98.188058
1715.000000	98.148874
1714.000000	98.096956
1713.000000	98.031043
1712.000000	97.965458
1711.000000	97.918356
1710.000000	97.898639
1709.000000	97.906583
1708.000000	97.937511
1707.000000	97.974658
1706.000000	97.999478
1705.000000	98.007413
1704.000000	98.009412
1703.000000	98.001094
1702.000000	97.959788
1701.000000	97.884945
1700.000000	97.800009
1699.000000	97.738946
1698.000000	97.688353
1697.000000	97.578287
1696.000000	97.402159
1695.000000	97.257439
1694.000000	97.207553
1693.000000	97.201980
1692.000000	97.165638
1691.000000	97.085987
1690.000000	96.996336
1689.000000	96.914655
1688.000000	96.833352
1687.000000	96.731764
1686.000000	96.605656
1685.000000	96.468202
1684.000000	96.333564
1683.000000	96.235107
1682.000000	96.159058
1681.000000	96.044729
1680.000000	95.885748
1679.000000	95.728356
1678.000000	95.595400
1677.000000	95.459931
1676.000000	95.295164
1675.000000	95.120192
1674.000000	94.969728
1673.000000	94.844950
1672.000000	94.713395
1671.000000	94.553894
1670.000000	94.365933
1669.000000	94.151610
1668.000000	93.932133
1667.000000	93.737029
1666.000000	93.567755
1665.000000	93.401075
1664.000000	93.218747
1663.000000	93.028934
1662.000000	92.843649
1661.000000	92.658835
1660.000000	92.470450
1659.000000	92.287808
1658.000000	92.130574
1657.000000	91.996667
1656.000000	91.856277
1655.000000	91.682215
1654.000000	91.516872
1653.000000	91.394936
1652.000000	91.295579
1651.000000	91.251579
1650.000000	91.255070
1649.000000	91.227635
1648.000000	91.155564
1647.000000	91.090529
1646.000000	91.052260
1645.000000	91.007032
1644.000000	90.946247
1643.000000	90.886393
1642.000000	90.826289
1641.000000	90.764377
1640.000000	90.708602
1639.000000	90.660425
1638.000000	90.612735
1637.000000	90.565202
1636.000000	90.529790
1635.000000	90.496673
1634.000000	90.446719
1633.000000	90.379368
1632.000000	90.298732
1631.000000	90.222124
1630.000000	90.178544
1629.000000	90.181816
1628.000000	90.218786
1627.000000	90.266708
1626.000000	90.312706
1625.000000	90.365978
1624.000000	90.453997
1623.000000	90.590425
1622.000000	90.741564
1621.000000	90.861753
1620.000000	90.940969
1619.000000	90.998893
1618.000000	91.090471
1617.000000	91.274115
1616.000000	91.524691
1615.000000	91.759724
1614.000000	91.942666
1613.000000	92.085318
1612.000000	92.219830
1611.000000	92.377377
1610.000000	92.556519
1609.000000	92.737253
1608.000000	92.910407
1607.000000	93.076489
1606.000000	93.228685
1605.000000	93.365886
1604.000000	93.500410
1603.000000	93.637412
1602.000000	93.769100
1601.000000	93.888336
1600.000000	93.997300
1599.000000	94.098465
1598.000000	94.190017
1597.000000	94.274195
1596.000000	94.356963
1595.000000	94.437673
1594.000000	94.508335
1593.000000	94.566402
1592.000000	94.617324
1591.000000	94.662467
1590.000000	94.696301
1589.000000	94.718650
1588.000000	94.736666
1587.000000	94.751195
1586.000000	94.754748
1585.000000	94.743558
1584.000000	94.726835
1583.000000	94.705761
1582.000000	94.671121
1581.000000	94.626998
1580.000000	94.583613
1579.000000	94.528482
1578.000000	94.439258
1577.000000	94.328178
1576.000000	94.236116
1575.000000	94.184411
1574.000000	94.155197
1573.000000	94.115614
1572.000000	94.046136
1571.000000	93.956713
1570.000000	93.862361
1569.000000	93.761364
1568.000000	93.656981
1567.000000	93.548144
1566.000000	93.426534
1565.000000	93.293343
1564.000000	93.166563
1563.000000	93.042350
1562.000000	92.898223
1561.000000	92.732110
1560.000000	92.605176
1559.000000	92.535143
1558.000000	92.451021
1557.000000	92.323385
1556.000000	92.173284
1555.000000	92.010657
1554.000000	91.849998
1553.000000	91.717353
1552.000000	91.613517
1551.000000	91.517984
1550.000000	91.424763
1549.000000	91.339247
1548.000000	91.261416
1547.000000	91.189293
1546.000000	91.129228
1545.000000	91.094691
1544.000000	91.084377
1543.000000	91.078541
1542.000000	91.066584
1541.000000	91.063365
1540.000000	91.077902
1539.000000	91.085715
1538.000000	91.082053
1537.000000	91.087703
1536.000000	91.094281
1535.000000	91.106131
1534.000000	91.164106
1533.000000	91.267723
1532.000000	91.353377
1531.000000	91.394079
1530.000000	91.423899
1529.000000	91.475363
1528.000000	91.554602
1527.000000	91.653303
1526.000000	91.759050
1525.000000	91.853849
1524.000000	91.921823
1523.000000	91.971101
1522.000000	92.045616
1521.000000	92.160704
1520.000000	92.275694
1519.000000	92.367450
1518.000000	92.443521
1517.000000	92.514960
1516.000000	92.581453
1515.000000	92.635956
1514.000000	92.685682
1513.000000	92.750390
1512.000000	92.844230
1511.000000	92.960429
1510.000000	93.077030
1509.000000	93.181433
1508.000000	93.304024
1507.000000	93.487464
1506.000000	93.675286
1505.000000	93.786580
1504.000000	93.861307
1503.000000	93.943210
1502.000000	94.030696
1501.000000	94.130313
1500.000000	94.244663
1499.000000	94.360834
1498.000000	94.468750
1497.000000	94.575877
1496.000000	94.684322
1495.000000	94.796001
1494.000000	94.913251
1493.000000	95.027806
1492.000000	95.138099
1491.000000	95.264053
1490.000000	95.412499
1489.000000	95.546236
1488.000000	95.625615
1487.000000	95.658661
1486.000000	95.673942
1485.000000	95.680524
1484.000000	95.684308
1483.000000	95.692724
1482.000000	95.708877
1481.000000	95.723230
1480.000000	95.721901
1479.000000	95.705074
1478.000000	95.681061
1477.000000	95.651691
1476.000000	95.608012
1475.000000	95.544511
1474.000000	95.455554
1473.000000	95.328737
1472.000000	95.162970
1471.000000	94.985474
1470.000000	94.818882
1469.000000	94.661671
1468.000000	94.514153
1467.000000	94.390942
1466.000000	94.301776
1465.000000	94.237006
1464.000000	94.178352
1463.000000	94.117530
1462.000000	94.062361
1461.000000	94.015844
1460.000000	93.970448
1459.000000	93.915109
1458.000000	93.849034
1457.000000	93.776433
1456.000000	93.707099
1455.000000	93.661634
1454.000000	93.634100
1453.000000	93.602136
1452.000000	93.571401
1451.000000	93.564996
1450.000000	93.588550
1449.000000	93.630844
1448.000000	93.679936
1447.000000	93.726946
1446.000000	93.759148
1445.000000	93.778089
1444.000000	93.797570
1443.000000	93.825771
1442.000000	93.865647
1441.000000	93.913436
1440.000000	93.960158
1439.000000	93.997881
1438.000000	94.042236
1437.000000	94.123221
1436.000000	94.235099
1435.000000	94.337478
1434.000000	94.412485
1433.000000	94.468171
1432.000000	94.519215
1431.000000	94.575465
1430.000000	94.630580
1429.000000	94.671238
1428.000000	94.691848
1427.000000	94.701541
1426.000000	94.709096
1425.000000	94.722549
1424.000000	94.744385
1423.000000	94.759558
1422.000000	94.752274
1421.000000	94.726888
1420.000000	94.711932
1419.000000	94.725013
1418.000000	94.751426
1417.000000	94.769923
1416.000000	94.770706
1415.000000	94.756644
1414.000000	94.739002
1413.000000	94.725416
1412.000000	94.713186
1411.000000	94.695852
1410.000000	94.673353
1409.000000	94.650266
1408.000000	94.628373
1407.000000	94.610186
1406.000000	94.596206
1405.000000	94.585436
1404.000000	94.576850
1403.000000	94.568228
1402.000000	94.560754
1401.000000	94.559316
1400.000000	94.571332
1399.000000	94.596937
1398.000000	94.625507
1397.000000	94.648009
1396.000000	94.665682
1395.000000	94.682675
1394.000000	94.693063
1393.000000	94.692171
1392.000000	94.685346
1391.000000	94.677674
1390.000000	94.669464
1389.000000	94.661410
1388.000000	94.656685
1387.000000	94.656362
1386.000000	94.655282
1385.000000	94.647385
1384.000000	94.633145
1383.000000	94.618850
1382.000000	94.611262
1381.000000	94.609949
1380.000000	94.611950
1379.000000	94.619304
1378.000000	94.635767
1377.000000	94.662921
1376.000000	94.703547
1375.000000	94.761724
1374.000000	94.830496
1373.000000	94.891993
1372.000000	94.936722
1371.000000	94.973585
1370.000000	95.014568
1369.000000	95.063889
1368.000000	95.119452
1367.000000	95.177930
1366.000000	95.240011
1365.000000	95.309512
1364.000000	95.389428
1363.000000	95.475534
1362.000000	95.553928
1361.000000	95.611647
1360.000000	95.648953
1359.000000	95.675723
1358.000000	95.699567
1357.000000	95.721541
1356.000000	95.738819
1355.000000	95.748415
1354.000000	95.748791
1353.000000	95.740061
1352.000000	95.722893
1351.000000	95.700060
1350.000000	95.673155
1349.000000	95.642885
1348.000000	95.609938
1347.000000	95.574250
1346.000000	95.535536
1345.000000	95.494512
1344.000000	95.454113
1343.000000	95.417825
1342.000000	95.387391
1341.000000	95.362245
1340.000000	95.340291
1339.000000	95.318344
1338.000000	95.294926
1337.000000	95.274318
1336.000000	95.265274
1335.000000	95.273571
1334.000000	95.296448
1333.000000	95.326298
1332.000000	95.358483
1331.000000	95.393349
1330.000000	95.431787
1329.000000	95.472802
1328.000000	95.514502
1327.000000	95.554373
1326.000000	95.587522
1325.000000	95.609301
1324.000000	95.619359
1323.000000	95.620962
1322.000000	95.617629
1321.000000	95.611284
1320.000000	95.603264
1319.000000	95.595140
1318.000000	95.588494
1317.000000	95.584840
1316.000000	95.586005
1315.000000	95.593362
1314.000000	95.606766
1313.000000	95.625348
1312.000000	95.648549
1311.000000	95.675299
1310.000000	95.703060
1309.000000	95.729464
1308.000000	95.753634
1307.000000	95.774996
1306.000000	95.790996
1305.000000	95.799679
1304.000000	95.803781
1303.000000	95.809605
1302.000000	95.821373
1301.000000	95.837845
1300.000000	95.854923
1299.000000	95.869640
1298.000000	95.880797
1297.000000	95.886953
1296.000000	95.885599
1295.000000	95.873884
1294.000000	95.850247
1293.000000	95.815591
1292.000000	95.773146
1291.000000	95.727259
1290.000000	95.681658
1289.000000	95.638808
1288.000000	95.599768
1287.000000	95.563317
1286.000000	95.526099
1285.000000	95.486104
1284.000000	95.446236
1283.000000	95.412734
1282.000000	95.389641
1281.000000	95.375778
1280.000000	95.367939
1279.000000	95.364567
1278.000000	95.365983
1277.000000	95.372875
1276.000000	95.384953
1275.000000	95.399904
1274.000000	95.413496
1273.000000	95.422440
1272.000000	95.426954
1271.000000	95.428752
1270.000000	95.427118
1269.000000	95.419695
1268.000000	95.407067
1267.000000	95.393149
1266.000000	95.380481
1265.000000	95.367478
1264.000000	95.351367
1263.000000	95.331317
1262.000000	95.306964
1261.000000	95.276501
1260.000000	95.238807
1259.000000	95.195765
1258.000000	95.150351
1257.000000	95.102981
1256.000000	95.051822
1255.000000	94.995766
1254.000000	94.935605
1253.000000	94.872941
1252.000000	94.808761
1251.000000	94.742821
1250.000000	94.673669
1249.000000	94.600104
1248.000000	94.522994
1247.000000	94.444170
1246.000000	94.364050
1245.000000	94.282266
1244.000000	94.200651
1243.000000	94.123030
1242.000000	94.051407
1241.000000	93.984797
1240.000000	93.922469
1239.000000	93.865749
1238.000000	93.815888
1237.000000	93.773887
1236.000000	93.742855
1235.000000	93.727300
1234.000000	93.729134
1233.000000	93.746343
1232.000000	93.776725
1231.000000	93.819233
1230.000000	93.872005
1229.000000	93.933746
1228.000000	94.006555
1227.000000	94.094094
1226.000000	94.195535
1225.000000	94.304650
1224.000000	94.416011
1223.000000	94.528335
1222.000000	94.641338
1221.000000	94.752167
1220.000000	94.856161
1219.000000	94.949207
1218.000000	95.029314
1217.000000	95.097141
1216.000000	95.154992
1215.000000	95.204081
1214.000000	95.242011
1213.000000	95.265164
1212.000000	95.272941
1211.000000	95.268305
1210.000000	95.254453
1209.000000	95.232025
1208.000000	95.201425
1207.000000	95.166197
1206.000000	95.132459
1205.000000	95.105246
1204.000000	95.086617
1203.000000	95.077470
1202.000000	95.080241
1201.000000	95.098947
1200.000000	95.135495
1199.000000	95.187003
1198.000000	95.247816
1197.000000	95.314257
1196.000000	95.385463
1195.000000	95.459163
1194.000000	95.530854
1193.000000	95.598643
1192.000000	95.665692
1191.000000	95.735327
1190.000000	95.805867
1189.000000	95.872366
1188.000000	95.931193
1187.000000	95.981059
1186.000000	96.022173
1185.000000	96.057214
1184.000000	96.090486
1183.000000	96.123322
1182.000000	96.151944
1181.000000	96.172068
1180.000000	96.184358
1179.000000	96.192140
1178.000000	96.195949
1177.000000	96.194474
1176.000000	96.189114
1175.000000	96.183713
1174.000000	96.180106
1173.000000	96.177728
1172.000000	96.177231
1171.000000	96.180016
1170.000000	96.183781
1169.000000	96.182714
1168.000000	96.173670
1167.000000	96.159232
1166.000000	96.143608
1165.000000	96.128827
1164.000000	96.116566
1163.000000	96.110497
1162.000000	96.113687
1161.000000	96.125239
1160.000000	96.141374
1159.000000	96.158904
1158.000000	96.177182
1157.000000	96.198126
1156.000000	96.225426
1155.000000	96.261634
1154.000000	96.304836
1153.000000	96.349763
1152.000000	96.392754
1151.000000	96.434733
1150.000000	96.479012
1149.000000	96.527701
1148.000000	96.580503
1147.000000	96.634834
1146.000000	96.686421
1145.000000	96.731704
1144.000000	96.771169
1143.000000	96.809578
1142.000000	96.851978
1141.000000	96.899535
1140.000000	96.949182
1139.000000	96.996496
1138.000000	97.038532
1137.000000	97.074851
1136.000000	97.106144
1135.000000	97.131899
1134.000000	97.150143
1133.000000	97.159588
1132.000000	97.161703
1131.000000	97.159611
1130.000000	97.155265
1129.000000	97.148933
1128.000000	97.140694
1127.000000	97.131126
1126.000000	97.120365
1125.000000	97.108073
1124.000000	97.094876
1123.000000	97.082256
1122.000000	97.070733
1121.000000	97.059876
1120.000000	97.050586
1119.000000	97.044938
1118.000000	97.042095
1117.000000	97.036406
1116.000000	97.022299
1115.000000	97.000860
1114.000000	96.979666
1113.000000	96.966133
1112.000000	96.962335
1111.000000	96.966096
1110.000000	96.974850
1109.000000	96.987183
1108.000000	97.000868
1107.000000	97.011199
1106.000000	97.013067
1105.000000	97.005331
1104.000000	96.992696
1103.000000	96.982476
1102.000000	96.979076
1101.000000	96.981256
1100.000000	96.983317
1099.000000	96.978721
1098.000000	96.963880
1097.000000	96.940414
1096.000000	96.913769
1095.000000	96.888123
1094.000000	96.862706
1093.000000	96.833731
1092.000000	96.798980
1091.000000	96.758904
1090.000000	96.713280
1089.000000	96.659432
1088.000000	96.594712
1087.000000	96.519627
1086.000000	96.438433
1085.000000	96.357642
1084.000000	96.283659
1083.000000	96.219780
1082.000000	96.165640
1081.000000	96.121386
1080.000000	96.092419
1079.000000	96.086162
1078.000000	96.103438
1077.000000	96.136877
1076.000000	96.177604
1075.000000	96.220763
1074.000000	96.264013
1073.000000	96.304593
1072.000000	96.339771
1071.000000	96.367687
1070.000000	96.387090
1069.000000	96.398035
1068.000000	96.402964
1067.000000	96.404341
1066.000000	96.401317
1065.000000	96.391463
1064.000000	96.376414
1063.000000	96.362819
1062.000000	96.356525
1061.000000	96.358433
1060.000000	96.366594
1059.000000	96.378525
1058.000000	96.389775
1057.000000	96.393685
1056.000000	96.385716
1055.000000	96.367015
1054.000000	96.342443
1053.000000	96.316716
1052.000000	96.293174
1051.000000	96.273784
1050.000000	96.258262
1049.000000	96.244946
1048.000000	96.233972
1047.000000	96.228073
1046.000000	96.229222
1045.000000	96.236392
1044.000000	96.247196
1043.000000	96.259251
1042.000000	96.269632
1041.000000	96.275551
1040.000000	96.276379
1039.000000	96.272437
1038.000000	96.261147
1037.000000	96.236956
1036.000000	96.197142
1035.000000	96.146432
1034.000000	96.094852
1033.000000	96.052228
1032.000000	96.024336
1031.000000	96.011226
1030.000000	96.007718
1029.000000	96.008066
1028.000000	96.011087
1027.000000	96.019004
1026.000000	96.031574
1025.000000	96.044771
1024.000000	96.055702
1023.000000	96.064795
1022.000000	96.072219
1021.000000	96.076307
1020.000000	96.077444
1019.000000	96.080355
1018.000000	96.090394
1017.000000	96.110497
1016.000000	96.143532
1015.000000	96.193418
1014.000000	96.261273
1013.000000	96.342409
1012.000000	96.429627
1011.000000	96.518183
1010.000000	96.606339
1009.000000	96.694085
1008.000000	96.782648
1007.000000	96.873390
1006.000000	96.965615
1005.000000	97.056396
1004.000000	97.143000
1003.000000	97.224082
1002.000000	97.298859
1001.000000	97.367492
1000.000000	97.432645
999.000000	97.497795
998.000000	97.562907
997.000000	97.624452
996.000000	97.680827
995.000000	97.735192
994.000000	97.790847
993.000000	97.846408
992.000000	97.898341
991.000000	97.945752
990.000000	97.989529
989.000000	98.028043
988.000000	98.057846
987.000000	98.078934
986.000000	98.095656
985.000000	98.111723
984.000000	98.126985
983.000000	98.140098
982.000000	98.151467
981.000000	98.161428
980.000000	98.167687
979.000000	98.166851
978.000000	98.157837
977.000000	98.142582
976.000000	98.124197
975.000000	98.105886
974.000000	98.090908
973.000000	98.081927
972.000000	98.079894
971.000000	98.083972
970.000000	98.092650
969.000000	98.105036
968.000000	98.121662
967.000000	98.144050
966.000000	98.173536
965.000000	98.209857
964.000000	98.250085
963.000000	98.288472
962.000000	98.318487
961.000000	98.337419
960.000000	98.349614
959.000000	98.363499
958.000000	98.384115
957.000000	98.409043
956.000000	98.432158
955.000000	98.449973
954.000000	98.463280
953.000000	98.474628
952.000000	98.486624
951.000000	98.501564
950.000000	98.519652
949.000000	98.537393
948.000000	98.549733
947.000000	98.554470
946.000000	98.553452
945.000000	98.549902
944.000000	98.546541
943.000000	98.545256
942.000000	98.545345
941.000000	98.542007
940.000000	98.530497
939.000000	98.513576
938.000000	98.502378
937.000000	98.507304
936.000000	98.529474
935.000000	98.562530
934.000000	98.600064
933.000000	98.639035
932.000000	98.677135
931.000000	98.710219
930.000000	98.733739
929.000000	98.745984
928.000000	98.750003
927.000000	98.752594
926.000000	98.759915
925.000000	98.772196
924.000000	98.783302
923.000000	98.787261
922.000000	98.785387
921.000000	98.785599
920.000000	98.795111
919.000000	98.814890
918.000000	98.841129
917.000000	98.870490
916.000000	98.902675
915.000000	98.938508
914.000000	98.976379
913.000000	99.011253
912.000000	99.037667
911.000000	99.053761
910.000000	99.061842
909.000000	99.065057
908.000000	99.064693
907.000000	99.061310
906.000000	99.056689
905.000000	99.052722
904.000000	99.049422
903.000000	99.045881
902.000000	99.042635
901.000000	99.041255
900.000000	99.041911
899.000000	99.043214
898.000000	99.044758
897.000000	99.047936
896.000000	99.053482
895.000000	99.059313
894.000000	99.061849
893.000000	99.059451
892.000000	99.054435
891.000000	99.051830
890.000000	99.055431
889.000000	99.064048
888.000000	99.072058
887.000000	99.074313
886.000000	99.070229
885.000000	99.062418
884.000000	99.052402
883.000000	99.039655
882.000000	99.024134
881.000000	99.007337
880.000000	98.990090
879.000000	98.971086
878.000000	98.948621
877.000000	98.922940
876.000000	98.896717
875.000000	98.874409
874.000000	98.861060
873.000000	98.859596
872.000000	98.868566
871.000000	98.884013
870.000000	98.904726
869.000000	98.933472
868.000000	98.970660
867.000000	99.008780
866.000000	99.037199
865.000000	99.053116
864.000000	99.063541
863.000000	99.074680
862.000000	99.082472
861.000000	99.077653
860.000000	99.059191
859.000000	99.037930
858.000000	99.025488
857.000000	99.021686
856.000000	99.015603
855.000000	98.998615
854.000000	98.974395
853.000000	98.955654
852.000000	98.951670
851.000000	98.959951
850.000000	98.970839
849.000000	98.979161
848.000000	98.988505
847.000000	99.002717
846.000000	99.016763
845.000000	99.021219
844.000000	99.015013
843.000000	99.008035
842.000000	99.008790
841.000000	99.014343
840.000000	99.016514
839.000000	99.014327
838.000000	99.015154
837.000000	99.024231
836.000000	99.038264
835.000000	99.050507
834.000000	99.058410
833.000000	99.064660
832.000000	99.072705
831.000000	99.082546
830.000000	99.089808
829.000000	99.088630
828.000000	99.077171
827.000000	99.060414
826.000000	99.045726
825.000000	99.035951
824.000000	99.029644
823.000000	99.028044
822.000000	99.036529
821.000000	99.055995
820.000000	99.076427
819.000000	99.083589
818.000000	99.072638
817.000000	99.052921
816.000000	99.039079
815.000000	99.038318
814.000000	99.045736
813.000000	99.050564
812.000000	99.046036
811.000000	99.034457
810.000000	99.024806
809.000000	99.025520
808.000000	99.038011
807.000000	99.055737
806.000000	99.069552
805.000000	99.075001
804.000000	99.074583
803.000000	99.072884
802.000000	99.070795
801.000000	99.065868
800.000000	99.057711
799.000000	99.050722
798.000000	99.050046
797.000000	99.055283
796.000000	99.059031
795.000000	99.052731
794.000000	99.035517
793.000000	99.017486
792.000000	99.011958
791.000000	99.022575
790.000000	99.039163
789.000000	99.048213
788.000000	99.045740
787.000000	99.038042
786.000000	99.032624
785.000000	99.032230
784.000000	99.036416
783.000000	99.043865
782.000000	99.052005
781.000000	99.057760
780.000000	99.060141
779.000000	99.060296
778.000000	99.058934
777.000000	99.056002
776.000000	99.052773
775.000000	99.051617
774.000000	99.053450
773.000000	99.057195
772.000000	99.060844
771.000000	99.061351
770.000000	99.056185
769.000000	99.048332
768.000000	99.046653
767.000000	99.055594
766.000000	99.066811
765.000000	99.067973
764.000000	99.059023
763.000000	99.052275
762.000000	99.055864
761.000000	99.064620
760.000000	99.069053
759.000000	99.066117
758.000000	99.058578
757.000000	99.050442
756.000000	99.045946
755.000000	99.047408
754.000000	99.051378
753.000000	99.052272
752.000000	99.051285
751.000000	99.055108
750.000000	99.064284
749.000000	99.070736
748.000000	99.069438
747.000000	99.063615
746.000000	99.054815
745.000000	99.037687
744.000000	99.011498
743.000000	98.987870
742.000000	98.977875
741.000000	98.977305
740.000000	98.973346
739.000000	98.962043
738.000000	98.951102
737.000000	98.948423
736.000000	98.954437
735.000000	98.962757
734.000000	98.962642
733.000000	98.944568
732.000000	98.909773
731.000000	98.871570
730.000000	98.841335
729.000000	98.815688
728.000000	98.782255
727.000000	98.734122
726.000000	98.673863
725.000000	98.608927
724.000000	98.550107
723.000000	98.509490
722.000000	98.491515
721.000000	98.487694
720.000000	98.486433
719.000000	98.485653
718.000000	98.489823
717.000000	98.497976
716.000000	98.501587
715.000000	98.493367
714.000000	98.473541
713.000000	98.449494
712.000000	98.432280
711.000000	98.428674
710.000000	98.432035
709.000000	98.425840
708.000000	98.401364
707.000000	98.367625
706.000000	98.339205
705.000000	98.321237
704.000000	98.312022
703.000000	98.310469
702.000000	98.311326
701.000000	98.301076
700.000000	98.271741
699.000000	98.234920
698.000000	98.210608
697.000000	98.204295
696.000000	98.205848
695.000000	98.207087
694.000000	98.207350
693.000000	98.203490
692.000000	98.188565
691.000000	98.164043
690.000000	98.141702
689.000000	98.129753
688.000000	98.124752
687.000000	98.120305
686.000000	98.116283
685.000000	98.114720
684.000000	98.112855
683.000000	98.104708
682.000000	98.086641
681.000000	98.060791
680.000000	98.036666
679.000000	98.027109
678.000000	98.035609
677.000000	98.047509
676.000000	98.041949
675.000000	98.013055
674.000000	97.970735
673.000000	97.925145
672.000000	97.882237
671.000000	97.852106
670.000000	97.847297
669.000000	97.871251
668.000000	97.904135
667.000000	97.894570
666.000000	97.830859
665.000000	97.755495
664.000000	97.700862
663.000000	97.672047
662.000000	97.656277
661.000000	97.642163
660.000000	97.634475
659.000000	97.643417
658.000000	97.662625
657.000000	97.671522
656.000000	97.662279
655.000000	97.650104
654.000000	97.650060
653.000000	97.657725
652.000000	97.662119
651.000000	97.662948
650.000000	97.665579
649.000000	97.669823
648.000000	97.673325
647.000000	97.676931
646.000000	97.679736
645.000000	97.678785
644.000000	97.678791
643.000000	97.690280
642.000000	97.712385
641.000000	97.729093
640.000000	97.730129
639.000000	97.725039
638.000000	97.728594
637.000000	97.742396
636.000000	97.757105
635.000000	97.761383
634.000000	97.743191
633.000000	97.695936
632.000000	97.632120
631.000000	97.580984
630.000000	97.562659
629.000000	97.571842
628.000000	97.592577
627.000000	97.615297
626.000000	97.632352
625.000000	97.633921
624.000000	97.621661
623.000000	97.612537
622.000000	97.616322
621.000000	97.620291
620.000000	97.608690
619.000000	97.586274
618.000000	97.570247
617.000000	97.568335
616.000000	97.577239
615.000000	97.594007
614.000000	97.614286
613.000000	97.628192
612.000000	97.631396
611.000000	97.633379
610.000000	97.642636
609.000000	97.651167
608.000000	97.645931
607.000000	97.628290
606.000000	97.609828
605.000000	97.596221
604.000000	97.587771
603.000000	97.588342
602.000000	97.600307
601.000000	97.615025
600.000000	97.620172
599.000000	97.612127
598.000000	97.594913
597.000000	97.574881
596.000000	97.563540
595.000000	97.574767
594.000000	97.608435
593.000000	97.644748
592.000000	97.664544
591.000000	97.668337
590.000000	97.668005
589.000000	97.669837
588.000000	97.673538
587.000000	97.676134
586.000000	97.670045
585.000000	97.649876
584.000000	97.628505
583.000000	97.631609
582.000000	97.667277
581.000000	97.715778
580.000000	97.756535
579.000000	97.786103
578.000000	97.800414
577.000000	97.784468
576.000000	97.738182
575.000000	97.691348
574.000000	97.668240
573.000000	97.655992
572.000000	97.631311
571.000000	97.596552
570.000000	97.567257
569.000000	97.539646
568.000000	97.498189
567.000000	97.445912
566.000000	97.399734
565.000000	97.363413
564.000000	97.330384
563.000000	97.304912
562.000000	97.297114
561.000000	97.303073
560.000000	97.310113
559.000000	97.315905
558.000000	97.324546
557.000000	97.333527
556.000000	97.339907
555.000000	97.346597
554.000000	97.348248
553.000000	97.328397
552.000000	97.287805
551.000000	97.258860
550.000000	97.270540
549.000000	97.312065
548.000000	97.352897
547.000000	97.380630
546.000000	97.397362
545.000000	97.398502
544.000000	97.383300
543.000000	97.369001
542.000000	97.367481
541.000000	97.362179
540.000000	97.331456
539.000000	97.278061
538.000000	97.214756
537.000000	97.141608
536.000000	97.063729
535.000000	97.009599
534.000000	96.995962
533.000000	96.990524
532.000000	96.948033
531.000000	96.873479
530.000000	96.815574
529.000000	96.805156
528.000000	96.832800
527.000000	96.874593
526.000000	96.908759
525.000000	96.921661
524.000000	96.923952
523.000000	96.946700
522.000000	97.004432
521.000000	97.078174
520.000000	97.146741
519.000000	97.213814
518.000000	97.284138
517.000000	97.337927
516.000000	97.365434
515.000000	97.396283
514.000000	97.455829
513.000000	97.522269
512.000000	97.558960
511.000000	97.568131
510.000000	97.582881
509.000000	97.622417
508.000000	97.687158
507.000000	97.775420
506.000000	97.869332
505.000000	97.929361
504.000000	97.935357
503.000000	97.913390
502.000000	97.897175
501.000000	97.881294
500.000000	97.849867
499.000000	97.823303
498.000000	97.831544
497.000000	97.864693
496.000000	97.891705
495.000000	97.913133
494.000000	97.952931
493.000000	98.009785
492.000000	98.058464
491.000000	98.092567
490.000000	98.125852
489.000000	98.158231
488.000000	98.179680
487.000000	98.195528
486.000000	98.214282
485.000000	98.223142
484.000000	98.209403
483.000000	98.193516
482.000000	98.199246
481.000000	98.210463
480.000000	98.199946
479.000000	98.174286
478.000000	98.152716
477.000000	98.126779
476.000000	98.084442
475.000000	98.055973
474.000000	98.083858
473.000000	98.152828
472.000000	98.200918
471.000000	98.205797
470.000000	98.196347
469.000000	98.183755
468.000000	98.156533
467.000000	98.129784
466.000000	98.140491
465.000000	98.196591
464.000000	98.275730
463.000000	98.365449
462.000000	98.465202
461.000000	98.569325
460.000000	98.689592
459.000000	98.861068
458.000000	99.066713
457.000000	99.192174
456.000000	99.182723
455.000000	99.125711
454.000000	99.122006
453.000000	99.153404
452.000000	99.123202
451.000000	99.012425
450.000000	98.906634
