PE IR       SUBTECH     SPECTRUM    ASCII       PEDS        4.00        
   -1
11775-Hull23-F002_1.ASC
23/09/13
11:53:47.00
23/09/13
12:05:54.00
uco
Sample 002 By uco Date Wednesday, September 13 2023
450.000000
#HDR
-1
-1
#GR
cm-1
%T
1.0
0.0
4000.000000
-1.000000
3551
8
99.036581
86.481307
#DATA
4000.000000	98.902776
3999.000000	98.900768
3998.000000	98.906250
3997.000000	98.917026
3996.000000	98.928380
3995.000000	98.937089
3994.000000	98.942930
3993.000000	98.896899
3992.000000	98.899186
3991.000000	98.902254
3990.000000	98.905742
3989.000000	98.907231
3988.000000	98.904150
3987.000000	98.895689
3986.000000	98.884053
3985.000000	98.873145
3984.000000	98.866079
3983.000000	98.863673
3982.000000	98.864800
3981.000000	98.867780
3980.000000	98.871527
3979.000000	98.875753
3978.000000	98.880122
3977.000000	98.883437
3976.000000	98.883914
3975.000000	98.880669
3974.000000	98.875203
3973.000000	98.870984
3972.000000	98.871176
3971.000000	98.876160
3970.000000	98.883285
3969.000000	98.888412
3968.000000	98.887977
3967.000000	98.881292
3966.000000	98.871390
3965.000000	98.863815
3964.000000	98.863080
3963.000000	98.869186
3962.000000	98.877330
3961.000000	98.881386
3960.000000	98.878918
3959.000000	98.871918
3958.000000	98.863910
3957.000000	98.857006
3956.000000	98.850752
3955.000000	98.844038
3954.000000	98.837184
3953.000000	98.832720
3952.000000	98.834056
3951.000000	98.842965
3950.000000	98.858203
3949.000000	98.874890
3948.000000	98.886578
3947.000000	98.888945
3946.000000	98.881049
3945.000000	98.865956
3944.000000	98.850642
3943.000000	98.842158
3942.000000	98.842643
3941.000000	98.847354
3940.000000	98.849097
3939.000000	98.844518
3938.000000	98.836863
3937.000000	98.832661
3936.000000	98.834726
3935.000000	98.840483
3934.000000	98.845751
3933.000000	98.848263
3932.000000	98.848535
3931.000000	98.847759
3930.000000	98.846572
3929.000000	98.843877
3928.000000	98.837730
3927.000000	98.829900
3926.000000	98.826274
3925.000000	98.831486
3924.000000	98.843383
3923.000000	98.855689
3922.000000	98.864739
3921.000000	98.871564
3920.000000	98.878238
3919.000000	98.884117
3918.000000	98.885542
3917.000000	98.880078
3916.000000	98.869655
3915.000000	98.857629
3914.000000	98.846104
3913.000000	98.836112
3912.000000	98.829365
3911.000000	98.826405
3910.000000	98.825774
3909.000000	98.825097
3908.000000	98.822435
3907.000000	98.819345
3906.000000	98.821237
3905.000000	98.834108
3904.000000	98.856484
3903.000000	98.876316
3902.000000	98.881734
3901.000000	98.871946
3900.000000	98.856083
3899.000000	98.845992
3898.000000	98.846791
3897.000000	98.854338
3896.000000	98.862066
3895.000000	98.865228
3894.000000	98.862857
3893.000000	98.856981
3892.000000	98.851011
3891.000000	98.847722
3890.000000	98.849285
3889.000000	98.853708
3888.000000	98.855515
3887.000000	98.853277
3886.000000	98.850590
3885.000000	98.849728
3884.000000	98.847976
3883.000000	98.840506
3882.000000	98.827240
3881.000000	98.815134
3880.000000	98.810939
3879.000000	98.814760
3878.000000	98.819665
3877.000000	98.817690
3876.000000	98.808325
3875.000000	98.801732
3874.000000	98.809491
3873.000000	98.830440
3872.000000	98.851519
3871.000000	98.861215
3870.000000	98.858717
3869.000000	98.852610
3868.000000	98.850777
3867.000000	98.852642
3866.000000	98.854654
3865.000000	98.856349
3864.000000	98.857447
3863.000000	98.856814
3862.000000	98.856431
3861.000000	98.858795
3860.000000	98.862360
3859.000000	98.865170
3858.000000	98.866747
3857.000000	98.867784
3856.000000	98.867829
3855.000000	98.866205
3854.000000	98.871755
3853.000000	98.878456
3852.000000	98.874275
3851.000000	98.866051
3850.000000	98.860332
3849.000000	98.854864
3848.000000	98.848312
3847.000000	98.840498
3846.000000	98.833422
3845.000000	98.830013
3844.000000	98.831677
3843.000000	98.837038
3842.000000	98.843268
3841.000000	98.846620
3840.000000	98.845214
3839.000000	98.839339
3838.000000	98.829849
3837.000000	98.821273
3836.000000	98.818546
3835.000000	98.821471
3834.000000	98.825645
3833.000000	98.826705
3832.000000	98.822691
3831.000000	98.815363
3830.000000	98.807477
3829.000000	98.801110
3828.000000	98.797982
3827.000000	98.800637
3826.000000	98.811494
3825.000000	98.827456
3824.000000	98.838815
3823.000000	98.834794
3822.000000	98.818573
3821.000000	98.807203
3820.000000	98.810057
3819.000000	98.822133
3818.000000	98.832355
3817.000000	98.835077
3816.000000	98.830602
3815.000000	98.822825
3814.000000	98.816360
3813.000000	98.813407
3812.000000	98.815268
3811.000000	98.821406
3810.000000	98.828790
3809.000000	98.832949
3808.000000	98.832864
3807.000000	98.832306
3806.000000	98.835995
3805.000000	98.842835
3804.000000	98.846454
3803.000000	98.840674
3802.000000	98.828605
3801.000000	98.819288
3800.000000	98.820295
3799.000000	98.828053
3798.000000	98.833865
3797.000000	98.833504
3796.000000	98.828628
3795.000000	98.822913
3794.000000	98.818151
3793.000000	98.814584
3792.000000	98.811507
3791.000000	98.807729
3790.000000	98.803240
3789.000000	98.799582
3788.000000	98.797430
3787.000000	98.795910
3786.000000	98.794359
3785.000000	98.793586
3784.000000	98.794571
3783.000000	98.795968
3782.000000	98.794869
3781.000000	98.791028
3780.000000	98.788969
3779.000000	98.791785
3778.000000	98.797436
3777.000000	98.801598
3776.000000	98.802265
3775.000000	98.800932
3774.000000	98.801092
3773.000000	98.804975
3772.000000	98.811897
3771.000000	98.820016
3770.000000	98.827418
3769.000000	98.832147
3768.000000	98.831735
3767.000000	98.825176
3766.000000	98.814856
3765.000000	98.806136
3764.000000	98.802792
3763.000000	98.802508
3762.000000	98.800458
3761.000000	98.796000
3760.000000	98.793661
3759.000000	98.795858
3758.000000	98.802080
3757.000000	98.812726
3756.000000	98.827038
3755.000000	98.841678
3754.000000	98.855992
3753.000000	98.875278
3752.000000	98.903126
3751.000000	98.929070
3750.000000	98.938474
3749.000000	98.937134
3748.000000	98.935134
3747.000000	98.927889
3746.000000	98.905574
3745.000000	98.870874
3744.000000	98.841408
3743.000000	98.834820
3742.000000	98.850477
3741.000000	98.876970
3740.000000	98.902956
3739.000000	98.919626
3738.000000	98.921231
3737.000000	98.913557
3736.000000	98.908525
3735.000000	98.909678
3734.000000	98.912970
3733.000000	98.912453
3732.000000	98.903988
3731.000000	98.889470
3730.000000	98.874638
3729.000000	98.863474
3728.000000	98.856741
3727.000000	98.853801
3726.000000	98.851850
3725.000000	98.847322
3724.000000	98.839860
3723.000000	98.834165
3722.000000	98.837131
3721.000000	98.849199
3720.000000	98.863735
3719.000000	98.872798
3718.000000	98.874408
3717.000000	98.873158
3716.000000	98.873353
3715.000000	98.874214
3714.000000	98.870436
3713.000000	98.857402
3712.000000	98.837489
3711.000000	98.818780
3710.000000	98.809924
3709.000000	98.815509
3708.000000	98.831877
3707.000000	98.851699
3706.000000	98.869437
3705.000000	98.881806
3704.000000	98.888394
3703.000000	98.891571
3702.000000	98.893308
3701.000000	98.892681
3700.000000	98.887743
3699.000000	98.878415
3698.000000	98.867085
3697.000000	98.858068
3696.000000	98.854170
3695.000000	98.852765
3694.000000	98.848500
3693.000000	98.839413
3692.000000	98.831257
3691.000000	98.833890
3690.000000	98.849252
3689.000000	98.862782
3688.000000	98.861638
3687.000000	98.851989
3686.000000	98.843064
3685.000000	98.837315
3684.000000	98.834395
3683.000000	98.832580
3682.000000	98.829777
3681.000000	98.827381
3680.000000	98.829451
3679.000000	98.836294
3678.000000	98.842283
3677.000000	98.841330
3676.000000	98.837116
3675.000000	98.836223
3674.000000	98.844565
3673.000000	98.856875
3672.000000	98.859991
3671.000000	98.844620
3670.000000	98.815604
3669.000000	98.790347
3668.000000	98.784255
3667.000000	98.794790
3666.000000	98.809984
3665.000000	98.820674
3664.000000	98.823762
3663.000000	98.820235
3662.000000	98.813913
3661.000000	98.809292
3660.000000	98.807104
3659.000000	98.804449
3658.000000	98.798986
3657.000000	98.792613
3656.000000	98.788260
3655.000000	98.786061
3654.000000	98.784419
3653.000000	98.781590
3652.000000	98.780750
3651.000000	98.792429
3650.000000	98.818801
3649.000000	98.831286
3648.000000	98.807512
3647.000000	98.768941
3646.000000	98.742187
3645.000000	98.730498
3644.000000	98.726142
3643.000000	98.722752
3642.000000	98.717792
3641.000000	98.710598
3640.000000	98.699712
3639.000000	98.684589
3638.000000	98.667664
3637.000000	98.652011
3636.000000	98.639402
3635.000000	98.632885
3634.000000	98.638802
3633.000000	98.659868
3632.000000	98.687571
3631.000000	98.704999
3630.000000	98.700583
3629.000000	98.676511
3628.000000	98.646280
3627.000000	98.627516
3626.000000	98.622050
3625.000000	98.622329
3624.000000	98.622505
3623.000000	98.620353
3622.000000	98.614965
3621.000000	98.606372
3620.000000	98.594336
3619.000000	98.578017
3618.000000	98.559767
3617.000000	98.546330
3616.000000	98.539667
3615.000000	98.535302
3614.000000	98.529618
3613.000000	98.523927
3612.000000	98.522116
3611.000000	98.522415
3610.000000	98.515202
3609.000000	98.491646
3608.000000	98.454668
3607.000000	98.418545
3606.000000	98.395713
3605.000000	98.386849
3604.000000	98.382981
3603.000000	98.375290
3602.000000	98.360321
3601.000000	98.340097
3600.000000	98.319053
3599.000000	98.299963
3598.000000	98.281050
3597.000000	98.258090
3596.000000	98.228264
3595.000000	98.193446
3594.000000	98.161990
3593.000000	98.142663
3592.000000	98.136761
3591.000000	98.135758
3590.000000	98.128565
3589.000000	98.109520
3588.000000	98.078381
3587.000000	98.036216
3586.000000	97.992576
3585.000000	97.958921
3584.000000	97.936500
3583.000000	97.920718
3582.000000	97.908002
3581.000000	97.896122
3580.000000	97.883202
3579.000000	97.867591
3578.000000	97.849549
3577.000000	97.831356
3576.000000	97.815933
3575.000000	97.804630
3574.000000	97.797590
3573.000000	97.794880
3572.000000	97.795156
3571.000000	97.795199
3570.000000	97.792967
3569.000000	97.792463
3568.000000	97.798435
3567.000000	97.804900
3566.000000	97.803569
3565.000000	97.800303
3564.000000	97.801014
3563.000000	97.802528
3562.000000	97.800820
3561.000000	97.796418
3560.000000	97.791853
3559.000000	97.788101
3558.000000	97.784074
3557.000000	97.779431
3556.000000	97.775632
3555.000000	97.774046
3554.000000	97.773631
3553.000000	97.771555
3552.000000	97.765703
3551.000000	97.756876
3550.000000	97.747516
3549.000000	97.739174
3548.000000	97.732260
3547.000000	97.725718
3546.000000	97.716988
3545.000000	97.705325
3544.000000	97.693868
3543.000000	97.685510
3542.000000	97.680080
3541.000000	97.674940
3540.000000	97.666871
3539.000000	97.654773
3538.000000	97.641098
3537.000000	97.630857
3536.000000	97.627028
3535.000000	97.628350
3534.000000	97.631077
3533.000000	97.631943
3532.000000	97.629881
3531.000000	97.626199
3530.000000	97.624155
3529.000000	97.626673
3528.000000	97.633101
3527.000000	97.639028
3526.000000	97.640130
3525.000000	97.634558
3524.000000	97.622381
3523.000000	97.605533
3522.000000	97.588586
3521.000000	97.576601
3520.000000	97.570901
3519.000000	97.569011
3518.000000	97.568029
3517.000000	97.566941
3516.000000	97.565572
3515.000000	97.562697
3514.000000	97.557120
3513.000000	97.549498
3512.000000	97.542324
3511.000000	97.538260
3510.000000	97.538112
3509.000000	97.539697
3508.000000	97.538946
3507.000000	97.533475
3506.000000	97.525282
3505.000000	97.519826
3504.000000	97.519955
3503.000000	97.521725
3502.000000	97.518945
3501.000000	97.509704
3500.000000	97.495889
3499.000000	97.479585
3498.000000	97.462736
3497.000000	97.447493
3496.000000	97.435415
3495.000000	97.426763
3494.000000	97.421264
3493.000000	97.418298
3492.000000	97.415901
3491.000000	97.411583
3490.000000	97.404868
3489.000000	97.397468
3488.000000	97.390435
3487.000000	97.382970
3486.000000	97.374826
3485.000000	97.367868
3484.000000	97.363531
3483.000000	97.359964
3482.000000	97.353407
3481.000000	97.342352
3480.000000	97.328866
3479.000000	97.315943
3478.000000	97.304724
3477.000000	97.294381
3476.000000	97.283638
3475.000000	97.272602
3474.000000	97.263320
3473.000000	97.257491
3472.000000	97.253364
3471.000000	97.246647
3470.000000	97.235554
3469.000000	97.223084
3468.000000	97.213264
3467.000000	97.206485
3466.000000	97.199769
3465.000000	97.190689
3464.000000	97.179339
3463.000000	97.167375
3462.000000	97.156801
3461.000000	97.148910
3460.000000	97.142799
3459.000000	97.135090
3458.000000	97.122591
3457.000000	97.105903
3456.000000	97.089135
3455.000000	97.076521
3454.000000	97.069696
3453.000000	97.067488
3452.000000	97.066962
3451.000000	97.064305
3450.000000	97.056834
3449.000000	97.044869
3448.000000	97.031340
3447.000000	97.019337
3446.000000	97.010455
3445.000000	97.003911
3444.000000	96.996187
3443.000000	96.982979
3442.000000	96.963290
3441.000000	96.941514
3440.000000	96.923752
3439.000000	96.912617
3438.000000	96.906584
3437.000000	96.903411
3436.000000	96.901527
3435.000000	96.898661
3434.000000	96.891492
3433.000000	96.877802
3432.000000	96.858607
3431.000000	96.837359
3430.000000	96.818134
3429.000000	96.803657
3428.000000	96.793740
3427.000000	96.785605
3426.000000	96.776444
3425.000000	96.765412
3424.000000	96.752453
3423.000000	96.736496
3422.000000	96.716405
3421.000000	96.693066
3420.000000	96.669054
3419.000000	96.646729
3418.000000	96.627850
3417.000000	96.613816
3416.000000	96.604340
3415.000000	96.596253
3414.000000	96.585627
3413.000000	96.571167
3412.000000	96.554039
3411.000000	96.535011
3410.000000	96.513518
3409.000000	96.489176
3408.000000	96.462600
3407.000000	96.434939
3406.000000	96.407567
3405.000000	96.381616
3404.000000	96.356336
3403.000000	96.328975
3402.000000	96.297825
3401.000000	96.264552
3400.000000	96.232394
3399.000000	96.202958
3398.000000	96.176265
3397.000000	96.152567
3396.000000	96.131912
3395.000000	96.112773
3394.000000	96.093751
3393.000000	96.076664
3392.000000	96.065683
3391.000000	96.062515
3390.000000	96.063751
3389.000000	96.064068
3388.000000	96.061164
3387.000000	96.057075
3386.000000	96.054972
3385.000000	96.055027
3384.000000	96.053786
3383.000000	96.048072
3382.000000	96.039054
3381.000000	96.031132
3380.000000	96.026714
3379.000000	96.023311
3378.000000	96.016728
3377.000000	96.005845
3376.000000	95.993242
3375.000000	95.981798
3374.000000	95.971818
3373.000000	95.961327
3372.000000	95.948432
3371.000000	95.933496
3370.000000	95.919260
3369.000000	95.908377
3368.000000	95.900417
3367.000000	95.892080
3366.000000	95.880911
3365.000000	95.868065
3364.000000	95.856636
3363.000000	95.848068
3362.000000	95.840935
3361.000000	95.832465
3360.000000	95.820387
3359.000000	95.804055
3358.000000	95.785102
3357.000000	95.766901
3356.000000	95.752351
3355.000000	95.741628
3354.000000	95.732353
3353.000000	95.721948
3352.000000	95.709850
3351.000000	95.697797
3350.000000	95.687974
3349.000000	95.680496
3348.000000	95.672698
3347.000000	95.661660
3346.000000	95.647202
3345.000000	95.631665
3344.000000	95.616951
3343.000000	95.602893
3342.000000	95.588721
3341.000000	95.574597
3340.000000	95.561277
3339.000000	95.549591
3338.000000	95.540613
3337.000000	95.534868
3336.000000	95.530722
3335.000000	95.524866
3334.000000	95.515229
3333.000000	95.502415
3332.000000	95.487837
3331.000000	95.472047
3330.000000	95.455622
3329.000000	95.439994
3328.000000	95.426114
3327.000000	95.413552
3326.000000	95.401831
3325.000000	95.391298
3324.000000	95.381410
3323.000000	95.369476
3322.000000	95.353132
3321.000000	95.333265
3320.000000	95.313079
3319.000000	95.294951
3318.000000	95.279182
3317.000000	95.264907
3316.000000	95.250823
3315.000000	95.235698
3314.000000	95.219911
3313.000000	95.206263
3312.000000	95.197579
3311.000000	95.193462
3310.000000	95.190462
3309.000000	95.185389
3308.000000	95.177666
3307.000000	95.168455
3306.000000	95.158506
3305.000000	95.147322
3304.000000	95.134028
3303.000000	95.118940
3302.000000	95.104104
3301.000000	95.091652
3300.000000	95.081326
3299.000000	95.070455
3298.000000	95.056891
3297.000000	95.041164
3296.000000	95.025723
3295.000000	95.012945
3294.000000	95.004200
3293.000000	94.999596
3292.000000	94.997482
3291.000000	94.995233
3290.000000	94.991515
3289.000000	94.987116
3288.000000	94.982908
3287.000000	94.977984
3286.000000	94.970877
3285.000000	94.961987
3284.000000	94.954000
3283.000000	94.950104
3282.000000	94.951766
3281.000000	94.957473
3280.000000	94.963470
3279.000000	94.966795
3278.000000	94.967793
3277.000000	94.968845
3276.000000	94.970973
3275.000000	94.973474
3274.000000	94.976666
3273.000000	94.982183
3272.000000	94.989711
3271.000000	94.996008
3270.000000	94.998901
3269.000000	95.000177
3268.000000	95.002907
3267.000000	95.007798
3266.000000	95.013995
3265.000000	95.021762
3264.000000	95.032032
3263.000000	95.044353
3262.000000	95.057549
3261.000000	95.071724
3260.000000	95.087475
3259.000000	95.103417
3258.000000	95.116367
3257.000000	95.124477
3256.000000	95.129108
3255.000000	95.133607
3254.000000	95.140717
3253.000000	95.150953
3252.000000	95.162827
3251.000000	95.174686
3250.000000	95.186609
3249.000000	95.199746
3248.000000	95.213819
3247.000000	95.226637
3246.000000	95.236445
3245.000000	95.243326
3244.000000	95.247631
3243.000000	95.248732
3242.000000	95.246897
3241.000000	95.245078
3240.000000	95.246986
3239.000000	95.253580
3238.000000	95.262234
3237.000000	95.268825
3236.000000	95.270298
3235.000000	95.266790
3234.000000	95.262357
3233.000000	95.262286
3232.000000	95.267984
3231.000000	95.275121
3230.000000	95.278443
3229.000000	95.277567
3228.000000	95.276528
3227.000000	95.278301
3226.000000	95.281622
3225.000000	95.283308
3224.000000	95.282228
3223.000000	95.280523
3222.000000	95.281476
3221.000000	95.286187
3220.000000	95.291881
3219.000000	95.293819
3218.000000	95.289470
3217.000000	95.280591
3216.000000	95.271518
3215.000000	95.266273
3214.000000	95.267086
3213.000000	95.273808
3212.000000	95.283349
3211.000000	95.290631
3210.000000	95.291903
3209.000000	95.287363
3208.000000	95.280070
3207.000000	95.272819
3206.000000	95.266834
3205.000000	95.262762
3204.000000	95.261456
3203.000000	95.263528
3202.000000	95.268637
3201.000000	95.275027
3200.000000	95.279546
3199.000000	95.279260
3198.000000	95.274155
3197.000000	95.267995
3196.000000	95.265533
3195.000000	95.268647
3194.000000	95.275458
3193.000000	95.282475
3192.000000	95.287176
3191.000000	95.289349
3190.000000	95.290841
3189.000000	95.293845
3188.000000	95.299120
3187.000000	95.306154
3186.000000	95.314809
3185.000000	95.325587
3184.000000	95.337919
3183.000000	95.349716
3182.000000	95.359636
3181.000000	95.368796
3180.000000	95.378983
3179.000000	95.389746
3178.000000	95.398556
3177.000000	95.403817
3176.000000	95.406740
3175.000000	95.410482
3174.000000	95.417873
3173.000000	95.429558
3172.000000	95.443423
3171.000000	95.456194
3170.000000	95.466179
3169.000000	95.474082
3168.000000	95.481251
3167.000000	95.488248
3166.000000	95.495779
3165.000000	95.505428
3164.000000	95.517844
3163.000000	95.530964
3162.000000	95.541562
3161.000000	95.548516
3160.000000	95.553440
3159.000000	95.558480
3158.000000	95.564611
3157.000000	95.571800
3156.000000	95.579481
3155.000000	95.586847
3154.000000	95.593740
3153.000000	95.601159
3152.000000	95.609997
3151.000000	95.619587
3150.000000	95.628522
3149.000000	95.636708
3148.000000	95.645471
3147.000000	95.655697
3146.000000	95.666929
3145.000000	95.678245
3144.000000	95.688998
3143.000000	95.698653
3142.000000	95.706547
3141.000000	95.711986
3140.000000	95.714404
3139.000000	95.713901
3138.000000	95.712123
3137.000000	95.711830
3136.000000	95.714822
3135.000000	95.720607
3134.000000	95.727672
3133.000000	95.735176
3132.000000	95.742444
3131.000000	95.747611
3130.000000	95.748749
3129.000000	95.746482
3128.000000	95.744195
3127.000000	95.745082
3126.000000	95.750032
3125.000000	95.758381
3124.000000	95.769026
3123.000000	95.780191
3122.000000	95.789532
3121.000000	95.795825
3120.000000	95.799772
3119.000000	95.802420
3118.000000	95.803544
3117.000000	95.802473
3116.000000	95.800050
3115.000000	95.799022
3114.000000	95.802284
3113.000000	95.810644
3112.000000	95.821726
3111.000000	95.830798
3110.000000	95.833886
3109.000000	95.830954
3108.000000	95.825847
3107.000000	95.822572
3106.000000	95.822325
3105.000000	95.824135
3104.000000	95.827172
3103.000000	95.831403
3102.000000	95.836749
3101.000000	95.842680
3100.000000	95.848496
3099.000000	95.853554
3098.000000	95.857321
3097.000000	95.859464
3096.000000	95.859755
3095.000000	95.857966
3094.000000	95.854353
3093.000000	95.850300
3092.000000	95.847850
3091.000000	95.848154
3090.000000	95.850522
3089.000000	95.853103
3088.000000	95.854531
3087.000000	95.855160
3086.000000	95.857180
3085.000000	95.863120
3084.000000	95.873231
3083.000000	95.884250
3082.000000	95.891551
3081.000000	95.893104
3080.000000	95.890821
3079.000000	95.887977
3078.000000	95.886064
3077.000000	95.884803
3076.000000	95.884299
3075.000000	95.885819
3074.000000	95.890332
3073.000000	95.897225
3072.000000	95.905094
3071.000000	95.913155
3070.000000	95.921306
3069.000000	95.928843
3068.000000	95.933897
3067.000000	95.934827
3066.000000	95.932085
3065.000000	95.928336
3064.000000	95.926646
3063.000000	95.928822
3062.000000	95.935258
3061.000000	95.945689
3060.000000	95.959626
3059.000000	95.976432
3058.000000	95.994976
3057.000000	96.013157
3056.000000	96.028320
3055.000000	96.038935
3054.000000	96.045786
3053.000000	96.050647
3052.000000	96.054273
3051.000000	96.056914
3050.000000	96.060538
3049.000000	96.068529
3048.000000	96.082101
3047.000000	96.098231
3046.000000	96.112320
3045.000000	96.122275
3044.000000	96.129489
3043.000000	96.136729
3042.000000	96.145944
3041.000000	96.157412
3040.000000	96.169952
3039.000000	96.182223
3038.000000	96.194279
3037.000000	96.207587
3036.000000	96.223095
3035.000000	96.239720
3034.000000	96.255030
3033.000000	96.266989
3032.000000	96.274817
3031.000000	96.278983
3030.000000	96.280946
3029.000000	96.282681
3028.000000	96.286152
3027.000000	96.292814
3026.000000	96.303031
3025.000000	96.315273
3024.000000	96.326430
3023.000000	96.334193
3022.000000	96.339403
3021.000000	96.345191
3020.000000	96.353487
3019.000000	96.363199
3018.000000	96.371811
3017.000000	96.377507
3016.000000	96.379446
3015.000000	96.377671
3014.000000	96.373636
3013.000000	96.369633
3012.000000	96.366734
3011.000000	96.364285
3010.000000	96.361949
3009.000000	96.360775
3008.000000	96.361500
3007.000000	96.363289
3006.000000	96.365465
3005.000000	96.369147
3004.000000	96.375774
3003.000000	96.385004
3002.000000	96.395617
3001.000000	96.407595
3000.000000	96.421583
2999.000000	96.436882
2998.000000	96.451513
2997.000000	96.463958
2996.000000	96.473436
2995.000000	96.479127
2994.000000	96.480685
2993.000000	96.479220
2992.000000	96.476005
2991.000000	96.470092
2990.000000	96.458857
2989.000000	96.441257
2988.000000	96.419606
2987.000000	96.397784
2986.000000	96.378453
2985.000000	96.362048
2984.000000	96.347371
2983.000000	96.332628
2982.000000	96.316431
2981.000000	96.298184
2980.000000	96.277531
2979.000000	96.253741
2978.000000	96.226259
2977.000000	96.195604
2976.000000	96.162840
2975.000000	96.128168
2974.000000	96.090552
2973.000000	96.048826
2972.000000	96.002731
2971.000000	95.952575
2970.000000	95.898140
2969.000000	95.838071
2968.000000	95.771096
2967.000000	95.698617
2966.000000	95.625602
2965.000000	95.557276
2964.000000	95.494027
2963.000000	95.431022
2962.000000	95.363811
2961.000000	95.293675
2960.000000	95.226623
2959.000000	95.168238
2958.000000	95.121222
2957.000000	95.086864
2956.000000	95.066867
2955.000000	95.062903
2954.000000	95.075188
2953.000000	95.101328
2952.000000	95.135309
2951.000000	95.168037
2950.000000	95.190075
2949.000000	95.195341
2948.000000	95.182297
2947.000000	95.152493
2946.000000	95.108603
2945.000000	95.053262
2944.000000	94.988590
2943.000000	94.915983
2942.000000	94.836474
2941.000000	94.750464
2940.000000	94.656712
2939.000000	94.552305
2938.000000	94.434534
2937.000000	94.302791
2936.000000	94.157928
2935.000000	94.000758
2934.000000	93.832641
2933.000000	93.656971
2932.000000	93.478328
2931.000000	93.299222
2930.000000	93.118188
2929.000000	92.931016
2928.000000	92.733244
2927.000000	92.522603
2926.000000	92.300728
2925.000000	92.073494
2924.000000	91.848921
2923.000000	91.634844
2922.000000	91.439004
2921.000000	91.270490
2920.000000	91.140930
2919.000000	91.064257
2918.000000	91.056373
2917.000000	91.132701
2916.000000	91.301356
2915.000000	91.556277
2914.000000	91.875671
2913.000000	92.228014
2912.000000	92.580837
2911.000000	92.908910
2910.000000	93.198507
2909.000000	93.446609
2908.000000	93.656624
2907.000000	93.833848
2906.000000	93.984051
2905.000000	94.113092
2904.000000	94.225514
2903.000000	94.324106
2902.000000	94.410142
2901.000000	94.486749
2900.000000	94.558424
2899.000000	94.628646
2898.000000	94.699315
2897.000000	94.771430
2896.000000	94.845396
2895.000000	94.920375
2894.000000	94.994785
2893.000000	95.067524
2892.000000	95.137773
2891.000000	95.203857
2890.000000	95.264009
2889.000000	95.318696
2888.000000	95.370695
2887.000000	95.421870
2886.000000	95.470857
2885.000000	95.514672
2884.000000	95.551774
2883.000000	95.582611
2882.000000	95.607787
2881.000000	95.626823
2880.000000	95.638517
2879.000000	95.641741
2878.000000	95.635813
2877.000000	95.620797
2876.000000	95.598143
2875.000000	95.571440
2874.000000	95.546459
2873.000000	95.529142
2872.000000	95.522117
2871.000000	95.522914
2870.000000	95.526142
2869.000000	95.527298
2868.000000	95.523721
2867.000000	95.512388
2866.000000	95.488643
2865.000000	95.448067
2864.000000	95.388699
2863.000000	95.311076
2862.000000	95.216915
2861.000000	95.108329
2860.000000	94.987127
2859.000000	94.853199
2858.000000	94.703676
2857.000000	94.534524
2856.000000	94.343296
2855.000000	94.130315
2854.000000	93.899319
2853.000000	93.659446
2852.000000	93.429961
2851.000000	93.244560
2850.000000	93.147580
2849.000000	93.179446
2848.000000	93.356018
2847.000000	93.656416
2846.000000	94.029961
2845.000000	94.418206
2844.000000	94.775992
2843.000000	95.080912
2842.000000	95.330475
2841.000000	95.533147
2840.000000	95.700283
2839.000000	95.840643
2838.000000	95.958986
2837.000000	96.057651
2836.000000	96.138373
2835.000000	96.203201
2834.000000	96.255275
2833.000000	96.299173
2832.000000	96.339650
2831.000000	96.379283
2830.000000	96.417574
2829.000000	96.452802
2828.000000	96.483964
2827.000000	96.510889
2826.000000	96.534057
2825.000000	96.555362
2824.000000	96.577953
2823.000000	96.603565
2822.000000	96.630306
2821.000000	96.654497
2820.000000	96.674651
2819.000000	96.692527
2818.000000	96.710320
2817.000000	96.728224
2816.000000	96.745120
2815.000000	96.760371
2814.000000	96.773975
2813.000000	96.785630
2812.000000	96.794763
2811.000000	96.801590
2810.000000	96.807517
2809.000000	96.814190
2808.000000	96.822277
2807.000000	96.831337
2806.000000	96.840704
2805.000000	96.850126
2804.000000	96.859482
2803.000000	96.868399
2802.000000	96.876764
2801.000000	96.885339
2800.000000	96.894874
2799.000000	96.904410
2798.000000	96.911533
2797.000000	96.915118
2796.000000	96.917171
2795.000000	96.920911
2794.000000	96.927402
2793.000000	96.935129
2792.000000	96.942696
2791.000000	96.950603
2790.000000	96.959832
2789.000000	96.969627
2788.000000	96.977714
2787.000000	96.982638
2786.000000	96.985355
2785.000000	96.988533
2784.000000	96.994498
2783.000000	97.003740
2782.000000	97.014991
2781.000000	97.026485
2780.000000	97.037133
2779.000000	97.046659
2778.000000	97.055094
2777.000000	97.062651
2776.000000	97.070031
2775.000000	97.078264
2774.000000	97.087860
2773.000000	97.098172
2772.000000	97.107838
2771.000000	97.115868
2770.000000	97.122362
2769.000000	97.128385
2768.000000	97.135232
2767.000000	97.143541
2766.000000	97.152775
2765.000000	97.161609
2764.000000	97.169175
2763.000000	97.176100
2762.000000	97.184139
2761.000000	97.194456
2760.000000	97.206163
2759.000000	97.216702
2758.000000	97.223765
2757.000000	97.226881
2756.000000	97.227502
2755.000000	97.228137
2754.000000	97.231406
2753.000000	97.238935
2752.000000	97.249937
2751.000000	97.260966
2750.000000	97.268183
2749.000000	97.270640
2748.000000	97.271224
2747.000000	97.273960
2746.000000	97.280483
2745.000000	97.289094
2744.000000	97.296805
2743.000000	97.301945
2742.000000	97.305013
2741.000000	97.307585
2740.000000	97.310694
2739.000000	97.314260
2738.000000	97.317850
2737.000000	97.321596
2736.000000	97.326025
2735.000000	97.331064
2734.000000	97.335599
2733.000000	97.338321
2732.000000	97.339119
2731.000000	97.339782
2730.000000	97.343242
2729.000000	97.351522
2728.000000	97.363710
2727.000000	97.376010
2726.000000	97.384366
2725.000000	97.387413
2724.000000	97.387104
2723.000000	97.386863
2722.000000	97.389235
2721.000000	97.394508
2720.000000	97.400597
2719.000000	97.404551
2718.000000	97.405238
2717.000000	97.404714
2716.000000	97.406155
2715.000000	97.410295
2714.000000	97.414658
2713.000000	97.416430
2712.000000	97.415275
2711.000000	97.413126
2710.000000	97.412221
2709.000000	97.413810
2708.000000	97.417910
2707.000000	97.423576
2706.000000	97.429832
2705.000000	97.436717
2704.000000	97.444855
2703.000000	97.453695
2702.000000	97.461012
2701.000000	97.464853
2700.000000	97.465468
2699.000000	97.464676
2698.000000	97.463868
2697.000000	97.463328
2696.000000	97.463078
2695.000000	97.463548
2694.000000	97.465309
2693.000000	97.468440
2692.000000	97.472021
2691.000000	97.474188
2690.000000	97.473401
2689.000000	97.470136
2688.000000	97.466841
2687.000000	97.465743
2686.000000	97.467011
2685.000000	97.469248
2684.000000	97.470898
2683.000000	97.470652
2682.000000	97.467577
2681.000000	97.462241
2680.000000	97.457381
2679.000000	97.456131
2678.000000	97.459222
2677.000000	97.464529
2676.000000	97.469506
2675.000000	97.473526
2674.000000	97.477816
2673.000000	97.483599
2672.000000	97.490355
2671.000000	97.495623
2670.000000	97.496727
2669.000000	97.493250
2668.000000	97.487795
2667.000000	97.483778
2666.000000	97.482336
2665.000000	97.481763
2664.000000	97.479953
2663.000000	97.476867
2662.000000	97.474476
2661.000000	97.474685
2660.000000	97.477551
2659.000000	97.481278
2658.000000	97.483736
2657.000000	97.484032
2656.000000	97.482931
2655.000000	97.482072
2654.000000	97.482893
2653.000000	97.485988
2652.000000	97.490854
2651.000000	97.496108
2650.000000	97.500355
2649.000000	97.503196
2648.000000	97.505378
2647.000000	97.508002
2646.000000	97.511728
2645.000000	97.516464
2644.000000	97.521264
2643.000000	97.524817
2642.000000	97.526949
2641.000000	97.529653
2640.000000	97.535463
2639.000000	97.544349
2638.000000	97.553239
2637.000000	97.559388
2636.000000	97.563438
2635.000000	97.568291
2634.000000	97.575529
2633.000000	97.583823
2632.000000	97.590492
2631.000000	97.593929
2630.000000	97.594920
2629.000000	97.596408
2628.000000	97.601509
2627.000000	97.610767
2626.000000	97.621300
2625.000000	97.629347
2624.000000	97.633773
2623.000000	97.636912
2622.000000	97.642291
2621.000000	97.651790
2620.000000	97.664348
2619.000000	97.676703
2618.000000	97.685738
2617.000000	97.690949
2616.000000	97.694716
2615.000000	97.699818
2614.000000	97.706853
2613.000000	97.714251
2612.000000	97.720502
2611.000000	97.726079
2610.000000	97.733277
2609.000000	97.743885
2608.000000	97.756383
2607.000000	97.765903
2606.000000	97.768505
2605.000000	97.765755
2604.000000	97.763848
2603.000000	97.767789
2602.000000	97.777343
2601.000000	97.788506
2600.000000	97.796844
2599.000000	97.799141
2598.000000	97.794530
2597.000000	97.786052
2596.000000	97.779682
2595.000000	97.779932
2594.000000	97.786887
2593.000000	97.797866
2592.000000	97.810064
2591.000000	97.820656
2590.000000	97.827139
2589.000000	97.830089
2588.000000	97.833833
2587.000000	97.841658
2586.000000	97.851554
2585.000000	97.859245
2584.000000	97.864227
2583.000000	97.869708
2582.000000	97.877032
2581.000000	97.883673
2580.000000	97.887374
2579.000000	97.889769
2578.000000	97.894509
2577.000000	97.903019
2576.000000	97.912885
2575.000000	97.919716
2574.000000	97.920680
2573.000000	97.916991
2572.000000	97.912627
2571.000000	97.910041
2570.000000	97.908205
2569.000000	97.905988
2568.000000	97.905861
2567.000000	97.911659
2566.000000	97.923078
2565.000000	97.934786
2564.000000	97.941536
2563.000000	97.942669
2562.000000	97.941180
2561.000000	97.939775
2560.000000	97.938365
2559.000000	97.934834
2558.000000	97.928110
2557.000000	97.920738
2556.000000	97.917779
2555.000000	97.922421
2554.000000	97.933122
2553.000000	97.945448
2552.000000	97.955738
2551.000000	97.962561
2550.000000	97.966449
2549.000000	97.969752
2548.000000	97.975194
2547.000000	97.982359
2546.000000	97.986410
2545.000000	97.982656
2544.000000	97.972320
2543.000000	97.962017
2542.000000	97.957237
2541.000000	97.957481
2540.000000	97.957795
2539.000000	97.954102
2538.000000	97.946989
2537.000000	97.941183
2536.000000	97.941460
2535.000000	97.948788
2534.000000	97.960496
2533.000000	97.973390
2532.000000	97.985320
2531.000000	97.994062
2530.000000	97.997235
2529.000000	97.994744
2528.000000	97.989725
2527.000000	97.985486
2526.000000	97.982399
2525.000000	97.978873
2524.000000	97.974315
2523.000000	97.970177
2522.000000	97.968896
2521.000000	97.972196
2520.000000	97.979199
2519.000000	97.986056
2518.000000	97.989299
2517.000000	97.990143
2516.000000	97.993259
2515.000000	98.000408
2514.000000	98.007538
2513.000000	98.009428
2512.000000	98.005066
2511.000000	97.997069
2510.000000	97.988325
2509.000000	97.981188
2508.000000	97.977946
2507.000000	97.979609
2506.000000	97.985067
2505.000000	97.992672
2504.000000	98.001276
2503.000000	98.008813
2502.000000	98.012168
2501.000000	98.010298
2500.000000	98.005757
2499.000000	98.001506
2498.000000	97.998042
2497.000000	97.995074
2496.000000	97.993708
2495.000000	97.994849
2494.000000	97.997191
2493.000000	97.998939
2492.000000	98.000267
2491.000000	98.002583
2490.000000	98.006789
2489.000000	98.013247
2488.000000	98.021399
2487.000000	98.028382
2486.000000	98.030777
2485.000000	98.029310
2484.000000	98.029053
2483.000000	98.033010
2482.000000	98.038505
2481.000000	98.042283
2480.000000	98.046102
2479.000000	98.053893
2478.000000	98.065459
2477.000000	98.076271
2476.000000	98.082280
2475.000000	98.082881
2474.000000	98.080780
2473.000000	98.080706
2472.000000	98.086016
2471.000000	98.094378
2470.000000	98.099290
2469.000000	98.097991
2468.000000	98.094915
2467.000000	98.094967
2466.000000	98.096793
2465.000000	98.096017
2464.000000	98.091934
2463.000000	98.086648
2462.000000	98.080389
2461.000000	98.072662
2460.000000	98.066423
2459.000000	98.066057
2458.000000	98.071446
2457.000000	98.077969
2456.000000	98.082429
2455.000000	98.085797
2454.000000	98.090139
2453.000000	98.095933
2452.000000	98.102702
2451.000000	98.110152
2450.000000	98.118233
2449.000000	98.126826
2448.000000	98.134719
2447.000000	98.138889
2446.000000	98.137247
2445.000000	98.132888
2444.000000	98.132301
2443.000000	98.137469
2442.000000	98.142787
2441.000000	98.141779
2440.000000	98.133862
2439.000000	98.122793
2438.000000	98.112861
2437.000000	98.109192
2436.000000	98.116585
2435.000000	98.133095
2434.000000	98.148302
2433.000000	98.153048
2432.000000	98.148899
2431.000000	98.144255
2430.000000	98.144028
2429.000000	98.147324
2428.000000	98.152161
2427.000000	98.157403
2426.000000	98.161552
2425.000000	98.163727
2424.000000	98.164662
2423.000000	98.164266
2422.000000	98.161115
2421.000000	98.157153
2420.000000	98.158531
2419.000000	98.167196
2418.000000	98.175427
2417.000000	98.174387
2416.000000	98.165489
2415.000000	98.157953
2414.000000	98.157416
2413.000000	98.162097
2412.000000	98.168185
2411.000000	98.173513
2410.000000	98.176787
2409.000000	98.177810
2408.000000	98.177870
2407.000000	98.176921
2406.000000	98.172613
2405.000000	98.165313
2404.000000	98.160749
2403.000000	98.163137
2402.000000	98.168803
2401.000000	98.171518
2400.000000	98.171396
2399.000000	98.173338
2398.000000	98.179025
2397.000000	98.185750
2396.000000	98.191202
2395.000000	98.194141
2394.000000	98.192149
2393.000000	98.184244
2392.000000	98.174424
2391.000000	98.168089
2390.000000	98.165714
2389.000000	98.163880
2388.000000	98.160957
2387.000000	98.156630
2386.000000	98.149631
2385.000000	98.140672
2384.000000	98.136104
2383.000000	98.143635
2382.000000	98.162931
2381.000000	98.186105
2380.000000	98.204400
2379.000000	98.210517
2378.000000	98.198839
2377.000000	98.169860
2376.000000	98.133807
2375.000000	98.102644
2374.000000	98.080982
2373.000000	98.069328
2372.000000	98.071096
2371.000000	98.086284
2370.000000	98.103739
2369.000000	98.111082
2368.000000	98.106053
2367.000000	98.093399
2366.000000	98.076558
2365.000000	98.059901
2364.000000	98.050545
2363.000000	98.045004
2362.000000	98.028182
2361.000000	97.994495
2360.000000	97.953951
2359.000000	97.921840
2358.000000	97.906440
2357.000000	97.909688
2356.000000	97.925735
2355.000000	97.938066
2354.000000	97.946076
2353.000000	97.966350
2352.000000	97.999036
2351.000000	98.020290
2350.000000	98.014680
2349.000000	97.991968
2348.000000	97.971020
2347.000000	97.967798
2346.000000	97.977986
2345.000000	97.975904
2344.000000	97.950789
2343.000000	97.920829
2342.000000	97.911900
2341.000000	97.929103
2340.000000	97.952071
2339.000000	97.959184
2338.000000	97.951564
2337.000000	97.945399
2336.000000	97.950087
2335.000000	97.964018
2334.000000	97.987619
2333.000000	98.022683
2332.000000	98.057162
2331.000000	98.070288
2330.000000	98.050033
2329.000000	98.006252
2328.000000	97.954517
2327.000000	97.906692
2326.000000	97.870771
2325.000000	97.852318
2324.000000	97.855333
2323.000000	97.875273
2322.000000	97.899611
2321.000000	97.910550
2320.000000	97.899235
2319.000000	97.873548
2318.000000	97.849856
2317.000000	97.841503
2316.000000	97.852129
2315.000000	97.878308
2314.000000	97.908506
2313.000000	97.928805
2312.000000	97.933261
2311.000000	97.931076
2310.000000	97.936990
2309.000000	97.956725
2308.000000	97.983907
2307.000000	98.008358
2306.000000	98.024472
2305.000000	98.032627
2304.000000	98.038143
2303.000000	98.045582
2302.000000	98.053652
2301.000000	98.056794
2300.000000	98.053918
2299.000000	98.052165
2298.000000	98.057873
2297.000000	98.069986
2296.000000	98.082133
2295.000000	98.089822
2294.000000	98.090798
2293.000000	98.083741
2292.000000	98.070688
2291.000000	98.058036
2290.000000	98.052201
2289.000000	98.054651
2288.000000	98.063795
2287.000000	98.077182
2286.000000	98.090986
2285.000000	98.100963
2284.000000	98.108632
2283.000000	98.121249
2282.000000	98.142738
2281.000000	98.167863
2280.000000	98.189648
2279.000000	98.207693
2278.000000	98.225008
2277.000000	98.241186
2276.000000	98.252794
2275.000000	98.257834
2274.000000	98.255944
2273.000000	98.248137
2272.000000	98.238771
2271.000000	98.234037
2270.000000	98.235589
2269.000000	98.239259
2268.000000	98.241570
2267.000000	98.242690
2266.000000	98.241851
2265.000000	98.237031
2264.000000	98.231877
2263.000000	98.235858
2262.000000	98.252797
2261.000000	98.274565
2260.000000	98.290313
2259.000000	98.297106
2258.000000	98.299423
2257.000000	98.303310
2256.000000	98.313478
2255.000000	98.328996
2254.000000	98.339356
2253.000000	98.332954
2252.000000	98.312914
2251.000000	98.297173
2250.000000	98.297909
2249.000000	98.309218
2248.000000	98.317905
2247.000000	98.320042
2246.000000	98.321394
2245.000000	98.326110
2244.000000	98.331734
2243.000000	98.332973
2242.000000	98.328421
2241.000000	98.325276
2240.000000	98.335567
2239.000000	98.362168
2238.000000	98.391247
2237.000000	98.405954
2236.000000	98.404872
2235.000000	98.397484
2234.000000	98.385875
2233.000000	98.365617
2232.000000	98.342778
2231.000000	98.332228
2230.000000	98.335697
2229.000000	98.338078
2228.000000	98.331522
2227.000000	98.328613
2226.000000	98.344185
2225.000000	98.376000
2224.000000	98.409673
2223.000000	98.431357
2222.000000	98.430632
2221.000000	98.404954
2220.000000	98.369434
2219.000000	98.349805
2218.000000	98.357309
2217.000000	98.378886
2216.000000	98.396066
2215.000000	98.403184
2214.000000	98.403313
2213.000000	98.400259
2212.000000	98.402097
2211.000000	98.420363
2210.000000	98.457029
2209.000000	98.499119
2208.000000	98.529502
2207.000000	98.535687
2206.000000	98.510872
2205.000000	98.462812
2204.000000	98.421844
2203.000000	98.420003
2202.000000	98.456635
2201.000000	98.500843
2200.000000	98.532073
2199.000000	98.558758
2198.000000	98.590146
2197.000000	98.612569
2196.000000	98.608597
2195.000000	98.582737
2194.000000	98.553288
2193.000000	98.531746
2192.000000	98.521613
2191.000000	98.524284
2190.000000	98.533739
2189.000000	98.536177
2188.000000	98.526506
2187.000000	98.517260
2186.000000	98.523704
2185.000000	98.548812
2184.000000	98.586073
2183.000000	98.623927
2182.000000	98.643282
2181.000000	98.628522
2180.000000	98.589710
2179.000000	98.557792
2178.000000	98.550981
2177.000000	98.559362
2176.000000	98.563872
2175.000000	98.555128
2174.000000	98.533187
2173.000000	98.507832
2172.000000	98.501375
2171.000000	98.529142
2170.000000	98.572361
2169.000000	98.589879
2168.000000	98.566330
2167.000000	98.531067
2166.000000	98.519738
2165.000000	98.534505
2164.000000	98.550262
2163.000000	98.546572
2162.000000	98.527313
2161.000000	98.524844
2160.000000	98.585529
2159.000000	98.720187
2158.000000	98.866428
2157.000000	98.945335
2156.000000	98.951263
2155.000000	98.936414
2154.000000	98.927283
2153.000000	98.904974
2152.000000	98.853228
2151.000000	98.785129
2150.000000	98.722480
2149.000000	98.678838
2148.000000	98.665391
2147.000000	98.686288
2146.000000	98.722123
2145.000000	98.740229
2144.000000	98.729279
2143.000000	98.706702
2142.000000	98.690043
2141.000000	98.679616
2140.000000	98.670012
2139.000000	98.660267
2138.000000	98.649734
2137.000000	98.639371
2136.000000	98.638187
2135.000000	98.652841
2134.000000	98.671366
2133.000000	98.674095
2132.000000	98.660047
2131.000000	98.645837
2130.000000	98.639062
2129.000000	98.629250
2128.000000	98.606002
2127.000000	98.571951
2126.000000	98.535764
2125.000000	98.504149
2124.000000	98.482833
2123.000000	98.474281
2122.000000	98.471805
2121.000000	98.464657
2120.000000	98.450293
2119.000000	98.433257
2118.000000	98.412847
2117.000000	98.383275
2116.000000	98.347803
2115.000000	98.322125
2114.000000	98.319826
2113.000000	98.341152
2112.000000	98.376622
2111.000000	98.413833
2110.000000	98.440171
2109.000000	98.448618
2108.000000	98.444200
2107.000000	98.437794
2106.000000	98.433248
2105.000000	98.427919
2104.000000	98.423116
2103.000000	98.422994
2102.000000	98.423869
2101.000000	98.417113
2100.000000	98.404294
2099.000000	98.398786
2098.000000	98.410534
2097.000000	98.437388
2096.000000	98.472002
2095.000000	98.507292
2094.000000	98.534426
2093.000000	98.546057
2092.000000	98.542958
2091.000000	98.530360
2090.000000	98.510288
2089.000000	98.485613
2088.000000	98.465972
2087.000000	98.457149
2086.000000	98.449334
2085.000000	98.430236
2084.000000	98.406591
2083.000000	98.397328
2082.000000	98.406349
2081.000000	98.418469
2080.000000	98.422990
2079.000000	98.425044
2078.000000	98.430777
2077.000000	98.437155
2076.000000	98.442571
2075.000000	98.453322
2074.000000	98.473295
2073.000000	98.497508
2072.000000	98.518197
2071.000000	98.529468
2070.000000	98.526819
2069.000000	98.513298
2068.000000	98.503918
2067.000000	98.509747
2066.000000	98.520136
2065.000000	98.514962
2064.000000	98.492709
2063.000000	98.469160
2062.000000	98.452910
2061.000000	98.444485
2060.000000	98.453402
2059.000000	98.489981
2058.000000	98.539462
2057.000000	98.567715
2056.000000	98.557508
2055.000000	98.520504
2054.000000	98.472701
2053.000000	98.421401
2052.000000	98.379376
2051.000000	98.368022
2050.000000	98.396351
2049.000000	98.448115
2048.000000	98.496912
2047.000000	98.526141
2046.000000	98.531703
2045.000000	98.524296
2044.000000	98.532046
2043.000000	98.575080
2042.000000	98.633441
2041.000000	98.664397
2040.000000	98.655731
2039.000000	98.633320
2038.000000	98.617098
2037.000000	98.607451
2036.000000	98.613443
2035.000000	98.652367
2034.000000	98.711602
2033.000000	98.749255
2032.000000	98.747958
2031.000000	98.732754
2030.000000	98.728612
2029.000000	98.738868
2028.000000	98.766352
2027.000000	98.814688
2026.000000	98.863765
2025.000000	98.882464
2024.000000	98.870215
2023.000000	98.850693
2022.000000	98.825602
2021.000000	98.774936
2020.000000	98.701760
2019.000000	98.634792
2018.000000	98.588570
2017.000000	98.560690
2016.000000	98.563612
2015.000000	98.611109
2014.000000	98.677988
2013.000000	98.721492
2012.000000	98.739779
2011.000000	98.766126
2010.000000	98.806325
2009.000000	98.829700
2008.000000	98.827182
2007.000000	98.826378
2006.000000	98.837032
2005.000000	98.835174
2004.000000	98.812394
2003.000000	98.792290
2002.000000	98.787945
2001.000000	98.783333
2000.000000	98.765798
1999.000000	98.741634
1998.000000	98.718221
1997.000000	98.699020
1996.000000	98.693870
1995.000000	98.708439
1994.000000	98.726046
1993.000000	98.723334
1992.000000	98.704295
1991.000000	98.692390
1990.000000	98.688472
1989.000000	98.675582
1988.000000	98.659517
1987.000000	98.662397
1986.000000	98.681331
1985.000000	98.692375
1984.000000	98.692168
1983.000000	98.696814
1982.000000	98.700891
1981.000000	98.680480
1980.000000	98.640983
1979.000000	98.618623
1978.000000	98.630416
1977.000000	98.660637
1976.000000	98.700450
1975.000000	98.754527
1974.000000	98.803773
1973.000000	98.815111
1972.000000	98.792019
1971.000000	98.768544
1970.000000	98.754918
1969.000000	98.733007
1968.000000	98.702567
1967.000000	98.689479
1966.000000	98.703404
1965.000000	98.729265
1964.000000	98.763966
1963.000000	98.818979
1962.000000	98.885570
1961.000000	98.934777
1960.000000	98.955928
1959.000000	98.963060
1958.000000	98.962447
1957.000000	98.946581
1956.000000	98.916791
1955.000000	98.880001
1954.000000	98.830652
1953.000000	98.765787
1952.000000	98.708892
1951.000000	98.689200
1950.000000	98.700198
1949.000000	98.710533
1948.000000	98.712930
1947.000000	98.725304
1946.000000	98.748073
1945.000000	98.758214
1944.000000	98.747308
1943.000000	98.731749
1942.000000	98.721525
1941.000000	98.712820
1940.000000	98.710162
1939.000000	98.723249
1938.000000	98.743123
1937.000000	98.746567
1936.000000	98.730877
1935.000000	98.720255
1934.000000	98.729705
1933.000000	98.746472
1932.000000	98.754970
1931.000000	98.758586
1930.000000	98.760193
1929.000000	98.751955
1928.000000	98.736646
1927.000000	98.729640
1926.000000	98.734795
1925.000000	98.734070
1924.000000	98.716816
1923.000000	98.698363
1922.000000	98.694596
1921.000000	98.700545
1920.000000	98.705259
1919.000000	98.710467
1918.000000	98.716982
1917.000000	98.714797
1916.000000	98.701296
1915.000000	98.685270
1914.000000	98.674275
1913.000000	98.670641
1912.000000	98.675106
1911.000000	98.688273
1910.000000	98.700537
1909.000000	98.699756
1908.000000	98.692069
1907.000000	98.692879
1906.000000	98.702563
1905.000000	98.704589
1904.000000	98.693102
1903.000000	98.680818
1902.000000	98.674203
1901.000000	98.669560
1900.000000	98.668735
1899.000000	98.677635
1898.000000	98.692013
1897.000000	98.697917
1896.000000	98.693963
1895.000000	98.696952
1894.000000	98.714696
1893.000000	98.733765
1892.000000	98.738342
1891.000000	98.725332
1890.000000	98.699190
1889.000000	98.671907
1888.000000	98.663282
1887.000000	98.678014
1886.000000	98.697130
1885.000000	98.702252
1884.000000	98.697011
1883.000000	98.697873
1882.000000	98.706584
1881.000000	98.712692
1880.000000	98.715861
1879.000000	98.722708
1878.000000	98.730089
1877.000000	98.726352
1876.000000	98.710810
1875.000000	98.699543
1874.000000	98.704299
1873.000000	98.720173
1872.000000	98.739076
1871.000000	98.759661
1870.000000	98.778428
1869.000000	98.785051
1868.000000	98.785652
1867.000000	98.796519
1866.000000	98.806715
1865.000000	98.797802
1864.000000	98.777277
1863.000000	98.764214
1862.000000	98.761274
1861.000000	98.755994
1860.000000	98.745280
1859.000000	98.738590
1858.000000	98.738411
1857.000000	98.739131
1856.000000	98.741200
1855.000000	98.748077
1854.000000	98.753334
1853.000000	98.750264
1852.000000	98.746715
1851.000000	98.748757
1850.000000	98.752613
1849.000000	98.757457
1848.000000	98.772652
1847.000000	98.802408
1846.000000	98.830666
1845.000000	98.836612
1844.000000	98.826304
1843.000000	98.829258
1842.000000	98.843458
1841.000000	98.842531
1840.000000	98.825496
1839.000000	98.811364
1838.000000	98.808213
1837.000000	98.805088
1836.000000	98.798480
1835.000000	98.799076
1834.000000	98.809794
1833.000000	98.824744
1832.000000	98.840744
1831.000000	98.857130
1830.000000	98.869976
1829.000000	98.874798
1828.000000	98.868498
1827.000000	98.847996
1826.000000	98.819441
1825.000000	98.796622
1824.000000	98.791904
1823.000000	98.804663
1822.000000	98.816063
1821.000000	98.813080
1820.000000	98.802815
1819.000000	98.801186
1818.000000	98.812986
1817.000000	98.824885
1816.000000	98.830389
1815.000000	98.835714
1814.000000	98.839814
1813.000000	98.835268
1812.000000	98.820264
1811.000000	98.807823
1810.000000	98.805696
1809.000000	98.800312
1808.000000	98.787306
1807.000000	98.781059
1806.000000	98.785198
1805.000000	98.783191
1804.000000	98.767440
1803.000000	98.752454
1802.000000	98.751372
1801.000000	98.759398
1800.000000	98.768033
1799.000000	98.781479
1798.000000	98.797466
1797.000000	98.805008
1796.000000	98.809402
1795.000000	98.824394
1794.000000	98.850540
1793.000000	98.866723
1792.000000	98.851953
1791.000000	98.824649
1790.000000	98.808836
1789.000000	98.796811
1788.000000	98.780920
1787.000000	98.766700
1786.000000	98.760505
1785.000000	98.764347
1784.000000	98.784114
1783.000000	98.813714
1782.000000	98.827410
1781.000000	98.816057
1780.000000	98.799706
1779.000000	98.805619
1778.000000	98.832330
1777.000000	98.858966
1776.000000	98.880785
1775.000000	98.901366
1774.000000	98.925916
1773.000000	98.952254
1772.000000	98.968015
1771.000000	98.968221
1770.000000	98.941084
1769.000000	98.876605
1768.000000	98.807907
1767.000000	98.785129
1766.000000	98.810387
1765.000000	98.837774
1764.000000	98.837494
1763.000000	98.819796
1762.000000	98.807749
1761.000000	98.812862
1760.000000	98.822064
1759.000000	98.815460
1758.000000	98.784896
1757.000000	98.746338
1756.000000	98.730914
1755.000000	98.739037
1754.000000	98.737540
1753.000000	98.712723
1752.000000	98.691476
1751.000000	98.698919
1750.000000	98.720122
1749.000000	98.712674
1748.000000	98.665444
1747.000000	98.604549
1746.000000	98.546267
1745.000000	98.484091
1744.000000	98.412884
1743.000000	98.355585
1742.000000	98.335163
1741.000000	98.335041
1740.000000	98.328963
1739.000000	98.326895
1738.000000	98.339676
1737.000000	98.340771
1736.000000	98.321954
1735.000000	98.323825
1734.000000	98.364996
1733.000000	98.424681
1732.000000	98.469265
1731.000000	98.470222
1730.000000	98.436911
1729.000000	98.406359
1728.000000	98.405574
1727.000000	98.423526
1726.000000	98.438457
1725.000000	98.442543
1724.000000	98.437828
1723.000000	98.441804
1722.000000	98.460962
1721.000000	98.473227
1720.000000	98.456409
1719.000000	98.423489
1718.000000	98.407151
1717.000000	98.401863
1716.000000	98.386786
1715.000000	98.356925
1714.000000	98.304392
1713.000000	98.230640
1712.000000	98.155776
1711.000000	98.098718
1710.000000	98.064121
1709.000000	98.050744
1708.000000	98.051199
1707.000000	98.046664
1706.000000	98.020892
1705.000000	97.979901
1704.000000	97.952062
1703.000000	97.934478
1702.000000	97.917603
1701.000000	97.888135
1700.000000	97.836497
1699.000000	97.793038
1698.000000	97.708441
1697.000000	97.503436
1696.000000	97.240445
1695.000000	97.086767
1694.000000	97.065153
1693.000000	97.040689
1692.000000	96.952273
1691.000000	96.831683
1690.000000	96.717722
1689.000000	96.614469
1688.000000	96.519442
1687.000000	96.428727
1686.000000	96.351907
1685.000000	96.244171
1684.000000	96.067150
1683.000000	95.940720
1682.000000	95.866406
1681.000000	95.730315
1680.000000	95.552340
1679.000000	95.407303
1678.000000	95.314091
1677.000000	95.222320
1676.000000	95.085742
1675.000000	94.920416
1674.000000	94.781502
1673.000000	94.670878
1672.000000	94.543340
1671.000000	94.376604
1670.000000	94.154795
1669.000000	93.893562
1668.000000	93.657397
1667.000000	93.480030
1666.000000	93.348228
1665.000000	93.229623
1664.000000	93.089386
1663.000000	92.914127
1662.000000	92.725694
1661.000000	92.555467
1660.000000	92.400611
1659.000000	92.261006
1658.000000	92.144754
1657.000000	92.060506
1656.000000	91.976578
1655.000000	91.884345
1654.000000	91.699327
1653.000000	91.360537
1652.000000	91.146201
1651.000000	91.131156
1650.000000	91.130279
1649.000000	91.064429
1648.000000	90.900301
1647.000000	90.668937
1646.000000	90.487346
1645.000000	90.435279
1644.000000	90.462422
1643.000000	90.519238
1642.000000	90.585460
1641.000000	90.656495
1640.000000	90.737297
1639.000000	90.824364
1638.000000	90.904938
1637.000000	90.952888
1636.000000	90.937748
1635.000000	90.896783
1634.000000	90.886003
1633.000000	90.876869
1632.000000	90.859085
1631.000000	90.866082
1630.000000	90.916715
1629.000000	91.003680
1628.000000	91.111229
1627.000000	91.234340
1626.000000	91.365548
1625.000000	91.498966
1624.000000	91.629625
1623.000000	91.745520
1622.000000	91.834255
1621.000000	91.895686
1620.000000	91.932811
1619.000000	91.949252
1618.000000	91.951713
1617.000000	91.938716
1616.000000	91.926357
1615.000000	91.929734
1614.000000	91.922260
1613.000000	91.886416
1612.000000	91.843306
1611.000000	91.815112
1610.000000	91.794556
1609.000000	91.764971
1608.000000	91.728187
1607.000000	91.690483
1606.000000	91.644712
1605.000000	91.584282
1604.000000	91.509715
1603.000000	91.423231
1602.000000	91.329312
1601.000000	91.234192
1600.000000	91.146079
1599.000000	91.069985
1598.000000	91.006917
1597.000000	90.956756
1596.000000	90.922491
1595.000000	90.910758
1594.000000	90.923195
1593.000000	90.955718
1592.000000	91.004676
1591.000000	91.065389
1590.000000	91.128090
1589.000000	91.184792
1588.000000	91.233405
1587.000000	91.270344
1586.000000	91.286179
1585.000000	91.278324
1584.000000	91.253012
1583.000000	91.204241
1582.000000	91.125874
1581.000000	91.033083
1580.000000	90.944772
1579.000000	90.854915
1578.000000	90.750740
1577.000000	90.632993
1576.000000	90.530404
1575.000000	90.487396
1574.000000	90.488413
1573.000000	90.485036
1572.000000	90.466481
1571.000000	90.443197
1570.000000	90.397462
1569.000000	90.318384
1568.000000	90.229989
1567.000000	90.132418
1566.000000	90.010160
1565.000000	89.871876
1564.000000	89.734163
1563.000000	89.607228
1562.000000	89.482660
1561.000000	89.382432
1560.000000	89.268771
1559.000000	88.941591
1558.000000	88.566910
1557.000000	88.367528
1556.000000	88.161684
1555.000000	87.897169
1554.000000	87.648474
1553.000000	87.469957
1552.000000	87.342286
1551.000000	87.218661
1550.000000	87.108385
1549.000000	87.035518
1548.000000	86.999093
1547.000000	86.965574
1546.000000	86.917015
1545.000000	86.853169
1544.000000	86.781586
1543.000000	86.718925
1542.000000	86.676188
1541.000000	86.607393
1540.000000	86.497479
1539.000000	86.481307
1538.000000	86.602545
1537.000000	86.756951
1536.000000	86.904720
1535.000000	87.077246
1534.000000	87.311398
1533.000000	87.573760
1532.000000	87.795794
1531.000000	87.971658
1530.000000	88.133742
1529.000000	88.296187
1528.000000	88.458381
1527.000000	88.632879
1526.000000	88.831779
1525.000000	89.031814
1524.000000	89.194192
1523.000000	89.324545
1522.000000	89.456637
1521.000000	89.593145
1520.000000	89.731562
1519.000000	89.870468
1518.000000	89.996072
1517.000000	90.096290
1516.000000	90.182961
1515.000000	90.288355
1514.000000	90.417254
1513.000000	90.558338
1512.000000	90.708692
1511.000000	90.871759
1510.000000	91.043184
1509.000000	91.219707
1508.000000	91.406250
1507.000000	91.586315
1506.000000	91.792667
1505.000000	92.008394
1504.000000	92.139690
1503.000000	92.213211
1502.000000	92.289339
1501.000000	92.392586
1500.000000	92.516913
1499.000000	92.640662
1498.000000	92.761934
1497.000000	92.870617
1496.000000	92.962991
1495.000000	93.069605
1494.000000	93.194741
1493.000000	93.304489
1492.000000	93.387171
1491.000000	93.468017
1490.000000	93.559307
1489.000000	93.626711
1488.000000	93.654700
1487.000000	93.678162
1486.000000	93.708599
1485.000000	93.726198
1484.000000	93.725214
1483.000000	93.709770
1482.000000	93.682390
1481.000000	93.634435
1480.000000	93.567466
1479.000000	93.497457
1478.000000	93.429281
1477.000000	93.349432
1476.000000	93.254397
1475.000000	93.163148
1474.000000	93.062489
1473.000000	92.877988
1472.000000	92.606357
1471.000000	92.372001
1470.000000	92.223721
1469.000000	92.113415
1468.000000	92.021637
1467.000000	91.963389
1466.000000	91.938622
1465.000000	91.914247
1464.000000	91.876368
1463.000000	91.852698
1462.000000	91.855802
1461.000000	91.865988
1460.000000	91.859728
1459.000000	91.827972
1458.000000	91.744676
1457.000000	91.555336
1456.000000	91.330627
1455.000000	91.172875
1454.000000	91.036764
1453.000000	90.861343
1452.000000	90.655944
1451.000000	90.469478
1450.000000	90.319193
1449.000000	90.170754
1448.000000	90.006941
1447.000000	89.857411
1446.000000	89.737652
1445.000000	89.623128
1444.000000	89.491457
1443.000000	89.351562
1442.000000	89.220045
1441.000000	89.095035
1440.000000	88.968705
1439.000000	88.841030
1438.000000	88.717479
1437.000000	88.594591
1436.000000	88.496658
1435.000000	88.460731
1434.000000	88.461294
1433.000000	88.455674
1432.000000	88.448626
1431.000000	88.466532
1430.000000	88.513240
1429.000000	88.567982
1428.000000	88.623543
1427.000000	88.687708
1426.000000	88.756358
1425.000000	88.826860
1424.000000	88.901673
1423.000000	88.979244
1422.000000	89.047412
1421.000000	89.097167
1420.000000	89.142249
1419.000000	89.201603
1418.000000	89.286775
1417.000000	89.383949
1416.000000	89.471252
1415.000000	89.554977
1414.000000	89.643223
1413.000000	89.719281
1412.000000	89.752282
1411.000000	89.723565
1410.000000	89.640471
1409.000000	89.526286
1408.000000	89.416650
1407.000000	89.356278
1406.000000	89.370834
1405.000000	89.452505
1404.000000	89.572979
1403.000000	89.707576
1402.000000	89.841530
1401.000000	89.968085
1400.000000	90.093429
1399.000000	90.225466
1398.000000	90.357883
1397.000000	90.467992
1396.000000	90.538534
1395.000000	90.569501
1394.000000	90.570625
1393.000000	90.544626
1392.000000	90.479040
1391.000000	90.377133
1390.000000	90.265854
1389.000000	90.172530
1388.000000	90.114626
1387.000000	90.102050
1386.000000	90.131441
1385.000000	90.179927
1384.000000	90.227009
1383.000000	90.277096
1382.000000	90.342564
1381.000000	90.417933
1380.000000	90.493306
1379.000000	90.573695
1378.000000	90.667275
1377.000000	90.769157
1376.000000	90.869657
1375.000000	90.964846
1374.000000	91.053194
1373.000000	91.134771
1372.000000	91.211150
1371.000000	91.282403
1370.000000	91.348325
1369.000000	91.418874
1368.000000	91.510954
1367.000000	91.631722
1366.000000	91.770124
1365.000000	91.909008
1364.000000	92.047233
1363.000000	92.196799
1362.000000	92.361444
1361.000000	92.532128
1360.000000	92.699528
1359.000000	92.859462
1358.000000	93.007804
1357.000000	93.139967
1356.000000	93.257920
1355.000000	93.369125
1354.000000	93.476077
1353.000000	93.571559
1352.000000	93.651480
1351.000000	93.717803
1350.000000	93.759120
1349.000000	93.749654
1348.000000	93.661269
1347.000000	93.475574
1346.000000	93.197206
1345.000000	92.871662
1344.000000	92.584657
1343.000000	92.416394
1342.000000	92.391255
1341.000000	92.472347
1340.000000	92.589771
1339.000000	92.676582
1338.000000	92.703992
1337.000000	92.685073
1336.000000	92.654255
1335.000000	92.649152
1334.000000	92.691254
1333.000000	92.778317
1332.000000	92.898740
1331.000000	93.043085
1330.000000	93.199112
1329.000000	93.350260
1328.000000	93.486415
1327.000000	93.605828
1326.000000	93.703556
1325.000000	93.772045
1324.000000	93.810833
1323.000000	93.827840
1322.000000	93.829626
1321.000000	93.816347
1320.000000	93.791336
1319.000000	93.768604
1318.000000	93.763291
1317.000000	93.777137
1316.000000	93.799747
1315.000000	93.817517
1314.000000	93.816990
1313.000000	93.790010
1312.000000	93.745863
1311.000000	93.710722
1310.000000	93.706665
1309.000000	93.735631
1308.000000	93.787233
1307.000000	93.852354
1306.000000	93.922293
1305.000000	93.986047
1304.000000	94.034301
1303.000000	94.064168
1302.000000	94.074793
1301.000000	94.061693
1300.000000	94.021821
1299.000000	93.959988
1298.000000	93.883992
1297.000000	93.797434
1296.000000	93.705915
1295.000000	93.625564
1294.000000	93.577863
1293.000000	93.577305
1292.000000	93.626003
1291.000000	93.713804
1290.000000	93.820255
1289.000000	93.923802
1288.000000	94.015794
1287.000000	94.101425
1286.000000	94.184268
1285.000000	94.257495
1284.000000	94.313623
1283.000000	94.354602
1282.000000	94.386162
1281.000000	94.409703
1280.000000	94.425784
1279.000000	94.438375
1278.000000	94.448563
1277.000000	94.449091
1276.000000	94.432562
1275.000000	94.398082
1274.000000	94.344760
1273.000000	94.265343
1272.000000	94.152022
1271.000000	94.004749
1270.000000	93.827406
1269.000000	93.624178
1268.000000	93.407046
1267.000000	93.199281
1266.000000	93.023212
1265.000000	92.889237
1264.000000	92.801899
1263.000000	92.767323
1262.000000	92.786299
1261.000000	92.847356
1260.000000	92.937172
1259.000000	93.048874
1258.000000	93.174703
1257.000000	93.301966
1256.000000	93.422161
1255.000000	93.536507
1254.000000	93.645953
1253.000000	93.743944
1252.000000	93.825019
1251.000000	93.891913
1250.000000	93.947763
1249.000000	93.989723
1248.000000	94.016756
1247.000000	94.034974
1246.000000	94.049371
1245.000000	94.056384
1244.000000	94.050517
1243.000000	94.032162
1242.000000	94.003398
1241.000000	93.966150
1240.000000	93.931748
1239.000000	93.922125
1238.000000	93.950480
1237.000000	94.007768
1236.000000	94.076161
1235.000000	94.148171
1234.000000	94.225578
1233.000000	94.307830
1232.000000	94.390119
1231.000000	94.465721
1230.000000	94.521405
1229.000000	94.535212
1228.000000	94.487831
1227.000000	94.373500
1226.000000	94.200561
1225.000000	93.992581
1224.000000	93.793832
1223.000000	93.659244
1222.000000	93.623414
1221.000000	93.681842
1220.000000	93.805714
1219.000000	93.965404
1218.000000	94.134547
1217.000000	94.287576
1216.000000	94.405832
1215.000000	94.480233
1214.000000	94.503918
1213.000000	94.474071
1212.000000	94.408345
1211.000000	94.345658
1210.000000	94.314698
1209.000000	94.306745
1208.000000	94.292281
1207.000000	94.256327
1206.000000	94.208046
1205.000000	94.166103
1204.000000	94.149242
1203.000000	94.173677
1202.000000	94.244273
1201.000000	94.349697
1200.000000	94.473128
1199.000000	94.603893
1198.000000	94.733577
1197.000000	94.851128
1196.000000	94.951744
1195.000000	95.042880
1194.000000	95.131948
1193.000000	95.214544
1192.000000	95.283278
1191.000000	95.341082
1190.000000	95.396943
1189.000000	95.453838
1188.000000	95.509747
1187.000000	95.564780
1186.000000	95.618658
1185.000000	95.667122
1184.000000	95.708403
1183.000000	95.747715
1182.000000	95.788149
1181.000000	95.823546
1180.000000	95.848326
1179.000000	95.866575
1178.000000	95.883437
1177.000000	95.896040
1176.000000	95.901117
1175.000000	95.903463
1174.000000	95.908201
1173.000000	95.913170
1172.000000	95.916845
1171.000000	95.924716
1170.000000	95.939808
1169.000000	95.956133
1168.000000	95.969851
1167.000000	95.986758
1166.000000	96.010046
1165.000000	96.031695
1164.000000	96.046428
1163.000000	96.063202
1162.000000	96.090845
1161.000000	96.122741
1160.000000	96.148322
1159.000000	96.170128
1158.000000	96.196870
1157.000000	96.228270
1156.000000	96.259408
1155.000000	96.291949
1154.000000	96.328776
1153.000000	96.365123
1152.000000	96.396538
1151.000000	96.428071
1150.000000	96.464562
1149.000000	96.500214
1148.000000	96.529307
1147.000000	96.558495
1146.000000	96.596699
1145.000000	96.641184
1144.000000	96.685033
1143.000000	96.729256
1142.000000	96.775983
1141.000000	96.819012
1140.000000	96.853605
1139.000000	96.887222
1138.000000	96.927934
1137.000000	96.969984
1136.000000	97.002593
1135.000000	97.025233
1134.000000	97.042650
1133.000000	97.052817
1132.000000	97.052782
1131.000000	97.048902
1130.000000	97.048694
1129.000000	97.049474
1128.000000	97.046070
1127.000000	97.042205
1126.000000	97.042469
1125.000000	97.041339
1124.000000	97.032824
1123.000000	97.022592
1122.000000	97.017645
1121.000000	97.011043
1120.000000	96.989514
1119.000000	96.950707
1118.000000	96.901280
1117.000000	96.844226
1116.000000	96.778057
1115.000000	96.699873
1114.000000	96.600262
1113.000000	96.462288
1112.000000	96.276903
1111.000000	96.051323
1110.000000	95.792342
1109.000000	95.495023
1108.000000	95.156965
1107.000000	94.793520
1106.000000	94.425542
1105.000000	94.063410
1104.000000	93.717341
1103.000000	93.409436
1102.000000	93.161887
1101.000000	92.983387
1100.000000	92.884466
1099.000000	92.887996
1098.000000	93.004289
1097.000000	93.212415
1096.000000	93.474974
1095.000000	93.762959
1094.000000	94.052962
1093.000000	94.320639
1092.000000	94.553703
1091.000000	94.758824
1090.000000	94.943036
1089.000000	95.099239
1088.000000	95.221045
1087.000000	95.317049
1086.000000	95.398526
1085.000000	95.464847
1084.000000	95.515148
1083.000000	95.560811
1082.000000	95.611392
1081.000000	95.661614
1080.000000	95.706046
1079.000000	95.754748
1078.000000	95.818959
1077.000000	95.892946
1076.000000	95.964331
1075.000000	96.031496
1074.000000	96.098124
1073.000000	96.162221
1072.000000	96.223372
1071.000000	96.289121
1070.000000	96.361452
1069.000000	96.427759
1068.000000	96.477042
1067.000000	96.513450
1066.000000	96.544273
1065.000000	96.566479
1064.000000	96.575428
1063.000000	96.573422
1062.000000	96.556048
1061.000000	96.503185
1060.000000	96.393715
1059.000000	96.219206
1058.000000	95.981030
1057.000000	95.693140
1056.000000	95.397958
1055.000000	95.151917
1054.000000	94.970484
1053.000000	94.803672
1052.000000	94.589974
1051.000000	94.329818
1050.000000	94.091358
1049.000000	93.955991
1048.000000	93.967677
1047.000000	94.115935
1046.000000	94.343433
1045.000000	94.580670
1044.000000	94.787647
1043.000000	94.955688
1042.000000	95.075560
1041.000000	95.130081
1040.000000	95.128190
1039.000000	95.118041
1038.000000	95.146130
1037.000000	95.219048
1036.000000	95.319117
1035.000000	95.434851
1034.000000	95.557011
1033.000000	95.666955
1032.000000	95.752875
1031.000000	95.825292
1030.000000	95.898459
1029.000000	95.969445
1028.000000	96.030806
1027.000000	96.089120
1026.000000	96.154038
1025.000000	96.222498
1024.000000	96.288234
1023.000000	96.353398
1022.000000	96.417429
1021.000000	96.470137
1020.000000	96.509616
1019.000000	96.550737
1018.000000	96.602489
1017.000000	96.654123
1016.000000	96.697958
1015.000000	96.746502
1014.000000	96.810808
1013.000000	96.879353
1012.000000	96.936293
1011.000000	96.984690
1010.000000	97.035236
1009.000000	97.087374
1008.000000	97.137330
1007.000000	97.189655
1006.000000	97.244823
1005.000000	97.290516
1004.000000	97.320621
1003.000000	97.349036
1002.000000	97.389755
1001.000000	97.437797
1000.000000	97.483252
999.000000	97.528661
998.000000	97.577545
997.000000	97.621337
996.000000	97.653657
995.000000	97.683763
994.000000	97.721187
993.000000	97.760412
992.000000	97.794308
991.000000	97.827546
990.000000	97.863608
989.000000	97.893735
988.000000	97.912931
987.000000	97.931189
986.000000	97.955047
985.000000	97.973786
984.000000	97.978146
983.000000	97.976283
982.000000	97.977011
981.000000	97.974308
980.000000	97.963684
979.000000	97.956962
978.000000	97.964063
977.000000	97.976333
976.000000	97.983321
975.000000	97.990245
974.000000	98.003156
973.000000	98.014202
972.000000	98.017855
971.000000	98.025292
970.000000	98.046054
969.000000	98.072026
968.000000	98.095973
967.000000	98.127881
966.000000	98.175372
965.000000	98.224187
964.000000	98.256477
963.000000	98.271934
962.000000	98.274901
961.000000	98.259084
960.000000	98.225730
959.000000	98.199790
958.000000	98.205388
957.000000	98.237132
956.000000	98.273416
955.000000	98.303778
954.000000	98.324501
953.000000	98.324389
952.000000	98.298073
951.000000	98.262970
950.000000	98.242285
949.000000	98.240296
948.000000	98.250240
947.000000	98.273884
946.000000	98.315063
945.000000	98.364546
944.000000	98.408119
943.000000	98.439916
942.000000	98.455070
941.000000	98.442185
940.000000	98.397798
939.000000	98.336921
938.000000	98.277725
937.000000	98.229137
936.000000	98.203094
935.000000	98.218350
934.000000	98.276084
933.000000	98.349800
932.000000	98.416224
931.000000	98.478760
930.000000	98.545958
929.000000	98.607640
928.000000	98.651220
927.000000	98.683539
926.000000	98.716265
925.000000	98.745815
924.000000	98.766202
923.000000	98.785669
922.000000	98.811407
921.000000	98.833596
920.000000	98.842111
919.000000	98.843203
918.000000	98.842025
917.000000	98.827051
916.000000	98.792449
915.000000	98.757890
914.000000	98.744192
913.000000	98.743519
912.000000	98.736194
911.000000	98.722889
910.000000	98.719333
909.000000	98.731563
908.000000	98.756637
907.000000	98.795439
906.000000	98.844812
905.000000	98.889128
904.000000	98.917651
903.000000	98.938714
902.000000	98.961071
901.000000	98.975713
900.000000	98.970562
899.000000	98.947594
898.000000	98.909757
897.000000	98.849877
896.000000	98.770640
895.000000	98.697868
894.000000	98.654725
893.000000	98.639273
892.000000	98.644085
891.000000	98.676297
890.000000	98.737972
889.000000	98.806107
888.000000	98.855476
887.000000	98.884682
886.000000	98.900445
885.000000	98.894170
884.000000	98.854987
883.000000	98.787092
882.000000	98.690386
881.000000	98.543172
880.000000	98.329761
879.000000	98.072755
878.000000	97.816827
877.000000	97.596530
876.000000	97.437181
875.000000	97.362965
874.000000	97.376937
873.000000	97.450581
872.000000	97.557820
871.000000	97.701074
870.000000	97.883762
869.000000	98.080211
868.000000	98.256648
867.000000	98.403995
866.000000	98.528463
865.000000	98.628878
864.000000	98.705198
863.000000	98.770259
862.000000	98.830062
861.000000	98.869848
860.000000	98.881207
859.000000	98.883524
858.000000	98.897705
857.000000	98.917131
856.000000	98.926815
855.000000	98.931852
854.000000	98.942756
853.000000	98.951204
852.000000	98.944033
851.000000	98.926225
850.000000	98.908036
849.000000	98.884699
848.000000	98.848127
847.000000	98.802213
846.000000	98.749877
845.000000	98.685234
844.000000	98.616262
843.000000	98.573043
842.000000	98.573432
841.000000	98.601474
840.000000	98.636458
839.000000	98.678052
838.000000	98.724402
837.000000	98.753438
836.000000	98.750722
835.000000	98.731373
834.000000	98.711668
833.000000	98.683092
832.000000	98.637809
831.000000	98.592930
830.000000	98.562447
829.000000	98.529165
828.000000	98.473038
827.000000	98.404953
826.000000	98.344085
825.000000	98.286045
824.000000	98.221448
823.000000	98.159622
822.000000	98.103996
821.000000	98.033051
820.000000	97.935780
819.000000	97.837659
818.000000	97.763365
817.000000	97.702272
816.000000	97.639099
815.000000	97.590284
814.000000	97.578293
813.000000	97.592613
812.000000	97.607942
811.000000	97.621619
810.000000	97.645007
809.000000	97.677148
808.000000	97.713167
807.000000	97.759886
806.000000	97.819053
805.000000	97.874893
804.000000	97.919746
803.000000	97.969307
802.000000	98.032865
801.000000	98.094973
800.000000	98.147032
799.000000	98.206893
798.000000	98.282670
797.000000	98.348635
796.000000	98.384836
795.000000	98.410898
794.000000	98.451886
793.000000	98.499519
792.000000	98.535801
791.000000	98.566681
790.000000	98.602971
789.000000	98.634400
788.000000	98.651952
787.000000	98.670889
786.000000	98.702722
785.000000	98.728884
784.000000	98.730695
783.000000	98.722280
782.000000	98.726689
781.000000	98.742037
780.000000	98.757454
779.000000	98.778798
778.000000	98.810780
777.000000	98.835772
776.000000	98.838445
775.000000	98.831650
774.000000	98.832817
773.000000	98.836201
772.000000	98.833343
771.000000	98.837675
770.000000	98.861714
769.000000	98.890595
768.000000	98.904772
767.000000	98.909595
766.000000	98.918002
765.000000	98.924575
764.000000	98.921070
763.000000	98.917410
762.000000	98.922678
761.000000	98.925478
760.000000	98.915766
759.000000	98.905298
758.000000	98.904690
757.000000	98.902377
756.000000	98.887744
755.000000	98.872360
754.000000	98.867351
753.000000	98.863816
752.000000	98.856181
751.000000	98.858875
750.000000	98.877757
749.000000	98.891746
748.000000	98.886707
747.000000	98.879832
746.000000	98.886506
745.000000	98.890871
744.000000	98.876199
743.000000	98.857290
742.000000	98.854041
741.000000	98.858263
740.000000	98.854615
739.000000	98.850406
738.000000	98.856865
737.000000	98.865110
736.000000	98.866575
735.000000	98.873250
734.000000	98.890287
733.000000	98.893727
732.000000	98.864501
731.000000	98.822777
730.000000	98.798761
729.000000	98.787770
728.000000	98.765993
727.000000	98.729900
726.000000	98.689414
725.000000	98.645092
724.000000	98.600064
723.000000	98.571739
722.000000	98.566747
721.000000	98.567901
720.000000	98.569399
719.000000	98.593629
718.000000	98.646567
717.000000	98.687466
716.000000	98.671615
715.000000	98.603041
714.000000	98.521857
713.000000	98.461330
712.000000	98.439762
711.000000	98.466135
710.000000	98.522352
709.000000	98.561704
708.000000	98.554215
707.000000	98.517555
706.000000	98.476486
705.000000	98.420838
704.000000	98.331405
703.000000	98.211625
702.000000	98.068381
701.000000	97.890665
700.000000	97.673718
699.000000	97.441823
698.000000	97.214649
697.000000	96.978452
696.000000	96.719826
695.000000	96.452338
694.000000	96.191150
693.000000	95.926650
692.000000	95.646324
691.000000	95.368738
690.000000	95.125621
689.000000	94.936487
688.000000	94.818890
687.000000	94.789683
686.000000	94.840583
685.000000	94.933083
684.000000	95.035472
683.000000	95.154243
682.000000	95.308779
681.000000	95.493618
680.000000	95.684304
679.000000	95.867902
678.000000	96.045940
677.000000	96.208375
676.000000	96.348976
675.000000	96.490707
674.000000	96.651189
673.000000	96.808759
672.000000	96.943629
671.000000	97.086420
670.000000	97.262323
669.000000	97.411768
668.000000	97.368147
667.000000	97.066387
666.000000	96.746637
665.000000	96.509487
664.000000	96.323064
663.000000	96.221081
662.000000	96.233877
661.000000	96.327566
660.000000	96.444156
659.000000	96.574789
658.000000	96.727678
657.000000	96.873084
656.000000	96.992339
655.000000	97.120684
654.000000	97.272837
653.000000	97.395726
652.000000	97.456900
651.000000	97.500965
650.000000	97.570792
649.000000	97.639913
648.000000	97.681194
647.000000	97.723822
646.000000	97.787206
645.000000	97.837679
644.000000	97.858193
643.000000	97.888395
642.000000	97.954819
641.000000	98.022358
640.000000	98.060035
639.000000	98.093990
638.000000	98.143547
637.000000	98.176247
636.000000	98.178070
635.000000	98.195269
634.000000	98.255476
633.000000	98.315639
632.000000	98.337420
631.000000	98.352043
630.000000	98.397171
629.000000	98.451221
628.000000	98.485820
627.000000	98.519962
626.000000	98.567410
625.000000	98.594751
624.000000	98.585144
623.000000	98.580661
622.000000	98.614179
621.000000	98.656957
620.000000	98.679605
619.000000	98.706225
618.000000	98.761354
617.000000	98.819270
616.000000	98.856043
615.000000	98.896766
614.000000	98.957177
613.000000	98.998879
612.000000	98.992492
611.000000	98.966816
610.000000	98.943395
609.000000	98.887941
608.000000	98.780880
607.000000	98.670753
606.000000	98.597811
605.000000	98.530693
604.000000	98.434826
603.000000	98.339123
602.000000	98.280334
601.000000	98.243458
600.000000	98.213502
599.000000	98.217192
598.000000	98.264505
597.000000	98.314170
596.000000	98.348022
595.000000	98.409701
594.000000	98.520798
593.000000	98.625299
592.000000	98.670924
591.000000	98.682586
590.000000	98.698768
589.000000	98.708329
588.000000	98.706385
587.000000	98.734901
586.000000	98.808374
585.000000	98.866942
584.000000	98.864952
583.000000	98.837581
582.000000	98.822413
581.000000	98.789394
580.000000	98.711412
579.000000	98.629557
578.000000	98.584099
577.000000	98.552130
576.000000	98.511181
575.000000	98.488780
574.000000	98.484078
573.000000	98.424135
572.000000	98.265332
571.000000	98.057990
570.000000	97.852278
569.000000	97.615147
568.000000	97.318604
567.000000	97.032981
566.000000	96.843030
565.000000	96.745431
564.000000	96.713096
563.000000	96.769418
562.000000	96.917296
561.000000	97.081053
560.000000	97.202532
559.000000	97.317857
558.000000	97.461732
557.000000	97.582833
556.000000	97.633909
555.000000	97.659597
554.000000	97.706208
553.000000	97.729541
552.000000	97.682910
551.000000	97.611503
550.000000	97.571642
549.000000	97.537175
548.000000	97.481313
547.000000	97.464258
546.000000	97.538027
545.000000	97.641964
544.000000	97.698814
543.000000	97.734752
542.000000	97.809446
541.000000	97.907866
540.000000	97.992168
539.000000	98.082187
538.000000	98.195993
537.000000	98.284776
536.000000	98.313051
535.000000	98.328335
534.000000	98.373246
533.000000	98.409129
532.000000	98.412835
531.000000	98.449379
530.000000	98.556323
529.000000	98.658853
528.000000	98.693672
527.000000	98.716249
526.000000	98.792050
525.000000	98.869209
524.000000	98.878855
523.000000	98.861896
522.000000	98.881019
521.000000	98.914248
520.000000	98.924986
519.000000	98.949289
518.000000	99.011913
517.000000	99.036581
516.000000	98.961073
515.000000	98.838942
514.000000	98.719531
513.000000	98.550852
512.000000	98.298247
511.000000	98.049368
510.000000	97.898228
509.000000	97.817033
508.000000	97.754694
507.000000	97.746599
506.000000	97.817346
505.000000	97.898846
504.000000	97.954007
503.000000	98.059451
502.000000	98.245426
501.000000	98.386403
500.000000	98.404252
499.000000	98.400953
498.000000	98.469304
497.000000	98.535918
496.000000	98.501517
495.000000	98.410170
494.000000	98.342651
493.000000	98.252746
492.000000	98.060631
491.000000	97.808118
490.000000	97.578667
489.000000	97.360592
488.000000	97.128391
487.000000	96.941469
486.000000	96.836871
485.000000	96.736597
484.000000	96.591464
483.000000	96.501454
482.000000	96.540678
481.000000	96.616354
480.000000	96.644968
479.000000	96.706591
478.000000	96.887051
477.000000	97.096085
476.000000	97.203320
475.000000	97.239015
474.000000	97.303584
473.000000	97.381064
472.000000	97.419694
471.000000	97.490341
470.000000	97.654329
469.000000	97.814135
468.000000	97.868406
467.000000	97.886363
466.000000	97.984813
465.000000	98.122989
464.000000	98.201873
463.000000	98.235671
462.000000	98.266205
461.000000	98.247514
460.000000	98.165766
459.000000	98.165812
458.000000	98.374850
457.000000	98.642842
456.000000	98.762036
455.000000	98.789307
454.000000	98.831867
453.000000	98.844164
452.000000	98.784277
451.000000	98.785328
450.000000	98.936917
