PE IR       SUBTECH     SPECTRUM    ASCII       PEDS        4.00        
   -1
msfkat_side2_002_1.ASC
23/09/08
13:53:35.00
23/09/08
14:52:56.00
uco
Sample 002 By uco Date Friday, September 08 2023
450.000000
#HDR
-1
-1
#GR
cm-1
%T
1.0
0.0
4000.000000
-1.000000
3551
8
102.637951
97.938809
#DATA
4000.000000	100.478039
3999.000000	100.475579
3998.000000	100.474663
3997.000000	100.473698
3996.000000	100.471431
3995.000000	100.465701
3994.000000	100.461407
3993.000000	100.457673
3992.000000	100.454756
3991.000000	100.452156
3990.000000	100.449462
3989.000000	100.447195
3988.000000	100.446609
3987.000000	100.448297
3986.000000	100.451070
3985.000000	100.452623
3984.000000	100.451644
3983.000000	100.449384
3982.000000	100.448668
3981.000000	100.451070
3980.000000	100.455312
3979.000000	100.458570
3978.000000	100.459333
3977.000000	100.458659
3976.000000	100.458455
3975.000000	100.458920
3974.000000	100.458310
3973.000000	100.455347
3972.000000	100.451157
3971.000000	100.448161
3970.000000	100.447290
3969.000000	100.447115
3968.000000	100.445858
3967.000000	100.443619
3966.000000	100.442112
3965.000000	100.442639
3964.000000	100.444807
3963.000000	100.447156
3962.000000	100.448539
3961.000000	100.448707
3960.000000	100.447890
3959.000000	100.446170
3958.000000	100.443313
3957.000000	100.439024
3956.000000	100.433259
3955.000000	100.426452
3954.000000	100.419608
3953.000000	100.414301
3952.000000	100.412411
3951.000000	100.415475
3950.000000	100.423516
3949.000000	100.433941
3948.000000	100.442160
3947.000000	100.444130
3946.000000	100.438817
3945.000000	100.428528
3944.000000	100.417566
3943.000000	100.410229
3942.000000	100.408628
3941.000000	100.412082
3940.000000	100.418397
3939.000000	100.425024
3938.000000	100.429362
3937.000000	100.429105
3936.000000	100.423397
3935.000000	100.413578
3934.000000	100.402579
3933.000000	100.393650
3932.000000	100.389072
3931.000000	100.389360
3930.000000	100.393041
3929.000000	100.397259
3928.000000	100.399394
3927.000000	100.398550
3926.000000	100.395829
3925.000000	100.393090
3924.000000	100.391268
3923.000000	100.390035
3922.000000	100.388776
3921.000000	100.387310
3920.000000	100.385867
3919.000000	100.385026
3918.000000	100.385690
3917.000000	100.388484
3916.000000	100.392677
3915.000000	100.396151
3914.000000	100.396841
3913.000000	100.394342
3912.000000	100.390080
3911.000000	100.386076
3910.000000	100.383454
3909.000000	100.381874
3908.000000	100.380330
3907.000000	100.378085
3906.000000	100.374745
3905.000000	100.369863
3904.000000	100.363030
3903.000000	100.355011
3902.000000	100.348813
3901.000000	100.348325
3900.000000	100.354980
3899.000000	100.365766
3898.000000	100.375275
3897.000000	100.380036
3896.000000	100.380209
3895.000000	100.378027
3894.000000	100.375667
3893.000000	100.374112
3892.000000	100.372872
3891.000000	100.370766
3890.000000	100.367564
3889.000000	100.364426
3888.000000	100.362745
3887.000000	100.363357
3886.000000	100.366714
3885.000000	100.372461
3884.000000	100.379081
3883.000000	100.384868
3882.000000	100.388179
3881.000000	100.387001
3880.000000	100.380245
3879.000000	100.369766
3878.000000	100.359377
3877.000000	100.351978
3876.000000	100.348332
3875.000000	100.347787
3874.000000	100.349563
3873.000000	100.353701
3872.000000	100.360997
3871.000000	100.371180
3870.000000	100.380778
3869.000000	100.384658
3868.000000	100.381182
3867.000000	100.373145
3866.000000	100.364430
3865.000000	100.358424
3864.000000	100.357284
3863.000000	100.360644
3862.000000	100.365934
3861.000000	100.370343
3860.000000	100.372206
3859.000000	100.371482
3858.000000	100.369681
3857.000000	100.368543
3856.000000	100.368194
3855.000000	100.366784
3854.000000	100.364115
3853.000000	100.362440
3852.000000	100.362074
3851.000000	100.362176
3850.000000	100.362503
3849.000000	100.362048
3848.000000	100.359379
3847.000000	100.354066
3846.000000	100.347414
3845.000000	100.341690
3844.000000	100.338506
3843.000000	100.337834
3842.000000	100.338455
3841.000000	100.339396
3840.000000	100.340740
3839.000000	100.343310
3838.000000	100.347611
3837.000000	100.353017
3836.000000	100.358163
3835.000000	100.361947
3834.000000	100.363354
3833.000000	100.361263
3832.000000	100.355548
3831.000000	100.348219
3830.000000	100.342253
3829.000000	100.339135
3828.000000	100.337762
3827.000000	100.335993
3826.000000	100.333486
3825.000000	100.332501
3824.000000	100.335578
3823.000000	100.342737
3822.000000	100.351297
3821.000000	100.357545
3820.000000	100.359932
3819.000000	100.360958
3818.000000	100.363269
3817.000000	100.365448
3816.000000	100.363536
3815.000000	100.356353
3814.000000	100.347270
3813.000000	100.340358
3812.000000	100.337062
3811.000000	100.336525
3810.000000	100.337294
3809.000000	100.337980
3808.000000	100.337392
3807.000000	100.335177
3806.000000	100.332331
3805.000000	100.330851
3804.000000	100.332083
3803.000000	100.334666
3802.000000	100.334909
3801.000000	100.330270
3800.000000	100.322728
3799.000000	100.316915
3798.000000	100.315829
3797.000000	100.318969
3796.000000	100.323453
3795.000000	100.326388
3794.000000	100.326621
3793.000000	100.324866
3792.000000	100.322810
3791.000000	100.322091
3790.000000	100.323240
3789.000000	100.325372
3788.000000	100.327519
3787.000000	100.329885
3786.000000	100.332829
3785.000000	100.334931
3784.000000	100.333535
3783.000000	100.327842
3782.000000	100.320046
3781.000000	100.313422
3780.000000	100.309941
3779.000000	100.309475
3778.000000	100.310816
3777.000000	100.313051
3776.000000	100.315535
3775.000000	100.317614
3774.000000	100.319359
3773.000000	100.321688
3772.000000	100.324837
3771.000000	100.327045
3770.000000	100.325715
3769.000000	100.320399
3768.000000	100.313511
3767.000000	100.307655
3766.000000	100.303498
3765.000000	100.300641
3764.000000	100.299490
3763.000000	100.301510
3762.000000	100.307709
3761.000000	100.317482
3760.000000	100.328068
3759.000000	100.334886
3758.000000	100.334494
3757.000000	100.327885
3756.000000	100.319592
3755.000000	100.313801
3754.000000	100.312165
3753.000000	100.314525
3752.000000	100.320566
3751.000000	100.328980
3750.000000	100.335886
3749.000000	100.339091
3748.000000	100.341667
3747.000000	100.347115
3746.000000	100.352794
3745.000000	100.349533
3744.000000	100.331807
3743.000000	100.307165
3742.000000	100.286846
3741.000000	100.274870
3740.000000	100.268834
3739.000000	100.264284
3738.000000	100.258298
3737.000000	100.252407
3736.000000	100.253666
3735.000000	100.269036
3734.000000	100.295655
3733.000000	100.320883
3732.000000	100.332923
3731.000000	100.329602
3730.000000	100.317334
3729.000000	100.303681
3728.000000	100.292468
3727.000000	100.284271
3726.000000	100.279057
3725.000000	100.277237
3724.000000	100.278727
3723.000000	100.282155
3722.000000	100.285345
3721.000000	100.286795
3720.000000	100.286666
3719.000000	100.285971
3718.000000	100.285179
3717.000000	100.283855
3716.000000	100.281491
3715.000000	100.278119
3714.000000	100.274276
3713.000000	100.271543
3712.000000	100.272696
3711.000000	100.278935
3710.000000	100.287491
3709.000000	100.294457
3708.000000	100.298345
3707.000000	100.300330
3706.000000	100.302432
3705.000000	100.305398
3704.000000	100.307764
3703.000000	100.306856
3702.000000	100.301249
3701.000000	100.292538
3700.000000	100.284403
3699.000000	100.279856
3698.000000	100.279641
3697.000000	100.281995
3696.000000	100.283638
3695.000000	100.281889
3694.000000	100.276812
3693.000000	100.271482
3692.000000	100.270013
3691.000000	100.273891
3690.000000	100.278590
3689.000000	100.275903
3688.000000	100.263264
3687.000000	100.247102
3686.000000	100.235040
3685.000000	100.230021
3684.000000	100.230944
3683.000000	100.235389
3682.000000	100.241793
3681.000000	100.249534
3680.000000	100.258283
3679.000000	100.267702
3678.000000	100.277250
3677.000000	100.285477
3676.000000	100.289831
3675.000000	100.288064
3674.000000	100.281255
3673.000000	100.272870
3672.000000	100.264248
3671.000000	100.254425
3670.000000	100.244784
3669.000000	100.239336
3668.000000	100.239393
3667.000000	100.242723
3666.000000	100.246718
3665.000000	100.249731
3664.000000	100.250828
3663.000000	100.249494
3662.000000	100.246230
3661.000000	100.243025
3660.000000	100.242260
3659.000000	100.244237
3658.000000	100.245985
3657.000000	100.243421
3656.000000	100.235891
3655.000000	100.227582
3654.000000	100.222909
3653.000000	100.222264
3652.000000	100.222291
3651.000000	100.219364
3650.000000	100.213839
3649.000000	100.209669
3648.000000	100.208764
3647.000000	100.209234
3646.000000	100.209377
3645.000000	100.209595
3644.000000	100.210981
3643.000000	100.213755
3642.000000	100.216995
3641.000000	100.219142
3640.000000	100.218713
3639.000000	100.214953
3638.000000	100.208564
3637.000000	100.201580
3636.000000	100.195956
3635.000000	100.192217
3634.000000	100.189973
3633.000000	100.189828
3632.000000	100.193788
3631.000000	100.202932
3630.000000	100.214151
3629.000000	100.218938
3628.000000	100.210621
3627.000000	100.193916
3626.000000	100.177960
3625.000000	100.166572
3624.000000	100.158582
3623.000000	100.151900
3622.000000	100.145961
3621.000000	100.141664
3620.000000	100.139641
3619.000000	100.138432
3618.000000	100.135480
3617.000000	100.130158
3616.000000	100.123700
3615.000000	100.117271
3614.000000	100.111892
3613.000000	100.109152
3612.000000	100.110054
3611.000000	100.113227
3610.000000	100.115514
3609.000000	100.114839
3608.000000	100.112028
3607.000000	100.109078
3606.000000	100.106277
3605.000000	100.102067
3604.000000	100.094940
3603.000000	100.084738
3602.000000	100.072951
3601.000000	100.062336
3600.000000	100.055896
3599.000000	100.054868
3598.000000	100.057598
3597.000000	100.060815
3596.000000	100.062256
3595.000000	100.062246
3594.000000	100.062593
3593.000000	100.064118
3592.000000	100.065868
3591.000000	100.066470
3590.000000	100.065179
3589.000000	100.061899
3588.000000	100.056659
3587.000000	100.049644
3586.000000	100.042402
3585.000000	100.037306
3584.000000	100.035473
3583.000000	100.036163
3582.000000	100.037894
3581.000000	100.039667
3580.000000	100.041197
3579.000000	100.042013
3578.000000	100.040973
3577.000000	100.037272
3576.000000	100.031785
3575.000000	100.026809
3574.000000	100.024169
3573.000000	100.023478
3572.000000	100.022231
3571.000000	100.017483
3570.000000	100.007725
3569.000000	99.994391
3568.000000	99.982369
3567.000000	99.977093
3566.000000	99.979370
3565.000000	99.985138
3564.000000	99.990118
3563.000000	99.992370
3562.000000	99.991713
3561.000000	99.988550
3560.000000	99.983240
3559.000000	99.976241
3558.000000	99.968591
3557.000000	99.961848
3556.000000	99.957030
3555.000000	99.953553
3554.000000	99.949598
3553.000000	99.944121
3552.000000	99.938272
3551.000000	99.933990
3550.000000	99.931405
3549.000000	99.928792
3548.000000	99.924922
3547.000000	99.920703
3546.000000	99.918071
3545.000000	99.917595
3544.000000	99.917937
3543.000000	99.917444
3542.000000	99.915186
3541.000000	99.910635
3540.000000	99.903516
3539.000000	99.894572
3538.000000	99.886046
3537.000000	99.880607
3536.000000	99.879151
3535.000000	99.879933
3534.000000	99.880416
3533.000000	99.879781
3532.000000	99.879345
3531.000000	99.880593
3530.000000	99.882735
3529.000000	99.882223
3528.000000	99.875304
3527.000000	99.861621
3526.000000	99.845374
3525.000000	99.832872
3524.000000	99.828941
3523.000000	99.834441
3522.000000	99.846060
3521.000000	99.858267
3520.000000	99.865862
3519.000000	99.865989
3518.000000	99.859258
3517.000000	99.849511
3516.000000	99.841444
3515.000000	99.837669
3514.000000	99.837613
3513.000000	99.838864
3512.000000	99.839420
3511.000000	99.838901
3510.000000	99.838037
3509.000000	99.837205
3508.000000	99.835690
3507.000000	99.832611
3506.000000	99.828406
3505.000000	99.824970
3504.000000	99.823863
3503.000000	99.824319
3502.000000	99.823781
3501.000000	99.820496
3500.000000	99.814734
3499.000000	99.807784
3498.000000	99.801034
3497.000000	99.796012
3496.000000	99.793984
3495.000000	99.794706
3494.000000	99.796129
3493.000000	99.796126
3492.000000	99.794214
3491.000000	99.791124
3490.000000	99.787215
3489.000000	99.782041
3488.000000	99.775453
3487.000000	99.768332
3486.000000	99.761921
3485.000000	99.756928
3484.000000	99.753613
3483.000000	99.752264
3482.000000	99.753051
3481.000000	99.755379
3480.000000	99.757721
3479.000000	99.758432
3478.000000	99.756910
3477.000000	99.754075
3476.000000	99.751589
3475.000000	99.750309
3474.000000	99.749429
3473.000000	99.747283
3472.000000	99.742811
3471.000000	99.736289
3470.000000	99.729120
3469.000000	99.723225
3468.000000	99.720124
3467.000000	99.719930
3466.000000	99.721272
3465.000000	99.722586
3464.000000	99.723308
3463.000000	99.723548
3462.000000	99.723075
3461.000000	99.721370
3460.000000	99.718612
3459.000000	99.715812
3458.000000	99.713710
3457.000000	99.712039
3456.000000	99.710104
3455.000000	99.707898
3454.000000	99.706482
3453.000000	99.707203
3452.000000	99.710272
3451.000000	99.713753
3450.000000	99.714388
3449.000000	99.710163
3448.000000	99.702236
3447.000000	99.693687
3446.000000	99.685968
3445.000000	99.677648
3444.000000	99.667387
3443.000000	99.657050
3442.000000	99.650674
3441.000000	99.650213
3440.000000	99.653130
3439.000000	99.654707
3438.000000	99.652524
3437.000000	99.648428
3436.000000	99.646152
3435.000000	99.647336
3434.000000	99.650044
3433.000000	99.650967
3432.000000	99.648612
3431.000000	99.644144
3430.000000	99.639760
3429.000000	99.636732
3428.000000	99.634665
3427.000000	99.631900
3426.000000	99.626780
3425.000000	99.619295
3424.000000	99.611520
3423.000000	99.605738
3422.000000	99.602074
3421.000000	99.598897
3420.000000	99.595779
3419.000000	99.594630
3418.000000	99.596774
3417.000000	99.600144
3416.000000	99.600972
3415.000000	99.598011
3414.000000	99.593827
3413.000000	99.591426
3412.000000	99.590631
3411.000000	99.588646
3410.000000	99.583659
3409.000000	99.577017
3408.000000	99.571848
3407.000000	99.569973
3406.000000	99.570239
3405.000000	99.569441
3404.000000	99.564907
3403.000000	99.556708
3402.000000	99.547777
3401.000000	99.541723
3400.000000	99.540183
3399.000000	99.541848
3398.000000	99.543622
3397.000000	99.542732
3396.000000	99.538288
3395.000000	99.531884
3394.000000	99.527147
3393.000000	99.527857
3392.000000	99.534815
3391.000000	99.544008
3390.000000	99.548866
3389.000000	99.545346
3388.000000	99.534989
3387.000000	99.522979
3386.000000	99.513476
3385.000000	99.507198
3384.000000	99.503154
3383.000000	99.501206
3382.000000	99.501920
3381.000000	99.504461
3380.000000	99.506011
3379.000000	99.503950
3378.000000	99.498367
3377.000000	99.492069
3376.000000	99.488189
3375.000000	99.487860
3374.000000	99.489901
3373.000000	99.492075
3372.000000	99.492305
3371.000000	99.489148
3370.000000	99.482140
3369.000000	99.472251
3368.000000	99.461742
3367.000000	99.452964
3366.000000	99.447006
3365.000000	99.443385
3364.000000	99.440806
3363.000000	99.438162
3362.000000	99.435405
3361.000000	99.433943
3360.000000	99.435652
3359.000000	99.440576
3358.000000	99.445655
3357.000000	99.446707
3356.000000	99.442199
3355.000000	99.434616
3354.000000	99.427747
3353.000000	99.423237
3352.000000	99.420268
3351.000000	99.417649
3350.000000	99.414901
3349.000000	99.411423
3348.000000	99.406085
3347.000000	99.398607
3346.000000	99.390795
3345.000000	99.385316
3344.000000	99.383050
3343.000000	99.382287
3342.000000	99.380876
3341.000000	99.378543
3340.000000	99.376475
3339.000000	99.375193
3338.000000	99.373842
3337.000000	99.371600
3336.000000	99.368628
3335.000000	99.365111
3334.000000	99.360335
3333.000000	99.353781
3332.000000	99.346599
3331.000000	99.340662
3330.000000	99.336225
3329.000000	99.331549
3328.000000	99.325164
3327.000000	99.317865
3326.000000	99.312230
3325.000000	99.310590
3324.000000	99.313337
3323.000000	99.318330
3322.000000	99.321664
3321.000000	99.320125
3320.000000	99.313692
3319.000000	99.305342
3318.000000	99.298023
3317.000000	99.292226
3316.000000	99.286677
3315.000000	99.280538
3314.000000	99.274185
3313.000000	99.268516
3312.000000	99.264458
3311.000000	99.262782
3310.000000	99.263491
3309.000000	99.265460
3308.000000	99.267469
3307.000000	99.269424
3306.000000	99.271713
3305.000000	99.273533
3304.000000	99.272962
3303.000000	99.269142
3302.000000	99.263712
3301.000000	99.259406
3300.000000	99.257434
3299.000000	99.256632
3298.000000	99.254945
3297.000000	99.251404
3296.000000	99.246794
3295.000000	99.242801
3294.000000	99.240748
3293.000000	99.240921
3292.000000	99.242499
3291.000000	99.243671
3290.000000	99.242239
3289.000000	99.237137
3288.000000	99.229876
3287.000000	99.223875
3286.000000	99.221611
3285.000000	99.222606
3284.000000	99.224617
3283.000000	99.226364
3282.000000	99.228348
3281.000000	99.231113
3280.000000	99.233808
3279.000000	99.234888
3278.000000	99.233681
3277.000000	99.230995
3276.000000	99.228522
3275.000000	99.227708
3274.000000	99.228647
3273.000000	99.229897
3272.000000	99.229927
3271.000000	99.229046
3270.000000	99.229360
3269.000000	99.232400
3268.000000	99.237200
3267.000000	99.241041
3266.000000	99.241802
3265.000000	99.239404
3264.000000	99.235525
3263.000000	99.232526
3262.000000	99.232249
3261.000000	99.234948
3260.000000	99.239197
3259.000000	99.243299
3258.000000	99.246717
3257.000000	99.249649
3256.000000	99.251469
3255.000000	99.250583
3254.000000	99.246323
3253.000000	99.240312
3252.000000	99.235361
3251.000000	99.233390
3250.000000	99.234703
3249.000000	99.238576
3248.000000	99.243556
3247.000000	99.247501
3246.000000	99.248569
3245.000000	99.246834
3244.000000	99.244321
3243.000000	99.242815
3242.000000	99.242058
3241.000000	99.240529
3240.000000	99.237575
3239.000000	99.234180
3238.000000	99.231830
3237.000000	99.231265
3236.000000	99.232153
3235.000000	99.233330
3234.000000	99.233343
3233.000000	99.231591
3232.000000	99.229320
3231.000000	99.228829
3230.000000	99.231191
3229.000000	99.235184
3228.000000	99.238821
3227.000000	99.241483
3226.000000	99.243927
3225.000000	99.246787
3224.000000	99.250079
3223.000000	99.253966
3222.000000	99.258768
3221.000000	99.263650
3220.000000	99.266197
3219.000000	99.264370
3218.000000	99.258888
3217.000000	99.252899
3216.000000	99.249308
3215.000000	99.248708
3214.000000	99.249848
3213.000000	99.251564
3212.000000	99.253807
3211.000000	99.257039
3210.000000	99.261075
3209.000000	99.264764
3208.000000	99.266585
3207.000000	99.265424
3206.000000	99.261089
3205.000000	99.254674
3204.000000	99.248624
3203.000000	99.245797
3202.000000	99.247615
3201.000000	99.252873
3200.000000	99.258582
3199.000000	99.262226
3198.000000	99.263210
3197.000000	99.262423
3196.000000	99.261062
3195.000000	99.260085
3194.000000	99.260190
3193.000000	99.261419
3192.000000	99.262713
3191.000000	99.262554
3190.000000	99.260503
3189.000000	99.257929
3188.000000	99.256967
3187.000000	99.258846
3186.000000	99.263199
3185.000000	99.268401
3184.000000	99.272226
3183.000000	99.272778
3182.000000	99.269957
3181.000000	99.266342
3180.000000	99.265624
3179.000000	99.269181
3178.000000	99.274164
3177.000000	99.276002
3176.000000	99.273103
3175.000000	99.268693
3174.000000	99.267747
3173.000000	99.272542
3172.000000	99.281132
3171.000000	99.289466
3170.000000	99.294414
3169.000000	99.295032
3168.000000	99.292156
3167.000000	99.287552
3166.000000	99.283347
3165.000000	99.281388
3164.000000	99.282340
3163.000000	99.285107
3162.000000	99.287321
3161.000000	99.286964
3160.000000	99.283909
3159.000000	99.280018
3158.000000	99.277527
3157.000000	99.277276
3156.000000	99.278610
3155.000000	99.280834
3154.000000	99.284124
3153.000000	99.288594
3152.000000	99.293067
3151.000000	99.296011
3150.000000	99.297856
3149.000000	99.301043
3148.000000	99.306627
3147.000000	99.311652
3146.000000	99.311710
3145.000000	99.306398
3144.000000	99.300773
3143.000000	99.300433
3142.000000	99.306059
3141.000000	99.313649
3140.000000	99.319203
3139.000000	99.321709
3138.000000	99.322154
3137.000000	99.321610
3136.000000	99.321000
3135.000000	99.321365
3134.000000	99.323180
3133.000000	99.325701
3132.000000	99.327724
3131.000000	99.328771
3130.000000	99.329136
3129.000000	99.329088
3128.000000	99.328508
3127.000000	99.327117
3126.000000	99.324661
3125.000000	99.321013
3124.000000	99.316502
3123.000000	99.312190
3122.000000	99.309653
3121.000000	99.310261
3120.000000	99.314179
3119.000000	99.319485
3118.000000	99.322656
3117.000000	99.321220
3116.000000	99.316670
3115.000000	99.313905
3114.000000	99.316733
3113.000000	99.324074
3112.000000	99.331111
3111.000000	99.333713
3110.000000	99.331322
3109.000000	99.326133
3108.000000	99.320732
3107.000000	99.316704
3106.000000	99.314610
3105.000000	99.314431
3104.000000	99.315928
3103.000000	99.318511
3102.000000	99.320795
3101.000000	99.320854
3100.000000	99.317830
3099.000000	99.313207
3098.000000	99.309650
3097.000000	99.308263
3096.000000	99.307639
3095.000000	99.305942
3094.000000	99.303231
3093.000000	99.301012
3092.000000	99.300023
3091.000000	99.299509
3090.000000	99.298683
3089.000000	99.298029
3088.000000	99.298848
3087.000000	99.301968
3086.000000	99.307108
3085.000000	99.312856
3084.000000	99.316835
3083.000000	99.316673
3082.000000	99.311922
3081.000000	99.305078
3080.000000	99.299720
3079.000000	99.297310
3078.000000	99.296501
3077.000000	99.295904
3076.000000	99.296343
3075.000000	99.299344
3074.000000	99.304068
3073.000000	99.307282
3072.000000	99.306663
3071.000000	99.303035
3070.000000	99.298918
3069.000000	99.295855
3068.000000	99.293968
3067.000000	99.293307
3066.000000	99.294330
3065.000000	99.296980
3064.000000	99.300203
3063.000000	99.302758
3062.000000	99.304169
3061.000000	99.304803
3060.000000	99.305426
3059.000000	99.306654
3058.000000	99.308380
3057.000000	99.309663
3056.000000	99.309653
3055.000000	99.308776
3054.000000	99.308607
3053.000000	99.310306
3052.000000	99.313390
3051.000000	99.316091
3050.000000	99.316753
3049.000000	99.315085
3048.000000	99.312531
3047.000000	99.311453
3046.000000	99.313337
3045.000000	99.317429
3044.000000	99.321484
3043.000000	99.324118
3042.000000	99.325911
3041.000000	99.327770
3040.000000	99.328994
3039.000000	99.328308
3038.000000	99.326770
3037.000000	99.328149
3036.000000	99.335350
3035.000000	99.346964
3034.000000	99.358241
3033.000000	99.365264
3032.000000	99.367390
3031.000000	99.366083
3030.000000	99.362891
3029.000000	99.359129
3028.000000	99.356378
3027.000000	99.356069
3026.000000	99.358748
3025.000000	99.364245
3024.000000	99.372185
3023.000000	99.381668
3022.000000	99.391051
3021.000000	99.399295
3020.000000	99.407615
3019.000000	99.418737
3018.000000	99.433974
3017.000000	99.451564
3016.000000	99.468127
3015.000000	99.481301
3014.000000	99.490884
3013.000000	99.498345
3012.000000	99.505711
3011.000000	99.514138
3010.000000	99.522745
3009.000000	99.529145
3008.000000	99.531750
3007.000000	99.531401
3006.000000	99.530352
3005.000000	99.529951
3004.000000	99.529606
3003.000000	99.527792
3002.000000	99.523629
3001.000000	99.517702
3000.000000	99.511728
2999.000000	99.507266
2998.000000	99.504455
2997.000000	99.502276
2996.000000	99.500256
2995.000000	99.499382
2994.000000	99.500995
2993.000000	99.505344
2992.000000	99.511801
2991.000000	99.519842
2990.000000	99.528876
2989.000000	99.537605
2988.000000	99.544800
2987.000000	99.550774
2986.000000	99.557054
2985.000000	99.564350
2984.000000	99.571953
2983.000000	99.579763
2982.000000	99.590086
2981.000000	99.606437
2980.000000	99.630332
2979.000000	99.659559
2978.000000	99.689482
2977.000000	99.716082
2976.000000	99.738406
2975.000000	99.758783
2974.000000	99.781004
2973.000000	99.808024
2972.000000	99.840944
2971.000000	99.879407
2970.000000	99.922269
2969.000000	99.968028
2968.000000	100.015473
2967.000000	100.064203
2966.000000	100.114001
2965.000000	100.163266
2964.000000	100.208763
2963.000000	100.247945
2962.000000	100.281821
2961.000000	100.314824
2960.000000	100.350982
2959.000000	100.389813
2958.000000	100.426105
2957.000000	100.453906
2956.000000	100.470603
2955.000000	100.477297
2954.000000	100.476356
2953.000000	100.470138
2952.000000	100.462123
2951.000000	100.457390
2950.000000	100.460541
2949.000000	100.473327
2948.000000	100.495289
2947.000000	100.526126
2946.000000	100.566530
2945.000000	100.617031
2944.000000	100.677275
2943.000000	100.746852
2942.000000	100.825777
2941.000000	100.914122
2940.000000	101.011939
2939.000000	101.119761
2938.000000	101.238187
2937.000000	101.366039
2936.000000	101.499642
2935.000000	101.634577
2934.000000	101.768193
2933.000000	101.900225
2932.000000	102.031166
2931.000000	102.160203
2930.000000	102.283900
2929.000000	102.396760
2928.000000	102.493006
2927.000000	102.568060
2926.000000	102.618008
2925.000000	102.637951
2924.000000	102.622588
2923.000000	102.568822
2922.000000	102.478114
2921.000000	102.356068
2920.000000	102.210287
2919.000000	102.048932
2918.000000	101.880375
2917.000000	101.713806
2916.000000	101.558477
2915.000000	101.421367
2914.000000	101.304560
2913.000000	101.204874
2912.000000	101.116922
2911.000000	101.036605
2910.000000	100.962196
2909.000000	100.893002
2908.000000	100.828377
2907.000000	100.768226
2906.000000	100.713415
2905.000000	100.664787
2904.000000	100.621791
2903.000000	100.582509
2902.000000	100.544610
2901.000000	100.506179
2900.000000	100.465781
2899.000000	100.422478
2898.000000	100.376355
2897.000000	100.329034
2896.000000	100.283419
2895.000000	100.242327
2894.000000	100.206699
2893.000000	100.175075
2892.000000	100.145195
2891.000000	100.116296
2890.000000	100.089645
2889.000000	100.066587
2888.000000	100.046309
2887.000000	100.025897
2886.000000	100.002814
2885.000000	99.977441
2884.000000	99.953389
2883.000000	99.935175
2882.000000	99.925296
2881.000000	99.923282
2880.000000	99.927368
2879.000000	99.936684
2878.000000	99.951383
2877.000000	99.970984
2876.000000	99.993464
2875.000000	100.016382
2874.000000	100.038480
2873.000000	100.059900
2872.000000	100.081214
2871.000000	100.102594
2870.000000	100.123707
2869.000000	100.144326
2868.000000	100.165602
2867.000000	100.191375
2866.000000	100.227897
2865.000000	100.281117
2864.000000	100.353447
2863.000000	100.442604
2862.000000	100.543451
2861.000000	100.651317
2860.000000	100.764014
2859.000000	100.880499
2858.000000	100.997191
2857.000000	101.105106
2856.000000	101.190938
2855.000000	101.241441
2854.000000	101.246982
2853.000000	101.203011
2852.000000	101.111237
2851.000000	100.980977
2850.000000	100.828085
2849.000000	100.670052
2848.000000	100.519904
2847.000000	100.383705
2846.000000	100.262362
2845.000000	100.154362
2844.000000	100.057736
2843.000000	99.971159
2842.000000	99.894623
2841.000000	99.829048
2840.000000	99.774647
2839.000000	99.729813
2838.000000	99.691699
2837.000000	99.657570
2836.000000	99.625660
2835.000000	99.595475
2834.000000	99.567619
2833.000000	99.542946
2832.000000	99.521443
2831.000000	99.502209
2830.000000	99.484827
2829.000000	99.470160
2828.000000	99.459119
2827.000000	99.450850
2826.000000	99.442854
2825.000000	99.433137
2824.000000	99.421875
2823.000000	99.410798
2822.000000	99.401217
2821.000000	99.392851
2820.000000	99.384540
2819.000000	99.375852
2818.000000	99.367738
2817.000000	99.361439
2816.000000	99.356931
2815.000000	99.352884
2814.000000	99.348250
2813.000000	99.343338
2812.000000	99.338968
2811.000000	99.335017
2810.000000	99.330486
2809.000000	99.324895
2808.000000	99.318956
2807.000000	99.313834
2806.000000	99.310439
2805.000000	99.309549
2804.000000	99.311607
2803.000000	99.315492
2802.000000	99.318064
2801.000000	99.316306
2800.000000	99.310359
2799.000000	99.303648
2798.000000	99.299411
2797.000000	99.297726
2796.000000	99.296606
2795.000000	99.295326
2794.000000	99.295182
2793.000000	99.296812
2792.000000	99.298286
2791.000000	99.297024
2790.000000	99.293013
2789.000000	99.288905
2788.000000	99.287050
2787.000000	99.287509
2786.000000	99.288979
2785.000000	99.290341
2784.000000	99.290609
2783.000000	99.288414
2782.000000	99.282995
2781.000000	99.275882
2780.000000	99.270665
2779.000000	99.270417
2778.000000	99.275097
2777.000000	99.281330
2776.000000	99.284716
2775.000000	99.283036
2774.000000	99.277929
2773.000000	99.273501
2772.000000	99.272721
2771.000000	99.274871
2770.000000	99.276690
2769.000000	99.275854
2768.000000	99.272928
2767.000000	99.270008
2766.000000	99.268348
2765.000000	99.267883
2764.000000	99.268493
2763.000000	99.270579
2762.000000	99.274016
2761.000000	99.277249
2760.000000	99.278270
2759.000000	99.276575
2758.000000	99.273702
2757.000000	99.271702
2756.000000	99.271497
2755.000000	99.272989
2754.000000	99.276124
2753.000000	99.280780
2752.000000	99.285506
2751.000000	99.287572
2750.000000	99.285388
2749.000000	99.280701
2748.000000	99.277513
2747.000000	99.278500
2746.000000	99.282922
2745.000000	99.288057
2744.000000	99.291929
2743.000000	99.294151
2742.000000	99.294722
2741.000000	99.293203
2740.000000	99.289587
2739.000000	99.285457
2738.000000	99.283427
2737.000000	99.285031
2736.000000	99.289261
2735.000000	99.293473
2734.000000	99.295831
2733.000000	99.296691
2732.000000	99.297565
2731.000000	99.299049
2730.000000	99.300206
2729.000000	99.299914
2728.000000	99.298317
2727.000000	99.296587
2726.000000	99.295591
2725.000000	99.295319
2724.000000	99.295619
2723.000000	99.296890
2722.000000	99.299469
2721.000000	99.302478
2720.000000	99.303998
2719.000000	99.302845
2718.000000	99.299861
2717.000000	99.296990
2716.000000	99.295329
2715.000000	99.294699
2714.000000	99.294944
2713.000000	99.296493
2712.000000	99.299122
2711.000000	99.301125
2710.000000	99.300919
2709.000000	99.299146
2708.000000	99.298063
2707.000000	99.298740
2706.000000	99.299866
2705.000000	99.299622
2704.000000	99.297842
2703.000000	99.295820
2702.000000	99.294781
2701.000000	99.295217
2700.000000	99.297144
2699.000000	99.300133
2698.000000	99.303284
2697.000000	99.305895
2696.000000	99.308108
2695.000000	99.310369
2694.000000	99.312472
2693.000000	99.313867
2692.000000	99.314851
2691.000000	99.316578
2690.000000	99.319521
2689.000000	99.322568
2688.000000	99.324147
2687.000000	99.323958
2686.000000	99.323149
2685.000000	99.322989
2684.000000	99.323738
2683.000000	99.324725
2682.000000	99.325146
2681.000000	99.324725
2680.000000	99.323903
2679.000000	99.323535
2678.000000	99.324246
2677.000000	99.325858
2676.000000	99.327389
2675.000000	99.327739
2674.000000	99.326504
2673.000000	99.324261
2672.000000	99.322100
2671.000000	99.320875
2670.000000	99.320749
2669.000000	99.321176
2668.000000	99.321140
2667.000000	99.319688
2666.000000	99.316724
2665.000000	99.313367
2664.000000	99.311124
2663.000000	99.310428
2662.000000	99.310275
2661.000000	99.309545
2660.000000	99.308324
2659.000000	99.307486
2658.000000	99.307289
2657.000000	99.307121
2656.000000	99.306800
2655.000000	99.307393
2654.000000	99.310163
2653.000000	99.314900
2652.000000	99.319767
2651.000000	99.322814
2650.000000	99.323447
2649.000000	99.322549
2648.000000	99.321622
2647.000000	99.322085
2646.000000	99.325077
2645.000000	99.331208
2644.000000	99.339797
2643.000000	99.348404
2642.000000	99.353838
2641.000000	99.354338
2640.000000	99.350903
2639.000000	99.346323
2638.000000	99.342964
2637.000000	99.341601
2636.000000	99.341903
2635.000000	99.343303
2634.000000	99.345328
2633.000000	99.347762
2632.000000	99.350823
2631.000000	99.354831
2630.000000	99.359347
2629.000000	99.362908
2628.000000	99.364077
2627.000000	99.362842
2626.000000	99.361045
2625.000000	99.361494
2624.000000	99.366186
2623.000000	99.374469
2622.000000	99.382607
2621.000000	99.386113
2620.000000	99.383668
2619.000000	99.378848
2618.000000	99.377229
2617.000000	99.381331
2616.000000	99.388581
2615.000000	99.394328
2614.000000	99.396511
2613.000000	99.397061
2612.000000	99.398752
2611.000000	99.401171
2610.000000	99.400561
2609.000000	99.394113
2608.000000	99.384112
2607.000000	99.376868
2606.000000	99.377058
2605.000000	99.383658
2604.000000	99.391718
2603.000000	99.397395
2602.000000	99.400445
2601.000000	99.402412
2600.000000	99.404112
2599.000000	99.405426
2598.000000	99.406374
2597.000000	99.407291
2596.000000	99.408193
2595.000000	99.408818
2594.000000	99.409212
2593.000000	99.409562
2592.000000	99.409420
2591.000000	99.407912
2590.000000	99.405194
2589.000000	99.403283
2588.000000	99.404725
2587.000000	99.410186
2586.000000	99.417510
2585.000000	99.423256
2584.000000	99.425327
2583.000000	99.424443
2582.000000	99.423273
2581.000000	99.424026
2580.000000	99.426429
2579.000000	99.427856
2578.000000	99.425648
2577.000000	99.419558
2576.000000	99.412204
2575.000000	99.407289
2574.000000	99.407257
2573.000000	99.411999
2572.000000	99.418937
2571.000000	99.424315
2570.000000	99.425335
2569.000000	99.421945
2568.000000	99.416643
2567.000000	99.412282
2566.000000	99.410210
2565.000000	99.410589
2564.000000	99.413591
2563.000000	99.419051
2562.000000	99.425125
2561.000000	99.428732
2560.000000	99.428159
2559.000000	99.424635
2558.000000	99.420789
2557.000000	99.418413
2556.000000	99.418401
2555.000000	99.421709
2554.000000	99.428449
2553.000000	99.436096
2552.000000	99.440636
2551.000000	99.440571
2550.000000	99.438679
2549.000000	99.438637
2548.000000	99.440867
2547.000000	99.442905
2546.000000	99.443087
2545.000000	99.442136
2544.000000	99.441364
2543.000000	99.441188
2542.000000	99.441776
2541.000000	99.443443
2540.000000	99.445678
2539.000000	99.447255
2538.000000	99.448211
2537.000000	99.450198
2536.000000	99.453414
2535.000000	99.454484
2534.000000	99.449351
2533.000000	99.437883
2532.000000	99.424064
2531.000000	99.412147
2530.000000	99.404348
2529.000000	99.401705
2528.000000	99.404476
2527.000000	99.410891
2526.000000	99.417468
2525.000000	99.421675
2524.000000	99.423234
2523.000000	99.422501
2522.000000	99.419299
2521.000000	99.414288
2520.000000	99.409703
2519.000000	99.407262
2518.000000	99.406585
2517.000000	99.406923
2516.000000	99.409094
2515.000000	99.413953
2514.000000	99.420119
2513.000000	99.425281
2512.000000	99.429080
2511.000000	99.432571
2510.000000	99.435220
2509.000000	99.434941
2508.000000	99.431639
2507.000000	99.428528
2506.000000	99.428725
2505.000000	99.432025
2504.000000	99.436127
2503.000000	99.439897
2502.000000	99.443930
2501.000000	99.448269
2500.000000	99.451089
2499.000000	99.449977
2498.000000	99.444183
2497.000000	99.435463
2496.000000	99.426819
2495.000000	99.420281
2494.000000	99.415587
2493.000000	99.411194
2492.000000	99.406789
2491.000000	99.404708
2490.000000	99.408409
2489.000000	99.418844
2488.000000	99.431985
2487.000000	99.440562
2486.000000	99.439694
2485.000000	99.431530
2484.000000	99.423788
2483.000000	99.422903
2482.000000	99.428759
2481.000000	99.436126
2480.000000	99.440028
2479.000000	99.438939
2478.000000	99.434205
2477.000000	99.428582
2476.000000	99.425169
2475.000000	99.425367
2474.000000	99.426938
2473.000000	99.425720
2472.000000	99.420445
2471.000000	99.414847
2470.000000	99.413661
2469.000000	99.417161
2468.000000	99.421166
2467.000000	99.422280
2466.000000	99.421682
2465.000000	99.423104
2464.000000	99.427900
2463.000000	99.433388
2462.000000	99.436109
2461.000000	99.435671
2460.000000	99.434456
2459.000000	99.433698
2458.000000	99.431120
2457.000000	99.423531
2456.000000	99.411411
2455.000000	99.399774
2454.000000	99.394007
2453.000000	99.395395
2452.000000	99.400899
2451.000000	99.406509
2450.000000	99.410137
2449.000000	99.411519
2448.000000	99.410618
2447.000000	99.407190
2446.000000	99.401902
2445.000000	99.397143
2444.000000	99.395889
2443.000000	99.399514
2442.000000	99.406670
2441.000000	99.414064
2440.000000	99.418383
2439.000000	99.418250
2438.000000	99.415342
2437.000000	99.413531
2436.000000	99.415834
2435.000000	99.421656
2434.000000	99.427482
2433.000000	99.430293
2432.000000	99.429703
2431.000000	99.426913
2430.000000	99.423019
2429.000000	99.418986
2428.000000	99.415966
2427.000000	99.414458
2426.000000	99.413766
2425.000000	99.413193
2424.000000	99.413129
2423.000000	99.414218
2422.000000	99.416323
2421.000000	99.419367
2420.000000	99.424269
2419.000000	99.431467
2418.000000	99.438820
2417.000000	99.442499
2416.000000	99.440240
2415.000000	99.433061
2414.000000	99.424204
2413.000000	99.417278
2412.000000	99.414688
2411.000000	99.416318
2410.000000	99.419708
2409.000000	99.422528
2408.000000	99.424767
2407.000000	99.427618
2406.000000	99.430942
2405.000000	99.433429
2404.000000	99.434831
2403.000000	99.436206
2402.000000	99.437881
2401.000000	99.438891
2400.000000	99.438657
2399.000000	99.437554
2398.000000	99.435606
2397.000000	99.432397
2396.000000	99.428884
2395.000000	99.427617
2394.000000	99.430270
2393.000000	99.436148
2392.000000	99.443528
2391.000000	99.450689
2390.000000	99.454990
2389.000000	99.453361
2388.000000	99.445918
2387.000000	99.437866
2386.000000	99.435426
2385.000000	99.439850
2384.000000	99.446654
2383.000000	99.450397
2382.000000	99.448955
2381.000000	99.443738
2380.000000	99.437838
2379.000000	99.434311
2378.000000	99.434419
2377.000000	99.436495
2376.000000	99.437638
2375.000000	99.437532
2374.000000	99.439315
2373.000000	99.445025
2372.000000	99.451209
2371.000000	99.451603
2370.000000	99.444590
2369.000000	99.435628
2368.000000	99.430741
2367.000000	99.429151
2366.000000	99.424702
2365.000000	99.414319
2364.000000	99.402736
2363.000000	99.397981
2362.000000	99.402703
2361.000000	99.411551
2360.000000	99.417879
2359.000000	99.419240
2358.000000	99.418251
2357.000000	99.418133
2356.000000	99.418387
2355.000000	99.417366
2354.000000	99.415017
2353.000000	99.413057
2352.000000	99.412275
2351.000000	99.411980
2350.000000	99.411134
2349.000000	99.408666
2348.000000	99.405344
2347.000000	99.402232
2346.000000	99.399005
2345.000000	99.394607
2344.000000	99.390805
2343.000000	99.391455
2342.000000	99.394832
2341.000000	99.395178
2340.000000	99.390011
2339.000000	99.383509
2338.000000	99.381993
2337.000000	99.387771
2336.000000	99.396886
2335.000000	99.402943
2334.000000	99.401998
2333.000000	99.395872
2332.000000	99.390284
2331.000000	99.390169
2330.000000	99.395473
2329.000000	99.399585
2328.000000	99.394549
2327.000000	99.375360
2326.000000	99.344074
2325.000000	99.310687
2324.000000	99.289640
2323.000000	99.291675
2322.000000	99.313618
2321.000000	99.340712
2320.000000	99.359375
2319.000000	99.368256
2318.000000	99.374166
2317.000000	99.380896
2316.000000	99.385827
2315.000000	99.385855
2314.000000	99.383683
2313.000000	99.385748
2312.000000	99.395547
2311.000000	99.410160
2310.000000	99.423912
2309.000000	99.433640
2308.000000	99.439744
2307.000000	99.442553
2306.000000	99.439950
2305.000000	99.430593
2304.000000	99.417963
2303.000000	99.409132
2302.000000	99.408134
2301.000000	99.412359
2300.000000	99.415767
2299.000000	99.414462
2298.000000	99.409122
2297.000000	99.403672
2296.000000	99.403040
2295.000000	99.409432
2294.000000	99.419235
2293.000000	99.424499
2292.000000	99.420443
2291.000000	99.411101
2290.000000	99.405593
2289.000000	99.408580
2288.000000	99.415583
2287.000000	99.417802
2286.000000	99.410223
2285.000000	99.395775
2284.000000	99.383243
2283.000000	99.380934
2282.000000	99.389958
2281.000000	99.403244
2280.000000	99.412610
2279.000000	99.416884
2278.000000	99.420692
2277.000000	99.425560
2276.000000	99.426392
2275.000000	99.419218
2274.000000	99.409452
2273.000000	99.407904
2272.000000	99.418560
2271.000000	99.433561
2270.000000	99.441674
2269.000000	99.439960
2268.000000	99.436111
2267.000000	99.440790
2266.000000	99.458758
2265.000000	99.485628
2264.000000	99.510699
2263.000000	99.523044
2262.000000	99.518212
2261.000000	99.501784
2260.000000	99.485890
2259.000000	99.479683
2258.000000	99.482001
2257.000000	99.484079
2256.000000	99.478904
2255.000000	99.467024
2254.000000	99.453758
2253.000000	99.443553
2252.000000	99.438245
2251.000000	99.437881
2250.000000	99.440576
2249.000000	99.442548
2248.000000	99.441537
2247.000000	99.440225
2246.000000	99.443643
2245.000000	99.452537
2244.000000	99.461647
2243.000000	99.466311
2242.000000	99.468841
2241.000000	99.475802
2240.000000	99.489326
2239.000000	99.503355
2238.000000	99.509254
2237.000000	99.504061
2236.000000	99.492826
2235.000000	99.484108
2234.000000	99.484293
2233.000000	99.495015
2232.000000	99.513162
2231.000000	99.532616
2230.000000	99.547842
2229.000000	99.557738
2228.000000	99.565552
2227.000000	99.573476
2226.000000	99.577754
2225.000000	99.571405
2224.000000	99.553016
2223.000000	99.531338
2222.000000	99.519670
2221.000000	99.525082
2220.000000	99.542025
2219.000000	99.555713
2218.000000	99.552455
2217.000000	99.529623
2216.000000	99.498424
2215.000000	99.476497
2214.000000	99.475227
2213.000000	99.491680
2212.000000	99.511756
2211.000000	99.522278
2210.000000	99.520384
2209.000000	99.511279
2208.000000	99.499046
2207.000000	99.483121
2206.000000	99.464867
2205.000000	99.453384
2204.000000	99.459905
2203.000000	99.486896
2202.000000	99.525061
2201.000000	99.558360
2200.000000	99.568832
2199.000000	99.542575
2198.000000	99.482483
2197.000000	99.417917
2196.000000	99.389652
2195.000000	99.415216
2194.000000	99.473059
2193.000000	99.525167
2192.000000	99.551043
2191.000000	99.555445
2190.000000	99.551310
2189.000000	99.547529
2188.000000	99.548828
2187.000000	99.553778
2186.000000	99.552859
2185.000000	99.540501
2184.000000	99.530089
2183.000000	99.543014
2182.000000	99.577932
2181.000000	99.604162
2180.000000	99.594935
2179.000000	99.557313
2178.000000	99.519992
2177.000000	99.501734
2176.000000	99.501327
2175.000000	99.510418
2174.000000	99.524496
2173.000000	99.541725
2172.000000	99.560170
2171.000000	99.578934
2170.000000	99.597332
2169.000000	99.612313
2168.000000	99.620444
2167.000000	99.621692
2166.000000	99.616836
2165.000000	99.602155
2164.000000	99.572218
2163.000000	99.529369
2162.000000	99.488366
2161.000000	99.472661
2160.000000	99.504479
2159.000000	99.588657
2158.000000	99.698256
2157.000000	99.785326
2156.000000	99.818549
2155.000000	99.805258
2154.000000	99.774913
2153.000000	99.750449
2152.000000	99.736191
2151.000000	99.726826
2150.000000	99.721801
2149.000000	99.726480
2148.000000	99.740859
2147.000000	99.754345
2146.000000	99.756222
2145.000000	99.748224
2144.000000	99.740850
2143.000000	99.737685
2142.000000	99.729824
2141.000000	99.707410
2140.000000	99.670954
2139.000000	99.628799
2138.000000	99.590587
2137.000000	99.568155
2136.000000	99.574354
2135.000000	99.609952
2134.000000	99.653887
2133.000000	99.677035
2132.000000	99.668243
2131.000000	99.640914
2130.000000	99.614208
2129.000000	99.596092
2128.000000	99.585518
2127.000000	99.581910
2126.000000	99.585507
2125.000000	99.591409
2124.000000	99.591109
2123.000000	99.581922
2122.000000	99.571050
2121.000000	99.567610
2120.000000	99.571810
2119.000000	99.574469
2118.000000	99.567303
2117.000000	99.552016
2116.000000	99.538334
2115.000000	99.533683
2114.000000	99.536700
2113.000000	99.540715
2112.000000	99.541210
2111.000000	99.538334
2110.000000	99.533815
2109.000000	99.528410
2108.000000	99.522260
2107.000000	99.515713
2106.000000	99.509873
2105.000000	99.507567
2104.000000	99.512584
2103.000000	99.525769
2102.000000	99.542667
2101.000000	99.557579
2100.000000	99.569198
2099.000000	99.579159
2098.000000	99.585644
2097.000000	99.583153
2096.000000	99.570174
2095.000000	99.552776
2094.000000	99.538637
2093.000000	99.530806
2092.000000	99.528582
2091.000000	99.530419
2090.000000	99.533173
2089.000000	99.532111
2088.000000	99.525965
2087.000000	99.520050
2086.000000	99.520112
2085.000000	99.523484
2084.000000	99.520098
2083.000000	99.503885
2082.000000	99.481526
2081.000000	99.468426
2080.000000	99.475673
2079.000000	99.500291
2078.000000	99.527095
2077.000000	99.540086
2076.000000	99.533925
2075.000000	99.515749
2074.000000	99.497260
2073.000000	99.486043
2072.000000	99.483462
2071.000000	99.487969
2070.000000	99.497860
2069.000000	99.510841
2068.000000	99.522912
2067.000000	99.530218
2066.000000	99.533454
2065.000000	99.540193
2064.000000	99.559620
2063.000000	99.591968
2062.000000	99.624876
2061.000000	99.642477
2060.000000	99.638172
2059.000000	99.617795
2058.000000	99.592359
2057.000000	99.572136
2056.000000	99.565143
2055.000000	99.572391
2054.000000	99.581655
2053.000000	99.573190
2052.000000	99.538581
2051.000000	99.491855
2050.000000	99.459249
2049.000000	99.458174
2048.000000	99.484756
2047.000000	99.520947
2046.000000	99.550976
2045.000000	99.569737
2044.000000	99.582216
2043.000000	99.598385
2042.000000	99.624247
2041.000000	99.654739
2040.000000	99.678080
2039.000000	99.689503
2038.000000	99.696910
2037.000000	99.710269
2036.000000	99.727245
2035.000000	99.733439
2034.000000	99.719299
2033.000000	99.694066
2032.000000	99.677576
2031.000000	99.676926
2030.000000	99.677380
2029.000000	99.658539
2028.000000	99.616191
2027.000000	99.567017
2026.000000	99.536208
2025.000000	99.542002
2024.000000	99.583237
2023.000000	99.637524
2022.000000	99.676778
2021.000000	99.689806
2020.000000	99.687925
2019.000000	99.684690
2018.000000	99.675868
2017.000000	99.647796
2016.000000	99.601746
2015.000000	99.556793
2014.000000	99.529453
2013.000000	99.523064
2012.000000	99.535496
2011.000000	99.565919
2010.000000	99.610096
2009.000000	99.654705
2008.000000	99.683601
2007.000000	99.690426
2006.000000	99.682157
2005.000000	99.671287
2004.000000	99.665831
2003.000000	99.665412
2002.000000	99.665752
2001.000000	99.666613
2000.000000	99.672807
1999.000000	99.685715
1998.000000	99.696909
1997.000000	99.694594
1996.000000	99.676330
1995.000000	99.651477
1994.000000	99.632413
1993.000000	99.626402
1992.000000	99.632108
1991.000000	99.640751
1990.000000	99.643791
1989.000000	99.641220
1988.000000	99.640653
1987.000000	99.647656
1986.000000	99.660355
1985.000000	99.675472
1984.000000	99.692966
1983.000000	99.708383
1982.000000	99.706593
1981.000000	99.675555
1980.000000	99.627334
1979.000000	99.596008
1978.000000	99.608979
1977.000000	99.659623
1976.000000	99.709728
1975.000000	99.720291
1974.000000	99.681645
1973.000000	99.621825
1972.000000	99.586263
1971.000000	99.598222
1970.000000	99.638824
1969.000000	99.670419
1968.000000	99.677918
1967.000000	99.681002
1966.000000	99.702080
1965.000000	99.732777
1964.000000	99.741909
1963.000000	99.709252
1962.000000	99.646949
1961.000000	99.593484
1960.000000	99.582902
1959.000000	99.615540
1958.000000	99.663413
1957.000000	99.701977
1956.000000	99.728579
1955.000000	99.748852
1954.000000	99.756726
1953.000000	99.739069
1952.000000	99.696505
1951.000000	99.648868
1950.000000	99.619028
1949.000000	99.616837
1948.000000	99.635301
1947.000000	99.656183
1946.000000	99.662620
1945.000000	99.653366
1944.000000	99.643510
1943.000000	99.645644
1942.000000	99.653671
1941.000000	99.655726
1940.000000	99.655653
1939.000000	99.665524
1938.000000	99.683648
1937.000000	99.693460
1936.000000	99.684359
1935.000000	99.662761
1934.000000	99.639119
1933.000000	99.615985
1932.000000	99.594423
1931.000000	99.581368
1930.000000	99.582610
1929.000000	99.595637
1928.000000	99.613913
1927.000000	99.633840
1926.000000	99.651930
1925.000000	99.661257
1924.000000	99.658515
1923.000000	99.650414
1922.000000	99.646851
1921.000000	99.649491
1920.000000	99.653734
1919.000000	99.656845
1918.000000	99.655790
1917.000000	99.644740
1916.000000	99.623686
1915.000000	99.603305
1914.000000	99.596724
1913.000000	99.607642
1912.000000	99.628042
1911.000000	99.647329
1910.000000	99.658711
1909.000000	99.657159
1908.000000	99.639598
1907.000000	99.612245
1906.000000	99.591091
1905.000000	99.589332
1904.000000	99.604782
1903.000000	99.621283
1902.000000	99.624404
1901.000000	99.614253
1900.000000	99.602090
1899.000000	99.597578
1898.000000	99.601825
1897.000000	99.610412
1896.000000	99.619615
1895.000000	99.628193
1894.000000	99.635769
1893.000000	99.641718
1892.000000	99.644664
1891.000000	99.641379
1890.000000	99.627619
1889.000000	99.605057
1888.000000	99.584336
1887.000000	99.574967
1886.000000	99.577675
1885.000000	99.587450
1884.000000	99.598745
1883.000000	99.607178
1882.000000	99.608356
1881.000000	99.599832
1880.000000	99.585369
1879.000000	99.574260
1878.000000	99.573921
1877.000000	99.583183
1876.000000	99.594928
1875.000000	99.604285
1874.000000	99.611408
1873.000000	99.618207
1872.000000	99.625978
1871.000000	99.635854
1870.000000	99.647802
1869.000000	99.657109
1868.000000	99.657551
1867.000000	99.648907
1866.000000	99.636103
1865.000000	99.624642
1864.000000	99.618026
1863.000000	99.615806
1862.000000	99.614642
1861.000000	99.612722
1860.000000	99.611885
1859.000000	99.613879
1858.000000	99.616180
1857.000000	99.613853
1856.000000	99.605346
1855.000000	99.594871
1854.000000	99.588591
1853.000000	99.590957
1852.000000	99.601637
1851.000000	99.615842
1850.000000	99.629431
1849.000000	99.641104
1848.000000	99.651227
1847.000000	99.659222
1846.000000	99.663938
1845.000000	99.664920
1844.000000	99.661843
1843.000000	99.655513
1842.000000	99.647740
1841.000000	99.641123
1840.000000	99.639627
1839.000000	99.644540
1838.000000	99.649744
1837.000000	99.648020
1836.000000	99.642061
1835.000000	99.640704
1834.000000	99.645631
1833.000000	99.649324
1832.000000	99.644971
1831.000000	99.634685
1830.000000	99.627991
1829.000000	99.631728
1828.000000	99.642043
1827.000000	99.649702
1826.000000	99.650394
1825.000000	99.645708
1824.000000	99.639860
1823.000000	99.635055
1822.000000	99.629697
1821.000000	99.623337
1820.000000	99.619304
1819.000000	99.621578
1818.000000	99.629634
1817.000000	99.638506
1816.000000	99.645164
1815.000000	99.650498
1814.000000	99.656216
1813.000000	99.661816
1812.000000	99.665227
1811.000000	99.665578
1810.000000	99.663313
1809.000000	99.660133
1808.000000	99.658708
1807.000000	99.660219
1806.000000	99.662470
1805.000000	99.661696
1804.000000	99.656952
1803.000000	99.649848
1802.000000	99.642253
1801.000000	99.635779
1800.000000	99.632997
1799.000000	99.636663
1798.000000	99.645295
1797.000000	99.653706
1796.000000	99.658022
1795.000000	99.658551
1794.000000	99.659147
1793.000000	99.662168
1792.000000	99.664034
1791.000000	99.661833
1790.000000	99.657724
1789.000000	99.654724
1788.000000	99.654823
1787.000000	99.658291
1786.000000	99.662270
1785.000000	99.663146
1784.000000	99.662129
1783.000000	99.662612
1782.000000	99.665691
1781.000000	99.669415
1780.000000	99.670788
1779.000000	99.670802
1778.000000	99.672454
1777.000000	99.677042
1776.000000	99.681431
1775.000000	99.680497
1774.000000	99.675589
1773.000000	99.677003
1772.000000	99.691145
1771.000000	99.710275
1770.000000	99.721742
1769.000000	99.721714
1768.000000	99.718192
1767.000000	99.720732
1766.000000	99.730003
1765.000000	99.740307
1764.000000	99.749699
1763.000000	99.761804
1762.000000	99.779284
1761.000000	99.800246
1760.000000	99.822363
1759.000000	99.845690
1758.000000	99.872442
1757.000000	99.906544
1756.000000	99.946768
1755.000000	99.986681
1754.000000	100.022913
1753.000000	100.060669
1752.000000	100.109813
1751.000000	100.172561
1750.000000	100.237250
1749.000000	100.292009
1748.000000	100.336737
1747.000000	100.375917
1746.000000	100.412782
1745.000000	100.447619
1744.000000	100.477697
1743.000000	100.499326
1742.000000	100.509921
1741.000000	100.510137
1740.000000	100.503891
1739.000000	100.494310
1738.000000	100.479053
1737.000000	100.451059
1736.000000	100.408255
1735.000000	100.362271
1734.000000	100.328311
1733.000000	100.309183
1732.000000	100.292844
1731.000000	100.268774
1730.000000	100.238766
1729.000000	100.209330
1728.000000	100.185147
1727.000000	100.167811
1726.000000	100.158109
1725.000000	100.155187
1724.000000	100.158816
1723.000000	100.171936
1722.000000	100.193087
1721.000000	100.215678
1720.000000	100.238465
1719.000000	100.272091
1718.000000	100.320257
1717.000000	100.362588
1716.000000	100.386793
1715.000000	100.406929
1714.000000	100.431817
1713.000000	100.452771
1712.000000	100.460899
1711.000000	100.456840
1710.000000	100.443169
1709.000000	100.416407
1708.000000	100.371264
1707.000000	100.309596
1706.000000	100.240668
1705.000000	100.175060
1704.000000	100.116803
1703.000000	100.055575
1702.000000	99.981758
1701.000000	99.903321
1700.000000	99.843807
1699.000000	99.817129
1698.000000	99.799540
1697.000000	99.757557
1696.000000	99.690394
1695.000000	99.629109
1694.000000	99.592240
1693.000000	99.565751
1692.000000	99.537049
1691.000000	99.507274
1690.000000	99.479651
1689.000000	99.453421
1688.000000	99.424957
1687.000000	99.390782
1686.000000	99.352322
1685.000000	99.311751
1684.000000	99.267880
1683.000000	99.232388
1682.000000	99.207978
1681.000000	99.178177
1680.000000	99.138965
1679.000000	99.096185
1678.000000	99.052806
1677.000000	99.006218
1676.000000	98.957242
1675.000000	98.914400
1674.000000	98.884926
1673.000000	98.861784
1672.000000	98.832188
1671.000000	98.793137
1670.000000	98.745970
1669.000000	98.694899
1668.000000	98.648563
1667.000000	98.610322
1666.000000	98.574681
1665.000000	98.535085
1664.000000	98.491464
1663.000000	98.449154
1662.000000	98.412180
1661.000000	98.379067
1660.000000	98.344990
1659.000000	98.311753
1658.000000	98.284780
1657.000000	98.263304
1656.000000	98.236761
1655.000000	98.200944
1654.000000	98.162344
1653.000000	98.127564
1652.000000	98.115494
1651.000000	98.121993
1650.000000	98.121048
1649.000000	98.108438
1648.000000	98.087935
1647.000000	98.061831
1646.000000	98.037325
1645.000000	98.022178
1644.000000	98.012793
1643.000000	98.003043
1642.000000	97.991804
1641.000000	97.981673
1640.000000	97.973621
1639.000000	97.966450
1638.000000	97.958388
1637.000000	97.950569
1636.000000	97.943329
1635.000000	97.938809
1634.000000	97.941290
1633.000000	97.945562
1632.000000	97.947169
1631.000000	97.948948
1630.000000	97.956344
1629.000000	97.972270
1628.000000	97.994675
1627.000000	98.017452
1626.000000	98.035957
1625.000000	98.051921
1624.000000	98.071944
1623.000000	98.098481
1622.000000	98.125444
1621.000000	98.146628
1620.000000	98.161176
1619.000000	98.173778
1618.000000	98.193205
1617.000000	98.224286
1616.000000	98.260552
1615.000000	98.292307
1614.000000	98.315144
1613.000000	98.330512
1612.000000	98.344883
1611.000000	98.363695
1610.000000	98.386338
1609.000000	98.408557
1608.000000	98.428471
1607.000000	98.447461
1606.000000	98.466935
1605.000000	98.486839
1604.000000	98.505018
1603.000000	98.519645
1602.000000	98.531075
1601.000000	98.541428
1600.000000	98.552958
1599.000000	98.566841
1598.000000	98.583088
1597.000000	98.600576
1596.000000	98.617746
1595.000000	98.633706
1594.000000	98.648758
1593.000000	98.663783
1592.000000	98.678937
1591.000000	98.693412
1590.000000	98.706498
1589.000000	98.718502
1588.000000	98.729754
1587.000000	98.739511
1586.000000	98.746046
1585.000000	98.748930
1584.000000	98.747995
1583.000000	98.741960
1582.000000	98.732705
1581.000000	98.725654
1580.000000	98.723269
1579.000000	98.721586
1578.000000	98.716154
1577.000000	98.705294
1576.000000	98.690781
1575.000000	98.678504
1574.000000	98.670044
1573.000000	98.659736
1572.000000	98.644423
1571.000000	98.627014
1570.000000	98.609934
1569.000000	98.595996
1568.000000	98.588045
1567.000000	98.581421
1566.000000	98.569956
1565.000000	98.554123
1564.000000	98.536934
1563.000000	98.516745
1562.000000	98.489422
1561.000000	98.457810
1560.000000	98.440520
1559.000000	98.422501
1558.000000	98.394401
1557.000000	98.380189
1556.000000	98.369324
1555.000000	98.353279
1554.000000	98.337594
1553.000000	98.327430
1552.000000	98.320183
1551.000000	98.311649
1550.000000	98.300151
1549.000000	98.285586
1548.000000	98.270659
1547.000000	98.258525
1546.000000	98.253307
1545.000000	98.255598
1544.000000	98.259213
1543.000000	98.260381
1542.000000	98.263497
1541.000000	98.269758
1540.000000	98.268973
1539.000000	98.264774
1538.000000	98.269240
1537.000000	98.274445
1536.000000	98.274244
1535.000000	98.276673
1534.000000	98.294246
1533.000000	98.321773
1532.000000	98.341686
1531.000000	98.351051
1530.000000	98.358374
1529.000000	98.371376
1528.000000	98.392637
1527.000000	98.419537
1526.000000	98.447876
1525.000000	98.473659
1524.000000	98.494508
1523.000000	98.514130
1522.000000	98.536374
1521.000000	98.553866
1520.000000	98.561212
1519.000000	98.565906
1518.000000	98.577896
1517.000000	98.598494
1516.000000	98.616903
1515.000000	98.624483
1514.000000	98.626152
1513.000000	98.632806
1512.000000	98.652337
1511.000000	98.682409
1510.000000	98.714929
1509.000000	98.746051
1508.000000	98.780610
1507.000000	98.810817
1506.000000	98.822150
1505.000000	98.825076
1504.000000	98.827120
1503.000000	98.826628
1502.000000	98.825822
1501.000000	98.829068
1500.000000	98.838107
1499.000000	98.852189
1498.000000	98.869159
1497.000000	98.884548
1496.000000	98.896475
1495.000000	98.908903
1494.000000	98.923444
1493.000000	98.939016
1492.000000	98.959243
1491.000000	98.990867
1490.000000	99.027379
1489.000000	99.046452
1488.000000	99.037244
1487.000000	99.012966
1486.000000	98.990451
1485.000000	98.976550
1484.000000	98.968772
1483.000000	98.962041
1482.000000	98.954312
1481.000000	98.944764
1480.000000	98.933988
1479.000000	98.924144
1478.000000	98.918847
1477.000000	98.918636
1476.000000	98.919489
1475.000000	98.919693
1474.000000	98.928890
1473.000000	98.962837
1472.000000	99.019781
1471.000000	99.080211
1470.000000	99.131225
1469.000000	99.169844
1468.000000	99.194062
1467.000000	99.201740
1466.000000	99.192224
1465.000000	99.169826
1464.000000	99.144128
1463.000000	99.123811
1462.000000	99.107945
1461.000000	99.091307
1460.000000	99.071999
1459.000000	99.051359
1458.000000	99.027132
1457.000000	98.988899
1456.000000	98.941567
1455.000000	98.897560
1454.000000	98.852717
1453.000000	98.803512
1452.000000	98.755688
1451.000000	98.716643
1450.000000	98.687009
1449.000000	98.661516
1448.000000	98.637122
1447.000000	98.614209
1446.000000	98.593208
1445.000000	98.573595
1444.000000	98.554036
1443.000000	98.535708
1442.000000	98.520565
1441.000000	98.508574
1440.000000	98.496650
1439.000000	98.481986
1438.000000	98.466324
1437.000000	98.454923
1436.000000	98.451648
1435.000000	98.452987
1434.000000	98.449862
1433.000000	98.438131
1432.000000	98.422484
1431.000000	98.408487
1430.000000	98.395847
1429.000000	98.382340
1428.000000	98.371915
1427.000000	98.369054
1426.000000	98.373305
1425.000000	98.382854
1424.000000	98.393805
1423.000000	98.400518
1422.000000	98.399742
1421.000000	98.395960
1420.000000	98.401297
1419.000000	98.420503
1418.000000	98.441417
1417.000000	98.452893
1416.000000	98.456904
1415.000000	98.460093
1414.000000	98.466011
1413.000000	98.474137
1412.000000	98.482557
1411.000000	98.489835
1410.000000	98.494858
1409.000000	98.497641
1408.000000	98.501140
1407.000000	98.508347
1406.000000	98.518541
1405.000000	98.529527
1404.000000	98.540031
1403.000000	98.548866
1402.000000	98.553826
1401.000000	98.556105
1400.000000	98.562358
1399.000000	98.577095
1398.000000	98.595801
1397.000000	98.611566
1396.000000	98.625088
1395.000000	98.640510
1394.000000	98.656889
1393.000000	98.670822
1392.000000	98.682393
1391.000000	98.694618
1390.000000	98.710546
1389.000000	98.733243
1388.000000	98.765603
1387.000000	98.804961
1386.000000	98.840947
1385.000000	98.866458
1384.000000	98.885072
1383.000000	98.905723
1382.000000	98.933250
1381.000000	98.965037
1380.000000	98.996324
1379.000000	99.024540
1378.000000	99.048599
1377.000000	99.067587
1376.000000	99.081233
1375.000000	99.089482
1374.000000	99.093301
1373.000000	99.096601
1372.000000	99.103718
1371.000000	99.115614
1370.000000	99.130819
1369.000000	99.148011
1368.000000	99.166397
1367.000000	99.185533
1366.000000	99.204806
1365.000000	99.223771
1364.000000	99.241764
1363.000000	99.256743
1362.000000	99.267101
1361.000000	99.274470
1360.000000	99.282282
1359.000000	99.292716
1358.000000	99.305882
1357.000000	99.320420
1356.000000	99.334354
1355.000000	99.345873
1354.000000	99.354086
1353.000000	99.359304
1352.000000	99.362929
1351.000000	99.365987
1350.000000	99.367675
1349.000000	99.366258
1348.000000	99.360582
1347.000000	99.351326
1346.000000	99.340054
1345.000000	99.328378
1344.000000	99.318514
1343.000000	99.313813
1342.000000	99.316837
1341.000000	99.325603
1340.000000	99.332180
1339.000000	99.328529
1338.000000	99.314714
1337.000000	99.297472
1336.000000	99.282463
1335.000000	99.271501
1334.000000	99.264650
1333.000000	99.261981
1332.000000	99.263367
1331.000000	99.267817
1330.000000	99.273598
1329.000000	99.278764
1328.000000	99.281890
1327.000000	99.282906
1326.000000	99.283084
1325.000000	99.283717
1324.000000	99.284827
1323.000000	99.286237
1322.000000	99.289524
1321.000000	99.297558
1320.000000	99.311600
1319.000000	99.329461
1318.000000	99.347396
1317.000000	99.363324
1316.000000	99.377278
1315.000000	99.389674
1314.000000	99.400633
1313.000000	99.410769
1312.000000	99.421531
1311.000000	99.434628
1310.000000	99.451444
1309.000000	99.472283
1308.000000	99.495203
1307.000000	99.516164
1306.000000	99.531801
1305.000000	99.542438
1304.000000	99.551571
1303.000000	99.562452
1302.000000	99.575428
1301.000000	99.588244
1300.000000	99.598273
1299.000000	99.604674
1298.000000	99.608827
1297.000000	99.612912
1296.000000	99.618060
1295.000000	99.623831
1294.000000	99.629331
1293.000000	99.634200
1292.000000	99.638547
1291.000000	99.642593
1290.000000	99.646592
1289.000000	99.650633
1288.000000	99.654378
1287.000000	99.657446
1286.000000	99.660107
1285.000000	99.663055
1284.000000	99.666518
1283.000000	99.670294
1282.000000	99.674621
1281.000000	99.680076
1280.000000	99.686041
1279.000000	99.690021
1278.000000	99.689505
1277.000000	99.684809
1276.000000	99.679977
1275.000000	99.680283
1274.000000	99.687900
1273.000000	99.699466
1272.000000	99.708689
1271.000000	99.712225
1270.000000	99.712106
1269.000000	99.711372
1268.000000	99.709073
1267.000000	99.702014
1266.000000	99.690644
1265.000000	99.680052
1264.000000	99.674664
1263.000000	99.674492
1262.000000	99.677179
1261.000000	99.680995
1260.000000	99.684251
1259.000000	99.684421
1258.000000	99.680656
1257.000000	99.675790
1256.000000	99.673426
1255.000000	99.673754
1254.000000	99.673970
1253.000000	99.672231
1252.000000	99.669414
1251.000000	99.667113
1250.000000	99.665664
1249.000000	99.664394
1248.000000	99.662454
1247.000000	99.658802
1246.000000	99.652312
1245.000000	99.642445
1244.000000	99.629706
1243.000000	99.615564
1242.000000	99.601988
1241.000000	99.590407
1240.000000	99.580474
1239.000000	99.570358
1238.000000	99.559313
1237.000000	99.549898
1236.000000	99.546472
1235.000000	99.551349
1234.000000	99.562997
1233.000000	99.577586
1232.000000	99.591172
1231.000000	99.600516
1230.000000	99.604034
1229.000000	99.603310
1228.000000	99.602449
1227.000000	99.604755
1226.000000	99.610270
1225.000000	99.617075
1224.000000	99.624399
1223.000000	99.633513
1222.000000	99.645742
1221.000000	99.660450
1220.000000	99.675219
1219.000000	99.687812
1218.000000	99.697799
1217.000000	99.706039
1216.000000	99.712646
1215.000000	99.716283
1214.000000	99.715806
1213.000000	99.711925
1212.000000	99.706104
1211.000000	99.698362
1210.000000	99.687305
1209.000000	99.671924
1208.000000	99.652620
1207.000000	99.630983
1206.000000	99.609827
1205.000000	99.592809
1204.000000	99.582067
1203.000000	99.576006
1202.000000	99.571163
1201.000000	99.566755
1200.000000	99.565264
1199.000000	99.568019
1198.000000	99.572719
1197.000000	99.577175
1196.000000	99.583227
1195.000000	99.593906
1194.000000	99.608247
1193.000000	99.622007
1192.000000	99.633235
1191.000000	99.644423
1190.000000	99.658663
1189.000000	99.675864
1188.000000	99.693291
1187.000000	99.708156
1186.000000	99.719235
1185.000000	99.727316
1184.000000	99.734358
1183.000000	99.741258
1182.000000	99.746539
1181.000000	99.748518
1180.000000	99.748679
1179.000000	99.750730
1178.000000	99.755760
1177.000000	99.760570
1176.000000	99.761759
1175.000000	99.759683
1174.000000	99.756976
1173.000000	99.754552
1172.000000	99.750793
1171.000000	99.743776
1170.000000	99.732630
1169.000000	99.717114
1168.000000	99.697792
1167.000000	99.677023
1166.000000	99.658033
1165.000000	99.642179
1164.000000	99.627784
1163.000000	99.612213
1162.000000	99.594781
1161.000000	99.577404
1160.000000	99.562721
1159.000000	99.551773
1158.000000	99.543398
1157.000000	99.535789
1156.000000	99.528644
1155.000000	99.523384
1154.000000	99.521356
1153.000000	99.522484
1152.000000	99.525555
1151.000000	99.529013
1150.000000	99.531170
1149.000000	99.530425
1148.000000	99.525576
1147.000000	99.515637
1146.000000	99.499572
1145.000000	99.477408
1144.000000	99.451711
1143.000000	99.426409
1142.000000	99.403476
1141.000000	99.381690
1140.000000	99.359413
1139.000000	99.337347
1138.000000	99.317790
1137.000000	99.302482
1136.000000	99.292145
1135.000000	99.286579
1134.000000	99.283762
1133.000000	99.280312
1132.000000	99.274264
1131.000000	99.266420
1130.000000	99.257684
1129.000000	99.246610
1128.000000	99.231949
1127.000000	99.216770
1126.000000	99.207420
1125.000000	99.208125
1124.000000	99.218093
1123.000000	99.233500
1122.000000	99.249920
1121.000000	99.262692
1120.000000	99.267667
1119.000000	99.263723
1118.000000	99.254048
1117.000000	99.243775
1116.000000	99.236482
1115.000000	99.232760
1114.000000	99.230639
1113.000000	99.226203
1112.000000	99.215213
1111.000000	99.196150
1110.000000	99.171614
1109.000000	99.145703
1108.000000	99.120184
1107.000000	99.094455
1106.000000	99.068580
1105.000000	99.043926
1104.000000	99.020260
1103.000000	98.994612
1102.000000	98.965305
1101.000000	98.936184
1100.000000	98.914444
1099.000000	98.903703
1098.000000	98.901138
1097.000000	98.901137
1096.000000	98.899445
1095.000000	98.893424
1094.000000	98.881936
1093.000000	98.867848
1092.000000	98.858485
1091.000000	98.859956
1090.000000	98.871179
1089.000000	98.885117
1088.000000	98.895365
1087.000000	98.900474
1086.000000	98.903853
1085.000000	98.911875
1084.000000	98.929619
1083.000000	98.954692
1082.000000	98.976268
1081.000000	98.984199
1080.000000	98.979173
1079.000000	98.971192
1078.000000	98.968925
1077.000000	98.974408
1076.000000	98.987141
1075.000000	99.007553
1074.000000	99.034169
1073.000000	99.061375
1072.000000	99.083120
1071.000000	99.097366
1070.000000	99.105910
1069.000000	99.111506
1068.000000	99.115963
1067.000000	99.118872
1066.000000	99.117498
1065.000000	99.110134
1064.000000	99.100439
1063.000000	99.095673
1062.000000	99.098840
1061.000000	99.104858
1060.000000	99.106277
1059.000000	99.100633
1058.000000	99.090278
1057.000000	99.077338
1056.000000	99.062011
1055.000000	99.044988
1054.000000	99.028500
1053.000000	99.014415
1052.000000	99.002505
1051.000000	98.990721
1050.000000	98.976759
1049.000000	98.960417
1048.000000	98.945168
1047.000000	98.936227
1046.000000	98.935712
1045.000000	98.940491
1044.000000	98.945236
1043.000000	98.946058
1042.000000	98.940640
1041.000000	98.927213
1040.000000	98.905823
1039.000000	98.879995
1038.000000	98.855235
1037.000000	98.835659
1036.000000	98.822552
1035.000000	98.815059
1034.000000	98.810998
1033.000000	98.807938
1032.000000	98.805288
1031.000000	98.805242
1030.000000	98.810516
1029.000000	98.821474
1028.000000	98.835887
1027.000000	98.851194
1026.000000	98.866267
1025.000000	98.881239
1024.000000	98.896366
1023.000000	98.911186
1022.000000	98.925054
1021.000000	98.938502
1020.000000	98.953305
1019.000000	98.970110
1018.000000	98.986192
1017.000000	98.997019
1016.000000	99.000762
1015.000000	99.000829
1014.000000	99.003699
1013.000000	99.013898
1012.000000	99.030298
1011.000000	99.046847
1010.000000	99.057911
1009.000000	99.064358
1008.000000	99.073651
1007.000000	99.092354
1006.000000	99.119106
1005.000000	99.146366
1004.000000	99.168649
1003.000000	99.187284
1002.000000	99.207150
1001.000000	99.231012
1000.000000	99.257607
999.000000	99.283484
998.000000	99.305549
997.000000	99.322835
996.000000	99.337337
995.000000	99.353340
994.000000	99.375261
993.000000	99.404908
992.000000	99.439603
991.000000	99.472770
990.000000	99.498311
989.000000	99.516118
988.000000	99.532226
987.000000	99.552095
986.000000	99.574590
985.000000	99.594273
984.000000	99.608920
983.000000	99.622171
982.000000	99.638701
981.000000	99.659171
980.000000	99.680675
979.000000	99.700304
978.000000	99.716899
977.000000	99.730580
976.000000	99.741987
975.000000	99.751896
974.000000	99.761159
973.000000	99.771252
972.000000	99.784563
971.000000	99.802723
970.000000	99.823977
969.000000	99.843389
968.000000	99.856777
967.000000	99.864393
966.000000	99.870606
965.000000	99.880202
964.000000	99.894776
963.000000	99.911644
962.000000	99.925775
961.000000	99.933753
960.000000	99.936904
959.000000	99.940516
958.000000	99.949856
957.000000	99.966652
956.000000	99.988646
955.000000	100.011184
954.000000	100.029015
953.000000	100.038133
952.000000	100.037948
951.000000	100.032573
950.000000	100.029437
949.000000	100.035043
948.000000	100.050067
947.000000	100.067689
946.000000	100.078070
945.000000	100.076831
944.000000	100.069555
943.000000	100.067204
942.000000	100.076242
941.000000	100.093654
940.000000	100.111577
939.000000	100.125187
938.000000	100.135286
937.000000	100.144307
936.000000	100.151903
935.000000	100.155785
934.000000	100.156279
933.000000	100.158132
932.000000	100.165908
931.000000	100.177868
930.000000	100.186717
929.000000	100.187675
928.000000	100.184550
927.000000	100.185754
926.000000	100.194904
925.000000	100.207488
924.000000	100.216695
923.000000	100.220227
922.000000	100.220330
921.000000	100.219092
920.000000	100.215948
919.000000	100.209669
918.000000	100.201549
917.000000	100.195789
916.000000	100.196465
915.000000	100.203950
914.000000	100.214429
913.000000	100.223751
912.000000	100.231617
911.000000	100.241104
910.000000	100.254394
909.000000	100.270015
908.000000	100.284705
907.000000	100.296895
906.000000	100.307574
905.000000	100.318288
904.000000	100.329083
903.000000	100.338939
902.000000	100.348101
901.000000	100.358825
900.000000	100.372168
899.000000	100.384297
898.000000	100.388953
897.000000	100.384927
896.000000	100.378783
895.000000	100.377780
894.000000	100.381977
893.000000	100.386777
892.000000	100.391259
891.000000	100.398997
890.000000	100.410353
889.000000	100.419133
888.000000	100.419340
887.000000	100.411068
886.000000	100.397094
885.000000	100.376628
884.000000	100.346183
883.000000	100.304618
882.000000	100.252906
881.000000	100.189915
880.000000	100.112619
879.000000	100.022741
878.000000	99.931423
877.000000	99.856295
876.000000	99.813339
875.000000	99.809529
874.000000	99.841465
873.000000	99.900278
872.000000	99.977597
871.000000	100.064942
870.000000	100.149784
869.000000	100.218560
868.000000	100.266030
867.000000	100.298758
866.000000	100.326919
865.000000	100.355008
864.000000	100.382230
863.000000	100.408039
862.000000	100.432484
861.000000	100.452858
860.000000	100.465017
859.000000	100.468529
858.000000	100.467521
857.000000	100.466059
856.000000	100.465380
855.000000	100.465800
854.000000	100.468111
853.000000	100.472034
852.000000	100.475163
851.000000	100.474795
850.000000	100.470249
849.000000	100.463727
848.000000	100.459823
847.000000	100.462698
846.000000	100.471763
845.000000	100.481304
844.000000	100.486488
843.000000	100.488374
842.000000	100.489645
841.000000	100.486964
840.000000	100.473375
839.000000	100.449426
838.000000	100.427048
837.000000	100.418756
836.000000	100.425694
835.000000	100.439028
834.000000	100.450413
833.000000	100.457795
832.000000	100.462263
831.000000	100.463780
830.000000	100.461709
829.000000	100.457533
828.000000	100.455262
827.000000	100.459132
826.000000	100.470772
825.000000	100.487292
824.000000	100.501333
823.000000	100.504817
822.000000	100.495329
821.000000	100.479286
820.000000	100.467201
819.000000	100.464068
818.000000	100.464566
817.000000	100.459293
816.000000	100.445440
815.000000	100.429563
814.000000	100.419473
813.000000	100.415937
812.000000	100.414171
811.000000	100.410815
810.000000	100.406280
809.000000	100.401462
808.000000	100.396209
807.000000	100.391728
806.000000	100.391124
805.000000	100.395402
804.000000	100.400393
803.000000	100.399695
802.000000	100.390732
801.000000	100.377284
800.000000	100.366273
799.000000	100.362220
798.000000	100.364442
797.000000	100.369187
796.000000	100.373904
795.000000	100.378858
794.000000	100.384821
793.000000	100.390690
792.000000	100.394513
791.000000	100.395778
790.000000	100.395247
789.000000	100.393186
788.000000	100.389268
787.000000	100.384334
786.000000	100.381026
785.000000	100.382163
784.000000	100.388893
783.000000	100.399952
782.000000	100.411677
781.000000	100.419130
780.000000	100.418989
779.000000	100.412511
778.000000	100.405425
777.000000	100.403619
776.000000	100.408329
775.000000	100.415846
774.000000	100.421975
773.000000	100.425771
772.000000	100.428014
771.000000	100.427748
770.000000	100.423855
769.000000	100.420009
768.000000	100.423047
767.000000	100.433090
766.000000	100.439293
765.000000	100.431098
764.000000	100.412045
763.000000	100.396433
762.000000	100.392483
761.000000	100.394918
760.000000	100.394856
759.000000	100.390175
758.000000	100.383601
757.000000	100.377496
756.000000	100.375172
755.000000	100.381379
754.000000	100.394705
753.000000	100.403338
752.000000	100.396273
751.000000	100.377912
750.000000	100.365516
749.000000	100.371591
748.000000	100.392899
747.000000	100.416064
746.000000	100.429192
745.000000	100.428138
744.000000	100.416956
743.000000	100.404539
742.000000	100.398157
741.000000	100.398685
740.000000	100.402555
739.000000	100.407039
738.000000	100.411470
737.000000	100.415544
736.000000	100.420435
735.000000	100.430013
734.000000	100.445622
733.000000	100.459993
732.000000	100.462475
731.000000	100.452611
730.000000	100.443652
729.000000	100.448530
728.000000	100.465375
727.000000	100.480194
726.000000	100.482482
725.000000	100.475352
724.000000	100.470770
723.000000	100.477293
722.000000	100.492338
721.000000	100.504594
720.000000	100.503764
719.000000	100.488669
718.000000	100.465356
717.000000	100.437777
716.000000	100.402904
715.000000	100.356863
714.000000	100.305353
713.000000	100.265354
712.000000	100.252743
711.000000	100.266422
710.000000	100.287435
709.000000	100.296361
708.000000	100.290322
707.000000	100.281009
706.000000	100.278478
705.000000	100.282341
704.000000	100.287445
703.000000	100.290331
702.000000	100.287629
701.000000	100.275333
700.000000	100.254698
699.000000	100.233790
698.000000	100.218180
697.000000	100.203885
696.000000	100.184591
695.000000	100.161965
694.000000	100.143366
693.000000	100.132656
692.000000	100.128497
691.000000	100.128597
690.000000	100.129488
689.000000	100.125278
688.000000	100.114995
687.000000	100.110092
686.000000	100.125045
685.000000	100.159629
684.000000	100.196630
683.000000	100.218069
682.000000	100.218767
681.000000	100.204204
680.000000	100.183125
679.000000	100.164581
678.000000	100.156194
677.000000	100.160884
676.000000	100.174867
675.000000	100.188016
674.000000	100.188905
673.000000	100.172337
672.000000	100.144016
671.000000	100.115070
670.000000	100.093574
669.000000	100.079954
668.000000	100.066454
667.000000	100.060726
666.000000	100.075677
665.000000	100.095437
664.000000	100.101167
663.000000	100.092166
662.000000	100.080982
661.000000	100.074918
660.000000	100.067496
659.000000	100.053760
658.000000	100.043541
657.000000	100.049677
656.000000	100.069733
655.000000	100.088062
654.000000	100.095666
653.000000	100.099050
652.000000	100.107401
651.000000	100.120594
650.000000	100.133953
649.000000	100.147623
648.000000	100.163792
647.000000	100.177849
646.000000	100.180377
645.000000	100.169730
644.000000	100.156894
643.000000	100.154824
642.000000	100.165611
641.000000	100.180614
640.000000	100.192113
639.000000	100.200424
638.000000	100.208610
637.000000	100.214501
636.000000	100.211730
635.000000	100.198481
634.000000	100.182363
633.000000	100.174832
632.000000	100.181563
631.000000	100.197245
630.000000	100.208212
629.000000	100.202762
628.000000	100.181676
627.000000	100.158889
626.000000	100.149376
625.000000	100.154956
624.000000	100.164385
623.000000	100.166977
622.000000	100.162595
621.000000	100.157817
620.000000	100.155797
619.000000	100.151986
618.000000	100.138610
617.000000	100.113502
616.000000	100.085320
615.000000	100.068270
614.000000	100.069851
613.000000	100.084308
612.000000	100.098797
611.000000	100.104149
610.000000	100.098530
609.000000	100.083957
608.000000	100.064329
607.000000	100.046400
606.000000	100.036642
605.000000	100.034280
604.000000	100.029861
603.000000	100.012791
602.000000	99.979351
601.000000	99.934678
600.000000	99.891597
599.000000	99.867204
598.000000	99.873754
597.000000	99.909656
596.000000	99.961042
595.000000	100.012382
594.000000	100.054790
593.000000	100.085328
592.000000	100.102713
591.000000	100.108245
590.000000	100.109133
589.000000	100.114712
588.000000	100.128266
587.000000	100.144842
586.000000	100.157212
585.000000	100.162486
584.000000	100.162232
583.000000	100.157718
582.000000	100.147279
581.000000	100.129587
580.000000	100.108745
579.000000	100.093826
578.000000	100.091073
577.000000	100.096534
576.000000	100.098434
575.000000	100.090093
574.000000	100.080664
573.000000	100.087446
572.000000	100.116372
571.000000	100.152203
570.000000	100.170692
569.000000	100.162079
568.000000	100.136907
567.000000	100.107545
566.000000	100.074084
565.000000	100.033891
564.000000	99.997213
563.000000	99.982664
562.000000	99.996645
561.000000	100.024603
560.000000	100.044897
559.000000	100.045057
558.000000	100.025908
557.000000	99.998553
556.000000	99.978877
555.000000	99.978947
554.000000	99.999409
553.000000	100.032151
552.000000	100.068593
551.000000	100.098334
550.000000	100.104015
549.000000	100.072250
548.000000	100.012774
547.000000	99.957178
546.000000	99.933643
545.000000	99.944849
544.000000	99.973420
543.000000	100.001263
542.000000	100.018494
541.000000	100.024775
540.000000	100.028898
539.000000	100.040373
538.000000	100.056924
537.000000	100.066260
536.000000	100.062863
535.000000	100.054241
534.000000	100.046388
533.000000	100.033912
532.000000	100.012499
531.000000	99.994359
530.000000	100.000145
529.000000	100.038059
528.000000	100.097324
527.000000	100.154265
526.000000	100.180917
525.000000	100.164669
524.000000	100.125888
523.000000	100.103397
522.000000	100.121738
521.000000	100.173753
520.000000	100.230606
519.000000	100.267370
518.000000	100.280036
517.000000	100.279498
516.000000	100.272741
515.000000	100.255072
514.000000	100.220466
513.000000	100.176933
512.000000	100.147852
511.000000	100.152632
510.000000	100.186659
509.000000	100.229277
508.000000	100.268324
507.000000	100.302706
506.000000	100.325160
505.000000	100.321537
504.000000	100.290022
503.000000	100.251136
502.000000	100.234994
501.000000	100.258289
500.000000	100.315318
499.000000	100.383762
498.000000	100.429264
497.000000	100.422880
496.000000	100.371723
495.000000	100.319577
494.000000	100.305543
493.000000	100.330413
492.000000	100.365772
491.000000	100.383658
490.000000	100.371021
489.000000	100.331165
488.000000	100.285196
487.000000	100.260771
486.000000	100.266024
485.000000	100.281209
484.000000	100.285978
483.000000	100.279726
482.000000	100.262663
481.000000	100.221700
480.000000	100.158552
479.000000	100.107984
478.000000	100.099931
477.000000	100.115326
476.000000	100.111758
475.000000	100.085717
474.000000	100.074897
473.000000	100.099795
472.000000	100.126521
471.000000	100.109583
470.000000	100.046134
469.000000	99.962864
468.000000	99.892528
467.000000	99.867133
466.000000	99.897379
465.000000	99.962157
464.000000	100.039135
463.000000	100.131080
462.000000	100.244149
461.000000	100.354904
460.000000	100.428721
459.000000	100.460071
458.000000	100.474663
457.000000	100.494974
456.000000	100.515040
455.000000	100.522231
454.000000	100.512788
453.000000	100.484420
452.000000	100.442719
451.000000	100.423641
450.000000	100.462941
