PE IR       SUBTECH     SPECTRUM    ASCII       PEDS        4.00        
   -1
11768-Hull16-C001_1.ASC
23/09/13
11:38:47.00
23/09/13
12:05:54.00
uco
Sample 001 By uco Date Wednesday, September 13 2023
450.000000
#HDR
-1
-1
#GR
cm-1
%T
1.0
0.0
4000.000000
-1.000000
3551
8
98.594251
78.104148
#DATA
4000.000000	98.368176
3999.000000	98.368270
3998.000000	98.373649
3997.000000	98.380575
3996.000000	98.351831
3995.000000	98.350817
3994.000000	98.353298
3993.000000	98.360600
3992.000000	98.370935
3991.000000	98.380766
3990.000000	98.386703
3989.000000	98.387187
3988.000000	98.382449
3987.000000	98.373847
3986.000000	98.363718
3985.000000	98.355008
3984.000000	98.349853
3983.000000	98.348136
3982.000000	98.347577
3981.000000	98.345862
3980.000000	98.342910
3979.000000	98.340914
3978.000000	98.341723
3977.000000	98.344388
3976.000000	98.345605
3975.000000	98.342859
3974.000000	98.337237
3973.000000	98.332777
3972.000000	98.332962
3971.000000	98.337776
3970.000000	98.344385
3969.000000	98.349728
3968.000000	98.352140
3967.000000	98.351696
3966.000000	98.349729
3965.000000	98.348320
3964.000000	98.349186
3963.000000	98.352177
3962.000000	98.354930
3961.000000	98.354520
3960.000000	98.350077
3959.000000	98.342918
3958.000000	98.334947
3957.000000	98.327238
3956.000000	98.319417
3955.000000	98.310945
3954.000000	98.302699
3953.000000	98.297635
3952.000000	98.299355
3951.000000	98.309366
3950.000000	98.325508
3949.000000	98.341696
3948.000000	98.350874
3947.000000	98.349574
3946.000000	98.339093
3945.000000	98.324424
3944.000000	98.312132
3943.000000	98.306756
3942.000000	98.308506
3941.000000	98.313457
3940.000000	98.316609
3939.000000	98.315089
3938.000000	98.310202
3937.000000	98.306546
3936.000000	98.307814
3935.000000	98.314361
3934.000000	98.323617
3933.000000	98.331474
3932.000000	98.334575
3931.000000	98.331993
3930.000000	98.325722
3929.000000	98.318100
3928.000000	98.310377
3927.000000	98.305087
3926.000000	98.305201
3925.000000	98.310569
3924.000000	98.316924
3923.000000	98.320369
3922.000000	98.321151
3921.000000	98.322835
3920.000000	98.328718
3919.000000	98.338518
3918.000000	98.347055
3917.000000	98.348302
3916.000000	98.341408
3915.000000	98.330611
3914.000000	98.320791
3913.000000	98.314053
3912.000000	98.310281
3911.000000	98.307016
3910.000000	98.301230
3909.000000	98.291391
3908.000000	98.278582
3907.000000	98.268117
3906.000000	98.267943
3905.000000	98.283189
3904.000000	98.308570
3903.000000	98.329157
3902.000000	98.334060
3901.000000	98.325344
3900.000000	98.312574
3899.000000	98.304846
3898.000000	98.304277
3897.000000	98.306248
3896.000000	98.306092
3895.000000	98.302870
3894.000000	98.300431
3893.000000	98.303460
3892.000000	98.311098
3891.000000	98.315960
3890.000000	98.313737
3889.000000	98.305897
3888.000000	98.296014
3887.000000	98.288612
3886.000000	98.286172
3885.000000	98.286888
3884.000000	98.287306
3883.000000	98.285550
3882.000000	98.283075
3881.000000	98.282250
3880.000000	98.281617
3879.000000	98.278088
3878.000000	98.269951
3877.000000	98.257345
3876.000000	98.243525
3875.000000	98.234799
3874.000000	98.236659
3873.000000	98.249397
3872.000000	98.268912
3871.000000	98.288989
3870.000000	98.302450
3869.000000	98.306383
3868.000000	98.304522
3867.000000	98.300382
3866.000000	98.295388
3865.000000	98.293187
3864.000000	98.297568
3863.000000	98.307733
3862.000000	98.319595
3861.000000	98.327803
3860.000000	98.326846
3859.000000	98.314669
3858.000000	98.293730
3857.000000	98.270767
3856.000000	98.254696
3855.000000	98.253037
3854.000000	98.270319
3853.000000	98.289663
3852.000000	98.296760
3851.000000	98.300374
3850.000000	98.306765
3849.000000	98.312067
3848.000000	98.313103
3847.000000	98.308390
3846.000000	98.299085
3845.000000	98.288477
3844.000000	98.279670
3843.000000	98.274499
3842.000000	98.274659
3841.000000	98.279441
3840.000000	98.285758
3839.000000	98.288667
3838.000000	98.283810
3837.000000	98.273935
3836.000000	98.266222
3835.000000	98.265063
3834.000000	98.270399
3833.000000	98.278635
3832.000000	98.283979
3831.000000	98.283226
3830.000000	98.277949
3829.000000	98.273593
3828.000000	98.274723
3827.000000	98.281234
3826.000000	98.289955
3825.000000	98.297232
3824.000000	98.300623
3823.000000	98.298145
3822.000000	98.291651
3821.000000	98.284867
3820.000000	98.279246
3819.000000	98.276786
3818.000000	98.278916
3817.000000	98.285955
3816.000000	98.293886
3815.000000	98.298487
3814.000000	98.300016
3813.000000	98.299869
3812.000000	98.298496
3811.000000	98.295646
3810.000000	98.292499
3809.000000	98.291238
3808.000000	98.292361
3807.000000	98.292900
3806.000000	98.291001
3805.000000	98.288074
3804.000000	98.286317
3803.000000	98.284280
3802.000000	98.278984
3801.000000	98.270446
3800.000000	98.267100
3799.000000	98.273026
3798.000000	98.283760
3797.000000	98.292537
3796.000000	98.295582
3795.000000	98.294494
3794.000000	98.293232
3793.000000	98.294474
3792.000000	98.297769
3791.000000	98.300201
3790.000000	98.298975
3789.000000	98.293691
3788.000000	98.285859
3787.000000	98.278303
3786.000000	98.274010
3785.000000	98.274275
3784.000000	98.277615
3783.000000	98.280644
3782.000000	98.280636
3781.000000	98.277993
3780.000000	98.276022
3779.000000	98.276262
3778.000000	98.277888
3777.000000	98.279689
3776.000000	98.280907
3775.000000	98.281140
3774.000000	98.281701
3773.000000	98.285449
3772.000000	98.293590
3771.000000	98.303172
3770.000000	98.308697
3769.000000	98.308043
3768.000000	98.304287
3767.000000	98.301714
3766.000000	98.301076
3765.000000	98.300162
3764.000000	98.297549
3763.000000	98.293641
3762.000000	98.289786
3761.000000	98.287957
3760.000000	98.289893
3759.000000	98.292906
3758.000000	98.293744
3757.000000	98.294705
3756.000000	98.299999
3755.000000	98.310375
3754.000000	98.324654
3753.000000	98.342865
3752.000000	98.363634
3751.000000	98.378208
3750.000000	98.378134
3749.000000	98.369154
3748.000000	98.358691
3747.000000	98.346457
3746.000000	98.329924
3745.000000	98.310577
3744.000000	98.296553
3743.000000	98.300081
3742.000000	98.321138
3741.000000	98.348843
3740.000000	98.372094
3739.000000	98.384067
3738.000000	98.381948
3737.000000	98.371070
3736.000000	98.361234
3735.000000	98.359452
3734.000000	98.368046
3733.000000	98.381004
3732.000000	98.387196
3731.000000	98.381939
3730.000000	98.370568
3729.000000	98.361447
3728.000000	98.359092
3727.000000	98.362747
3726.000000	98.367367
3725.000000	98.367993
3724.000000	98.363231
3723.000000	98.356099
3722.000000	98.352010
3721.000000	98.352669
3720.000000	98.356142
3719.000000	98.358801
3718.000000	98.358131
3717.000000	98.354589
3716.000000	98.350387
3715.000000	98.347398
3714.000000	98.344616
3713.000000	98.338326
3712.000000	98.326256
3711.000000	98.311712
3710.000000	98.304556
3709.000000	98.312848
3708.000000	98.332550
3707.000000	98.352510
3706.000000	98.364857
3705.000000	98.368498
3704.000000	98.368335
3703.000000	98.370678
3702.000000	98.376483
3701.000000	98.379896
3700.000000	98.375954
3699.000000	98.365962
3698.000000	98.354025
3697.000000	98.342910
3696.000000	98.332360
3695.000000	98.319125
3694.000000	98.300444
3693.000000	98.279134
3692.000000	98.266567
3691.000000	98.276712
3690.000000	98.309619
3689.000000	98.341571
3688.000000	98.350459
3687.000000	98.341548
3686.000000	98.330419
3685.000000	98.324774
3684.000000	98.324629
3683.000000	98.325643
3682.000000	98.323065
3681.000000	98.315436
3680.000000	98.304740
3679.000000	98.294755
3678.000000	98.288939
3677.000000	98.287136
3676.000000	98.285656
3675.000000	98.279997
3674.000000	98.277190
3673.000000	98.281839
3672.000000	98.288444
3671.000000	98.287780
3670.000000	98.276363
3669.000000	98.262412
3668.000000	98.258516
3667.000000	98.264939
3666.000000	98.273650
3665.000000	98.278423
3664.000000	98.278092
3663.000000	98.273986
3662.000000	98.268280
3661.000000	98.263206
3660.000000	98.259486
3659.000000	98.257195
3658.000000	98.256444
3657.000000	98.256143
3656.000000	98.251989
3655.000000	98.240372
3654.000000	98.222593
3653.000000	98.203245
3652.000000	98.191566
3651.000000	98.201818
3650.000000	98.236213
3649.000000	98.262596
3648.000000	98.252209
3647.000000	98.222083
3646.000000	98.199926
3645.000000	98.192147
3644.000000	98.191950
3643.000000	98.191146
3642.000000	98.185513
3641.000000	98.175794
3640.000000	98.164237
3639.000000	98.152154
3638.000000	98.140605
3637.000000	98.131048
3636.000000	98.124523
3635.000000	98.121161
3634.000000	98.121414
3633.000000	98.125797
3632.000000	98.133558
3631.000000	98.142728
3630.000000	98.151467
3629.000000	98.153740
3628.000000	98.144328
3627.000000	98.132594
3626.000000	98.125313
3625.000000	98.120297
3624.000000	98.112982
3623.000000	98.101458
3622.000000	98.086929
3621.000000	98.072438
3620.000000	98.059551
3619.000000	98.046599
3618.000000	98.032556
3617.000000	98.020618
3616.000000	98.012438
3615.000000	98.005874
3614.000000	97.998804
3613.000000	97.991663
3612.000000	97.987332
3611.000000	97.986575
3610.000000	97.985418
3609.000000	97.978774
3608.000000	97.966700
3607.000000	97.955055
3606.000000	97.949162
3605.000000	97.948075
3604.000000	97.945651
3603.000000	97.937518
3602.000000	97.924238
3601.000000	97.909654
3600.000000	97.897582
3599.000000	97.888966
3598.000000	97.880656
3597.000000	97.868481
3596.000000	97.849927
3595.000000	97.825698
3594.000000	97.801352
3593.000000	97.783541
3592.000000	97.774387
3591.000000	97.770030
3590.000000	97.765845
3589.000000	97.760286
3588.000000	97.751367
3587.000000	97.734036
3586.000000	97.712226
3585.000000	97.695329
3584.000000	97.685113
3583.000000	97.677886
3582.000000	97.670801
3581.000000	97.662431
3580.000000	97.651636
3579.000000	97.637331
3578.000000	97.619914
3577.000000	97.601555
3576.000000	97.584973
3575.000000	97.571518
3574.000000	97.561127
3573.000000	97.552636
3572.000000	97.542595
3571.000000	97.526900
3570.000000	97.505650
3569.000000	97.487030
3568.000000	97.479712
3567.000000	97.479564
3566.000000	97.476466
3565.000000	97.471531
3564.000000	97.467596
3563.000000	97.461525
3562.000000	97.450783
3561.000000	97.437703
3560.000000	97.426285
3559.000000	97.417678
3558.000000	97.409363
3557.000000	97.399045
3556.000000	97.387529
3555.000000	97.377413
3554.000000	97.369439
3553.000000	97.361182
3552.000000	97.349339
3551.000000	97.333788
3550.000000	97.318189
3549.000000	97.307123
3548.000000	97.303303
3547.000000	97.304357
3546.000000	97.302212
3545.000000	97.290040
3544.000000	97.269523
3543.000000	97.247501
3542.000000	97.229066
3541.000000	97.214378
3540.000000	97.200257
3539.000000	97.184131
3538.000000	97.166180
3537.000000	97.148494
3536.000000	97.131826
3535.000000	97.115477
3534.000000	97.099464
3533.000000	97.085307
3532.000000	97.074730
3531.000000	97.068235
3530.000000	97.065180
3529.000000	97.064259
3528.000000	97.063437
3527.000000	97.060591
3526.000000	97.054873
3525.000000	97.046195
3524.000000	97.033974
3523.000000	97.018019
3522.000000	97.000483
3521.000000	96.984655
3520.000000	96.971453
3519.000000	96.959260
3518.000000	96.946543
3517.000000	96.933544
3516.000000	96.921263
3515.000000	96.909857
3514.000000	96.899336
3513.000000	96.890441
3512.000000	96.884118
3511.000000	96.880458
3510.000000	96.878040
3509.000000	96.874068
3508.000000	96.865832
3507.000000	96.853441
3506.000000	96.840894
3505.000000	96.833656
3504.000000	96.832495
3503.000000	96.831204
3502.000000	96.823536
3501.000000	96.809935
3500.000000	96.794757
3499.000000	96.780323
3498.000000	96.766539
3497.000000	96.753471
3496.000000	96.742550
3495.000000	96.735183
3494.000000	96.731225
3493.000000	96.728630
3492.000000	96.724326
3491.000000	96.716353
3490.000000	96.705306
3489.000000	96.692663
3488.000000	96.678139
3487.000000	96.660719
3486.000000	96.642551
3485.000000	96.629316
3484.000000	96.625028
3483.000000	96.627213
3482.000000	96.628427
3481.000000	96.622851
3480.000000	96.610434
3479.000000	96.595030
3478.000000	96.580105
3477.000000	96.566831
3476.000000	96.554885
3475.000000	96.544152
3474.000000	96.535433
3473.000000	96.529040
3472.000000	96.523029
3471.000000	96.514400
3470.000000	96.502805
3469.000000	96.491370
3468.000000	96.482989
3467.000000	96.476873
3466.000000	96.469627
3465.000000	96.458956
3464.000000	96.445136
3463.000000	96.429835
3462.000000	96.414852
3461.000000	96.401291
3460.000000	96.388648
3459.000000	96.374847
3458.000000	96.358411
3457.000000	96.341097
3456.000000	96.327168
3455.000000	96.320066
3454.000000	96.319667
3453.000000	96.322223
3452.000000	96.322664
3451.000000	96.317355
3450.000000	96.306280
3449.000000	96.292750
3448.000000	96.280511
3447.000000	96.270913
3446.000000	96.263149
3445.000000	96.255650
3444.000000	96.246394
3443.000000	96.233528
3442.000000	96.217258
3441.000000	96.200539
3440.000000	96.186288
3439.000000	96.174614
3438.000000	96.163898
3437.000000	96.153811
3436.000000	96.145133
3435.000000	96.137329
3434.000000	96.128223
3433.000000	96.116664
3432.000000	96.104729
3431.000000	96.096050
3430.000000	96.092625
3429.000000	96.092764
3428.000000	96.091771
3427.000000	96.085210
3426.000000	96.072185
3425.000000	96.055462
3424.000000	96.038199
3423.000000	96.021646
3422.000000	96.006233
3421.000000	95.992826
3420.000000	95.981202
3419.000000	95.968878
3418.000000	95.953966
3417.000000	95.938477
3416.000000	95.926775
3415.000000	95.920590
3414.000000	95.916975
3413.000000	95.911358
3412.000000	95.901401
3411.000000	95.887938
3410.000000	95.873446
3409.000000	95.859779
3408.000000	95.846572
3407.000000	95.831886
3406.000000	95.814726
3405.000000	95.796601
3404.000000	95.779780
3403.000000	95.764666
3402.000000	95.749610
3401.000000	95.732719
3400.000000	95.713470
3399.000000	95.693260
3398.000000	95.675160
3397.000000	95.662028
3396.000000	95.653763
3395.000000	95.646972
3394.000000	95.638253
3393.000000	95.627268
3392.000000	95.616089
3391.000000	95.606431
3390.000000	95.598531
3389.000000	95.592408
3388.000000	95.588925
3387.000000	95.589109
3386.000000	95.592450
3385.000000	95.595984
3384.000000	95.595601
3383.000000	95.589300
3382.000000	95.579072
3381.000000	95.568602
3380.000000	95.559324
3379.000000	95.549584
3378.000000	95.537627
3377.000000	95.523799
3376.000000	95.509675
3375.000000	95.496452
3374.000000	95.484585
3373.000000	95.473638
3372.000000	95.461962
3371.000000	95.447830
3370.000000	95.431587
3369.000000	95.415627
3368.000000	95.401751
3367.000000	95.389968
3366.000000	95.380376
3365.000000	95.374265
3364.000000	95.371901
3363.000000	95.370574
3362.000000	95.366290
3361.000000	95.356664
3360.000000	95.341416
3359.000000	95.321561
3358.000000	95.299709
3357.000000	95.280163
3356.000000	95.266558
3355.000000	95.258834
3354.000000	95.253244
3353.000000	95.245189
3352.000000	95.231784
3351.000000	95.212845
3350.000000	95.190789
3349.000000	95.169162
3348.000000	95.150173
3347.000000	95.133796
3346.000000	95.119332
3345.000000	95.106830
3344.000000	95.096101
3343.000000	95.085201
3342.000000	95.071640
3341.000000	95.055067
3340.000000	95.037774
3339.000000	95.022388
3338.000000	95.009404
3337.000000	94.996928
3336.000000	94.982819
3335.000000	94.967342
3334.000000	94.953401
3333.000000	94.943321
3332.000000	94.935590
3331.000000	94.925945
3330.000000	94.911683
3329.000000	94.893821
3328.000000	94.875165
3327.000000	94.858075
3326.000000	94.844204
3325.000000	94.834035
3324.000000	94.825195
3323.000000	94.812959
3322.000000	94.794576
3321.000000	94.772239
3320.000000	94.750734
3319.000000	94.733333
3318.000000	94.720870
3317.000000	94.712927
3316.000000	94.707715
3315.000000	94.701715
3314.000000	94.692179
3313.000000	94.680350
3312.000000	94.670343
3311.000000	94.664543
3310.000000	94.661273
3309.000000	94.657064
3308.000000	94.650159
3307.000000	94.641438
3306.000000	94.632784
3305.000000	94.624989
3304.000000	94.616841
3303.000000	94.606328
3302.000000	94.593080
3301.000000	94.579358
3300.000000	94.568049
3299.000000	94.560085
3298.000000	94.554251
3297.000000	94.548632
3296.000000	94.541727
3295.000000	94.532768
3294.000000	94.521945
3293.000000	94.510291
3292.000000	94.498824
3291.000000	94.488263
3290.000000	94.479790
3289.000000	94.474946
3288.000000	94.473796
3287.000000	94.473907
3286.000000	94.472403
3285.000000	94.468864
3284.000000	94.465580
3283.000000	94.465153
3282.000000	94.468190
3281.000000	94.473068
3280.000000	94.477563
3279.000000	94.480986
3278.000000	94.484791
3277.000000	94.490576
3276.000000	94.497707
3275.000000	94.503926
3274.000000	94.508186
3273.000000	94.511438
3272.000000	94.514730
3271.000000	94.518363
3270.000000	94.523214
3269.000000	94.530400
3268.000000	94.538585
3267.000000	94.543848
3266.000000	94.544267
3265.000000	94.543425
3264.000000	94.547395
3263.000000	94.559060
3262.000000	94.576768
3261.000000	94.597256
3260.000000	94.617719
3259.000000	94.635548
3258.000000	94.648449
3257.000000	94.656012
3256.000000	94.660440
3255.000000	94.665335
3254.000000	94.673613
3253.000000	94.686155
3252.000000	94.702017
3251.000000	94.719939
3250.000000	94.739601
3249.000000	94.760427
3248.000000	94.779369
3247.000000	94.791748
3246.000000	94.795460
3245.000000	94.793625
3244.000000	94.792105
3243.000000	94.794908
3242.000000	94.802577
3241.000000	94.813508
3240.000000	94.825476
3239.000000	94.836800
3238.000000	94.847322
3237.000000	94.857970
3236.000000	94.868704
3235.000000	94.877978
3234.000000	94.884965
3233.000000	94.890975
3232.000000	94.897508
3231.000000	94.903928
3230.000000	94.908848
3229.000000	94.912945
3228.000000	94.918448
3227.000000	94.926060
3226.000000	94.934063
3225.000000	94.940781
3224.000000	94.946746
3223.000000	94.953823
3222.000000	94.962666
3221.000000	94.971407
3220.000000	94.976951
3219.000000	94.978072
3218.000000	94.977080
3217.000000	94.977637
3216.000000	94.981056
3215.000000	94.985810
3214.000000	94.990860
3213.000000	94.997604
3212.000000	95.007416
3211.000000	95.018759
3210.000000	95.028564
3209.000000	95.035673
3208.000000	95.041111
3207.000000	95.045748
3206.000000	95.049699
3205.000000	95.053977
3204.000000	95.060668
3203.000000	95.070743
3202.000000	95.082829
3201.000000	95.094454
3200.000000	95.103397
3199.000000	95.107975
3198.000000	95.107738
3197.000000	95.104943
3196.000000	95.104196
3195.000000	95.109148
3194.000000	95.119469
3193.000000	95.131472
3192.000000	95.141624
3191.000000	95.149414
3190.000000	95.157008
3189.000000	95.166452
3188.000000	95.177530
3187.000000	95.188599
3186.000000	95.199268
3185.000000	95.211361
3184.000000	95.226635
3183.000000	95.244302
3182.000000	95.261679
3181.000000	95.277034
3180.000000	95.290891
3179.000000	95.304590
3178.000000	95.318551
3177.000000	95.332249
3176.000000	95.345167
3175.000000	95.357375
3174.000000	95.369258
3173.000000	95.380845
3172.000000	95.391214
3171.000000	95.398898
3170.000000	95.403488
3169.000000	95.406630
3168.000000	95.410964
3167.000000	95.418007
3166.000000	95.427619
3165.000000	95.439272
3164.000000	95.452902
3163.000000	95.468371
3162.000000	95.484861
3161.000000	95.501331
3160.000000	95.516978
3159.000000	95.530907
3158.000000	95.542114
3157.000000	95.550593
3156.000000	95.558235
3155.000000	95.567871
3154.000000	95.581206
3153.000000	95.597684
3152.000000	95.615028
3151.000000	95.630579
3150.000000	95.642510
3149.000000	95.650758
3148.000000	95.657348
3147.000000	95.665468
3146.000000	95.677236
3145.000000	95.691799
3144.000000	95.705745
3143.000000	95.715960
3142.000000	95.722037
3141.000000	95.725825
3140.000000	95.729132
3139.000000	95.732687
3138.000000	95.737114
3137.000000	95.743718
3136.000000	95.753710
3135.000000	95.766965
3134.000000	95.781800
3133.000000	95.795608
3132.000000	95.805795
3131.000000	95.810997
3130.000000	95.812361
3129.000000	95.813472
3128.000000	95.818136
3127.000000	95.827396
3126.000000	95.838817
3125.000000	95.848889
3124.000000	95.855968
3123.000000	95.860942
3122.000000	95.865471
3121.000000	95.869966
3120.000000	95.873179
3119.000000	95.873597
3118.000000	95.871148
3117.000000	95.867631
3116.000000	95.865627
3115.000000	95.867056
3114.000000	95.872226
3113.000000	95.879459
3112.000000	95.885584
3111.000000	95.887691
3110.000000	95.885356
3109.000000	95.880921
3108.000000	95.877108
3107.000000	95.874625
3106.000000	95.872875
3105.000000	95.872210
3104.000000	95.874041
3103.000000	95.878496
3102.000000	95.883263
3101.000000	95.885519
3100.000000	95.884409
3099.000000	95.881251
3098.000000	95.877834
3097.000000	95.874873
3096.000000	95.871689
3095.000000	95.867066
3094.000000	95.860749
3093.000000	95.854210
3092.000000	95.849464
3091.000000	95.846968
3090.000000	95.844982
3089.000000	95.841276
3088.000000	95.835533
3087.000000	95.829970
3086.000000	95.827695
3085.000000	95.830144
3084.000000	95.835752
3083.000000	95.841174
3082.000000	95.843966
3081.000000	95.844050
3080.000000	95.842404
3079.000000	95.839077
3078.000000	95.833447
3077.000000	95.826455
3076.000000	95.821366
3075.000000	95.821336
3074.000000	95.826280
3073.000000	95.832708
3072.000000	95.837023
3071.000000	95.838649
3070.000000	95.839743
3069.000000	95.841973
3068.000000	95.844270
3067.000000	95.844316
3066.000000	95.841803
3065.000000	95.839286
3064.000000	95.839644
3063.000000	95.843710
3062.000000	95.850721
3061.000000	95.859978
3060.000000	95.870999
3059.000000	95.882804
3058.000000	95.894076
3057.000000	95.904090
3056.000000	95.912993
3055.000000	95.921303
3054.000000	95.929600
3053.000000	95.938204
3052.000000	95.946799
3051.000000	95.954685
3050.000000	95.961876
3049.000000	95.969548
3048.000000	95.978737
3047.000000	95.988930
3046.000000	95.998563
3045.000000	96.006691
3044.000000	96.013883
3043.000000	96.021742
3042.000000	96.031851
3041.000000	96.044591
3040.000000	96.058412
3039.000000	96.070796
3038.000000	96.080485
3037.000000	96.088627
3036.000000	96.097455
3035.000000	96.108278
3034.000000	96.120822
3033.000000	96.133563
3032.000000	96.143991
3031.000000	96.149643
3030.000000	96.150342
3029.000000	96.149311
3028.000000	96.151052
3027.000000	96.157606
3026.000000	96.167228
3025.000000	96.176469
3024.000000	96.183003
3023.000000	96.186772
3022.000000	96.189557
3021.000000	96.193848
3020.000000	96.201091
3019.000000	96.210188
3018.000000	96.218048
3017.000000	96.222068
3016.000000	96.221936
3015.000000	96.219134
3014.000000	96.215290
3013.000000	96.211324
3012.000000	96.207586
3011.000000	96.204118
3010.000000	96.200777
3009.000000	96.197457
3008.000000	96.194531
3007.000000	96.192939
3006.000000	96.193606
3005.000000	96.196476
3004.000000	96.200130
3003.000000	96.202761
3002.000000	96.203691
3001.000000	96.203815
3000.000000	96.204618
2999.000000	96.207090
2998.000000	96.211320
2997.000000	96.216247
2996.000000	96.219351
2995.000000	96.217714
2994.000000	96.210514
2993.000000	96.200186
2992.000000	96.190058
2991.000000	96.180598
2990.000000	96.168749
2989.000000	96.151110
2988.000000	96.127551
2987.000000	96.101664
2986.000000	96.077922
2985.000000	96.058249
2984.000000	96.040782
2983.000000	96.021540
2982.000000	95.997416
2981.000000	95.967924
2980.000000	95.934796
2979.000000	95.900436
2978.000000	95.866553
2977.000000	95.833228
2976.000000	95.798500
2975.000000	95.759380
2974.000000	95.713924
2973.000000	95.662291
2972.000000	95.605713
2971.000000	95.544809
2970.000000	95.479266
2969.000000	95.408306
2968.000000	95.331001
2967.000000	95.247059
2966.000000	95.158330
2965.000000	95.069069
2964.000000	94.983162
2963.000000	94.901051
2962.000000	94.820285
2961.000000	94.739243
2960.000000	94.659537
2959.000000	94.584843
2958.000000	94.519165
2957.000000	94.466790
2956.000000	94.432674
2955.000000	94.420618
2954.000000	94.430149
2953.000000	94.455456
2952.000000	94.487464
2951.000000	94.517690
2950.000000	94.540321
2949.000000	94.551762
2948.000000	94.548839
2947.000000	94.528492
2946.000000	94.489473
2945.000000	94.433389
2944.000000	94.363474
2943.000000	94.282013
2942.000000	94.189524
2941.000000	94.085641
2940.000000	93.970015
2939.000000	93.842343
2938.000000	93.702197
2937.000000	93.549407
2936.000000	93.384057
2935.000000	93.206341
2934.000000	93.017125
2933.000000	92.818458
2932.000000	92.612685
2931.000000	92.400266
2930.000000	92.178828
2929.000000	91.944755
2928.000000	91.695691
2927.000000	91.432441
2926.000000	91.159204
2925.000000	90.882305
2924.000000	90.607804
2923.000000	90.340334
2922.000000	90.085225
2921.000000	89.851801
2920.000000	89.655210
2919.000000	89.514809
2918.000000	89.452011
2917.000000	89.488473
2916.000000	89.641113
2915.000000	89.913855
2914.000000	90.289280
2913.000000	90.728245
2912.000000	91.180403
2911.000000	91.602077
2910.000000	91.969551
2909.000000	92.279669
2908.000000	92.540506
2907.000000	92.761257
2906.000000	92.948953
2905.000000	93.109337
2904.000000	93.247483
2903.000000	93.367729
2902.000000	93.472676
2901.000000	93.565230
2900.000000	93.648984
2899.000000	93.727820
2898.000000	93.805635
2897.000000	93.885383
2896.000000	93.967956
2895.000000	94.052019
2894.000000	94.135778
2893.000000	94.218440
2892.000000	94.299275
2891.000000	94.375884
2890.000000	94.445094
2889.000000	94.506007
2888.000000	94.561065
2887.000000	94.613280
2886.000000	94.662995
2885.000000	94.707772
2884.000000	94.744899
2883.000000	94.773517
2882.000000	94.794625
2881.000000	94.809648
2880.000000	94.818979
2879.000000	94.821882
2878.000000	94.817649
2877.000000	94.806443
2876.000000	94.788837
2875.000000	94.765601
2874.000000	94.739299
2873.000000	94.715284
2872.000000	94.699057
2871.000000	94.691999
2870.000000	94.690793
2869.000000	94.691160
2868.000000	94.690295
2867.000000	94.684677
2866.000000	94.667331
2865.000000	94.629651
2864.000000	94.565860
2863.000000	94.475214
2862.000000	94.360551
2861.000000	94.225974
2860.000000	94.075140
2859.000000	93.909184
2858.000000	93.725386
2857.000000	93.518605
2856.000000	93.284711
2855.000000	93.022668
2854.000000	92.735879
2853.000000	92.435211
2852.000000	92.145390
2851.000000	91.909951
2850.000000	91.784844
2849.000000	91.818975
2848.000000	92.029221
2847.000000	92.387500
2846.000000	92.831075
2845.000000	93.290057
2844.000000	93.712463
2843.000000	94.074093
2842.000000	94.373261
2841.000000	94.619447
2840.000000	94.824943
2839.000000	94.999745
2838.000000	95.149709
2837.000000	95.277328
2836.000000	95.383631
2835.000000	95.469879
2834.000000	95.538829
2833.000000	95.595173
2832.000000	95.644520
2831.000000	95.691121
2830.000000	95.736358
2829.000000	95.779845
2828.000000	95.821131
2827.000000	95.859731
2826.000000	95.894734
2825.000000	95.926001
2824.000000	95.955570
2823.000000	95.986043
2822.000000	96.017257
2821.000000	96.045967
2820.000000	96.069424
2819.000000	96.088348
2818.000000	96.105756
2817.000000	96.123874
2816.000000	96.142893
2815.000000	96.161854
2814.000000	96.179649
2813.000000	96.195357
2812.000000	96.208590
2811.000000	96.219948
2810.000000	96.230798
2809.000000	96.242215
2808.000000	96.253996
2807.000000	96.264847
2806.000000	96.273817
2805.000000	96.281596
2804.000000	96.290070
2803.000000	96.300490
2802.000000	96.312624
2801.000000	96.325848
2800.000000	96.339984
2799.000000	96.354166
2798.000000	96.365790
2797.000000	96.372366
2796.000000	96.374646
2795.000000	96.376645
2794.000000	96.382137
2793.000000	96.391905
2792.000000	96.404399
2791.000000	96.417698
2790.000000	96.430191
2789.000000	96.440516
2788.000000	96.448220
2787.000000	96.454358
2786.000000	96.460735
2785.000000	96.468474
2784.000000	96.477483
2783.000000	96.486936
2782.000000	96.495927
2781.000000	96.503915
2780.000000	96.510901
2779.000000	96.517033
2778.000000	96.522145
2777.000000	96.526219
2776.000000	96.530303
2775.000000	96.536094
2774.000000	96.544043
2773.000000	96.552491
2772.000000	96.559357
2771.000000	96.564475
2770.000000	96.569644
2769.000000	96.576500
2768.000000	96.584812
2767.000000	96.592897
2766.000000	96.599438
2765.000000	96.604847
2764.000000	96.610870
2763.000000	96.618777
2762.000000	96.627916
2761.000000	96.636194
2760.000000	96.641872
2759.000000	96.644735
2758.000000	96.645791
2757.000000	96.646405
2756.000000	96.647791
2755.000000	96.650703
2754.000000	96.655209
2753.000000	96.660882
2752.000000	96.667296
2751.000000	96.674128
2750.000000	96.680876
2749.000000	96.686971
2748.000000	96.692374
2747.000000	96.697686
2746.000000	96.703291
2745.000000	96.708543
2744.000000	96.712153
2743.000000	96.713531
2742.000000	96.713739
2741.000000	96.715043
2740.000000	96.719221
2739.000000	96.725992
2738.000000	96.733092
2737.000000	96.738113
2736.000000	96.740366
2735.000000	96.740977
2734.000000	96.741451
2733.000000	96.742510
2732.000000	96.744265
2731.000000	96.747117
2730.000000	96.751999
2729.000000	96.759424
2728.000000	96.768272
2727.000000	96.775987
2726.000000	96.780586
2725.000000	96.782565
2724.000000	96.784464
2723.000000	96.788538
2722.000000	96.795187
2721.000000	96.803245
2720.000000	96.810745
2719.000000	96.815354
2718.000000	96.815615
2717.000000	96.812817
2716.000000	96.810702
2715.000000	96.811996
2714.000000	96.815575
2713.000000	96.818111
2712.000000	96.818249
2711.000000	96.818051
2710.000000	96.820385
2709.000000	96.826016
2708.000000	96.833507
2707.000000	96.841000
2706.000000	96.847495
2705.000000	96.852818
2704.000000	96.857056
2703.000000	96.860294
2702.000000	96.862778
2701.000000	96.864983
2700.000000	96.867104
2699.000000	96.868588
2698.000000	96.868765
2697.000000	96.868017
2696.000000	96.867760
2695.000000	96.869197
2694.000000	96.872628
2693.000000	96.877656
2692.000000	96.882854
2691.000000	96.885341
2690.000000	96.882736
2689.000000	96.876504
2688.000000	96.871768
2687.000000	96.872266
2686.000000	96.876420
2685.000000	96.879566
2684.000000	96.878820
2683.000000	96.874414
2682.000000	96.867922
2681.000000	96.861713
2680.000000	96.859251
2679.000000	96.862787
2678.000000	96.870061
2677.000000	96.875536
2676.000000	96.876110
2675.000000	96.874377
2674.000000	96.875546
2673.000000	96.882104
2672.000000	96.891806
2671.000000	96.899748
2670.000000	96.901965
2669.000000	96.898291
2668.000000	96.892553
2667.000000	96.889215
2666.000000	96.889205
2665.000000	96.889667
2664.000000	96.888049
2663.000000	96.885312
2662.000000	96.884375
2661.000000	96.886288
2660.000000	96.889060
2659.000000	96.890105
2658.000000	96.888967
2657.000000	96.887340
2656.000000	96.886855
2655.000000	96.887486
2654.000000	96.888454
2653.000000	96.890185
2652.000000	96.894163
2651.000000	96.900637
2650.000000	96.907751
2649.000000	96.913967
2648.000000	96.920318
2647.000000	96.928720
2646.000000	96.938631
2645.000000	96.947090
2644.000000	96.952087
2643.000000	96.954460
2642.000000	96.956444
2641.000000	96.959762
2640.000000	96.965248
2639.000000	96.972832
2638.000000	96.981209
2637.000000	96.988523
2636.000000	96.993904
2635.000000	96.997849
2634.000000	97.001199
2633.000000	97.004511
2632.000000	97.008124
2631.000000	97.011730
2630.000000	97.014210
2629.000000	97.015295
2628.000000	97.017100
2627.000000	97.022256
2626.000000	97.030252
2625.000000	97.037256
2624.000000	97.040260
2623.000000	97.040407
2622.000000	97.041840
2621.000000	97.048116
2620.000000	97.059659
2619.000000	97.073390
2618.000000	97.084532
2617.000000	97.089973
2616.000000	97.090600
2615.000000	97.090142
2614.000000	97.091991
2613.000000	97.097319
2612.000000	97.105074
2611.000000	97.112596
2610.000000	97.117420
2609.000000	97.120170
2608.000000	97.124767
2607.000000	97.133825
2606.000000	97.144608
2605.000000	97.151606
2604.000000	97.152443
2603.000000	97.149371
2602.000000	97.145976
2601.000000	97.144935
2600.000000	97.147864
2599.000000	97.153994
2598.000000	97.159194
2597.000000	97.159540
2596.000000	97.156187
2595.000000	97.154006
2594.000000	97.155593
2593.000000	97.159526
2592.000000	97.164274
2591.000000	97.169902
2590.000000	97.175390
2589.000000	97.178269
2588.000000	97.178641
2587.000000	97.180447
2586.000000	97.186777
2585.000000	97.196327
2584.000000	97.205838
2583.000000	97.213674
2582.000000	97.219574
2581.000000	97.223443
2580.000000	97.226219
2579.000000	97.229843
2578.000000	97.234403
2577.000000	97.236903
2576.000000	97.234865
2575.000000	97.230249
2574.000000	97.228192
2573.000000	97.232008
2572.000000	97.239919
2571.000000	97.246490
2570.000000	97.247677
2569.000000	97.245332
2568.000000	97.245827
2567.000000	97.252616
2566.000000	97.261367
2565.000000	97.264865
2564.000000	97.262080
2563.000000	97.259032
2562.000000	97.260448
2561.000000	97.263819
2560.000000	97.262835
2559.000000	97.254581
2558.000000	97.242365
2557.000000	97.233282
2556.000000	97.233327
2555.000000	97.242700
2554.000000	97.255040
2553.000000	97.262699
2552.000000	97.263339
2551.000000	97.260619
2550.000000	97.259391
2549.000000	97.262134
2548.000000	97.268963
2547.000000	97.278018
2546.000000	97.285774
2545.000000	97.289539
2544.000000	97.290006
2543.000000	97.289694
2542.000000	97.289567
2541.000000	97.289282
2540.000000	97.289424
2539.000000	97.290206
2538.000000	97.289011
2537.000000	97.283073
2536.000000	97.274523
2535.000000	97.268786
2534.000000	97.267530
2533.000000	97.266923
2532.000000	97.263349
2531.000000	97.257208
2530.000000	97.250123
2529.000000	97.242433
2528.000000	97.235197
2527.000000	97.231029
2526.000000	97.230075
2525.000000	97.227251
2524.000000	97.216463
2523.000000	97.197430
2522.000000	97.177231
2521.000000	97.164873
2520.000000	97.163978
2519.000000	97.170101
2518.000000	97.175617
2517.000000	97.177892
2516.000000	97.180990
2515.000000	97.188096
2514.000000	97.195092
2513.000000	97.195204
2512.000000	97.188604
2511.000000	97.183191
2510.000000	97.185766
2509.000000	97.195765
2508.000000	97.207655
2507.000000	97.216199
2506.000000	97.219212
2505.000000	97.218620
2504.000000	97.219836
2503.000000	97.227276
2502.000000	97.239509
2501.000000	97.250650
2500.000000	97.256534
2499.000000	97.257573
2498.000000	97.256315
2497.000000	97.255298
2496.000000	97.257273
2495.000000	97.264223
2494.000000	97.275123
2493.000000	97.286698
2492.000000	97.296742
2491.000000	97.305133
2490.000000	97.312217
2489.000000	97.318591
2488.000000	97.326040
2487.000000	97.336186
2486.000000	97.348394
2485.000000	97.360846
2484.000000	97.372618
2483.000000	97.382319
2482.000000	97.386501
2481.000000	97.383197
2480.000000	97.376477
2479.000000	97.373605
2478.000000	97.377429
2477.000000	97.384582
2476.000000	97.390940
2475.000000	97.395990
2474.000000	97.401539
2473.000000	97.408508
2472.000000	97.415439
2471.000000	97.418924
2470.000000	97.416688
2469.000000	97.411684
2468.000000	97.410782
2467.000000	97.416988
2466.000000	97.425290
2465.000000	97.428861
2464.000000	97.426676
2463.000000	97.421671
2462.000000	97.415140
2461.000000	97.408051
2460.000000	97.404674
2459.000000	97.408350
2458.000000	97.415052
2457.000000	97.417409
2456.000000	97.414747
2455.000000	97.413332
2454.000000	97.416791
2453.000000	97.422522
2452.000000	97.428062
2451.000000	97.435005
2450.000000	97.444604
2449.000000	97.453994
2448.000000	97.458971
2447.000000	97.457868
2446.000000	97.452268
2445.000000	97.446422
2444.000000	97.445140
2443.000000	97.448958
2442.000000	97.452438
2441.000000	97.450821
2440.000000	97.446749
2439.000000	97.446230
2438.000000	97.450279
2437.000000	97.455831
2436.000000	97.462936
2435.000000	97.474261
2434.000000	97.487957
2433.000000	97.497868
2432.000000	97.501732
2431.000000	97.503610
2430.000000	97.507121
2429.000000	97.511267
2428.000000	97.513869
2427.000000	97.514632
2426.000000	97.513939
2425.000000	97.512302
2424.000000	97.511373
2423.000000	97.512256
2422.000000	97.513643
2421.000000	97.514906
2420.000000	97.518807
2419.000000	97.526474
2418.000000	97.532117
2417.000000	97.529042
2416.000000	97.519667
2415.000000	97.513233
2414.000000	97.514279
2413.000000	97.519465
2412.000000	97.525065
2411.000000	97.530774
2410.000000	97.535768
2409.000000	97.537664
2408.000000	97.536751
2407.000000	97.536026
2406.000000	97.536257
2405.000000	97.535847
2404.000000	97.535473
2403.000000	97.537491
2402.000000	97.540738
2401.000000	97.541477
2400.000000	97.539615
2399.000000	97.538590
2398.000000	97.539090
2397.000000	97.538460
2396.000000	97.536476
2395.000000	97.535840
2394.000000	97.536347
2393.000000	97.534429
2392.000000	97.529444
2391.000000	97.525442
2390.000000	97.525243
2389.000000	97.526973
2388.000000	97.527496
2387.000000	97.524390
2386.000000	97.516108
2385.000000	97.504436
2384.000000	97.496950
2383.000000	97.502247
2382.000000	97.520027
2381.000000	97.541557
2380.000000	97.558248
2379.000000	97.565439
2378.000000	97.560133
2377.000000	97.541624
2376.000000	97.515882
2375.000000	97.492468
2374.000000	97.477390
2373.000000	97.473010
2372.000000	97.482207
2371.000000	97.503205
2370.000000	97.523753
2369.000000	97.531883
2368.000000	97.528597
2367.000000	97.523727
2366.000000	97.521437
2365.000000	97.518682
2364.000000	97.514721
2363.000000	97.509263
2362.000000	97.497702
2361.000000	97.476752
2360.000000	97.448956
2359.000000	97.424091
2358.000000	97.414019
2357.000000	97.424845
2356.000000	97.445616
2355.000000	97.454406
2354.000000	97.454136
2353.000000	97.469505
2352.000000	97.502529
2351.000000	97.524087
2350.000000	97.513639
2349.000000	97.478799
2348.000000	97.442001
2347.000000	97.426068
2346.000000	97.430240
2345.000000	97.424731
2344.000000	97.392974
2343.000000	97.355301
2342.000000	97.341777
2341.000000	97.358701
2340.000000	97.384857
2339.000000	97.396754
2338.000000	97.392676
2337.000000	97.386494
2336.000000	97.388232
2335.000000	97.399179
2334.000000	97.420932
2333.000000	97.453427
2332.000000	97.483404
2331.000000	97.492301
2330.000000	97.472442
2329.000000	97.432709
2328.000000	97.383701
2327.000000	97.332631
2326.000000	97.287386
2325.000000	97.257238
2324.000000	97.249646
2323.000000	97.263373
2322.000000	97.287641
2321.000000	97.305413
2320.000000	97.305447
2319.000000	97.289595
2318.000000	97.268056
2317.000000	97.252709
2316.000000	97.252877
2315.000000	97.272490
2314.000000	97.303537
2313.000000	97.330780
2312.000000	97.345762
2311.000000	97.354247
2310.000000	97.365127
2309.000000	97.378833
2308.000000	97.391457
2307.000000	97.403196
2306.000000	97.416349
2305.000000	97.429183
2304.000000	97.439301
2303.000000	97.447670
2302.000000	97.454614
2301.000000	97.455903
2300.000000	97.449904
2299.000000	97.444156
2298.000000	97.446491
2297.000000	97.454789
2296.000000	97.460550
2295.000000	97.461830
2294.000000	97.463884
2293.000000	97.468669
2292.000000	97.470474
2291.000000	97.463346
2290.000000	97.449329
2289.000000	97.437321
2288.000000	97.435950
2287.000000	97.446021
2286.000000	97.459941
2285.000000	97.470123
2284.000000	97.479080
2283.000000	97.496141
2282.000000	97.524150
2281.000000	97.555125
2280.000000	97.581315
2279.000000	97.602745
2278.000000	97.620295
2277.000000	97.629918
2276.000000	97.629357
2275.000000	97.624640
2274.000000	97.623697
2273.000000	97.627896
2272.000000	97.633380
2271.000000	97.636258
2270.000000	97.634088
2269.000000	97.628142
2268.000000	97.625933
2267.000000	97.634164
2266.000000	97.647479
2265.000000	97.653313
2264.000000	97.650342
2263.000000	97.651685
2262.000000	97.665492
2261.000000	97.683037
2260.000000	97.691873
2259.000000	97.691760
2258.000000	97.692149
2257.000000	97.701331
2256.000000	97.721953
2255.000000	97.748092
2254.000000	97.763793
2253.000000	97.755729
2252.000000	97.731656
2251.000000	97.715682
2250.000000	97.720346
2249.000000	97.735477
2248.000000	97.746266
2247.000000	97.750189
2246.000000	97.751224
2245.000000	97.749792
2244.000000	97.746765
2243.000000	97.746024
2242.000000	97.746812
2241.000000	97.743092
2240.000000	97.734538
2239.000000	97.727196
2238.000000	97.720814
2237.000000	97.708882
2236.000000	97.693753
2235.000000	97.686597
2234.000000	97.689405
2233.000000	97.693404
2232.000000	97.697781
2231.000000	97.710641
2230.000000	97.726962
2229.000000	97.728317
2228.000000	97.714200
2227.000000	97.712301
2226.000000	97.744806
2225.000000	97.800704
2224.000000	97.850892
2223.000000	97.873726
2222.000000	97.858734
2221.000000	97.808636
2220.000000	97.750741
2219.000000	97.723697
2218.000000	97.736995
2217.000000	97.759560
2216.000000	97.759213
2215.000000	97.735039
2214.000000	97.700751
2213.000000	97.662051
2212.000000	97.628331
2211.000000	97.622675
2210.000000	97.655898
2209.000000	97.704772
2208.000000	97.736647
2207.000000	97.745032
2206.000000	97.744819
2205.000000	97.746339
2204.000000	97.751518
2203.000000	97.762246
2202.000000	97.774665
2201.000000	97.775460
2200.000000	97.759479
2199.000000	97.741675
2198.000000	97.739117
2197.000000	97.751243
2196.000000	97.767102
2195.000000	97.779564
2194.000000	97.783870
2193.000000	97.776779
2192.000000	97.765928
2191.000000	97.764002
2190.000000	97.767345
2189.000000	97.761026
2188.000000	97.752658
2187.000000	97.775730
2186.000000	97.844564
2185.000000	97.928262
2184.000000	97.985514
2183.000000	98.006244
2182.000000	98.003840
2181.000000	97.990567
2180.000000	97.979240
2179.000000	97.984926
2178.000000	98.004907
2177.000000	98.014478
2176.000000	97.998358
2175.000000	97.971020
2174.000000	97.956480
2173.000000	97.966212
2172.000000	98.002003
2171.000000	98.054072
2170.000000	98.088793
2169.000000	98.068645
2168.000000	98.000811
2167.000000	97.938547
2166.000000	97.917859
2165.000000	97.917933
2164.000000	97.899031
2163.000000	97.855781
2162.000000	97.816412
2161.000000	97.818085
2160.000000	97.896465
2159.000000	98.058608
2158.000000	98.244530
2157.000000	98.365972
2156.000000	98.401024
2155.000000	98.396725
2154.000000	98.385562
2153.000000	98.356594
2152.000000	98.301871
2151.000000	98.242198
2150.000000	98.199780
2149.000000	98.178941
2148.000000	98.179777
2147.000000	98.199873
2146.000000	98.217623
2145.000000	98.205311
2144.000000	98.166628
2143.000000	98.132912
2142.000000	98.118549
2141.000000	98.108199
2140.000000	98.090066
2139.000000	98.073066
2138.000000	98.066084
2137.000000	98.066719
2136.000000	98.073975
2135.000000	98.086696
2134.000000	98.088601
2133.000000	98.063880
2132.000000	98.028531
2131.000000	98.015854
2130.000000	98.028261
2129.000000	98.031706
2128.000000	98.002218
2127.000000	97.952640
2126.000000	97.907331
2125.000000	97.875322
2124.000000	97.858023
2123.000000	97.858984
2122.000000	97.871426
2121.000000	97.873377
2120.000000	97.850632
2119.000000	97.812845
2118.000000	97.776744
2117.000000	97.747150
2116.000000	97.724254
2115.000000	97.715981
2114.000000	97.729363
2113.000000	97.757338
2112.000000	97.784459
2111.000000	97.800008
2110.000000	97.799833
2109.000000	97.784853
2108.000000	97.764858
2107.000000	97.754445
2106.000000	97.758466
2105.000000	97.768553
2104.000000	97.776649
2103.000000	97.782418
2102.000000	97.785558
2101.000000	97.783151
2100.000000	97.778226
2099.000000	97.779746
2098.000000	97.791379
2097.000000	97.810196
2096.000000	97.835153
2095.000000	97.863216
2094.000000	97.879711
2093.000000	97.870719
2092.000000	97.844501
2091.000000	97.822611
2090.000000	97.811589
2089.000000	97.801787
2088.000000	97.791618
2087.000000	97.790125
2086.000000	97.794156
2085.000000	97.787419
2084.000000	97.766979
2083.000000	97.748449
2082.000000	97.739488
2081.000000	97.731524
2080.000000	97.724204
2079.000000	97.733107
2078.000000	97.762104
2077.000000	97.791144
2076.000000	97.805059
2075.000000	97.813627
2074.000000	97.830455
2073.000000	97.851014
2072.000000	97.863501
2071.000000	97.863953
2070.000000	97.851548
2069.000000	97.829294
2068.000000	97.817041
2067.000000	97.839463
2066.000000	97.890506
2065.000000	97.931481
2064.000000	97.938039
2063.000000	97.926255
2062.000000	97.920255
2061.000000	97.923285
2060.000000	97.931422
2059.000000	97.946849
2058.000000	97.963152
2057.000000	97.962044
2056.000000	97.939568
2055.000000	97.913805
2054.000000	97.895433
2053.000000	97.874816
2052.000000	97.849349
2051.000000	97.837466
2050.000000	97.851899
2049.000000	97.881267
2048.000000	97.913328
2047.000000	97.953377
2046.000000	98.001211
2045.000000	98.039198
2044.000000	98.061954
2043.000000	98.084741
2042.000000	98.107451
2041.000000	98.107628
2040.000000	98.085629
2039.000000	98.073254
2038.000000	98.081381
2037.000000	98.086251
2036.000000	98.082586
2035.000000	98.099574
2034.000000	98.140937
2033.000000	98.164283
2032.000000	98.152049
2031.000000	98.145984
2030.000000	98.179296
2029.000000	98.231176
2028.000000	98.275775
2027.000000	98.320624
2026.000000	98.366702
2025.000000	98.383691
2024.000000	98.357613
2023.000000	98.315028
2022.000000	98.275498
2021.000000	98.229493
2020.000000	98.180943
2019.000000	98.158852
2018.000000	98.167031
2017.000000	98.172041
2016.000000	98.162909
2015.000000	98.167018
2014.000000	98.190206
2013.000000	98.203383
2012.000000	98.199417
2011.000000	98.204297
2010.000000	98.219245
2009.000000	98.212196
2008.000000	98.184589
2007.000000	98.180421
2006.000000	98.207063
2005.000000	98.218347
2004.000000	98.198314
2003.000000	98.189299
2002.000000	98.215253
2001.000000	98.242976
2000.000000	98.242401
1999.000000	98.229612
1998.000000	98.225441
1997.000000	98.219420
1996.000000	98.200197
1995.000000	98.179746
1994.000000	98.165203
1993.000000	98.142161
1992.000000	98.108660
1991.000000	98.089390
1990.000000	98.090729
1989.000000	98.086836
1988.000000	98.069294
1987.000000	98.062150
1986.000000	98.073459
1985.000000	98.078709
1984.000000	98.068698
1983.000000	98.066220
1982.000000	98.076347
1981.000000	98.071073
1980.000000	98.046840
1979.000000	98.046863
1978.000000	98.096096
1977.000000	98.161204
1976.000000	98.210973
1975.000000	98.257446
1974.000000	98.299319
1973.000000	98.296982
1972.000000	98.240772
1971.000000	98.177335
1970.000000	98.139572
1969.000000	98.110046
1968.000000	98.078893
1967.000000	98.080006
1966.000000	98.131675
1965.000000	98.196302
1964.000000	98.238090
1963.000000	98.268249
1962.000000	98.307124
1961.000000	98.348468
1960.000000	98.384367
1959.000000	98.423055
1958.000000	98.456560
1957.000000	98.452470
1956.000000	98.400579
1955.000000	98.330185
1954.000000	98.266858
1953.000000	98.208773
1952.000000	98.158722
1951.000000	98.140282
1950.000000	98.161194
1949.000000	98.193566
1948.000000	98.210319
1947.000000	98.212775
1946.000000	98.208589
1945.000000	98.193839
1944.000000	98.172132
1943.000000	98.162121
1942.000000	98.169060
1941.000000	98.178212
1940.000000	98.185124
1939.000000	98.199955
1938.000000	98.219327
1937.000000	98.221991
1936.000000	98.201957
1935.000000	98.182401
1934.000000	98.183010
1933.000000	98.195961
1932.000000	98.206001
1931.000000	98.210581
1930.000000	98.207765
1929.000000	98.192379
1928.000000	98.174048
1927.000000	98.171273
1926.000000	98.180707
1925.000000	98.176727
1924.000000	98.149073
1923.000000	98.116746
1922.000000	98.096496
1921.000000	98.084449
1920.000000	98.076836
1919.000000	98.081588
1918.000000	98.094615
1917.000000	98.095814
1916.000000	98.085559
1915.000000	98.086116
1914.000000	98.104242
1913.000000	98.122608
1912.000000	98.128403
1911.000000	98.130360
1910.000000	98.136440
1909.000000	98.139842
1908.000000	98.139798
1907.000000	98.147324
1906.000000	98.161098
1905.000000	98.165127
1904.000000	98.158276
1903.000000	98.157827
1902.000000	98.167110
1901.000000	98.168929
1900.000000	98.157001
1899.000000	98.147016
1898.000000	98.148605
1897.000000	98.149905
1896.000000	98.141745
1895.000000	98.134847
1894.000000	98.138646
1893.000000	98.145698
1892.000000	98.148187
1891.000000	98.150068
1890.000000	98.152350
1889.000000	98.147811
1888.000000	98.140439
1887.000000	98.140182
1886.000000	98.141210
1885.000000	98.132923
1884.000000	98.125379
1883.000000	98.140590
1882.000000	98.176793
1881.000000	98.207268
1880.000000	98.217230
1879.000000	98.216856
1878.000000	98.215188
1877.000000	98.206583
1876.000000	98.191572
1875.000000	98.185033
1874.000000	98.191199
1873.000000	98.194159
1872.000000	98.184170
1871.000000	98.172300
1870.000000	98.169637
1869.000000	98.168048
1868.000000	98.166149
1867.000000	98.182510
1866.000000	98.214262
1865.000000	98.234494
1864.000000	98.232655
1863.000000	98.223172
1862.000000	98.219231
1861.000000	98.217038
1860.000000	98.212544
1859.000000	98.212339
1858.000000	98.218195
1857.000000	98.222334
1856.000000	98.224857
1855.000000	98.235039
1854.000000	98.252856
1853.000000	98.267050
1852.000000	98.272111
1851.000000	98.271724
1850.000000	98.267443
1849.000000	98.259240
1848.000000	98.259055
1847.000000	98.281831
1846.000000	98.317959
1845.000000	98.331053
1844.000000	98.304150
1843.000000	98.270249
1842.000000	98.258711
1841.000000	98.262285
1840.000000	98.269369
1839.000000	98.278620
1838.000000	98.287028
1837.000000	98.287005
1836.000000	98.281867
1835.000000	98.283766
1834.000000	98.292612
1833.000000	98.296763
1832.000000	98.292065
1831.000000	98.289732
1830.000000	98.296246
1829.000000	98.299456
1828.000000	98.289348
1827.000000	98.270590
1826.000000	98.253113
1825.000000	98.243201
1824.000000	98.248483
1823.000000	98.273902
1822.000000	98.304479
1821.000000	98.318366
1820.000000	98.314651
1819.000000	98.312942
1818.000000	98.322488
1817.000000	98.329041
1816.000000	98.324398
1815.000000	98.318929
1814.000000	98.317615
1813.000000	98.311478
1812.000000	98.296649
1811.000000	98.286179
1810.000000	98.285803
1809.000000	98.279421
1808.000000	98.260917
1807.000000	98.245014
1806.000000	98.233030
1805.000000	98.202218
1804.000000	98.142529
1803.000000	98.078944
1802.000000	98.042120
1801.000000	98.030374
1800.000000	98.025135
1799.000000	98.022493
1798.000000	98.019846
1797.000000	98.009245
1796.000000	97.997703
1795.000000	98.002476
1794.000000	98.025015
1793.000000	98.040657
1792.000000	98.030156
1791.000000	98.019364
1790.000000	98.039384
1789.000000	98.077993
1788.000000	98.108902
1787.000000	98.125002
1786.000000	98.134564
1785.000000	98.145857
1784.000000	98.164293
1783.000000	98.190113
1782.000000	98.214529
1781.000000	98.228074
1780.000000	98.235229
1779.000000	98.252192
1778.000000	98.279800
1777.000000	98.304104
1776.000000	98.326330
1775.000000	98.362772
1774.000000	98.419108
1773.000000	98.465350
1772.000000	98.457144
1771.000000	98.398995
1770.000000	98.329670
1769.000000	98.272666
1768.000000	98.244695
1767.000000	98.258144
1766.000000	98.297501
1765.000000	98.326299
1764.000000	98.326966
1763.000000	98.313116
1762.000000	98.303914
1761.000000	98.300322
1760.000000	98.293193
1759.000000	98.282376
1758.000000	98.272437
1757.000000	98.264551
1756.000000	98.260760
1755.000000	98.262693
1754.000000	98.261447
1753.000000	98.246032
1752.000000	98.220767
1751.000000	98.200935
1750.000000	98.189014
1749.000000	98.165615
1748.000000	98.119717
1747.000000	98.065127
1746.000000	98.012152
1745.000000	97.951828
1744.000000	97.882722
1743.000000	97.831586
1742.000000	97.820761
1741.000000	97.829380
1740.000000	97.820504
1739.000000	97.796487
1738.000000	97.786138
1737.000000	97.799787
1736.000000	97.838223
1735.000000	97.910511
1734.000000	97.991860
1733.000000	98.030511
1732.000000	98.023776
1731.000000	98.005499
1730.000000	97.998793
1729.000000	98.009894
1728.000000	98.035064
1727.000000	98.067122
1726.000000	98.096300
1725.000000	98.112971
1724.000000	98.115857
1723.000000	98.116564
1722.000000	98.119056
1721.000000	98.113893
1720.000000	98.100241
1719.000000	98.103880
1718.000000	98.142682
1717.000000	98.163049
1716.000000	98.120507
1715.000000	98.051924
1714.000000	97.990052
1713.000000	97.934085
1712.000000	97.882598
1711.000000	97.840749
1710.000000	97.810163
1709.000000	97.781972
1708.000000	97.746776
1707.000000	97.702260
1706.000000	97.640595
1705.000000	97.553213
1704.000000	97.470453
1703.000000	97.428105
1702.000000	97.424370
1701.000000	97.391769
1700.000000	97.285599
1699.000000	97.180717
1698.000000	97.105813
1697.000000	96.987211
1696.000000	96.786093
1695.000000	96.580143
1694.000000	96.436090
1693.000000	96.313448
1692.000000	96.179626
1691.000000	96.037667
1690.000000	95.896141
1689.000000	95.761595
1688.000000	95.653751
1687.000000	95.588511
1686.000000	95.546485
1685.000000	95.432082
1684.000000	95.177017
1683.000000	94.914534
1682.000000	94.736271
1681.000000	94.575937
1680.000000	94.406804
1679.000000	94.257579
1678.000000	94.140777
1677.000000	94.021324
1676.000000	93.853337
1675.000000	93.650008
1674.000000	93.470011
1673.000000	93.324304
1672.000000	93.180603
1671.000000	93.017766
1670.000000	92.814019
1669.000000	92.569024
1668.000000	92.331203
1667.000000	92.143158
1666.000000	92.000663
1665.000000	91.869463
1664.000000	91.712627
1663.000000	91.519892
1662.000000	91.314807
1661.000000	91.122334
1660.000000	90.945409
1659.000000	90.789135
1658.000000	90.652961
1657.000000	90.537432
1656.000000	90.442458
1655.000000	90.389896
1654.000000	90.337322
1653.000000	90.188351
1652.000000	90.023130
1651.000000	89.910776
1650.000000	89.820598
1649.000000	89.752778
1648.000000	89.696713
1647.000000	89.637295
1646.000000	89.587385
1645.000000	89.563117
1644.000000	89.553524
1643.000000	89.559681
1642.000000	89.590589
1641.000000	89.635065
1640.000000	89.680696
1639.000000	89.735498
1638.000000	89.816136
1637.000000	89.914834
1636.000000	89.987060
1635.000000	90.015501
1634.000000	90.026079
1633.000000	90.026345
1632.000000	90.030813
1631.000000	90.066045
1630.000000	90.140362
1629.000000	90.243115
1628.000000	90.358253
1627.000000	90.480944
1626.000000	90.615247
1625.000000	90.768314
1624.000000	90.945283
1623.000000	91.133792
1622.000000	91.302835
1621.000000	91.440924
1620.000000	91.572931
1619.000000	91.735578
1618.000000	91.947500
1617.000000	92.179354
1616.000000	92.369739
1615.000000	92.493639
1614.000000	92.579290
1613.000000	92.667322
1612.000000	92.781619
1611.000000	92.920584
1610.000000	93.063295
1609.000000	93.192486
1608.000000	93.309077
1607.000000	93.418834
1606.000000	93.519665
1605.000000	93.608655
1604.000000	93.688895
1603.000000	93.763099
1602.000000	93.826678
1601.000000	93.875853
1600.000000	93.915727
1599.000000	93.952092
1598.000000	93.984055
1597.000000	94.009251
1596.000000	94.030942
1595.000000	94.051431
1594.000000	94.063915
1593.000000	94.062626
1592.000000	94.052050
1591.000000	94.035849
1590.000000	94.006410
1589.000000	93.956757
1588.000000	93.890485
1587.000000	93.808757
1586.000000	93.700983
1585.000000	93.558621
1584.000000	93.385062
1583.000000	93.183352
1582.000000	92.950758
1581.000000	92.696947
1580.000000	92.456392
1579.000000	92.266398
1578.000000	92.139957
1577.000000	92.055119
1576.000000	91.986150
1575.000000	91.939800
1574.000000	91.923220
1573.000000	91.934320
1572.000000	91.981530
1571.000000	92.071916
1570.000000	92.184834
1569.000000	92.276172
1568.000000	92.327133
1567.000000	92.351082
1566.000000	92.358831
1565.000000	92.350775
1564.000000	92.327479
1563.000000	92.298543
1562.000000	92.276892
1561.000000	92.265593
1560.000000	92.255784
1559.000000	92.164267
1558.000000	91.999810
1557.000000	91.867573
1556.000000	91.727965
1555.000000	91.560585
1554.000000	91.394658
1553.000000	91.230491
1552.000000	91.055215
1551.000000	90.859114
1550.000000	90.664248
1549.000000	90.494644
1548.000000	90.345956
1547.000000	90.178044
1546.000000	89.962518
1545.000000	89.706145
1544.000000	89.449926
1543.000000	89.238773
1542.000000	89.080643
1541.000000	88.923062
1540.000000	88.753193
1539.000000	88.680646
1538.000000	88.728004
1537.000000	88.813114
1536.000000	88.926980
1535.000000	89.109133
1534.000000	89.374287
1533.000000	89.652723
1532.000000	89.865176
1531.000000	90.022716
1530.000000	90.151220
1529.000000	90.248052
1528.000000	90.319068
1527.000000	90.395644
1526.000000	90.496131
1525.000000	90.594686
1524.000000	90.661492
1523.000000	90.701047
1522.000000	90.710386
1521.000000	90.666219
1520.000000	90.600872
1519.000000	90.559398
1518.000000	90.526800
1517.000000	90.466185
1516.000000	90.386159
1515.000000	90.336118
1514.000000	90.317757
1513.000000	90.292548
1512.000000	90.247811
1511.000000	90.206829
1510.000000	90.193483
1509.000000	90.211774
1508.000000	90.251767
1507.000000	90.259499
1506.000000	90.243704
1505.000000	90.242081
1504.000000	90.200773
1503.000000	90.125459
1502.000000	90.053609
1501.000000	89.982303
1500.000000	89.906645
1499.000000	89.832318
1498.000000	89.765537
1497.000000	89.679108
1496.000000	89.568559
1495.000000	89.475804
1494.000000	89.407500
1493.000000	89.326744
1492.000000	89.214764
1491.000000	89.090841
1490.000000	88.975272
1489.000000	88.857045
1488.000000	88.742130
1487.000000	88.652323
1486.000000	88.570738
1485.000000	88.469571
1484.000000	88.346275
1483.000000	88.208466
1482.000000	88.052701
1481.000000	87.870312
1480.000000	87.673171
1479.000000	87.477678
1478.000000	87.274858
1477.000000	87.049141
1476.000000	86.818325
1475.000000	86.616050
1474.000000	86.422932
1473.000000	86.164479
1472.000000	85.852049
1471.000000	85.599783
1470.000000	85.430424
1469.000000	85.283403
1468.000000	85.134770
1467.000000	84.996668
1466.000000	84.872778
1465.000000	84.745694
1464.000000	84.623125
1463.000000	84.535536
1462.000000	84.474156
1461.000000	84.405067
1460.000000	84.311834
1459.000000	84.200795
1458.000000	84.059792
1457.000000	83.855764
1456.000000	83.656188
1455.000000	83.539451
1454.000000	83.462042
1453.000000	83.371094
1452.000000	83.262194
1451.000000	83.152848
1450.000000	83.046028
1449.000000	82.922388
1448.000000	82.784874
1447.000000	82.666754
1446.000000	82.580790
1445.000000	82.500362
1444.000000	82.406271
1443.000000	82.308356
1442.000000	82.215445
1441.000000	82.119041
1440.000000	82.010342
1439.000000	81.888152
1438.000000	81.748712
1437.000000	81.589233
1436.000000	81.444794
1435.000000	81.357422
1434.000000	81.300779
1433.000000	81.223329
1432.000000	81.114918
1431.000000	80.996213
1430.000000	80.880918
1429.000000	80.763537
1428.000000	80.645372
1427.000000	80.530885
1426.000000	80.403991
1425.000000	80.245498
1424.000000	80.067199
1423.000000	79.906411
1422.000000	79.766884
1421.000000	79.605119
1420.000000	79.388709
1419.000000	79.145799
1418.000000	78.940504
1417.000000	78.792536
1416.000000	78.680505
1415.000000	78.589049
1414.000000	78.501164
1413.000000	78.399932
1412.000000	78.293733
1411.000000	78.209933
1410.000000	78.158379
1409.000000	78.124939
1408.000000	78.104148
1407.000000	78.106552
1406.000000	78.134478
1405.000000	78.180601
1404.000000	78.248336
1403.000000	78.339976
1402.000000	78.430253
1401.000000	78.490411
1400.000000	78.527997
1399.000000	78.573665
1398.000000	78.636031
1397.000000	78.702459
1396.000000	78.781110
1395.000000	78.897070
1394.000000	79.052975
1393.000000	79.228562
1392.000000	79.408647
1391.000000	79.589030
1390.000000	79.762580
1389.000000	79.928786
1388.000000	80.113165
1387.000000	80.339885
1386.000000	80.591138
1385.000000	80.833671
1384.000000	81.064610
1383.000000	81.299867
1382.000000	81.538454
1381.000000	81.764495
1380.000000	81.978945
1379.000000	82.196776
1378.000000	82.418081
1377.000000	82.632849
1376.000000	82.848056
1375.000000	83.082993
1374.000000	83.338874
1373.000000	83.600454
1372.000000	83.860065
1371.000000	84.111907
1370.000000	84.346384
1369.000000	84.568778
1368.000000	84.796414
1367.000000	85.030179
1366.000000	85.247709
1365.000000	85.436303
1364.000000	85.619166
1363.000000	85.827330
1362.000000	86.057485
1361.000000	86.289768
1360.000000	86.519636
1359.000000	86.744856
1358.000000	86.952833
1357.000000	87.135026
1356.000000	87.298807
1355.000000	87.453809
1354.000000	87.596169
1353.000000	87.717850
1352.000000	87.824635
1351.000000	87.927883
1350.000000	88.026857
1349.000000	88.118482
1348.000000	88.207355
1347.000000	88.295571
1346.000000	88.374304
1345.000000	88.436153
1344.000000	88.484258
1343.000000	88.520447
1342.000000	88.539445
1341.000000	88.545917
1340.000000	88.562766
1339.000000	88.608029
1338.000000	88.677758
1337.000000	88.760283
1336.000000	88.852135
1335.000000	88.952707
1334.000000	89.053665
1333.000000	89.145716
1332.000000	89.231480
1331.000000	89.319332
1330.000000	89.410265
1329.000000	89.501265
1328.000000	89.593880
1327.000000	89.687166
1326.000000	89.770698
1325.000000	89.837681
1324.000000	89.893669
1323.000000	89.945773
1322.000000	89.992577
1321.000000	90.031542
1320.000000	90.068351
1319.000000	90.110582
1318.000000	90.158764
1317.000000	90.210467
1316.000000	90.266759
1315.000000	90.327984
1314.000000	90.390354
1313.000000	90.452862
1312.000000	90.521724
1311.000000	90.600429
1310.000000	90.681409
1309.000000	90.754673
1308.000000	90.819274
1307.000000	90.879387
1306.000000	90.935027
1305.000000	90.985846
1304.000000	91.036330
1303.000000	91.090614
1302.000000	91.145777
1301.000000	91.196766
1300.000000	91.244744
1299.000000	91.294165
1298.000000	91.345163
1297.000000	91.394777
1296.000000	91.442842
1295.000000	91.489442
1294.000000	91.530021
1293.000000	91.559075
1292.000000	91.576488
1291.000000	91.585807
1290.000000	91.588607
1289.000000	91.586279
1288.000000	91.584443
1287.000000	91.588990
1286.000000	91.599406
1285.000000	91.611113
1284.000000	91.622470
1283.000000	91.634673
1282.000000	91.646790
1281.000000	91.656997
1280.000000	91.667568
1279.000000	91.682692
1278.000000	91.703127
1277.000000	91.727723
1276.000000	91.757935
1275.000000	91.794575
1274.000000	91.832553
1273.000000	91.865223
1272.000000	91.891629
1271.000000	91.913699
1270.000000	91.929107
1269.000000	91.934556
1268.000000	91.933821
1267.000000	91.934757
1266.000000	91.939418
1265.000000	91.942627
1264.000000	91.939846
1263.000000	91.930975
1262.000000	91.916708
1261.000000	91.898143
1260.000000	91.879576
1259.000000	91.864733
1258.000000	91.850986
1257.000000	91.832979
1256.000000	91.811440
1255.000000	91.791695
1254.000000	91.774042
1253.000000	91.752782
1252.000000	91.724751
1251.000000	91.691624
1250.000000	91.653626
1249.000000	91.608797
1248.000000	91.559304
1247.000000	91.510965
1246.000000	91.465482
1245.000000	91.419492
1244.000000	91.372501
1243.000000	91.328865
1242.000000	91.290128
1241.000000	91.253035
1240.000000	91.217756
1239.000000	91.190889
1238.000000	91.176736
1237.000000	91.172629
1236.000000	91.175656
1235.000000	91.187835
1234.000000	91.212175
1233.000000	91.248865
1232.000000	91.298389
1231.000000	91.362258
1230.000000	91.438630
1229.000000	91.523089
1228.000000	91.614617
1227.000000	91.715649
1226.000000	91.824722
1225.000000	91.935353
1224.000000	92.043980
1223.000000	92.152516
1222.000000	92.261705
1221.000000	92.367964
1220.000000	92.468123
1219.000000	92.561152
1218.000000	92.644321
1217.000000	92.713292
1216.000000	92.768365
1215.000000	92.815916
1214.000000	92.860547
1213.000000	92.900208
1212.000000	92.929923
1211.000000	92.946433
1210.000000	92.948495
1209.000000	92.937065
1208.000000	92.918100
1207.000000	92.900517
1206.000000	92.888739
1205.000000	92.881016
1204.000000	92.876073
1203.000000	92.876371
1202.000000	92.883788
1201.000000	92.898316
1200.000000	92.921982
1199.000000	92.957797
1198.000000	93.002997
1197.000000	93.049908
1196.000000	93.095781
1195.000000	93.144837
1194.000000	93.198389
1193.000000	93.250258
1192.000000	93.295433
1191.000000	93.336912
1190.000000	93.379994
1189.000000	93.424999
1188.000000	93.469071
1187.000000	93.509930
1186.000000	93.544282
1185.000000	93.567920
1184.000000	93.581080
1183.000000	93.589804
1182.000000	93.598898
1181.000000	93.607218
1180.000000	93.612628
1179.000000	93.615976
1178.000000	93.617236
1177.000000	93.613380
1176.000000	93.603247
1175.000000	93.589981
1174.000000	93.575795
1173.000000	93.559448
1172.000000	93.540891
1171.000000	93.522801
1170.000000	93.505902
1169.000000	93.488578
1168.000000	93.472545
1167.000000	93.461917
1166.000000	93.454967
1165.000000	93.444760
1164.000000	93.430567
1163.000000	93.420414
1162.000000	93.418823
1161.000000	93.420905
1160.000000	93.422491
1159.000000	93.427323
1158.000000	93.439605
1157.000000	93.457326
1156.000000	93.478200
1155.000000	93.504605
1154.000000	93.538042
1153.000000	93.575921
1152.000000	93.617194
1151.000000	93.663795
1150.000000	93.712965
1149.000000	93.756608
1148.000000	93.792176
1147.000000	93.825804
1146.000000	93.861474
1145.000000	93.896379
1144.000000	93.930411
1143.000000	93.969336
1142.000000	94.013614
1141.000000	94.054205
1140.000000	94.085365
1139.000000	94.112172
1138.000000	94.139495
1137.000000	94.163368
1136.000000	94.179897
1135.000000	94.193392
1134.000000	94.208097
1133.000000	94.219568
1132.000000	94.221951
1131.000000	94.216657
1130.000000	94.207639
1129.000000	94.195864
1128.000000	94.183943
1127.000000	94.177691
1126.000000	94.176248
1125.000000	94.169616
1124.000000	94.153463
1123.000000	94.137118
1122.000000	94.128855
1121.000000	94.121829
1120.000000	94.103609
1119.000000	94.072383
1118.000000	94.034901
1117.000000	93.995399
1116.000000	93.955718
1115.000000	93.920539
1114.000000	93.893570
1113.000000	93.872924
1112.000000	93.856892
1111.000000	93.848924
1110.000000	93.851923
1109.000000	93.863166
1108.000000	93.879002
1107.000000	93.898161
1106.000000	93.916238
1105.000000	93.925711
1104.000000	93.926750
1103.000000	93.928548
1102.000000	93.935500
1101.000000	93.939522
1100.000000	93.932246
1099.000000	93.917529
1098.000000	93.901536
1097.000000	93.884598
1096.000000	93.866491
1095.000000	93.850930
1094.000000	93.836940
1093.000000	93.814548
1092.000000	93.775832
1091.000000	93.722802
1090.000000	93.659667
1089.000000	93.587669
1088.000000	93.512716
1087.000000	93.446342
1086.000000	93.391925
1085.000000	93.340435
1084.000000	93.286908
1083.000000	93.239936
1082.000000	93.207956
1081.000000	93.187558
1080.000000	93.174133
1079.000000	93.172548
1078.000000	93.188021
1077.000000	93.216887
1076.000000	93.253578
1075.000000	93.297582
1074.000000	93.346699
1073.000000	93.393837
1072.000000	93.436904
1071.000000	93.480972
1070.000000	93.524999
1069.000000	93.557796
1068.000000	93.573965
1067.000000	93.582645
1066.000000	93.594185
1065.000000	93.608220
1064.000000	93.620908
1063.000000	93.632739
1062.000000	93.642788
1061.000000	93.646395
1060.000000	93.644322
1059.000000	93.643672
1058.000000	93.645529
1057.000000	93.643672
1056.000000	93.639486
1055.000000	93.643838
1054.000000	93.658151
1053.000000	93.668227
1052.000000	93.664157
1051.000000	93.653072
1050.000000	93.644563
1049.000000	93.638197
1048.000000	93.633171
1047.000000	93.634643
1046.000000	93.642091
1045.000000	93.646100
1044.000000	93.643909
1043.000000	93.644078
1042.000000	93.649582
1041.000000	93.650621
1040.000000	93.640495
1039.000000	93.623070
1038.000000	93.598983
1037.000000	93.561291
1036.000000	93.513201
1035.000000	93.472691
1034.000000	93.449803
1033.000000	93.435353
1032.000000	93.421926
1031.000000	93.419133
1030.000000	93.436204
1029.000000	93.466103
1028.000000	93.498604
1027.000000	93.535379
1026.000000	93.580286
1025.000000	93.628082
1024.000000	93.673907
1023.000000	93.721043
1022.000000	93.769979
1021.000000	93.813291
1020.000000	93.850265
1019.000000	93.892543
1018.000000	93.946043
1017.000000	94.001854
1016.000000	94.054226
1015.000000	94.111459
1014.000000	94.179058
1013.000000	94.247412
1012.000000	94.307925
1011.000000	94.367170
1010.000000	94.433898
1009.000000	94.505142
1008.000000	94.575173
1007.000000	94.645383
1006.000000	94.715827
1005.000000	94.780301
1004.000000	94.839245
1003.000000	94.904278
1002.000000	94.980092
1001.000000	95.054851
1000.000000	95.117691
999.000000	95.173291
998.000000	95.230293
997.000000	95.288657
996.000000	95.347615
995.000000	95.412299
994.000000	95.482470
993.000000	95.547625
992.000000	95.603011
991.000000	95.657721
990.000000	95.718287
989.000000	95.777558
988.000000	95.829259
987.000000	95.879269
986.000000	95.932330
985.000000	95.981302
984.000000	96.020488
983.000000	96.056482
982.000000	96.095265
981.000000	96.131084
980.000000	96.158561
979.000000	96.183144
978.000000	96.208821
977.000000	96.228502
976.000000	96.237045
975.000000	96.242398
974.000000	96.253827
973.000000	96.271524
972.000000	96.296310
971.000000	96.334996
970.000000	96.385617
969.000000	96.432036
968.000000	96.464908
967.000000	96.494593
966.000000	96.532827
965.000000	96.575131
964.000000	96.613226
963.000000	96.650193
962.000000	96.690577
961.000000	96.728116
960.000000	96.756585
959.000000	96.781375
958.000000	96.808589
957.000000	96.834427
956.000000	96.856578
955.000000	96.883785
954.000000	96.921973
953.000000	96.962855
952.000000	96.997643
951.000000	97.030381
950.000000	97.065809
949.000000	97.096557
948.000000	97.114765
947.000000	97.125821
946.000000	97.138648
945.000000	97.152233
944.000000	97.162280
943.000000	97.170456
942.000000	97.177889
941.000000	97.180737
940.000000	97.181111
939.000000	97.189711
938.000000	97.208771
937.000000	97.225719
936.000000	97.233498
935.000000	97.242607
934.000000	97.263323
933.000000	97.291109
932.000000	97.320443
931.000000	97.356623
930.000000	97.400611
929.000000	97.437975
928.000000	97.457694
927.000000	97.469314
926.000000	97.487093
925.000000	97.509860
924.000000	97.529850
923.000000	97.548997
922.000000	97.571887
921.000000	97.593889
920.000000	97.610316
919.000000	97.627292
918.000000	97.650987
917.000000	97.676366
916.000000	97.698465
915.000000	97.723463
914.000000	97.756934
913.000000	97.792066
912.000000	97.821286
911.000000	97.847952
910.000000	97.875363
909.000000	97.896486
908.000000	97.907261
907.000000	97.918221
906.000000	97.940188
905.000000	97.969182
904.000000	97.996737
903.000000	98.023870
902.000000	98.053651
901.000000	98.082257
900.000000	98.108723
899.000000	98.141451
898.000000	98.183510
897.000000	98.224049
896.000000	98.254924
895.000000	98.283673
894.000000	98.319257
893.000000	98.358590
892.000000	98.398569
891.000000	98.447110
890.000000	98.508296
889.000000	98.566220
888.000000	98.594251
887.000000	98.563979
886.000000	98.434861
885.000000	98.145918
884.000000	97.632510
883.000000	96.849545
882.000000	95.772348
881.000000	94.402633
880.000000	92.790709
879.000000	91.042705
878.000000	89.287819
877.000000	87.642216
876.000000	86.213468
875.000000	85.126851
874.000000	84.538377
873.000000	84.608981
872.000000	85.438285
871.000000	86.949831
870.000000	88.839129
869.000000	90.701107
868.000000	92.245202
867.000000	93.399458
866.000000	94.232612
865.000000	94.832766
864.000000	95.268522
863.000000	95.601471
862.000000	95.873048
861.000000	96.091009
860.000000	96.257059
859.000000	96.392479
858.000000	96.520202
857.000000	96.639040
856.000000	96.739537
855.000000	96.828005
854.000000	96.911684
853.000000	96.976361
852.000000	96.999871
851.000000	96.980029
850.000000	96.936685
849.000000	96.900142
848.000000	96.905865
847.000000	96.977284
846.000000	97.098102
845.000000	97.220836
844.000000	97.315101
843.000000	97.388699
842.000000	97.454008
841.000000	97.503277
840.000000	97.532731
839.000000	97.561119
838.000000	97.602814
837.000000	97.645462
836.000000	97.674435
835.000000	97.696416
834.000000	97.719940
833.000000	97.736562
832.000000	97.742292
831.000000	97.754356
830.000000	97.784137
829.000000	97.814285
828.000000	97.824979
827.000000	97.823406
826.000000	97.826237
825.000000	97.834647
824.000000	97.846573
823.000000	97.868623
822.000000	97.894754
821.000000	97.900740
820.000000	97.881036
819.000000	97.863918
818.000000	97.869844
817.000000	97.882182
816.000000	97.879539
815.000000	97.870550
814.000000	97.874160
813.000000	97.888192
812.000000	97.900139
811.000000	97.908380
810.000000	97.913348
809.000000	97.909024
808.000000	97.900643
807.000000	97.907524
806.000000	97.931278
805.000000	97.946798
804.000000	97.941874
803.000000	97.937116
802.000000	97.948556
801.000000	97.961329
800.000000	97.961594
799.000000	97.962943
798.000000	97.976102
797.000000	97.983281
796.000000	97.969568
795.000000	97.951425
794.000000	97.946954
793.000000	97.944875
792.000000	97.929676
791.000000	97.911597
790.000000	97.905024
789.000000	97.901223
788.000000	97.888499
787.000000	97.876253
786.000000	97.873647
785.000000	97.866983
784.000000	97.843354
783.000000	97.816016
782.000000	97.802919
781.000000	97.800091
780.000000	97.797441
779.000000	97.799405
778.000000	97.808548
777.000000	97.810842
776.000000	97.799573
775.000000	97.791760
774.000000	97.798728
773.000000	97.803032
772.000000	97.787705
771.000000	97.765929
770.000000	97.757522
769.000000	97.756832
768.000000	97.748860
767.000000	97.737893
766.000000	97.735446
765.000000	97.737111
764.000000	97.733787
763.000000	97.729554
762.000000	97.727898
761.000000	97.718105
760.000000	97.694782
759.000000	97.672528
758.000000	97.662699
757.000000	97.654424
756.000000	97.635432
755.000000	97.611038
754.000000	97.585976
753.000000	97.550392
752.000000	97.501693
751.000000	97.456997
750.000000	97.425823
749.000000	97.394135
748.000000	97.353773
747.000000	97.321646
746.000000	97.310030
745.000000	97.303335
744.000000	97.286086
743.000000	97.268713
742.000000	97.263297
741.000000	97.259222
740.000000	97.246009
739.000000	97.235577
738.000000	97.237711
737.000000	97.237838
736.000000	97.222157
735.000000	97.200830
734.000000	97.181441
733.000000	97.144696
732.000000	97.074203
731.000000	96.989836
730.000000	96.922474
729.000000	96.870645
728.000000	96.810979
727.000000	96.733726
726.000000	96.641358
725.000000	96.533275
724.000000	96.416614
723.000000	96.311359
722.000000	96.222807
721.000000	96.130604
720.000000	96.025221
719.000000	95.923631
718.000000	95.821576
717.000000	95.660180
716.000000	95.376409
715.000000	94.982283
714.000000	94.577384
713.000000	94.290592
712.000000	94.211604
711.000000	94.345510
710.000000	94.607430
709.000000	94.877447
708.000000	95.085202
707.000000	95.239496
706.000000	95.369671
705.000000	95.473716
704.000000	95.542021
703.000000	95.587572
702.000000	95.625036
701.000000	95.647555
700.000000	95.649202
699.000000	95.650047
698.000000	95.669086
697.000000	95.697382
696.000000	95.724359
695.000000	95.758062
694.000000	95.802535
693.000000	95.838317
692.000000	95.847890
691.000000	95.846116
690.000000	95.853114
689.000000	95.862579
688.000000	95.861669
687.000000	95.854091
686.000000	95.843569
685.000000	95.816086
684.000000	95.763136
683.000000	95.708137
682.000000	95.681271
681.000000	95.683237
680.000000	95.692840
679.000000	95.698424
678.000000	95.701155
677.000000	95.690184
676.000000	95.656831
675.000000	95.614824
674.000000	95.577248
673.000000	95.540830
672.000000	95.515879
671.000000	95.546450
670.000000	95.663726
669.000000	95.836687
668.000000	95.907814
667.000000	95.759399
666.000000	95.581224
665.000000	95.451345
664.000000	95.329968
663.000000	95.247929
662.000000	95.232123
661.000000	95.251138
660.000000	95.257819
659.000000	95.257952
658.000000	95.273818
657.000000	95.286423
656.000000	95.284141
655.000000	95.304722
654.000000	95.363030
653.000000	95.404492
652.000000	95.392255
651.000000	95.366044
650.000000	95.366806
649.000000	95.367269
648.000000	95.337533
647.000000	95.307040
646.000000	95.304974
645.000000	95.309612
644.000000	95.302251
643.000000	95.305243
642.000000	95.328892
641.000000	95.338814
640.000000	95.318708
639.000000	95.308201
638.000000	95.328621
637.000000	95.336853
636.000000	95.301078
635.000000	95.256022
634.000000	95.238563
633.000000	95.231665
632.000000	95.215140
631.000000	95.211399
630.000000	95.230697
629.000000	95.232051
628.000000	95.190671
627.000000	95.144396
626.000000	95.124233
625.000000	95.102094
624.000000	95.057109
623.000000	95.026532
622.000000	95.041047
621.000000	95.068337
620.000000	95.071981
619.000000	95.071937
618.000000	95.097191
617.000000	95.129151
616.000000	95.142592
615.000000	95.153863
614.000000	95.175603
613.000000	95.178592
612.000000	95.148088
611.000000	95.124794
610.000000	95.137128
609.000000	95.149556
608.000000	95.128937
607.000000	95.105541
606.000000	95.114976
605.000000	95.138890
604.000000	95.154056
603.000000	95.180587
602.000000	95.230384
601.000000	95.264765
600.000000	95.257960
599.000000	95.243467
598.000000	95.253080
597.000000	95.265463
596.000000	95.262189
595.000000	95.271417
594.000000	95.308695
593.000000	95.333833
592.000000	95.317040
591.000000	95.294120
590.000000	95.301465
589.000000	95.317146
588.000000	95.316810
587.000000	95.323313
586.000000	95.352741
585.000000	95.370552
584.000000	95.353707
583.000000	95.336880
582.000000	95.347080
581.000000	95.350123
580.000000	95.313598
579.000000	95.264259
578.000000	95.237487
577.000000	95.229764
576.000000	95.240073
575.000000	95.289452
574.000000	95.356732
573.000000	95.373407
572.000000	95.324740
571.000000	95.280735
570.000000	95.287021
569.000000	95.297866
568.000000	95.270667
567.000000	95.241437
566.000000	95.242573
565.000000	95.234010
564.000000	95.185905
563.000000	95.142860
562.000000	95.142514
561.000000	95.149341
560.000000	95.136544
559.000000	95.151879
558.000000	95.226384
557.000000	95.301348
556.000000	95.323152
555.000000	95.329209
554.000000	95.361657
553.000000	95.381846
552.000000	95.353951
551.000000	95.327881
550.000000	95.352736
549.000000	95.387341
548.000000	95.387809
547.000000	95.398798
546.000000	95.466200
545.000000	95.537571
544.000000	95.550405
543.000000	95.539334
542.000000	95.560167
541.000000	95.584416
540.000000	95.562821
539.000000	95.523449
538.000000	95.515449
537.000000	95.519588
536.000000	95.502319
535.000000	95.491565
534.000000	95.515766
533.000000	95.531541
532.000000	95.504478
531.000000	95.485592
530.000000	95.519863
529.000000	95.560163
528.000000	95.559918
527.000000	95.566220
526.000000	95.632053
525.000000	95.708395
524.000000	95.730422
523.000000	95.729509
522.000000	95.759783
521.000000	95.804918
520.000000	95.836003
519.000000	95.886187
518.000000	95.981413
517.000000	96.066728
516.000000	96.103542
515.000000	96.146199
514.000000	96.229237
513.000000	96.289756
512.000000	96.282997
511.000000	96.275502
510.000000	96.337236
509.000000	96.427376
508.000000	96.486181
507.000000	96.536398
506.000000	96.602268
505.000000	96.637030
504.000000	96.626144
503.000000	96.658784
502.000000	96.782239
501.000000	96.885779
500.000000	96.872939
499.000000	96.807411
498.000000	96.783735
497.000000	96.787370
496.000000	96.769577
495.000000	96.758141
494.000000	96.785275
493.000000	96.797993
492.000000	96.758724
491.000000	96.739802
490.000000	96.805545
489.000000	96.896622
488.000000	96.948534
487.000000	97.006886
486.000000	97.120037
485.000000	97.225786
484.000000	97.258380
483.000000	97.264554
482.000000	97.288763
481.000000	97.278176
480.000000	97.213882
479.000000	97.196596
478.000000	97.290014
477.000000	97.391003
476.000000	97.385291
475.000000	97.317610
474.000000	97.290416
473.000000	97.301327
472.000000	97.319749
471.000000	97.405270
470.000000	97.572888
469.000000	97.692534
468.000000	97.676362
467.000000	97.636133
466.000000	97.715133
465.000000	97.855449
464.000000	97.921184
463.000000	97.915810
462.000000	97.909978
461.000000	97.882913
460.000000	97.800874
459.000000	97.764942
458.000000	97.886795
457.000000	98.046397
456.000000	98.068391
455.000000	98.020571
454.000000	98.040565
453.000000	98.124432
452.000000	98.206092
451.000000	98.310694
450.000000	98.474800
