PE UV       SUBTECH     SPECTRUM    ASCII       PEDS        4.00        
   -1
3S-H10-C001.Sample.Cycle1.Raw.asc
22/03/02
16:23:09.00
22/03/02
16:23:09.00
Administrator

250.000000
1
Lambda 750
750N8071901
PerkinElmer UV WinLab 6.0.4.0738 / 1.61.00 Lambda 900

0
0
3350/servo 860.8/2
0
0
UV/VIS
1
1
1
CommonBeamDepol,150mm sphere / downward view
0
0
0
0
Program
Program
3350/servo 860.8/2
3350/0.2 860.8/0.2
3350/0.2 860.8/0.2
0
1
 
 
 
0
 
860.8
319.2
860.8
Front
100
on
 
 
0
0
0
 
0
 
 
 
0
 
 
0
0
0
0
0
 
 
 
 
0
0


0
0
#HDR
-1
-1
#GR
nm
%R
1.0
0.0
2500.000000
-10.000000
226
8
48.889678
8.407312
#DATA
2500.000000	20.433149
2490.000000	13.286099
2480.000000	19.661206
2470.000000	13.532942
2460.000000	18.483406
2450.000000	21.338656
2440.000000	20.512660
2430.000000	19.290839
2420.000000	17.574217
2410.000000	20.394203
2400.000000	21.554030
2390.000000	23.281206
2380.000000	21.400622
2370.000000	20.528660
2360.000000	20.254022
2350.000000	21.820017
2340.000000	25.850112
2330.000000	20.163213
2320.000000	22.230822
2310.000000	20.473440
2300.000000	20.032426
2290.000000	21.668963
2280.000000	19.720308
2270.000000	18.786776
2260.000000	19.162279
2250.000000	23.174743
2240.000000	24.046871
2230.000000	25.000000
2220.000000	24.648132
2210.000000	23.808709
2200.000000	23.808936
2190.000000	25.494770
2180.000000	23.374870
2170.000000	25.605512
2160.000000	24.072991
2150.000000	22.668598
2140.000000	23.437119
2130.000000	24.947845
2120.000000	24.515437
2110.000000	25.143085
2100.000000	26.032789
2090.000000	26.195730
2080.000000	25.787813
2070.000000	25.603418
2060.000000	24.382572
2050.000000	23.286118
2040.000000	23.870285
2030.000000	23.316322
2020.000000	24.432768
2010.000000	23.862475
2000.000000	23.374064
1990.000000	23.062567
1980.000000	22.022557
1970.000000	21.691492
1960.000000	20.772675
1950.000000	21.114653
1940.000000	20.389415
1930.000000	21.064980
1920.000000	22.893289
1910.000000	23.442678
1900.000000	26.740869
1890.000000	29.439702
1880.000000	32.056703
1870.000000	34.497009
1860.000000	36.086839
1850.000000	35.917742
1840.000000	35.744817
1830.000000	35.395419
1820.000000	35.602704
1810.000000	35.232247
1800.000000	35.082349
1790.000000	34.455177
1780.000000	34.338320
1770.000000	33.821593
1760.000000	33.406703
1750.000000	33.004867
1740.000000	32.546147
1730.000000	31.833974
1720.000000	32.060182
1710.000000	33.297116
1700.000000	34.040943
1690.000000	34.751119
1680.000000	35.751336
1670.000000	37.054874
1660.000000	37.537107
1650.000000	37.959844
1640.000000	38.031445
1630.000000	37.852464
1620.000000	37.636733
1610.000000	37.002748
1600.000000	36.439447
1590.000000	35.961512
1580.000000	35.728531
1570.000000	35.557608
1560.000000	35.171933
1550.000000	34.749763
1540.000000	34.372926
1530.000000	33.826380
1520.000000	33.369719
1510.000000	33.168304
1500.000000	32.897034
1490.000000	32.912752
1480.000000	33.059435
1470.000000	33.320623
1460.000000	33.655544
1450.000000	34.064701
1440.000000	34.507288
1430.000000	34.703530
1420.000000	35.050748
1410.000000	36.426215
1400.000000	39.015616
1390.000000	41.651189
1380.000000	43.186209
1370.000000	43.497237
1360.000000	43.492872
1350.000000	43.465072
1340.000000	43.626133
1330.000000	44.175663
1320.000000	45.210433
1310.000000	46.288698
1300.000000	46.778382
1290.000000	47.065025
1280.000000	46.935244
1270.000000	46.357102
1260.000000	45.894440
1250.000000	45.798595
1240.000000	45.699415
1230.000000	45.481182
1220.000000	45.029742
1210.000000	44.647388
1200.000000	44.403763
1190.000000	44.565835
1180.000000	45.036693
1170.000000	45.417353
1160.000000	46.111760
1150.000000	46.711507
1140.000000	47.192923
1130.000000	47.445357
1120.000000	47.617982
1110.000000	47.707393
1100.000000	47.698002
1090.000000	47.689714
1080.000000	47.532996
1070.000000	47.499397
1060.000000	47.478019
1050.000000	47.535353
1040.000000	47.580958
1030.000000	47.583497
1020.000000	47.659022
1010.000000	47.946943
1000.000000	48.586437
990.000000	48.889678
980.000000	48.813403
970.000000	48.673581
960.000000	48.654641
950.000000	48.809904
940.000000	48.500296
930.000000	48.236409
920.000000	48.388710
910.000000	48.190211
900.000000	48.305178
890.000000	48.537345
880.000000	48.506202
870.000000	47.734748
860.000000	46.869786
850.000000	46.567496
840.000000	47.388560
830.000000	47.311498
820.000000	47.246427
810.000000	47.227676
800.000000	47.384026
790.000000	47.200560
780.000000	46.995621
770.000000	47.134390
760.000000	47.161637
750.000000	46.920304
740.000000	46.872017
730.000000	46.755839
720.000000	46.535486
710.000000	46.362128
700.000000	46.236492
690.000000	45.992521
680.000000	45.838762
670.000000	45.616349
660.000000	45.485950
650.000000	45.317923
640.000000	45.011884
630.000000	44.659872
620.000000	44.359159
610.000000	44.067363
600.000000	43.712836
590.000000	43.458156
580.000000	43.103352
570.000000	42.697716
560.000000	42.318280
550.000000	41.958840
540.000000	41.495063
530.000000	41.031311
520.000000	40.508582
510.000000	39.935865
500.000000	39.318769
490.000000	38.693088
480.000000	37.992143
470.000000	37.183141
460.000000	36.194372
450.000000	35.042202
440.000000	33.894904
430.000000	32.477408
420.000000	30.914237
410.000000	29.403043
400.000000	28.104487
390.000000	26.954103
380.000000	25.793949
370.000000	24.550191
360.000000	23.091034
350.000000	21.572964
340.000000	20.122453
330.000000	18.647666
320.000000	17.673886
310.000000	16.334745
300.000000	13.920413
290.000000	11.305328
280.000000	9.621005
270.000000	9.271893
260.000000	9.135889
250.000000	8.407312
