PE UV       SUBTECH     SPECTRUM    ASCII       PEDS        4.00        
   -1
3S-N10-F028.Sample.Raw.asc
22/03/30
17:06:01.00
22/03/30
17:06:01.00
Administrator

250.000000
1
Lambda 750
750N8071901
PerkinElmer UV WinLab 6.0.4.0738 / 1.61.00 Lambda 900

0
0
3350/servo 860.8/2
0
0
UV/VIS
1
1
1
CommonBeamDepol,150mm sphere / downward view
0
0
0
0
Program
Program
3350/servo 860.8/2
3350/0.2 860.8/0.2
3350/0.2 860.8/0.2
0
1
 
 
 
0
 
860.8
319.2
860.8
Front
100
on
 
 
0
0
0
 
0
 
 
 
0
 
 
0
0
0
0
0
 
 
 
 
0
0


0
0
#HDR
-1
-1
#GR
nm
%R
1.0
0.0
2500.000000
-10.000000
226
8
63.030351
8.887569
#DATA
2500.000000	9.537305
2490.000000	9.872138
2480.000000	10.208068
2470.000000	11.807889
2460.000000	10.738514
2450.000000	11.614830
2440.000000	15.412060
2430.000000	11.177190
2420.000000	15.055893
2410.000000	11.491464
2400.000000	14.345507
2390.000000	14.288328
2380.000000	13.321046
2370.000000	14.448437
2360.000000	14.084034
2350.000000	14.509116
2340.000000	13.890767
2330.000000	14.629915
2320.000000	13.965562
2310.000000	13.403035
2300.000000	13.852589
2290.000000	13.955374
2280.000000	13.118639
2270.000000	12.529384
2260.000000	12.946970
2250.000000	15.448294
2240.000000	15.937634
2230.000000	18.106401
2220.000000	17.794745
2210.000000	17.137482
2200.000000	16.824860
2190.000000	16.695660
2180.000000	15.381421
2170.000000	15.229208
2160.000000	16.170236
2150.000000	17.106823
2140.000000	17.689484
2130.000000	19.285157
2120.000000	19.461865
2110.000000	19.966647
2100.000000	20.179795
2090.000000	19.797372
2080.000000	19.909788
2070.000000	18.975550
2060.000000	17.575263
2050.000000	16.826557
2040.000000	15.956258
2030.000000	16.439968
2020.000000	17.168058
2010.000000	17.222723
2000.000000	16.781813
1990.000000	16.278151
1980.000000	15.183691
1970.000000	14.319732
1960.000000	13.385792
1950.000000	12.750575
1940.000000	12.525941
1930.000000	13.396167
1920.000000	14.607462
1910.000000	17.044037
1900.000000	21.642317
1890.000000	27.093662
1880.000000	32.458193
1870.000000	36.402789
1860.000000	38.528562
1850.000000	39.225270
1840.000000	39.448357
1830.000000	38.996411
1820.000000	38.415629
1810.000000	37.947037
1800.000000	37.348870
1790.000000	36.967063
1780.000000	36.482664
1770.000000	35.809230
1760.000000	35.115018
1750.000000	34.356556
1740.000000	33.693810
1730.000000	33.296514
1720.000000	34.006046
1710.000000	35.304860
1700.000000	36.080526
1690.000000	36.811557
1680.000000	38.572778
1670.000000	40.996914
1660.000000	42.636477
1650.000000	43.283460
1640.000000	43.077800
1630.000000	42.583428
1620.000000	41.844168
1610.000000	40.874265
1600.000000	39.901015
1590.000000	39.030370
1580.000000	38.295947
1570.000000	37.532308
1560.000000	37.000517
1550.000000	36.578694
1540.000000	35.685694
1530.000000	34.582110
1520.000000	33.741097
1510.000000	33.230877
1500.000000	32.907344
1490.000000	32.880724
1480.000000	33.263878
1470.000000	33.687611
1460.000000	34.262236
1450.000000	35.076155
1440.000000	36.292757
1430.000000	37.996433
1420.000000	40.400666
1410.000000	43.510435
1400.000000	46.791595
1390.000000	49.791088
1380.000000	51.986533
1370.000000	53.177841
1360.000000	54.200335
1350.000000	55.195170
1340.000000	55.994886
1330.000000	56.565463
1320.000000	57.308906
1310.000000	58.244813
1300.000000	58.871419
1290.000000	59.084030
1280.000000	59.062559
1270.000000	58.906668
1260.000000	58.757751
1250.000000	58.556061
1240.000000	58.271723
1230.000000	57.933855
1220.000000	57.540918
1210.000000	56.943241
1200.000000	56.398603
1190.000000	56.193040
1180.000000	56.593674
1170.000000	57.565860
1160.000000	58.873980
1150.000000	59.949754
1140.000000	60.769185
1130.000000	61.340645
1120.000000	61.662732
1110.000000	61.865398
1100.000000	61.936516
1090.000000	61.945495
1080.000000	61.893312
1070.000000	61.781370
1060.000000	61.643637
1050.000000	61.558810
1040.000000	61.438905
1030.000000	61.403917
1020.000000	61.443390
1010.000000	61.600434
1000.000000	61.866930
990.000000	61.994415
980.000000	62.040447
970.000000	62.148695
960.000000	62.346285
950.000000	62.478507
940.000000	62.491883
930.000000	62.503351
920.000000	62.402151
910.000000	62.444123
900.000000	62.690810
890.000000	62.944195
880.000000	63.030351
870.000000	62.965235
860.000000	62.922220
850.000000	62.603494
840.000000	62.039050
830.000000	62.151567
820.000000	62.196652
810.000000	62.193382
800.000000	62.054669
790.000000	61.952378
780.000000	62.079779
770.000000	61.950854
760.000000	61.821105
750.000000	61.782780
740.000000	61.652689
730.000000	61.540137
720.000000	61.308320
710.000000	61.217865
700.000000	60.973119
690.000000	60.722118
680.000000	60.481532
670.000000	60.129703
660.000000	59.770072
650.000000	59.420459
640.000000	59.002366
630.000000	58.441275
620.000000	57.931665
610.000000	57.413321
600.000000	56.952882
590.000000	56.512770
580.000000	55.913688
570.000000	55.336477
560.000000	54.867183
550.000000	54.338277
540.000000	53.641384
530.000000	52.953196
520.000000	52.250789
510.000000	51.411255
500.000000	50.410062
490.000000	49.126497
480.000000	47.543615
470.000000	45.763859
460.000000	43.682456
450.000000	41.157502
440.000000	38.207626
430.000000	34.933292
420.000000	31.526749
410.000000	28.922843
400.000000	27.599198
390.000000	26.544294
380.000000	25.181294
370.000000	23.500144
360.000000	21.703264
350.000000	19.964020
340.000000	18.327482
330.000000	16.847383
320.000000	15.623011
310.000000	13.994815
300.000000	11.659135
290.000000	9.787707
280.000000	9.074073
270.000000	8.887569
260.000000	8.967152
250.000000	9.096549
