PE UV       SUBTECH     SPECTRUM    ASCII       PEDS        4.00        
   -1
3S-N10-C015.Sample.Cycle1.Raw.asc
22/03/29
16:06:18.00
22/03/29
16:06:18.00
Administrator

250.000000
1
Lambda 750
750N8071901
PerkinElmer UV WinLab 6.0.4.0738 / 1.61.00 Lambda 900

0
0
3350/servo 860.8/2
0
0
UV/VIS
1
1
1
CommonBeamDepol,150mm sphere / downward view
0
0
0
0
Program
Program
3350/servo 860.8/2
3350/0.2 860.8/0.2
3350/0.2 860.8/0.2
0
1
 
 
 
0
 
860.8
319.2
860.8
Front
100
on
 
 
0
0
0
 
0
 
 
 
0
 
 
0
0
0
0
0
 
 
 
 
0
0


0
0
#HDR
-1
-1
#GR
nm
%R
1.0
0.0
2500.000000
-10.000000
226
8
52.185722
14.376341
#DATA
2500.000000	23.470612
2490.000000	23.030588
2480.000000	20.826134
2470.000000	23.474586
2460.000000	22.868752
2450.000000	23.408395
2440.000000	24.506579
2430.000000	25.076481
2420.000000	25.409263
2410.000000	24.809391
2400.000000	26.871169
2390.000000	25.428089
2380.000000	25.372827
2370.000000	25.972071
2360.000000	25.886717
2350.000000	27.347639
2340.000000	25.914623
2330.000000	27.641495
2320.000000	26.655384
2310.000000	25.864455
2300.000000	26.038228
2290.000000	24.727240
2280.000000	24.638186
2270.000000	26.534083
2260.000000	25.914212
2250.000000	27.261604
2240.000000	27.542270
2230.000000	28.483292
2220.000000	28.921833
2210.000000	28.332285
2200.000000	28.135316
2190.000000	27.984657
2180.000000	28.170357
2170.000000	27.342822
2160.000000	28.334584
2150.000000	29.577942
2140.000000	29.880150
2130.000000	30.167330
2120.000000	31.039490
2110.000000	31.385485
2100.000000	30.910040
2090.000000	31.170206
2080.000000	31.185905
2070.000000	30.776462
2060.000000	30.123661
2050.000000	29.099772
2040.000000	28.587495
2030.000000	28.567362
2020.000000	29.197329
2010.000000	29.254630
2000.000000	28.717442
1990.000000	28.085352
1980.000000	27.432977
1970.000000	26.716401
1960.000000	25.880996
1950.000000	25.360672
1940.000000	25.065573
1930.000000	25.570739
1920.000000	26.951938
1910.000000	28.710125
1900.000000	31.602729
1890.000000	34.741749
1880.000000	37.458046
1870.000000	39.407718
1860.000000	40.175475
1850.000000	40.672546
1840.000000	40.743727
1830.000000	40.662640
1820.000000	40.302440
1810.000000	40.182510
1800.000000	39.953432
1790.000000	39.682937
1780.000000	39.589089
1770.000000	39.258921
1760.000000	39.002483
1750.000000	38.785767
1740.000000	38.488789
1730.000000	38.377579
1720.000000	38.609139
1710.000000	39.191870
1700.000000	39.538022
1690.000000	39.856461
1680.000000	40.634482
1670.000000	41.691221
1660.000000	42.375193
1650.000000	42.570984
1640.000000	42.522154
1630.000000	42.261964
1620.000000	41.966231
1610.000000	41.562731
1600.000000	41.230109
1590.000000	40.966639
1580.000000	40.670936
1570.000000	40.364976
1560.000000	40.112217
1550.000000	39.771116
1540.000000	39.347046
1530.000000	38.762703
1520.000000	38.403554
1510.000000	38.324264
1500.000000	38.227738
1490.000000	38.275214
1480.000000	38.461770
1470.000000	38.608593
1460.000000	38.860167
1450.000000	39.276262
1440.000000	39.890361
1430.000000	40.608714
1420.000000	41.487054
1410.000000	42.610649
1400.000000	44.050101
1390.000000	45.500386
1380.000000	46.470640
1370.000000	46.980960
1360.000000	47.345495
1350.000000	47.457647
1340.000000	47.371722
1330.000000	47.328431
1320.000000	47.542337
1310.000000	47.884146
1300.000000	48.147111
1290.000000	48.281465
1280.000000	48.223311
1270.000000	48.108083
1260.000000	48.112451
1250.000000	48.144631
1240.000000	48.073966
1230.000000	47.941176
1220.000000	47.766441
1210.000000	47.483511
1200.000000	47.309879
1190.000000	47.390818
1180.000000	47.633296
1170.000000	48.042449
1160.000000	48.529258
1150.000000	48.910399
1140.000000	49.196970
1130.000000	49.474997
1120.000000	49.673207
1110.000000	49.797608
1100.000000	49.838060
1090.000000	49.819025
1080.000000	49.820632
1070.000000	49.853538
1060.000000	49.953860
1050.000000	50.025411
1040.000000	50.141241
1030.000000	50.217954
1020.000000	50.339851
1010.000000	50.651847
1000.000000	50.996014
990.000000	51.096777
980.000000	51.147920
970.000000	51.263133
960.000000	51.327234
950.000000	51.421414
940.000000	51.488332
930.000000	51.530601
920.000000	51.574497
910.000000	51.645329
900.000000	51.720591
890.000000	51.993110
880.000000	52.185722
870.000000	52.177198
860.000000	52.038971
850.000000	51.371738
840.000000	50.452577
830.000000	50.474183
820.000000	50.468776
810.000000	50.399974
800.000000	50.563374
790.000000	50.561259
780.000000	50.517239
770.000000	50.606408
760.000000	50.640299
750.000000	50.648198
740.000000	50.645830
730.000000	50.594189
720.000000	50.552685
710.000000	50.564363
700.000000	50.580337
690.000000	50.501032
680.000000	50.453013
670.000000	50.387329
660.000000	50.326484
650.000000	50.401422
640.000000	50.298773
630.000000	50.197891
620.000000	50.113972
610.000000	50.065284
600.000000	50.013900
590.000000	49.977147
580.000000	49.915576
570.000000	49.858119
560.000000	49.817855
550.000000	49.703077
540.000000	49.465751
530.000000	49.158634
520.000000	48.730639
510.000000	48.264178
500.000000	47.801005
490.000000	47.355470
480.000000	46.968186
470.000000	46.604863
460.000000	46.018013
450.000000	45.299056
440.000000	44.518325
430.000000	43.453324
420.000000	42.199165
410.000000	40.884661
400.000000	39.688819
390.000000	38.710597
380.000000	37.700892
370.000000	36.788331
360.000000	35.936454
350.000000	34.498573
340.000000	33.158433
330.000000	31.662601
320.000000	29.939877
310.000000	28.144588
300.000000	25.246153
290.000000	20.705268
280.000000	17.193446
270.000000	16.208350
260.000000	15.760365
250.000000	14.376341
