PE UV       SUBTECH     SPECTRUM    ASCII       PEDS        4.00        
   -1
3S-N10-F017.Sample.Raw.asc
22/03/30
16:34:06.00
22/03/30
16:34:06.00
Administrator

250.000000
1
Lambda 750
750N8071901
PerkinElmer UV WinLab 6.0.4.0738 / 1.61.00 Lambda 900

0
0
3350/servo 860.8/2
0
0
UV/VIS
1
1
1
CommonBeamDepol,150mm sphere / downward view
0
0
0
0
Program
Program
3350/servo 860.8/2
3350/0.2 860.8/0.2
3350/0.2 860.8/0.2
0
1
 
 
 
0
 
860.8
319.2
860.8
Front
100
on
 
 
0
0
0
 
0
 
 
 
0
 
 
0
0
0
0
0
 
 
 
 
0
0


0
0
#HDR
-1
-1
#GR
nm
%R
1.0
0.0
2500.000000
-10.000000
226
8
62.921658
9.221699
#DATA
2500.000000	10.527925
2490.000000	11.171506
2480.000000	12.959341
2470.000000	12.909662
2460.000000	12.992730
2450.000000	13.938693
2440.000000	14.257781
2430.000000	13.276210
2420.000000	15.025020
2410.000000	13.171149
2400.000000	13.766762
2390.000000	14.430118
2380.000000	13.777797
2370.000000	13.773207
2360.000000	15.439317
2350.000000	15.213902
2340.000000	14.766364
2330.000000	14.504463
2320.000000	14.872916
2310.000000	14.383983
2300.000000	14.834431
2290.000000	13.923753
2280.000000	14.007684
2270.000000	12.712510
2260.000000	13.807459
2250.000000	15.791516
2240.000000	16.159273
2230.000000	17.736071
2220.000000	17.791631
2210.000000	17.984686
2200.000000	17.185786
2190.000000	16.745808
2180.000000	15.875737
2170.000000	15.337485
2160.000000	16.242252
2150.000000	17.481039
2140.000000	18.394043
2130.000000	18.986728
2120.000000	20.028523
2110.000000	19.564542
2100.000000	20.458860
2090.000000	19.974534
2080.000000	19.981309
2070.000000	19.211305
2060.000000	18.094654
2050.000000	17.367246
2040.000000	16.337892
2030.000000	16.884536
2020.000000	17.504738
2010.000000	17.679463
2000.000000	17.067636
1990.000000	16.612162
1980.000000	15.456274
1970.000000	14.598307
1960.000000	13.659999
1950.000000	13.345655
1940.000000	13.016758
1930.000000	13.709282
1920.000000	15.199379
1910.000000	17.495339
1900.000000	22.148169
1890.000000	27.570516
1880.000000	32.618933
1870.000000	36.660956
1860.000000	38.916766
1850.000000	39.400333
1840.000000	39.540793
1830.000000	39.075261
1820.000000	38.648512
1810.000000	38.179199
1800.000000	37.628342
1790.000000	37.083049
1780.000000	36.573825
1770.000000	35.864936
1760.000000	35.089691
1750.000000	34.554739
1740.000000	33.907398
1730.000000	33.464246
1720.000000	34.040011
1710.000000	35.301732
1700.000000	36.133003
1690.000000	36.983953
1680.000000	38.819803
1670.000000	41.124761
1660.000000	42.812460
1650.000000	43.496859
1640.000000	43.292067
1630.000000	42.768825
1620.000000	42.018944
1610.000000	41.056914
1600.000000	40.082496
1590.000000	39.144891
1580.000000	38.395361
1570.000000	37.751024
1560.000000	37.246243
1550.000000	36.791895
1540.000000	35.878868
1530.000000	34.751633
1520.000000	33.919214
1510.000000	33.399822
1500.000000	33.095613
1490.000000	33.080780
1480.000000	33.443645
1470.000000	33.918672
1460.000000	34.516708
1450.000000	35.310921
1440.000000	36.494094
1430.000000	38.202172
1420.000000	40.600734
1410.000000	43.700898
1400.000000	46.997730
1390.000000	50.000719
1380.000000	52.151649
1370.000000	53.318770
1360.000000	54.312870
1350.000000	55.291326
1340.000000	56.075335
1330.000000	56.606369
1320.000000	57.181988
1310.000000	58.108801
1300.000000	58.868059
1290.000000	59.219763
1280.000000	59.259179
1270.000000	59.179139
1260.000000	59.019851
1250.000000	58.757898
1240.000000	58.353923
1230.000000	57.978602
1220.000000	57.590045
1210.000000	56.981810
1200.000000	56.503523
1190.000000	56.353095
1180.000000	56.779337
1170.000000	57.678694
1160.000000	58.965110
1150.000000	60.092198
1140.000000	60.957166
1130.000000	61.520302
1120.000000	61.775816
1110.000000	61.893748
1100.000000	61.940529
1090.000000	61.935127
1080.000000	61.831028
1070.000000	61.745225
1060.000000	61.638013
1050.000000	61.538462
1040.000000	61.463664
1030.000000	61.376432
1020.000000	61.381361
1010.000000	61.623604
1000.000000	61.904145
990.000000	61.999257
980.000000	62.036767
970.000000	62.164517
960.000000	62.344915
950.000000	62.443026
940.000000	62.479665
930.000000	62.405126
920.000000	62.341556
910.000000	62.472689
900.000000	62.635326
890.000000	62.835136
880.000000	62.844361
870.000000	62.921658
860.000000	62.912978
850.000000	62.874144
840.000000	62.552556
830.000000	62.634620
820.000000	62.690868
810.000000	62.588766
800.000000	62.389409
790.000000	62.290163
780.000000	62.375599
770.000000	62.251140
760.000000	62.164180
750.000000	62.151916
740.000000	61.978548
730.000000	61.809420
720.000000	61.655710
710.000000	61.510674
700.000000	61.283876
690.000000	61.023697
680.000000	60.755480
670.000000	60.350858
660.000000	59.947126
650.000000	59.541077
640.000000	59.054567
630.000000	58.446779
620.000000	57.863637
610.000000	57.270700
600.000000	56.755080
590.000000	56.293944
580.000000	55.698984
570.000000	55.138143
560.000000	54.612672
550.000000	54.031623
540.000000	53.356607
530.000000	52.659155
520.000000	51.885018
510.000000	51.015882
500.000000	49.952437
490.000000	48.528663
480.000000	46.884458
470.000000	45.003594
460.000000	42.836997
450.000000	40.208705
440.000000	37.180412
430.000000	33.766013
420.000000	30.334842
410.000000	27.768227
400.000000	26.424677
390.000000	25.471152
380.000000	24.262711
370.000000	22.635267
360.000000	20.928305
350.000000	19.547933
340.000000	18.010973
330.000000	16.479204
320.000000	15.429874
310.000000	13.951703
300.000000	11.848301
290.000000	10.166286
280.000000	9.427729
270.000000	9.221699
260.000000	9.322951
250.000000	9.446781
