PE UV       SUBTECH     SPECTRUM    ASCII       PEDS        4.00        
   -1
3C-H10-F019.Sample.Raw.asc
22/03/21
15:47:10.00
22/03/21
15:47:10.00
Administrator

250.000000
1
Lambda 750
750N8071901
PerkinElmer UV WinLab 6.0.4.0738 / 1.61.00 Lambda 900

0
0
3350/servo 860.8/2
0
0
UV/VIS
1
1
1
CommonBeamDepol,150mm sphere / downward view
0
0
0
0
Program
Program
3350/servo 860.8/2
3350/0.2 860.8/0.2
3350/0.2 860.8/0.2
0
1
 
 
 
0
 
860.8
319.2
860.8
Front
100
on
 
 
0
0
0
 
0
 
 
 
0
 
 
0
0
0
0
0
 
 
 
 
0
0


0
0
#HDR
-1
-1
#GR
nm
%R
1.0
0.0
2500.000000
-10.000000
226
8
41.167381
10.249728
#DATA
2500.000000	12.963982
2490.000000	14.276695
2480.000000	10.249728
2470.000000	15.459940
2460.000000	12.962273
2450.000000	12.756573
2440.000000	15.847649
2430.000000	12.598738
2420.000000	14.206697
2410.000000	14.694698
2400.000000	15.276785
2390.000000	13.568821
2380.000000	15.603812
2370.000000	15.860552
2360.000000	16.027451
2350.000000	15.538120
2340.000000	14.998136
2330.000000	14.112828
2320.000000	14.755598
2310.000000	14.782907
2300.000000	14.989428
2290.000000	15.435018
2280.000000	13.604962
2270.000000	14.608530
2260.000000	14.186649
2250.000000	15.923817
2240.000000	15.831793
2230.000000	16.830284
2220.000000	16.778289
2210.000000	16.957907
2200.000000	16.184936
2190.000000	16.097084
2180.000000	16.058902
2170.000000	15.643646
2160.000000	16.502092
2150.000000	15.926498
2140.000000	16.219877
2130.000000	17.505856
2120.000000	17.774252
2110.000000	18.230698
2100.000000	18.485390
2090.000000	18.286538
2080.000000	18.111725
2070.000000	17.563808
2060.000000	16.974089
2050.000000	16.374119
2040.000000	16.122438
2030.000000	16.446035
2020.000000	16.835780
2010.000000	17.012320
2000.000000	16.761541
1990.000000	16.283066
1980.000000	15.869709
1970.000000	15.403691
1960.000000	15.130806
1950.000000	14.530944
1940.000000	14.529308
1930.000000	15.019959
1920.000000	15.972139
1910.000000	17.017679
1900.000000	19.209628
1890.000000	21.873157
1880.000000	24.508233
1870.000000	26.737076
1860.000000	27.634487
1850.000000	28.132851
1840.000000	28.040915
1830.000000	27.970151
1820.000000	27.613952
1810.000000	27.475429
1800.000000	27.206051
1790.000000	26.950209
1780.000000	26.603431
1770.000000	26.360903
1760.000000	26.003414
1750.000000	25.641831
1740.000000	25.265611
1730.000000	25.206739
1720.000000	25.569200
1710.000000	26.193323
1700.000000	26.621771
1690.000000	26.913649
1680.000000	27.901391
1670.000000	29.191743
1660.000000	30.112865
1650.000000	30.483438
1640.000000	30.402835
1630.000000	30.157804
1620.000000	29.709252
1610.000000	29.184910
1600.000000	28.718956
1590.000000	28.265241
1580.000000	27.855026
1570.000000	27.533490
1560.000000	27.300426
1550.000000	27.017086
1540.000000	26.591209
1530.000000	25.996721
1520.000000	25.556217
1510.000000	25.341625
1500.000000	25.200659
1490.000000	25.241920
1480.000000	25.478396
1470.000000	25.725679
1460.000000	26.040143
1450.000000	26.544874
1440.000000	27.132604
1430.000000	27.862129
1420.000000	28.823947
1410.000000	30.390454
1400.000000	32.593762
1390.000000	34.647178
1380.000000	35.983692
1370.000000	36.646965
1360.000000	37.110139
1350.000000	37.526076
1340.000000	37.829549
1330.000000	38.221043
1320.000000	38.840405
1310.000000	39.366143
1300.000000	39.721831
1290.000000	39.805148
1280.000000	39.701834
1270.000000	39.593075
1260.000000	39.551091
1250.000000	39.550840
1240.000000	39.338289
1230.000000	39.103825
1220.000000	38.856896
1210.000000	38.457409
1200.000000	38.140460
1190.000000	38.025646
1180.000000	38.281125
1170.000000	38.815539
1160.000000	39.502316
1150.000000	40.124590
1140.000000	40.544990
1130.000000	40.920237
1120.000000	41.115129
1110.000000	41.099951
1100.000000	41.065610
1090.000000	40.955585
1080.000000	40.925336
1070.000000	40.798572
1060.000000	40.691746
1050.000000	40.622480
1040.000000	40.524645
1030.000000	40.472319
1020.000000	40.544798
1010.000000	40.739831
1000.000000	40.985464
990.000000	41.039905
980.000000	41.008545
970.000000	40.993504
960.000000	41.042348
950.000000	41.108432
940.000000	41.106957
930.000000	40.978934
920.000000	40.855854
910.000000	40.928247
900.000000	41.004511
890.000000	41.167381
880.000000	41.105759
870.000000	40.963279
860.000000	41.096700
850.000000	40.729623
840.000000	40.154171
830.000000	40.025840
820.000000	39.905810
810.000000	39.887749
800.000000	39.883670
790.000000	39.842452
780.000000	39.883147
770.000000	39.819023
760.000000	39.757905
750.000000	39.709594
740.000000	39.701266
730.000000	39.642028
720.000000	39.643068
710.000000	39.557447
700.000000	39.525362
690.000000	39.489453
680.000000	39.444604
670.000000	39.376217
660.000000	39.249978
650.000000	39.188671
640.000000	39.090515
630.000000	39.038040
620.000000	38.990393
610.000000	38.857046
600.000000	38.683376
590.000000	38.622588
580.000000	38.501146
570.000000	38.360716
560.000000	38.276240
550.000000	38.106344
540.000000	37.804709
530.000000	37.507027
520.000000	37.110930
510.000000	36.669003
500.000000	36.242160
490.000000	35.862350
480.000000	35.340160
470.000000	34.778575
460.000000	34.153885
450.000000	33.386048
440.000000	32.493071
430.000000	31.399957
420.000000	29.928041
410.000000	28.351896
400.000000	27.082280
390.000000	26.238561
380.000000	25.556775
370.000000	25.022687
360.000000	24.464809
350.000000	23.710958
340.000000	23.026721
330.000000	22.182048
320.000000	21.405108
310.000000	20.783907
300.000000	19.099593
290.000000	16.736867
280.000000	15.266461
270.000000	15.023759
260.000000	14.846837
250.000000	13.859548
