PE UV       SUBTECH     SPECTRUM    ASCII       PEDS        4.00        
   -1
3C-N10-C017.Sample.Raw.asc
22/03/22
17:24:56.00
22/03/22
17:24:56.00
Administrator

250.000000
1
Lambda 750
750N8071901
PerkinElmer UV WinLab 6.0.4.0738 / 1.61.00 Lambda 900

0
0
3350/servo 860.8/2
0
0
UV/VIS
1
1
1
CommonBeamDepol,150mm sphere / downward view
0
0
0
0
Program
Program
3350/servo 860.8/2
3350/0.2 860.8/0.2
3350/0.2 860.8/0.2
0
1
 
 
 
0
 
860.8
319.2
860.8
Front
100
on
 
 
0
0
0
 
0
 
 
 
0
 
 
0
0
0
0
0
 
 
 
 
0
0


0
0
#HDR
-1
-1
#GR
nm
%R
1.0
0.0
2500.000000
-10.000000
226
8
52.320650
10.441731
#DATA
2500.000000	11.705212
2490.000000	12.661392
2480.000000	10.441731
2470.000000	14.691187
2460.000000	15.778721
2450.000000	13.700291
2440.000000	16.098152
2430.000000	16.846590
2420.000000	15.921754
2410.000000	15.149920
2400.000000	18.461452
2390.000000	16.721496
2380.000000	15.499122
2370.000000	18.391250
2360.000000	16.765863
2350.000000	17.412861
2340.000000	15.554070
2330.000000	16.434962
2320.000000	16.316658
2310.000000	16.426976
2300.000000	14.921430
2290.000000	15.340622
2280.000000	15.313434
2270.000000	15.404470
2260.000000	15.686951
2250.000000	16.534645
2240.000000	17.355136
2230.000000	17.163646
2220.000000	18.457296
2210.000000	18.646652
2200.000000	18.284822
2190.000000	16.750809
2180.000000	17.224688
2170.000000	17.109275
2160.000000	17.506627
2150.000000	17.696805
2140.000000	18.271326
2130.000000	19.695090
2120.000000	19.531770
2110.000000	19.523534
2100.000000	20.492181
2090.000000	19.993516
2080.000000	19.706336
2070.000000	18.927058
2060.000000	18.461757
2050.000000	18.041526
2040.000000	17.637880
2030.000000	17.959016
2020.000000	18.039307
2010.000000	18.166908
2000.000000	17.751617
1990.000000	17.613271
1980.000000	17.063846
1970.000000	16.272277
1960.000000	15.839976
1950.000000	15.406521
1940.000000	15.277097
1930.000000	15.644052
1920.000000	16.568664
1910.000000	18.415286
1900.000000	21.069572
1890.000000	24.543676
1880.000000	27.950751
1870.000000	30.437376
1860.000000	32.111301
1850.000000	32.677200
1840.000000	32.535068
1830.000000	32.397645
1820.000000	32.026865
1810.000000	31.687635
1800.000000	31.456562
1790.000000	31.028575
1780.000000	30.685599
1770.000000	30.286719
1760.000000	29.834720
1750.000000	29.473327
1740.000000	29.134673
1730.000000	28.850722
1720.000000	29.332700
1710.000000	30.226009
1700.000000	30.684412
1690.000000	31.135559
1680.000000	32.097978
1670.000000	33.636080
1660.000000	34.726615
1650.000000	35.315231
1640.000000	35.200537
1630.000000	34.892753
1620.000000	34.372286
1610.000000	33.710846
1600.000000	33.071201
1590.000000	32.484429
1580.000000	31.990383
1570.000000	31.527910
1560.000000	31.200330
1550.000000	30.982177
1540.000000	30.444510
1530.000000	29.668592
1520.000000	29.122079
1510.000000	28.791517
1500.000000	28.558199
1490.000000	28.527859
1480.000000	28.829446
1470.000000	29.174449
1460.000000	29.550702
1450.000000	30.112824
1440.000000	30.851113
1430.000000	31.780547
1420.000000	33.165095
1410.000000	35.096440
1400.000000	37.626672
1390.000000	40.173004
1380.000000	41.866375
1370.000000	42.700562
1360.000000	43.244983
1350.000000	43.829782
1340.000000	44.439187
1330.000000	45.053235
1320.000000	45.858260
1310.000000	46.651206
1300.000000	47.158853
1290.000000	47.379067
1280.000000	47.404802
1270.000000	47.330111
1260.000000	47.297610
1250.000000	47.191865
1240.000000	46.886109
1230.000000	46.709883
1220.000000	46.519102
1210.000000	46.118241
1200.000000	45.719060
1190.000000	45.559511
1180.000000	45.818164
1170.000000	46.382862
1160.000000	47.343951
1150.000000	48.127208
1140.000000	48.698243
1130.000000	49.141924
1120.000000	49.405023
1110.000000	49.467894
1100.000000	49.541261
1090.000000	49.546200
1080.000000	49.441062
1070.000000	49.352530
1060.000000	49.160360
1050.000000	49.049400
1040.000000	49.045065
1030.000000	48.932886
1020.000000	48.960669
1010.000000	49.223769
1000.000000	49.483503
990.000000	49.556407
980.000000	49.589448
970.000000	49.726308
960.000000	49.875714
950.000000	49.969383
940.000000	50.032386
930.000000	49.895613
920.000000	49.768917
910.000000	49.982544
900.000000	50.216400
890.000000	50.362683
880.000000	50.420493
870.000000	50.439047
860.000000	50.546609
850.000000	51.067536
840.000000	51.844678
830.000000	51.951316
820.000000	52.004205
810.000000	52.006812
800.000000	52.044898
790.000000	52.083198
780.000000	52.159534
770.000000	52.215753
760.000000	52.320650
750.000000	52.188956
740.000000	52.160352
730.000000	52.174734
720.000000	52.161919
710.000000	52.200828
700.000000	52.116009
690.000000	52.123794
680.000000	52.125031
670.000000	52.071819
660.000000	52.025715
650.000000	52.070413
640.000000	52.029024
630.000000	51.930620
620.000000	51.888500
610.000000	51.809349
600.000000	51.731596
590.000000	51.607758
580.000000	51.424991
570.000000	51.259463
560.000000	51.056867
550.000000	50.840197
540.000000	50.625875
530.000000	50.426224
520.000000	50.260088
510.000000	50.008289
500.000000	49.598261
490.000000	49.059575
480.000000	48.336682
470.000000	47.557899
460.000000	46.619757
450.000000	45.503943
440.000000	44.116820
430.000000	42.370587
420.000000	40.290426
410.000000	37.986147
400.000000	35.959079
390.000000	34.560197
380.000000	33.456829
370.000000	32.054269
360.000000	30.413977
350.000000	29.082698
340.000000	27.981900
330.000000	27.032795
320.000000	25.900013
310.000000	24.183110
300.000000	21.619443
290.000000	19.018517
280.000000	17.300922
270.000000	17.128113
260.000000	17.162948
250.000000	15.897572
