PE UV       SUBTECH     SPECTRUM    ASCII       PEDS        4.00        
   -1
3C-H10-C017.Sample.Raw.asc
22/03/18
16:17:52.00
22/03/18
16:17:52.00
Administrator

250.000000
1
Lambda 750
750N8071901
PerkinElmer UV WinLab 6.0.4.0738 / 1.61.00 Lambda 900

0
0
3350/servo 860.8/2
0
0
UV/VIS
1
1
1
CommonBeamDepol,150mm sphere / downward view
0
0
0
0
Program
Program
3350/servo 860.8/2
3350/0.2 860.8/0.2
3350/0.2 860.8/0.2
0
1
 
 
 
0
 
860.8
319.2
860.8
Front
100
on
 
 
0
0
0
 
0
 
 
 
0
 
 
0
0
0
0
0
 
 
 
 
0
0


0
0
#HDR
-1
-1
#GR
nm
%R
1.0
0.0
2500.000000
-10.000000
226
8
50.644298
12.911818
#DATA
2500.000000	15.616192
2490.000000	12.911818
2480.000000	13.077267
2470.000000	15.963001
2460.000000	16.925382
2450.000000	14.943283
2440.000000	14.228664
2430.000000	17.049284
2420.000000	17.787022
2410.000000	17.669950
2400.000000	18.768741
2390.000000	16.272364
2380.000000	18.711797
2370.000000	17.670963
2360.000000	18.106298
2350.000000	17.864622
2340.000000	19.516105
2330.000000	18.588885
2320.000000	17.532063
2310.000000	18.244511
2300.000000	17.398050
2290.000000	17.521544
2280.000000	17.529162
2270.000000	17.302998
2260.000000	17.512004
2250.000000	18.844625
2240.000000	19.410075
2230.000000	19.514130
2220.000000	20.612653
2210.000000	20.048902
2200.000000	20.449509
2190.000000	19.367024
2180.000000	18.756955
2170.000000	18.668991
2160.000000	19.824900
2150.000000	20.290520
2140.000000	20.065803
2130.000000	21.406287
2120.000000	21.542013
2110.000000	21.932268
2100.000000	22.033333
2090.000000	21.595113
2080.000000	21.706526
2070.000000	21.338707
2060.000000	20.847594
2050.000000	20.043605
2040.000000	19.353645
2030.000000	19.713505
2020.000000	20.219492
2010.000000	20.260926
2000.000000	19.767664
1990.000000	19.507527
1980.000000	18.750136
1970.000000	18.381601
1960.000000	17.810097
1950.000000	17.323141
1940.000000	16.968711
1930.000000	17.568312
1920.000000	18.247258
1910.000000	19.956493
1900.000000	22.572899
1890.000000	25.818585
1880.000000	28.963201
1870.000000	31.620427
1860.000000	32.804839
1850.000000	33.374868
1840.000000	33.333093
1830.000000	33.106844
1820.000000	32.816654
1810.000000	32.511833
1800.000000	32.066664
1790.000000	31.847827
1780.000000	31.606897
1770.000000	31.306331
1760.000000	30.842940
1750.000000	30.440010
1740.000000	30.054852
1730.000000	29.803885
1720.000000	30.188201
1710.000000	30.963990
1700.000000	31.457921
1690.000000	31.878728
1680.000000	32.993105
1670.000000	34.480777
1660.000000	35.541109
1650.000000	35.904429
1640.000000	35.765306
1630.000000	35.432900
1620.000000	34.961141
1610.000000	34.338236
1600.000000	33.782163
1590.000000	33.295609
1580.000000	32.891433
1570.000000	32.411889
1560.000000	32.031337
1550.000000	31.767310
1540.000000	31.178055
1530.000000	30.495975
1520.000000	29.999519
1510.000000	29.701166
1500.000000	29.549711
1490.000000	29.689252
1480.000000	29.916703
1470.000000	30.183839
1460.000000	30.487514
1450.000000	31.006804
1440.000000	31.783831
1430.000000	32.765760
1420.000000	33.985180
1410.000000	35.821118
1400.000000	38.186872
1390.000000	40.577530
1380.000000	42.259916
1370.000000	43.187365
1360.000000	43.733317
1350.000000	44.165796
1340.000000	44.501497
1330.000000	44.744183
1320.000000	45.339392
1310.000000	46.052516
1300.000000	46.537660
1290.000000	46.757284
1280.000000	46.714028
1270.000000	46.590677
1260.000000	46.562796
1250.000000	46.533127
1240.000000	46.301810
1230.000000	46.003546
1220.000000	45.690247
1210.000000	45.314408
1200.000000	44.921983
1190.000000	44.821602
1180.000000	45.111193
1170.000000	45.844187
1160.000000	46.755680
1150.000000	47.550494
1140.000000	48.248969
1130.000000	48.648770
1120.000000	48.789111
1110.000000	48.807072
1100.000000	48.871522
1090.000000	48.870222
1080.000000	48.829397
1070.000000	48.764694
1060.000000	48.685588
1050.000000	48.637253
1040.000000	48.602292
1030.000000	48.603843
1020.000000	48.759798
1010.000000	49.085770
1000.000000	49.501051
990.000000	49.693407
980.000000	49.700852
970.000000	49.774287
960.000000	49.886260
950.000000	50.054811
940.000000	50.180642
930.000000	50.086403
920.000000	50.003291
910.000000	50.071587
900.000000	50.285719
890.000000	50.475976
880.000000	50.506124
870.000000	50.492008
860.000000	50.644298
850.000000	50.540118
840.000000	50.367853
830.000000	50.403135
820.000000	50.398001
810.000000	50.371099
800.000000	50.490160
790.000000	50.562229
780.000000	50.495346
770.000000	50.490501
760.000000	50.517636
750.000000	50.532469
740.000000	50.456410
730.000000	50.429465
720.000000	50.469099
710.000000	50.489473
700.000000	50.398341
690.000000	50.294947
680.000000	50.319414
670.000000	50.278830
660.000000	50.206680
650.000000	50.200123
640.000000	50.143027
630.000000	50.078748
620.000000	50.024821
610.000000	49.898841
600.000000	49.803094
590.000000	49.704087
580.000000	49.553540
570.000000	49.432164
560.000000	49.306886
550.000000	49.158490
540.000000	48.853026
530.000000	48.492224
520.000000	48.045569
510.000000	47.529991
500.000000	46.893348
490.000000	46.182158
480.000000	45.575649
470.000000	44.901148
460.000000	43.944312
450.000000	42.813062
440.000000	41.612163
430.000000	40.097866
420.000000	38.211188
410.000000	36.176372
400.000000	34.371425
390.000000	32.999177
380.000000	31.841953
370.000000	30.679983
360.000000	29.548601
350.000000	28.575956
340.000000	27.593415
330.000000	26.378215
320.000000	25.222666
310.000000	24.256764
300.000000	22.653981
290.000000	19.597419
280.000000	17.547066
270.000000	17.335957
260.000000	17.254280
250.000000	16.073954
