PE UV       SUBTECH     SPECTRUM    ASCII       PEDS        4.00        
   -1
3C-H10-F023.Sample.Raw.asc
22/03/21
15:58:43.00
22/03/21
15:58:43.00
Administrator

250.000000
1
Lambda 750
750N8071901
PerkinElmer UV WinLab 6.0.4.0738 / 1.61.00 Lambda 900

0
0
3350/servo 860.8/2
0
0
UV/VIS
1
1
1
CommonBeamDepol,150mm sphere / downward view
0
0
0
0
Program
Program
3350/servo 860.8/2
3350/0.2 860.8/0.2
3350/0.2 860.8/0.2
0
1
 
 
 
0
 
860.8
319.2
860.8
Front
100
on
 
 
0
0
0
 
0
 
 
 
0
 
 
0
0
0
0
0
 
 
 
 
0
0


0
0
#HDR
-1
-1
#GR
nm
%R
1.0
0.0
2500.000000
-10.000000
226
8
42.618688
9.689397
#DATA
2500.000000	11.540195
2490.000000	12.911488
2480.000000	9.689397
2470.000000	16.198995
2460.000000	13.067922
2450.000000	14.402036
2440.000000	14.082202
2430.000000	15.709776
2420.000000	15.013893
2410.000000	16.315801
2400.000000	16.127583
2390.000000	15.083536
2380.000000	16.298617
2370.000000	15.384222
2360.000000	17.155425
2350.000000	15.464749
2340.000000	15.302143
2330.000000	14.782857
2320.000000	16.310537
2310.000000	15.891936
2300.000000	15.074886
2290.000000	16.085849
2280.000000	16.123147
2270.000000	16.111169
2260.000000	14.811875
2250.000000	15.860446
2240.000000	16.408343
2230.000000	17.711365
2220.000000	17.638548
2210.000000	17.605975
2200.000000	16.852787
2190.000000	16.636542
2180.000000	16.565386
2170.000000	16.974461
2160.000000	16.930804
2150.000000	17.139705
2140.000000	17.406402
2130.000000	18.834745
2120.000000	18.832953
2110.000000	18.665198
2100.000000	19.005179
2090.000000	18.919537
2080.000000	18.911642
2070.000000	18.137787
2060.000000	17.579901
2050.000000	17.525324
2040.000000	16.988903
2030.000000	17.352604
2020.000000	17.565466
2010.000000	17.640645
2000.000000	17.595830
1990.000000	17.053779
1980.000000	16.744550
1970.000000	16.122965
1960.000000	15.821031
1950.000000	15.423034
1940.000000	15.487924
1930.000000	15.723990
1920.000000	16.334950
1910.000000	17.551097
1900.000000	20.021335
1890.000000	22.690948
1880.000000	25.274371
1870.000000	27.303742
1860.000000	28.500808
1850.000000	28.986531
1840.000000	28.815172
1830.000000	28.650494
1820.000000	28.417171
1810.000000	28.207483
1800.000000	27.932950
1790.000000	27.718590
1780.000000	27.477710
1770.000000	27.161641
1760.000000	26.858081
1750.000000	26.505343
1740.000000	26.051729
1730.000000	25.988584
1720.000000	26.373780
1710.000000	26.999925
1700.000000	27.390814
1690.000000	27.785502
1680.000000	28.734348
1670.000000	29.946776
1660.000000	30.868181
1650.000000	31.182222
1640.000000	31.130863
1630.000000	30.892648
1620.000000	30.497278
1610.000000	30.016229
1600.000000	29.546650
1590.000000	29.027536
1580.000000	28.693521
1570.000000	28.341322
1560.000000	28.040616
1550.000000	27.799899
1540.000000	27.342209
1530.000000	26.806364
1520.000000	26.370158
1510.000000	26.113548
1500.000000	25.996754
1490.000000	26.031577
1480.000000	26.279714
1470.000000	26.556361
1460.000000	26.862085
1450.000000	27.361747
1440.000000	27.944814
1430.000000	28.666251
1420.000000	29.709166
1410.000000	31.262954
1400.000000	33.389764
1390.000000	35.394839
1380.000000	36.773114
1370.000000	37.450929
1360.000000	37.940620
1350.000000	38.343330
1340.000000	38.684782
1330.000000	39.058167
1320.000000	39.622309
1310.000000	40.186431
1300.000000	40.544690
1290.000000	40.582503
1280.000000	40.443869
1270.000000	40.327038
1260.000000	40.309807
1250.000000	40.341601
1240.000000	40.187764
1230.000000	39.969456
1220.000000	39.661808
1210.000000	39.248487
1200.000000	38.960035
1190.000000	38.805790
1180.000000	39.093289
1170.000000	39.701508
1160.000000	40.408873
1150.000000	41.051184
1140.000000	41.537200
1130.000000	41.876920
1120.000000	42.052466
1110.000000	42.061778
1100.000000	42.070133
1090.000000	42.010985
1080.000000	41.994543
1070.000000	41.936749
1060.000000	41.841849
1050.000000	41.794883
1040.000000	41.734491
1030.000000	41.699253
1020.000000	41.771261
1010.000000	41.987525
1000.000000	42.217687
990.000000	42.298025
980.000000	42.270904
970.000000	42.305472
960.000000	42.412795
950.000000	42.496073
940.000000	42.510513
930.000000	42.392559
920.000000	42.250276
910.000000	42.285780
900.000000	42.406596
890.000000	42.618688
880.000000	42.549125
870.000000	42.522312
860.000000	42.363664
850.000000	41.936187
840.000000	41.229482
830.000000	41.290964
820.000000	41.194674
810.000000	41.165421
800.000000	41.081233
790.000000	41.092382
780.000000	41.060003
770.000000	41.049937
760.000000	40.998836
750.000000	40.898040
740.000000	40.909582
730.000000	40.871774
720.000000	40.834331
710.000000	40.809131
700.000000	40.767271
690.000000	40.663065
680.000000	40.603196
670.000000	40.575718
660.000000	40.488590
650.000000	40.433443
640.000000	40.309207
630.000000	40.182199
620.000000	40.190559
610.000000	40.123254
600.000000	39.966581
590.000000	39.842345
580.000000	39.688243
570.000000	39.571687
560.000000	39.484205
550.000000	39.297922
540.000000	39.011892
530.000000	38.713775
520.000000	38.346552
510.000000	37.909875
500.000000	37.472103
490.000000	37.059591
480.000000	36.558113
470.000000	36.008323
460.000000	35.365182
450.000000	34.594456
440.000000	33.668662
430.000000	32.541458
420.000000	31.118082
410.000000	29.506493
400.000000	28.101209
390.000000	27.203354
380.000000	26.466714
370.000000	25.885311
360.000000	25.347397
350.000000	24.544818
340.000000	23.819053
330.000000	23.242002
320.000000	22.504619
310.000000	21.563939
300.000000	20.268984
290.000000	17.834090
280.000000	16.243997
270.000000	15.931965
260.000000	15.816096
250.000000	14.663879
