PE UV       SUBTECH     SPECTRUM    ASCII       PEDS        4.00        
   -1
3C-N10-C011.Sample.Raw.asc
22/03/22
17:06:32.00
22/03/22
17:06:32.00
Administrator

250.000000
1
Lambda 750
750N8071901
PerkinElmer UV WinLab 6.0.4.0738 / 1.61.00 Lambda 900

0
0
3350/servo 860.8/2
0
0
UV/VIS
1
1
1
CommonBeamDepol,150mm sphere / downward view
0
0
0
0
Program
Program
3350/servo 860.8/2
3350/0.2 860.8/0.2
3350/0.2 860.8/0.2
0
1
 
 
 
0
 
860.8
319.2
860.8
Front
100
on
 
 
0
0
0
 
0
 
 
 
0
 
 
0
0
0
0
0
 
 
 
 
0
0


0
0
#HDR
-1
-1
#GR
nm
%R
1.0
0.0
2500.000000
-10.000000
226
8
48.777326
8.465659
#DATA
2500.000000	8.465659
2490.000000	15.340768
2480.000000	10.988132
2470.000000	13.109689
2460.000000	13.273549
2450.000000	13.553679
2440.000000	15.470848
2430.000000	14.109997
2420.000000	14.969680
2410.000000	14.678576
2400.000000	15.626681
2390.000000	16.590362
2380.000000	17.592905
2370.000000	16.774099
2360.000000	15.394536
2350.000000	16.518140
2340.000000	14.793521
2330.000000	16.259393
2320.000000	16.071337
2310.000000	17.338323
2300.000000	15.779257
2290.000000	15.607616
2280.000000	15.301750
2270.000000	15.168721
2260.000000	15.463615
2250.000000	16.064397
2240.000000	16.932051
2230.000000	17.601923
2220.000000	18.029304
2210.000000	17.608419
2200.000000	17.711827
2190.000000	17.213654
2180.000000	16.956899
2170.000000	17.133085
2160.000000	17.149177
2150.000000	17.825155
2140.000000	18.211315
2130.000000	18.967700
2120.000000	19.116976
2110.000000	19.096309
2100.000000	19.958271
2090.000000	19.212883
2080.000000	19.342615
2070.000000	18.982805
2060.000000	18.135023
2050.000000	17.600679
2040.000000	17.341767
2030.000000	17.462597
2020.000000	17.769555
2010.000000	17.972592
2000.000000	17.639949
1990.000000	17.211042
1980.000000	16.569245
1970.000000	15.934045
1960.000000	15.746009
1950.000000	15.380656
1940.000000	15.078939
1930.000000	15.435830
1920.000000	16.570980
1910.000000	18.027598
1900.000000	20.566181
1890.000000	23.808584
1880.000000	26.797285
1870.000000	29.158159
1860.000000	30.643892
1850.000000	31.128683
1840.000000	30.960242
1830.000000	30.852727
1820.000000	30.515942
1810.000000	30.311782
1800.000000	29.977816
1790.000000	29.608319
1780.000000	29.358865
1770.000000	28.967014
1760.000000	28.721633
1750.000000	28.297579
1740.000000	27.977241
1730.000000	27.793168
1720.000000	28.279596
1710.000000	28.923097
1700.000000	29.519701
1690.000000	29.820742
1680.000000	30.747544
1670.000000	32.196669
1660.000000	33.087380
1650.000000	33.605540
1640.000000	33.461717
1630.000000	33.200028
1620.000000	32.720994
1610.000000	32.224613
1600.000000	31.582938
1590.000000	30.999444
1580.000000	30.549091
1570.000000	30.150562
1560.000000	29.930533
1550.000000	29.699216
1540.000000	29.245428
1530.000000	28.577204
1520.000000	28.022789
1510.000000	27.744645
1500.000000	27.521636
1490.000000	27.525126
1480.000000	27.755493
1470.000000	28.071190
1460.000000	28.402079
1450.000000	28.910950
1440.000000	29.587299
1430.000000	30.423606
1420.000000	31.626358
1410.000000	33.377084
1400.000000	35.701030
1390.000000	38.044275
1380.000000	39.684779
1370.000000	40.392272
1360.000000	40.859662
1350.000000	41.385734
1340.000000	41.912242
1330.000000	42.532504
1320.000000	43.295406
1310.000000	43.973658
1300.000000	44.420723
1290.000000	44.577118
1280.000000	44.563302
1270.000000	44.571002
1260.000000	44.563124
1250.000000	44.416462
1240.000000	44.123600
1230.000000	43.979898
1220.000000	43.861409
1210.000000	43.537980
1200.000000	43.116537
1190.000000	42.965973
1180.000000	43.215542
1170.000000	43.773075
1160.000000	44.627975
1150.000000	45.311997
1140.000000	45.875157
1130.000000	46.279059
1120.000000	46.471016
1110.000000	46.536389
1100.000000	46.594587
1090.000000	46.622554
1080.000000	46.556879
1070.000000	46.474801
1060.000000	46.382062
1050.000000	46.272087
1040.000000	46.205772
1030.000000	46.138210
1020.000000	46.112720
1010.000000	46.319593
1000.000000	46.593773
990.000000	46.652064
980.000000	46.735100
970.000000	46.836434
960.000000	46.928709
950.000000	46.982204
940.000000	47.048536
930.000000	46.991637
920.000000	47.052864
910.000000	47.124485
900.000000	47.295054
890.000000	47.486182
880.000000	47.607414
870.000000	47.677060
860.000000	47.594100
850.000000	47.874012
840.000000	48.501142
830.000000	48.541296
820.000000	48.610465
810.000000	48.645929
800.000000	48.573445
790.000000	48.550175
780.000000	48.701495
770.000000	48.652476
760.000000	48.770539
750.000000	48.724068
740.000000	48.683780
730.000000	48.775657
720.000000	48.777326
710.000000	48.743756
700.000000	48.769314
690.000000	48.740231
680.000000	48.674563
670.000000	48.680120
660.000000	48.656661
650.000000	48.650476
640.000000	48.673473
630.000000	48.612486
620.000000	48.508966
610.000000	48.460543
600.000000	48.387005
590.000000	48.284718
580.000000	48.164451
570.000000	48.046934
560.000000	47.854368
550.000000	47.619126
540.000000	47.475129
530.000000	47.284618
520.000000	47.149312
510.000000	46.971200
500.000000	46.582461
490.000000	46.080843
480.000000	45.464816
470.000000	44.688672
460.000000	43.831408
450.000000	42.851324
440.000000	41.613599
430.000000	40.008637
420.000000	38.072325
410.000000	35.967463
400.000000	34.034644
390.000000	32.718981
380.000000	31.805832
370.000000	30.574768
360.000000	29.031171
350.000000	27.853325
340.000000	26.720289
330.000000	25.523041
320.000000	24.548898
310.000000	23.043222
300.000000	20.855850
290.000000	18.636355
280.000000	17.346033
270.000000	17.311581
260.000000	17.319740
250.000000	16.020544
