PE UV       SUBTECH     SPECTRUM    ASCII       PEDS        4.00        
   -1
3C-H10-C029.Sample.Cycle1.Raw.asc
22/03/18
17:02:25.00
22/03/18
17:02:25.00
Administrator

250.000000
1
Lambda 750
750N8071901
PerkinElmer UV WinLab 6.0.4.0738 / 1.61.00 Lambda 900

0
0
3350/servo 860.8/2
0
0
UV/VIS
1
1
1
CommonBeamDepol,150mm sphere / downward view
0
0
0
0
Program
Program
3350/servo 860.8/2
3350/0.2 860.8/0.2
3350/0.2 860.8/0.2
0
1
 
 
 
0
 
860.8
319.2
860.8
Front
100
on
 
 
0
0
0
 
0
 
 
 
0
 
 
0
0
0
0
0
 
 
 
 
0
0


0
0
#HDR
-1
-1
#GR
nm
%R
1.0
0.0
2500.000000
-10.000000
226
8
50.620121
12.763464
#DATA
2500.000000	16.754355
2490.000000	15.171556
2480.000000	12.763464
2470.000000	15.230863
2460.000000	14.745569
2450.000000	18.002329
2440.000000	16.146754
2430.000000	16.919378
2420.000000	18.901021
2410.000000	17.166927
2400.000000	17.506107
2390.000000	17.632702
2380.000000	18.792144
2370.000000	17.307812
2360.000000	18.688519
2350.000000	19.067920
2340.000000	19.385770
2330.000000	18.887384
2320.000000	17.621449
2310.000000	17.761041
2300.000000	16.615190
2290.000000	17.947056
2280.000000	16.931672
2270.000000	16.879944
2260.000000	17.223247
2250.000000	18.225493
2240.000000	18.644903
2230.000000	19.762641
2220.000000	19.690139
2210.000000	20.008469
2200.000000	19.383047
2190.000000	19.061292
2180.000000	19.273115
2170.000000	19.201596
2160.000000	19.432384
2150.000000	19.998374
2140.000000	19.738939
2130.000000	20.975849
2120.000000	21.106613
2110.000000	21.364165
2100.000000	21.864148
2090.000000	21.411690
2080.000000	21.134633
2070.000000	21.161914
2060.000000	20.239607
2050.000000	19.933872
2040.000000	19.639318
2030.000000	19.473840
2020.000000	20.100062
2010.000000	20.029308
2000.000000	19.528751
1990.000000	19.195133
1980.000000	18.809277
1970.000000	18.236130
1960.000000	17.791140
1950.000000	17.215364
1940.000000	17.017025
1930.000000	17.435781
1920.000000	18.292036
1910.000000	19.587170
1900.000000	22.436753
1890.000000	25.685679
1880.000000	28.727264
1870.000000	31.351157
1860.000000	32.764517
1850.000000	33.123258
1840.000000	33.046132
1830.000000	32.989249
1820.000000	32.518884
1810.000000	32.245830
1800.000000	31.916930
1790.000000	31.614022
1780.000000	31.369318
1770.000000	31.072241
1760.000000	30.692342
1750.000000	30.167136
1740.000000	29.807920
1730.000000	29.644081
1720.000000	30.063780
1710.000000	30.766538
1700.000000	31.259234
1690.000000	31.650286
1680.000000	32.675892
1670.000000	34.265616
1660.000000	35.369278
1650.000000	35.747642
1640.000000	35.549499
1630.000000	35.255031
1620.000000	34.791402
1610.000000	34.188862
1600.000000	33.593152
1590.000000	33.137458
1580.000000	32.737434
1570.000000	32.260010
1560.000000	31.900082
1550.000000	31.598599
1540.000000	31.011097
1530.000000	30.358625
1520.000000	29.824781
1510.000000	29.580388
1500.000000	29.471896
1490.000000	29.509175
1480.000000	29.758801
1470.000000	30.047858
1460.000000	30.397256
1450.000000	30.909025
1440.000000	31.656313
1430.000000	32.614300
1420.000000	33.811675
1410.000000	35.582343
1400.000000	37.942790
1390.000000	40.360663
1380.000000	42.033147
1370.000000	42.914725
1360.000000	43.523524
1350.000000	43.963442
1340.000000	44.260172
1330.000000	44.601013
1320.000000	45.183489
1310.000000	45.816420
1300.000000	46.273783
1290.000000	46.486481
1280.000000	46.376083
1270.000000	46.239462
1260.000000	46.259161
1250.000000	46.249010
1240.000000	46.005497
1230.000000	45.729889
1220.000000	45.469787
1210.000000	45.019425
1200.000000	44.629938
1190.000000	44.554977
1180.000000	44.871667
1170.000000	45.565475
1160.000000	46.471981
1150.000000	47.270699
1140.000000	47.943858
1130.000000	48.365554
1120.000000	48.520470
1110.000000	48.543600
1100.000000	48.626400
1090.000000	48.620309
1080.000000	48.591121
1070.000000	48.531564
1060.000000	48.485047
1050.000000	48.454742
1040.000000	48.424905
1030.000000	48.441238
1020.000000	48.626631
1010.000000	48.988121
1000.000000	49.379351
990.000000	49.527871
980.000000	49.567846
970.000000	49.656735
960.000000	49.780610
950.000000	49.917553
940.000000	49.982119
930.000000	49.910173
920.000000	49.877990
910.000000	49.880538
900.000000	49.999776
890.000000	50.213453
880.000000	50.358703
870.000000	50.428339
860.000000	50.620121
850.000000	50.510899
840.000000	49.810892
830.000000	49.919330
820.000000	49.952404
810.000000	49.986311
800.000000	50.009963
790.000000	50.108607
780.000000	50.106028
770.000000	50.117602
760.000000	50.085262
750.000000	50.113103
740.000000	50.014565
730.000000	50.040705
720.000000	50.081373
710.000000	50.048577
700.000000	49.891259
690.000000	49.707302
680.000000	49.717806
670.000000	49.817840
660.000000	49.796032
650.000000	49.758496
640.000000	49.716435
630.000000	49.730218
620.000000	49.610003
610.000000	49.526641
600.000000	49.465768
590.000000	49.376530
580.000000	49.258470
570.000000	49.139511
560.000000	49.027413
550.000000	48.850831
540.000000	48.548380
530.000000	48.171673
520.000000	47.747073
510.000000	47.221541
500.000000	46.603096
490.000000	45.952036
480.000000	45.314677
470.000000	44.646274
460.000000	43.746170
450.000000	42.649396
440.000000	41.415227
430.000000	39.887283
420.000000	38.052358
410.000000	36.120140
400.000000	34.463173
390.000000	33.199581
380.000000	32.102103
370.000000	31.061502
360.000000	30.023560
350.000000	28.957560
340.000000	27.778317
330.000000	26.463768
320.000000	25.559182
310.000000	24.516712
300.000000	22.650565
290.000000	20.002661
280.000000	18.165122
270.000000	17.989836
260.000000	17.954548
250.000000	16.610195
