PE UV       SUBTECH     SPECTRUM    ASCII       PEDS        4.00        
   -1
3C-N10-C020.Sample.Raw.asc
22/03/22
17:33:42.00
22/03/22
17:33:42.00
Administrator

250.000000
1
Lambda 750
750N8071901
PerkinElmer UV WinLab 6.0.4.0738 / 1.61.00 Lambda 900

0
0
3350/servo 860.8/2
0
0
UV/VIS
1
1
1
CommonBeamDepol,150mm sphere / downward view
0
0
0
0
Program
Program
3350/servo 860.8/2
3350/0.2 860.8/0.2
3350/0.2 860.8/0.2
0
1
 
 
 
0
 
860.8
319.2
860.8
Front
100
on
 
 
0
0
0
 
0
 
 
 
0
 
 
0
0
0
0
0
 
 
 
 
0
0


0
0
#HDR
-1
-1
#GR
nm
%R
1.0
0.0
2500.000000
-10.000000
226
8
47.647305
9.862980
#DATA
2500.000000	12.045514
2490.000000	15.426481
2480.000000	9.862980
2470.000000	13.704262
2460.000000	14.325862
2450.000000	14.692742
2440.000000	16.425340
2430.000000	15.329593
2420.000000	17.054150
2410.000000	17.219896
2400.000000	16.747280
2390.000000	16.514269
2380.000000	17.222896
2370.000000	17.265532
2360.000000	15.363902
2350.000000	17.550412
2340.000000	15.807586
2330.000000	17.487869
2320.000000	16.881663
2310.000000	17.339586
2300.000000	16.564959
2290.000000	15.910739
2280.000000	15.648472
2270.000000	16.183102
2260.000000	16.186008
2250.000000	17.177648
2240.000000	17.560809
2230.000000	17.450678
2220.000000	18.534812
2210.000000	18.346324
2200.000000	18.090862
2190.000000	17.272310
2180.000000	16.933180
2170.000000	17.527349
2160.000000	17.129276
2150.000000	18.013875
2140.000000	18.369226
2130.000000	19.284585
2120.000000	19.352034
2110.000000	19.827277
2100.000000	20.809334
2090.000000	19.928421
2080.000000	19.865258
2070.000000	19.532895
2060.000000	18.441178
2050.000000	18.329343
2040.000000	17.835458
2030.000000	17.685769
2020.000000	18.301934
2010.000000	18.624812
2000.000000	18.101441
1990.000000	17.753667
1980.000000	17.123969
1970.000000	16.470009
1960.000000	16.321173
1950.000000	15.679915
1940.000000	15.562662
1930.000000	15.903489
1920.000000	16.838096
1910.000000	18.099792
1900.000000	20.776332
1890.000000	23.930373
1880.000000	26.873774
1870.000000	29.071739
1860.000000	30.285663
1850.000000	30.797168
1840.000000	30.695175
1830.000000	30.590098
1820.000000	30.343689
1810.000000	30.166618
1800.000000	29.731872
1790.000000	29.432617
1780.000000	29.177107
1770.000000	28.796240
1760.000000	28.527941
1750.000000	28.277290
1740.000000	27.838144
1730.000000	27.686976
1720.000000	28.070464
1710.000000	28.747153
1700.000000	29.190883
1690.000000	29.501205
1680.000000	30.284157
1670.000000	31.713879
1660.000000	32.641947
1650.000000	33.088579
1640.000000	33.005280
1630.000000	32.793445
1620.000000	32.337247
1610.000000	31.846075
1600.000000	31.282724
1590.000000	30.790378
1580.000000	30.389659
1570.000000	30.005875
1560.000000	29.754814
1550.000000	29.478643
1540.000000	29.050359
1530.000000	28.434672
1520.000000	27.951380
1510.000000	27.690894
1500.000000	27.502961
1490.000000	27.486746
1480.000000	27.693583
1470.000000	28.045092
1460.000000	28.331505
1450.000000	28.799480
1440.000000	29.440599
1430.000000	30.215908
1420.000000	31.292017
1410.000000	32.846178
1400.000000	35.084661
1390.000000	37.270121
1380.000000	38.758212
1370.000000	39.446999
1360.000000	39.858250
1350.000000	40.329208
1340.000000	40.819876
1330.000000	41.299140
1320.000000	42.011801
1310.000000	42.751227
1300.000000	43.221296
1290.000000	43.421707
1280.000000	43.447210
1270.000000	43.329391
1260.000000	43.334788
1250.000000	43.225280
1240.000000	42.965684
1230.000000	42.847321
1220.000000	42.708360
1210.000000	42.372635
1200.000000	42.008069
1190.000000	41.903736
1180.000000	42.138956
1170.000000	42.556478
1160.000000	43.407361
1150.000000	44.067865
1140.000000	44.601479
1130.000000	45.008359
1120.000000	45.239429
1110.000000	45.194887
1100.000000	45.272985
1090.000000	45.294378
1080.000000	45.234909
1070.000000	45.206416
1060.000000	45.109539
1050.000000	45.036894
1040.000000	44.974425
1030.000000	44.898724
1020.000000	44.967946
1010.000000	45.246063
1000.000000	45.484397
990.000000	45.581077
980.000000	45.591995
970.000000	45.720025
960.000000	45.883544
950.000000	45.968477
940.000000	46.056558
930.000000	46.022213
920.000000	45.908839
910.000000	46.011077
900.000000	46.187807
890.000000	46.387750
880.000000	46.362709
870.000000	46.317083
860.000000	46.597208
850.000000	46.831910
840.000000	47.231145
830.000000	47.523307
820.000000	47.505937
810.000000	47.430979
800.000000	47.361126
790.000000	47.472978
780.000000	47.519263
770.000000	47.537379
760.000000	47.581470
750.000000	47.550079
740.000000	47.509857
730.000000	47.633818
720.000000	47.626573
710.000000	47.619928
700.000000	47.633791
690.000000	47.623396
680.000000	47.632163
670.000000	47.647305
660.000000	47.585273
650.000000	47.577713
640.000000	47.539477
630.000000	47.490575
620.000000	47.430027
610.000000	47.380736
600.000000	47.327441
590.000000	47.260984
580.000000	47.108323
570.000000	46.960872
560.000000	46.829635
550.000000	46.613958
540.000000	46.396229
530.000000	46.222082
520.000000	46.143131
510.000000	46.009452
500.000000	45.653636
490.000000	45.131325
480.000000	44.467564
470.000000	43.780685
460.000000	42.972836
450.000000	41.964921
440.000000	40.760057
430.000000	39.272600
420.000000	37.437352
410.000000	35.445546
400.000000	33.658743
390.000000	32.469098
380.000000	31.637469
370.000000	30.402644
360.000000	28.790577
350.000000	27.747593
340.000000	26.817286
330.000000	25.699445
320.000000	24.929597
310.000000	23.715524
300.000000	21.208943
290.000000	19.164163
280.000000	17.856526
270.000000	17.854174
260.000000	17.781577
250.000000	16.360360
