PE UV       SUBTECH     SPECTRUM    ASCII       PEDS        4.00        
   -1
3C-N10-F027.Sample.Raw.asc
22/03/25
16:07:20.00
22/03/25
16:07:20.00
Administrator

250.000000
1
Lambda 750
750N8071901
PerkinElmer UV WinLab 6.0.4.0738 / 1.61.00 Lambda 900

0
0
3350/servo 860.8/2
0
0
UV/VIS
1
1
1
CommonBeamDepol,150mm sphere / downward view
0
0
0
0
Program
Program
3350/servo 860.8/2
3350/0.2 860.8/0.2
3350/0.2 860.8/0.2
0
1
 
 
 
0
 
860.8
319.2
860.8
Front
100
on
 
 
0
0
0
 
0
 
 
 
0
 
 
0
0
0
0
0
 
 
 
 
0
0


0
0
#HDR
-1
-1
#GR
nm
%R
1.0
0.0
2500.000000
-10.000000
226
8
40.960937
9.105970
#DATA
2500.000000	9.105970
2490.000000	11.558745
2480.000000	9.322716
2470.000000	14.168341
2460.000000	11.350129
2450.000000	13.157924
2440.000000	12.461729
2430.000000	12.463997
2420.000000	12.635974
2410.000000	14.455507
2400.000000	14.689545
2390.000000	14.533759
2380.000000	14.543506
2370.000000	13.927813
2360.000000	13.263450
2350.000000	12.552316
2340.000000	12.840622
2330.000000	12.976206
2320.000000	13.554971
2310.000000	13.485806
2300.000000	12.340340
2290.000000	13.139144
2280.000000	13.056184
2270.000000	13.466697
2260.000000	13.278828
2250.000000	13.818361
2240.000000	15.043284
2230.000000	14.820788
2220.000000	15.588990
2210.000000	15.657508
2200.000000	14.050735
2190.000000	15.122697
2180.000000	14.431579
2170.000000	14.541343
2160.000000	15.011041
2150.000000	14.948773
2140.000000	15.360326
2130.000000	16.066932
2120.000000	16.382151
2110.000000	16.666133
2100.000000	16.994225
2090.000000	16.369610
2080.000000	16.594482
2070.000000	16.253384
2060.000000	15.395797
2050.000000	15.165515
2040.000000	14.526524
2030.000000	14.797989
2020.000000	15.165826
2010.000000	15.362191
2000.000000	15.048442
1990.000000	14.558121
1980.000000	14.355987
1970.000000	13.694037
1960.000000	13.332667
1950.000000	13.239647
1940.000000	12.976420
1930.000000	13.385172
1920.000000	14.135529
1910.000000	15.343211
1900.000000	17.452487
1890.000000	20.128978
1880.000000	22.944317
1870.000000	24.905590
1860.000000	25.795478
1850.000000	26.311632
1840.000000	26.483865
1830.000000	26.187121
1820.000000	25.941342
1810.000000	25.789441
1800.000000	25.551983
1790.000000	25.261683
1780.000000	24.944309
1770.000000	24.730668
1760.000000	24.336079
1750.000000	24.101743
1740.000000	23.772437
1730.000000	23.542709
1720.000000	23.900170
1710.000000	24.591765
1700.000000	24.939799
1690.000000	25.203504
1680.000000	26.129477
1670.000000	27.327381
1660.000000	28.207836
1650.000000	28.479613
1640.000000	28.406021
1630.000000	28.173710
1620.000000	27.777214
1610.000000	27.273944
1600.000000	26.763972
1590.000000	26.389168
1580.000000	25.993640
1570.000000	25.703259
1560.000000	25.389595
1550.000000	25.204016
1540.000000	24.755893
1530.000000	24.167949
1520.000000	23.741672
1510.000000	23.523368
1500.000000	23.414910
1490.000000	23.424187
1480.000000	23.585441
1470.000000	23.822154
1460.000000	24.157268
1450.000000	24.567406
1440.000000	25.185347
1430.000000	25.908884
1420.000000	26.861104
1410.000000	28.354857
1400.000000	30.312266
1390.000000	32.300818
1380.000000	33.621279
1370.000000	34.234544
1360.000000	34.635536
1350.000000	34.981363
1340.000000	35.235879
1330.000000	35.517166
1320.000000	36.028780
1310.000000	36.530668
1300.000000	36.895184
1290.000000	36.960353
1280.000000	36.898116
1270.000000	36.838966
1260.000000	36.849077
1250.000000	36.832262
1240.000000	36.739326
1230.000000	36.594602
1220.000000	36.303859
1210.000000	35.991307
1200.000000	35.697350
1190.000000	35.591591
1180.000000	35.807945
1170.000000	36.412500
1160.000000	37.122210
1150.000000	37.724868
1140.000000	38.166960
1130.000000	38.455397
1120.000000	38.643096
1110.000000	38.836266
1100.000000	38.910208
1090.000000	38.941061
1080.000000	38.932631
1070.000000	38.900385
1060.000000	38.896021
1050.000000	38.856234
1040.000000	38.882169
1030.000000	38.925407
1020.000000	39.066164
1010.000000	39.327373
1000.000000	39.625219
990.000000	39.784319
980.000000	39.826097
970.000000	39.940747
960.000000	40.099627
950.000000	40.164065
940.000000	40.172510
930.000000	40.245264
920.000000	40.198912
910.000000	40.250659
900.000000	40.489574
890.000000	40.484810
880.000000	40.480930
870.000000	40.785645
860.000000	40.960937
850.000000	40.176526
840.000000	39.369410
830.000000	39.509833
820.000000	39.407247
810.000000	39.525120
800.000000	39.615520
790.000000	39.610047
780.000000	39.559475
770.000000	39.523998
760.000000	39.544681
750.000000	39.589056
740.000000	39.658560
730.000000	39.680168
720.000000	39.759300
710.000000	39.760639
700.000000	39.767536
690.000000	39.796048
680.000000	39.751828
670.000000	39.747906
660.000000	39.814416
650.000000	39.823605
640.000000	39.763160
630.000000	39.735516
620.000000	39.715208
610.000000	39.684200
600.000000	39.646835
590.000000	39.638369
580.000000	39.582061
570.000000	39.497789
560.000000	39.417595
550.000000	39.285525
540.000000	39.054998
530.000000	38.806300
520.000000	38.504941
510.000000	38.166183
500.000000	37.783926
490.000000	37.387379
480.000000	36.874367
470.000000	36.372649
460.000000	35.734460
450.000000	34.872445
440.000000	33.899598
430.000000	32.621381
420.000000	30.895458
410.000000	28.855448
400.000000	27.139462
390.000000	26.197641
380.000000	25.559457
370.000000	24.785469
360.000000	24.000415
350.000000	23.269288
340.000000	22.263413
330.000000	21.364505
320.000000	20.410748
310.000000	19.370422
300.000000	17.803597
290.000000	15.465038
280.000000	14.061459
270.000000	13.867201
260.000000	13.806891
250.000000	12.849975
