PE UV       SUBTECH     SPECTRUM    ASCII       PEDS        4.00        
   -1
3G-N10-F009.Sample.Raw.asc
22/03/09
17:08:19.00
22/03/09
17:08:19.00
Administrator

250.000000
1
Lambda 750
750N8071901
PerkinElmer UV WinLab 6.0.4.0738 / 1.61.00 Lambda 900

0
0
3350/servo 860.8/2
0
0
UV/VIS
1
1
1
CommonBeamDepol,150mm sphere / downward view
0
0
0
0
Program
Program
3350/servo 860.8/2
3350/0.2 860.8/0.2
3350/0.2 860.8/0.2
0
1
 
 
 
0
 
860.8
319.2
860.8
Front
100
on
 
 
0
0
0
 
0
 
 
 
0
 
 
0
0
0
0
0
 
 
 
 
0
0


0
0
#HDR
-1
-1
#GR
nm
%R
1.0
0.0
2500.000000
-10.000000
226
8
65.991941
13.865643
#DATA
2500.000000	14.345426
2490.000000	15.687171
2480.000000	17.647094
2470.000000	22.474526
2460.000000	16.682872
2450.000000	15.681789
2440.000000	13.865643
2430.000000	17.526309
2420.000000	16.412487
2410.000000	16.020111
2400.000000	20.787308
2390.000000	18.503328
2380.000000	18.993476
2370.000000	21.226895
2360.000000	21.125321
2350.000000	20.863086
2340.000000	18.745690
2330.000000	17.585791
2320.000000	16.515070
2310.000000	16.121744
2300.000000	19.510335
2290.000000	18.096961
2280.000000	17.594776
2270.000000	20.625339
2260.000000	18.160850
2250.000000	20.115847
2240.000000	21.702734
2230.000000	22.012059
2220.000000	21.185513
2210.000000	22.659362
2200.000000	22.271159
2190.000000	20.423555
2180.000000	20.526580
2170.000000	20.858476
2160.000000	20.802793
2150.000000	20.920149
2140.000000	22.708708
2130.000000	23.333929
2120.000000	23.095324
2110.000000	23.438582
2100.000000	25.637240
2090.000000	25.251097
2080.000000	24.824036
2070.000000	23.551673
2060.000000	22.579210
2050.000000	22.204007
2040.000000	22.141198
2030.000000	21.074239
2020.000000	22.133649
2010.000000	22.535712
2000.000000	22.110414
1990.000000	21.575313
1980.000000	20.325909
1970.000000	20.021186
1960.000000	19.226995
1950.000000	18.674868
1940.000000	18.422073
1930.000000	19.636400
1920.000000	20.945514
1910.000000	22.439389
1900.000000	27.064822
1890.000000	31.803710
1880.000000	36.508805
1870.000000	40.161230
1860.000000	41.925439
1850.000000	42.510543
1840.000000	42.723145
1830.000000	42.522699
1820.000000	42.140959
1810.000000	41.631670
1800.000000	41.112404
1790.000000	40.409024
1780.000000	39.820794
1770.000000	39.297059
1760.000000	38.575190
1750.000000	37.907909
1740.000000	37.092964
1730.000000	37.099076
1720.000000	37.917722
1710.000000	38.867103
1700.000000	39.802136
1690.000000	40.104108
1680.000000	41.884875
1670.000000	44.532806
1660.000000	46.028317
1650.000000	46.633310
1640.000000	46.349121
1630.000000	45.912329
1620.000000	45.148938
1610.000000	44.331936
1600.000000	43.377775
1590.000000	42.541462
1580.000000	41.890602
1570.000000	41.296447
1560.000000	40.804454
1550.000000	40.241537
1540.000000	39.548836
1530.000000	38.615154
1520.000000	37.932461
1510.000000	37.446738
1500.000000	37.195472
1490.000000	37.275884
1480.000000	37.610698
1470.000000	38.133790
1460.000000	38.771768
1450.000000	39.528049
1440.000000	40.528132
1430.000000	41.316138
1420.000000	42.522848
1410.000000	44.840527
1400.000000	48.426849
1390.000000	52.672844
1380.000000	55.457347
1370.000000	56.272354
1360.000000	56.655317
1350.000000	57.175656
1340.000000	58.222199
1330.000000	59.439904
1320.000000	60.560444
1310.000000	61.221493
1300.000000	61.438514
1290.000000	61.539419
1280.000000	61.385756
1270.000000	61.335433
1260.000000	61.346819
1250.000000	61.275820
1240.000000	60.971594
1230.000000	60.536343
1220.000000	60.119241
1210.000000	59.626017
1200.000000	59.022319
1190.000000	58.846998
1180.000000	59.293232
1170.000000	60.331707
1160.000000	61.605386
1150.000000	62.439360
1140.000000	63.124474
1130.000000	63.938731
1120.000000	64.285299
1110.000000	64.336958
1100.000000	64.449156
1090.000000	64.496629
1080.000000	64.548784
1070.000000	64.410707
1060.000000	64.206597
1050.000000	64.134599
1040.000000	64.074582
1030.000000	63.900027
1020.000000	63.782289
1010.000000	64.210290
1000.000000	65.147333
990.000000	65.539326
980.000000	65.405361
970.000000	65.448543
960.000000	65.656540
950.000000	65.782927
940.000000	65.856647
930.000000	65.601823
920.000000	65.457306
910.000000	65.487527
900.000000	65.908140
890.000000	65.807542
880.000000	65.699421
870.000000	65.822307
860.000000	65.991941
850.000000	65.409252
840.000000	64.986084
830.000000	65.008444
820.000000	65.127225
810.000000	64.968713
800.000000	64.933485
790.000000	64.942820
780.000000	65.071404
770.000000	64.922849
760.000000	64.738845
750.000000	64.613873
740.000000	64.497696
730.000000	64.217715
720.000000	64.051481
710.000000	63.984732
700.000000	63.781343
690.000000	63.514289
680.000000	63.364485
670.000000	62.960382
660.000000	62.588876
650.000000	62.345422
640.000000	62.035250
630.000000	61.624545
620.000000	61.183065
610.000000	60.630275
600.000000	60.094807
590.000000	59.579106
580.000000	59.044699
570.000000	58.380363
560.000000	57.753625
550.000000	57.028482
540.000000	56.157138
530.000000	55.299600
520.000000	54.466487
510.000000	53.480727
500.000000	52.327360
490.000000	51.099709
480.000000	49.574460
470.000000	47.930283
460.000000	46.215454
450.000000	44.181066
440.000000	41.972861
430.000000	39.499834
420.000000	37.024950
410.000000	34.925114
400.000000	33.428890
390.000000	32.196577
380.000000	30.934757
370.000000	29.432435
360.000000	27.590502
350.000000	26.164975
340.000000	25.008140
330.000000	23.839519
320.000000	22.815081
310.000000	21.492890
300.000000	20.007663
290.000000	17.653429
280.000000	16.202868
270.000000	15.919975
260.000000	15.954622
250.000000	15.264604
