PE UV       SUBTECH     SPECTRUM    ASCII       PEDS        4.00        
   -1
3G-N10-C001.Sample.Raw.asc
22/03/09
16:05:40.00
22/03/09
16:05:40.00
Administrator

250.000000
1
Lambda 750
750N8071901
PerkinElmer UV WinLab 6.0.4.0738 / 1.61.00 Lambda 900

0
0
3350/servo 860.8/2
0
0
UV/VIS
1
1
1
CommonBeamDepol,150mm sphere / downward view
0
0
0
0
Program
Program
3350/servo 860.8/2
3350/0.2 860.8/0.2
3350/0.2 860.8/0.2
0
1
 
 
 
0
 
860.8
319.2
860.8
Front
100
on
 
 
0
0
0
 
0
 
 
 
0
 
 
0
0
0
0
0
 
 
 
 
0
0


0
0
#HDR
-1
-1
#GR
nm
%R
1.0
0.0
2500.000000
-10.000000
226
8
65.047094
19.313646
#DATA
2500.000000	21.524774
2490.000000	21.380666
2480.000000	26.489370
2470.000000	35.008011
2460.000000	27.402104
2450.000000	28.580994
2440.000000	26.873312
2430.000000	32.396016
2420.000000	34.317912
2410.000000	32.072272
2400.000000	32.020300
2390.000000	34.414613
2380.000000	29.784632
2370.000000	31.463258
2360.000000	33.407423
2350.000000	30.621520
2340.000000	31.628391
2330.000000	29.530511
2320.000000	28.301361
2310.000000	29.380509
2300.000000	31.484435
2290.000000	31.676517
2280.000000	31.790612
2270.000000	30.025437
2260.000000	29.693322
2250.000000	29.662263
2240.000000	32.600974
2230.000000	33.234709
2220.000000	35.497427
2210.000000	36.301250
2200.000000	35.829727
2190.000000	34.036888
2180.000000	33.048296
2170.000000	33.573627
2160.000000	34.111847
2150.000000	34.791152
2140.000000	35.421314
2130.000000	36.673981
2120.000000	36.420395
2110.000000	36.757845
2100.000000	37.661383
2090.000000	36.526977
2080.000000	37.679903
2070.000000	36.674996
2060.000000	35.314907
2050.000000	34.879219
2040.000000	34.696830
2030.000000	34.430957
2020.000000	34.742055
2010.000000	34.985083
2000.000000	35.205832
1990.000000	34.214698
1980.000000	32.930508
1970.000000	32.424834
1960.000000	31.580388
1950.000000	30.316457
1940.000000	30.277585
1930.000000	31.167243
1920.000000	32.714019
1910.000000	34.712382
1900.000000	38.169912
1890.000000	43.017451
1880.000000	46.580041
1870.000000	48.612753
1860.000000	49.730161
1850.000000	50.230505
1840.000000	50.398968
1830.000000	50.111046
1820.000000	49.854668
1810.000000	49.362844
1800.000000	49.320030
1790.000000	48.641105
1780.000000	48.466780
1770.000000	48.167187
1760.000000	47.724408
1750.000000	47.244485
1740.000000	46.696670
1730.000000	46.646279
1720.000000	47.368871
1710.000000	48.116882
1700.000000	48.352342
1690.000000	48.756556
1680.000000	49.880380
1670.000000	51.231984
1660.000000	52.264076
1650.000000	52.582865
1640.000000	52.515911
1630.000000	52.057940
1620.000000	51.807941
1610.000000	51.450199
1600.000000	50.859448
1590.000000	50.297100
1580.000000	49.901897
1570.000000	49.440947
1560.000000	49.194623
1550.000000	48.782781
1540.000000	48.357252
1530.000000	47.785597
1520.000000	47.289459
1510.000000	47.014709
1500.000000	46.807036
1490.000000	46.775237
1480.000000	47.101205
1470.000000	47.441125
1460.000000	47.885260
1450.000000	48.446335
1440.000000	49.014610
1430.000000	49.309047
1420.000000	49.804446
1410.000000	51.061075
1400.000000	53.506767
1390.000000	56.373956
1380.000000	58.165783
1370.000000	58.610664
1360.000000	58.606600
1350.000000	58.543414
1340.000000	59.053991
1330.000000	60.212248
1320.000000	61.075429
1310.000000	61.524267
1300.000000	61.726452
1290.000000	61.560383
1280.000000	61.558664
1270.000000	61.434107
1260.000000	61.334389
1250.000000	61.317762
1240.000000	61.115922
1230.000000	60.882097
1220.000000	60.829750
1210.000000	60.664355
1200.000000	60.320649
1190.000000	60.115052
1180.000000	60.365340
1170.000000	60.953496
1160.000000	61.637850
1150.000000	62.195502
1140.000000	62.540012
1130.000000	62.818406
1120.000000	63.112608
1110.000000	63.252751
1100.000000	63.257233
1090.000000	63.377956
1080.000000	63.488123
1070.000000	63.441476
1060.000000	63.358519
1050.000000	63.225980
1040.000000	63.164104
1030.000000	63.016103
1020.000000	62.913136
1010.000000	63.376049
1000.000000	64.093171
990.000000	64.450373
980.000000	64.418529
970.000000	64.368452
960.000000	64.530608
950.000000	64.630004
940.000000	64.644129
930.000000	64.398866
920.000000	64.195257
910.000000	64.238953
900.000000	64.449925
890.000000	64.464122
880.000000	64.661284
870.000000	65.047094
860.000000	64.900398
850.000000	63.884841
840.000000	63.928257
830.000000	63.843123
820.000000	63.687920
810.000000	63.756221
800.000000	63.758205
790.000000	63.716772
780.000000	63.885184
770.000000	64.073506
760.000000	63.886350
750.000000	63.858758
740.000000	63.745233
730.000000	63.612013
720.000000	63.592433
710.000000	63.657051
700.000000	63.458859
690.000000	63.389218
680.000000	63.406659
670.000000	63.353992
660.000000	63.094903
650.000000	63.079669
640.000000	63.070759
630.000000	62.859903
620.000000	62.644976
610.000000	62.446175
600.000000	62.269215
590.000000	62.133041
580.000000	61.865529
570.000000	61.560120
560.000000	61.288969
550.000000	60.851072
540.000000	60.417959
530.000000	60.020335
520.000000	59.612917
510.000000	59.114503
500.000000	58.575826
490.000000	57.993467
480.000000	57.199389
470.000000	56.569345
460.000000	55.843647
450.000000	54.830289
440.000000	53.522263
430.000000	52.157290
420.000000	50.737667
410.000000	49.155644
400.000000	47.807231
390.000000	46.526318
380.000000	44.904369
370.000000	43.426147
360.000000	41.679616
350.000000	39.964578
340.000000	38.307848
330.000000	36.837024
320.000000	35.720704
310.000000	34.335695
300.000000	31.383026
290.000000	26.735473
280.000000	22.794095
270.000000	21.865635
260.000000	21.369649
250.000000	19.313646
