PE UV       SUBTECH     SPECTRUM    ASCII       PEDS        4.00        
   -1
3G-H10-C027.Sample.Raw.asc
22/04/19
16:50:17.00
22/04/19
16:50:17.00
Administrator

250.000000
1
Lambda 750
750N8071901
PerkinElmer UV WinLab 6.0.4.0738 / 1.61.00 Lambda 900

0
0
3350/servo 860.8/2
0
0
UV/VIS
1
1
1
CommonBeamDepol,150mm sphere / downward view
0
0
0
0
Program
Program
3350/servo 860.8/2
3350/0.2 860.8/0.2
3350/0.2 860.8/0.2
0
1
 
 
 
0
 
860.8
319.2
860.8
Front
100
on
 
 
0
0
0
 
0
 
 
 
0
 
 
0
0
0
0
0
 
 
 
 
0
0


0
0
#HDR
-1
-1
#GR
nm
%R
1.0
0.0
2500.000000
-10.000000
226
8
64.667024
16.709055
#DATA
2500.000000	20.320875
2490.000000	19.402479
2480.000000	24.292377
2470.000000	26.377395
2460.000000	28.963009
2450.000000	25.659979
2440.000000	26.172260
2430.000000	29.671686
2420.000000	31.826533
2410.000000	29.816217
2400.000000	30.356831
2390.000000	31.782335
2380.000000	26.362472
2370.000000	25.604621
2360.000000	34.533581
2350.000000	28.132008
2340.000000	31.585414
2330.000000	28.483091
2320.000000	27.383750
2310.000000	30.274033
2300.000000	28.115148
2290.000000	29.589141
2280.000000	29.498611
2270.000000	29.529186
2260.000000	29.473456
2250.000000	30.049628
2240.000000	33.024244
2230.000000	31.430774
2220.000000	29.690354
2210.000000	31.138881
2200.000000	31.936982
2190.000000	32.538163
2180.000000	32.252635
2170.000000	28.884912
2160.000000	29.715066
2150.000000	32.658105
2140.000000	33.972202
2130.000000	34.094102
2120.000000	36.600213
2110.000000	34.417061
2100.000000	34.013733
2090.000000	35.362521
2080.000000	34.353305
2070.000000	34.230760
2060.000000	34.018377
2050.000000	32.467045
2040.000000	31.683557
2030.000000	32.593241
2020.000000	33.171628
2010.000000	33.424418
2000.000000	33.348030
1990.000000	31.990644
1980.000000	30.984144
1970.000000	30.424020
1960.000000	29.589363
1950.000000	28.998546
1940.000000	28.542981
1930.000000	28.691021
1920.000000	29.942683
1910.000000	33.453065
1900.000000	36.740654
1890.000000	40.236781
1880.000000	44.082814
1870.000000	46.389605
1860.000000	47.358877
1850.000000	48.453437
1840.000000	48.058423
1830.000000	47.876317
1820.000000	47.516275
1810.000000	47.301883
1800.000000	46.872134
1790.000000	46.314100
1780.000000	46.118298
1770.000000	45.627303
1760.000000	45.280972
1750.000000	44.962738
1740.000000	44.406872
1730.000000	44.420312
1720.000000	44.733486
1710.000000	45.611882
1700.000000	46.081907
1690.000000	46.661646
1680.000000	47.802424
1670.000000	49.292857
1660.000000	50.304157
1650.000000	50.745405
1640.000000	50.671741
1630.000000	50.285953
1620.000000	49.734832
1610.000000	49.220793
1600.000000	48.728230
1590.000000	48.174976
1580.000000	47.790758
1570.000000	47.359131
1560.000000	46.983503
1550.000000	46.668554
1540.000000	46.242838
1530.000000	45.417411
1520.000000	44.948414
1510.000000	44.533795
1500.000000	44.420731
1490.000000	44.483570
1480.000000	44.808923
1470.000000	45.191486
1460.000000	45.637027
1450.000000	46.029553
1440.000000	46.755343
1430.000000	47.610269
1420.000000	48.511932
1410.000000	49.958919
1400.000000	52.501724
1390.000000	55.320665
1380.000000	57.050848
1370.000000	57.721155
1360.000000	58.000307
1350.000000	58.192504
1340.000000	58.256464
1330.000000	58.797059
1320.000000	59.957129
1310.000000	61.057608
1300.000000	61.459493
1290.000000	61.671568
1280.000000	61.364556
1270.000000	61.077241
1260.000000	61.036560
1250.000000	60.942008
1240.000000	60.800744
1230.000000	60.440773
1220.000000	60.116098
1210.000000	59.831147
1200.000000	59.533474
1190.000000	59.426727
1180.000000	59.609518
1170.000000	60.456531
1160.000000	61.295319
1150.000000	61.846761
1140.000000	62.303800
1130.000000	62.765875
1120.000000	63.128348
1110.000000	63.420112
1100.000000	63.440178
1090.000000	63.437648
1080.000000	63.366476
1070.000000	63.261696
1060.000000	63.155020
1050.000000	63.242027
1040.000000	63.238033
1030.000000	63.140773
1020.000000	63.317045
1010.000000	63.651374
1000.000000	64.267466
990.000000	64.302397
980.000000	64.055819
970.000000	64.241830
960.000000	64.382605
950.000000	64.667024
940.000000	64.580024
930.000000	64.302057
920.000000	64.162409
910.000000	64.354981
900.000000	64.599466
890.000000	64.280547
880.000000	64.356715
870.000000	63.771250
860.000000	63.892739
850.000000	64.325942
840.000000	63.975300
830.000000	63.974841
820.000000	64.008530
810.000000	63.753352
800.000000	63.616397
790.000000	63.706285
780.000000	63.497691
770.000000	63.552763
760.000000	63.550055
750.000000	63.271218
740.000000	63.059967
730.000000	62.949999
720.000000	62.863483
710.000000	62.649518
700.000000	62.285265
690.000000	61.883503
680.000000	61.647559
670.000000	61.399053
660.000000	61.113403
650.000000	60.923034
640.000000	60.590732
630.000000	60.131330
620.000000	59.787242
610.000000	59.295635
600.000000	58.872082
590.000000	58.483879
580.000000	58.028866
570.000000	57.547261
560.000000	57.150380
550.000000	56.567088
540.000000	55.965976
530.000000	55.384286
520.000000	54.740216
510.000000	54.034451
500.000000	53.185406
490.000000	52.360494
480.000000	51.600251
470.000000	50.696472
460.000000	49.747559
450.000000	48.461332
440.000000	47.075062
430.000000	45.750504
420.000000	44.186667
410.000000	42.647842
400.000000	41.534197
390.000000	40.472377
380.000000	39.066348
370.000000	37.714737
360.000000	36.546116
350.000000	35.400413
340.000000	33.622238
330.000000	32.229388
320.000000	31.274010
310.000000	29.840633
300.000000	27.105172
290.000000	22.762534
280.000000	19.495396
270.000000	18.483713
260.000000	17.959711
250.000000	16.709055
