PE UV       SUBTECH     SPECTRUM    ASCII       PEDS        4.00        
   -1
3G-H10-C011.Sample.Raw.asc
22/04/19
16:04:07.00
22/04/19
16:04:07.00
Administrator

250.000000
1
Lambda 750
750N8071901
PerkinElmer UV WinLab 6.0.4.0738 / 1.61.00 Lambda 900

0
0
3350/servo 860.8/2
0
0
UV/VIS
1
1
1
CommonBeamDepol,150mm sphere / downward view
0
0
0
0
Program
Program
3350/servo 860.8/2
3350/0.2 860.8/0.2
3350/0.2 860.8/0.2
0
1
 
 
 
0
 
860.8
319.2
860.8
Front
100
on
 
 
0
0
0
 
0
 
 
 
0
 
 
0
0
0
0
0
 
 
 
 
0
0


0
0
#HDR
-1
-1
#GR
nm
%R
1.0
0.0
2500.000000
-10.000000
226
8
66.023436
16.525499
#DATA
2500.000000	21.805321
2490.000000	23.143586
2480.000000	23.232185
2470.000000	24.259706
2460.000000	26.835929
2450.000000	29.149637
2440.000000	27.342397
2430.000000	29.727302
2420.000000	29.749463
2410.000000	33.280830
2400.000000	34.050701
2390.000000	31.829064
2380.000000	29.688132
2370.000000	27.433709
2360.000000	32.901965
2350.000000	30.636742
2340.000000	28.925681
2330.000000	28.980294
2320.000000	29.415789
2310.000000	28.564570
2300.000000	31.060250
2290.000000	29.746771
2280.000000	28.160797
2270.000000	29.312698
2260.000000	29.001456
2250.000000	31.909104
2240.000000	31.813961
2230.000000	31.406565
2220.000000	33.375850
2210.000000	32.534982
2200.000000	31.495202
2190.000000	32.332133
2180.000000	31.993447
2170.000000	31.643069
2160.000000	30.841902
2150.000000	33.373793
2140.000000	34.432587
2130.000000	34.621574
2120.000000	35.837403
2110.000000	34.659859
2100.000000	36.238452
2090.000000	36.691500
2080.000000	35.464452
2070.000000	34.489572
2060.000000	34.406778
2050.000000	34.002073
2040.000000	33.109324
2030.000000	33.253153
2020.000000	33.645935
2010.000000	33.510408
2000.000000	33.645164
1990.000000	32.477261
1980.000000	31.623948
1970.000000	30.810614
1960.000000	30.142745
1950.000000	29.164211
1940.000000	28.911117
1930.000000	29.262222
1920.000000	30.975033
1910.000000	33.208276
1900.000000	36.487962
1890.000000	40.890892
1880.000000	44.095056
1870.000000	47.262074
1860.000000	48.863165
1850.000000	48.658962
1840.000000	48.622303
1830.000000	48.217612
1820.000000	47.722825
1810.000000	48.120330
1800.000000	47.766640
1790.000000	47.099610
1780.000000	46.472791
1770.000000	46.283079
1760.000000	45.700840
1750.000000	45.421641
1740.000000	44.991838
1730.000000	44.848899
1720.000000	45.292534
1710.000000	46.161160
1700.000000	46.472432
1690.000000	47.155335
1680.000000	48.547387
1670.000000	49.843819
1660.000000	50.931118
1650.000000	51.458652
1640.000000	51.245773
1630.000000	50.889310
1620.000000	50.235669
1610.000000	49.821023
1600.000000	49.237968
1590.000000	48.836805
1580.000000	48.362964
1570.000000	47.913781
1560.000000	47.598273
1550.000000	47.167820
1540.000000	46.647524
1530.000000	46.019217
1520.000000	45.568733
1510.000000	45.258759
1500.000000	44.992005
1490.000000	45.025314
1480.000000	45.446169
1470.000000	45.701602
1460.000000	46.162012
1450.000000	46.713138
1440.000000	47.512398
1430.000000	48.247101
1420.000000	49.071332
1410.000000	50.494595
1400.000000	53.107578
1390.000000	55.990681
1380.000000	57.902572
1370.000000	58.500591
1360.000000	58.764948
1350.000000	59.024008
1340.000000	59.358744
1330.000000	60.132871
1320.000000	61.221947
1310.000000	62.147772
1300.000000	62.434007
1290.000000	62.574005
1280.000000	62.349119
1270.000000	62.093126
1260.000000	62.192330
1250.000000	62.044137
1240.000000	61.889829
1230.000000	61.538162
1220.000000	61.196737
1210.000000	60.802667
1200.000000	60.490350
1190.000000	60.355990
1180.000000	60.538341
1170.000000	61.587211
1160.000000	62.581474
1150.000000	63.077677
1140.000000	63.509651
1130.000000	64.029225
1120.000000	64.274212
1110.000000	64.562331
1100.000000	64.646989
1090.000000	64.620463
1080.000000	64.567145
1070.000000	64.423132
1060.000000	64.323593
1050.000000	64.340879
1040.000000	64.276471
1030.000000	64.171558
1020.000000	64.294980
1010.000000	64.636382
1000.000000	65.244261
990.000000	65.300311
980.000000	65.204185
970.000000	65.360747
960.000000	65.440590
950.000000	65.638525
940.000000	65.609037
930.000000	65.525553
920.000000	65.496350
910.000000	65.593341
900.000000	65.733504
890.000000	66.023436
880.000000	66.015761
870.000000	65.059811
860.000000	64.581678
850.000000	65.325366
840.000000	65.249943
830.000000	65.207196
820.000000	65.213490
810.000000	65.041393
800.000000	64.841593
790.000000	64.847962
780.000000	64.721542
770.000000	64.709818
760.000000	64.655501
750.000000	64.517709
740.000000	64.513503
730.000000	64.365739
720.000000	64.236609
710.000000	63.966484
700.000000	63.610985
690.000000	63.165430
680.000000	63.013160
670.000000	62.908300
660.000000	62.748083
650.000000	62.408843
640.000000	62.084566
630.000000	61.754746
620.000000	61.446076
610.000000	60.838593
600.000000	60.406516
590.000000	60.115954
580.000000	59.725011
570.000000	59.340945
560.000000	58.899765
550.000000	58.267917
540.000000	57.675658
530.000000	57.125891
520.000000	56.506349
510.000000	55.820611
500.000000	55.011244
490.000000	54.248394
480.000000	53.420929
470.000000	52.534392
460.000000	51.500522
450.000000	50.204831
440.000000	48.863636
430.000000	47.416806
420.000000	45.827701
410.000000	44.283000
400.000000	43.066461
390.000000	41.951642
380.000000	40.644351
370.000000	39.188066
360.000000	37.893577
350.000000	36.821776
340.000000	35.565515
330.000000	34.284460
320.000000	32.599299
310.000000	30.140675
300.000000	27.779370
290.000000	23.100906
280.000000	19.411910
270.000000	18.370009
260.000000	17.919282
250.000000	16.525499
