PE UV       SUBTECH     SPECTRUM    ASCII       PEDS        4.00        
   -1
3G-H10-C022.Sample.Raw.asc
22/04/19
16:36:10.00
22/04/19
16:36:10.00
Administrator

250.000000
1
Lambda 750
750N8071901
PerkinElmer UV WinLab 6.0.4.0738 / 1.61.00 Lambda 900

0
0
3350/servo 860.8/2
0
0
UV/VIS
1
1
1
CommonBeamDepol,150mm sphere / downward view
0
0
0
0
Program
Program
3350/servo 860.8/2
3350/0.2 860.8/0.2
3350/0.2 860.8/0.2
0
1
 
 
 
0
 
860.8
319.2
860.8
Front
100
on
 
 
0
0
0
 
0
 
 
 
0
 
 
0
0
0
0
0
 
 
 
 
0
0


0
0
#HDR
-1
-1
#GR
nm
%R
1.0
0.0
2500.000000
-10.000000
226
8
65.240481
16.631432
#DATA
2500.000000	23.433561
2490.000000	21.926925
2480.000000	23.090412
2470.000000	26.518973
2460.000000	27.067836
2450.000000	31.304429
2440.000000	27.205849
2430.000000	28.308806
2420.000000	32.343116
2410.000000	29.393490
2400.000000	36.139709
2390.000000	30.116117
2380.000000	28.574272
2370.000000	27.010655
2360.000000	27.342778
2350.000000	31.292047
2340.000000	32.432483
2330.000000	30.143574
2320.000000	30.066953
2310.000000	28.888298
2300.000000	29.203443
2290.000000	30.106065
2280.000000	27.125383
2270.000000	28.274301
2260.000000	28.958663
2250.000000	31.062395
2240.000000	32.673815
2230.000000	31.119238
2220.000000	32.945128
2210.000000	34.154921
2200.000000	32.794148
2190.000000	31.574577
2180.000000	31.616504
2170.000000	31.242929
2160.000000	33.178409
2150.000000	31.522313
2140.000000	34.057273
2130.000000	34.560908
2120.000000	35.280896
2110.000000	35.069860
2100.000000	36.250936
2090.000000	35.989601
2080.000000	34.352674
2070.000000	33.706191
2060.000000	33.961185
2050.000000	33.513713
2040.000000	32.729288
2030.000000	32.983647
2020.000000	33.224399
2010.000000	33.542893
2000.000000	32.793380
1990.000000	31.926325
1980.000000	31.293999
1970.000000	30.754087
1960.000000	29.926998
1950.000000	29.026703
1940.000000	28.552151
1930.000000	28.903911
1920.000000	30.770377
1910.000000	32.844607
1900.000000	36.783828
1890.000000	40.333686
1880.000000	44.066060
1870.000000	46.474223
1860.000000	48.173593
1850.000000	48.005250
1840.000000	48.284359
1830.000000	48.102146
1820.000000	47.644170
1810.000000	47.752157
1800.000000	47.229291
1790.000000	46.625984
1780.000000	46.265896
1770.000000	46.170347
1760.000000	45.686716
1750.000000	45.137251
1740.000000	44.801384
1730.000000	44.573701
1720.000000	44.946671
1710.000000	45.741653
1700.000000	46.185962
1690.000000	46.906238
1680.000000	48.076478
1670.000000	49.599446
1660.000000	50.344668
1650.000000	50.872104
1640.000000	50.910867
1630.000000	50.308418
1620.000000	50.057394
1610.000000	49.563323
1600.000000	48.887845
1590.000000	48.406970
1580.000000	48.053664
1570.000000	47.574292
1560.000000	47.220647
1550.000000	46.804308
1540.000000	46.427837
1530.000000	45.658904
1520.000000	45.089191
1510.000000	44.860866
1500.000000	44.768911
1490.000000	44.753152
1480.000000	45.053770
1470.000000	45.461963
1460.000000	45.792078
1450.000000	46.350145
1440.000000	47.162493
1430.000000	47.973160
1420.000000	48.783548
1410.000000	50.182117
1400.000000	52.722152
1390.000000	55.667867
1380.000000	57.457861
1370.000000	58.093929
1360.000000	58.322261
1350.000000	58.633278
1340.000000	58.892047
1330.000000	59.494341
1320.000000	60.620852
1310.000000	61.737258
1300.000000	62.266706
1290.000000	62.466183
1280.000000	62.058121
1270.000000	61.724600
1260.000000	61.726650
1250.000000	61.654233
1240.000000	61.485163
1230.000000	61.073882
1220.000000	60.721852
1210.000000	60.273628
1200.000000	59.943934
1190.000000	59.920256
1180.000000	60.254696
1170.000000	61.094152
1160.000000	61.952916
1150.000000	62.672957
1140.000000	63.502569
1130.000000	64.017016
1120.000000	64.059282
1110.000000	64.107369
1100.000000	64.009634
1090.000000	64.049846
1080.000000	64.013777
1070.000000	63.872643
1060.000000	63.826314
1050.000000	63.834253
1040.000000	63.917910
1030.000000	63.832376
1020.000000	63.895116
1010.000000	64.235222
1000.000000	64.858553
990.000000	64.913760
980.000000	64.800856
970.000000	64.982189
960.000000	64.894294
950.000000	65.133689
940.000000	65.240481
930.000000	65.072859
920.000000	64.849148
910.000000	65.047643
900.000000	65.066845
890.000000	64.899661
880.000000	64.792222
870.000000	64.776386
860.000000	64.821183
850.000000	65.140740
840.000000	64.427198
830.000000	64.610220
820.000000	64.698993
810.000000	64.435188
800.000000	64.285798
790.000000	64.149814
780.000000	64.041887
770.000000	64.096354
760.000000	64.146257
750.000000	63.956280
740.000000	63.768177
730.000000	63.615841
720.000000	63.532257
710.000000	63.317667
700.000000	62.907036
690.000000	62.514197
680.000000	62.344282
670.000000	62.204591
660.000000	61.901931
650.000000	61.559463
640.000000	61.289676
630.000000	60.899039
620.000000	60.578406
610.000000	60.058929
600.000000	59.642935
590.000000	59.410175
580.000000	59.004573
570.000000	58.577753
560.000000	58.149164
550.000000	57.541673
540.000000	57.013278
530.000000	56.440880
520.000000	55.849774
510.000000	55.142070
500.000000	54.312928
490.000000	53.514623
480.000000	52.712238
470.000000	51.840697
460.000000	50.796020
450.000000	49.580585
440.000000	48.182304
430.000000	46.717760
420.000000	45.160860
410.000000	43.695989
400.000000	42.529534
390.000000	41.381490
380.000000	40.060968
370.000000	38.747611
360.000000	37.424483
350.000000	36.177040
340.000000	35.426004
330.000000	34.063785
320.000000	31.832085
310.000000	30.107750
300.000000	27.798475
290.000000	23.050175
280.000000	19.474039
270.000000	18.359020
260.000000	17.916931
250.000000	16.631432
