PE UV       SUBTECH     SPECTRUM    ASCII       PEDS        4.00        
   -1
3G-N10-C002.Sample.Raw.asc
22/03/09
16:09:14.00
22/03/09
16:09:14.00
Administrator

250.000000
1
Lambda 750
750N8071901
PerkinElmer UV WinLab 6.0.4.0738 / 1.61.00 Lambda 900

0
0
3350/servo 860.8/2
0
0
UV/VIS
1
1
1
CommonBeamDepol,150mm sphere / downward view
0
0
0
0
Program
Program
3350/servo 860.8/2
3350/0.2 860.8/0.2
3350/0.2 860.8/0.2
0
1
 
 
 
0
 
860.8
319.2
860.8
Front
100
on
 
 
0
0
0
 
0
 
 
 
0
 
 
0
0
0
0
0
 
 
 
 
0
0


0
0
#HDR
-1
-1
#GR
nm
%R
1.0
0.0
2500.000000
-10.000000
226
8
65.379208
19.360296
#DATA
2500.000000	21.694621
2490.000000	27.667182
2480.000000	30.314820
2470.000000	32.759808
2460.000000	28.964438
2450.000000	32.986750
2440.000000	27.586640
2430.000000	29.798923
2420.000000	32.698375
2410.000000	29.760697
2400.000000	35.340535
2390.000000	32.109663
2380.000000	30.156696
2370.000000	32.813808
2360.000000	32.493289
2350.000000	30.734475
2340.000000	35.505172
2330.000000	33.372705
2320.000000	30.087457
2310.000000	28.619938
2300.000000	31.082206
2290.000000	33.527742
2280.000000	31.642046
2270.000000	30.169408
2260.000000	29.539555
2250.000000	32.603592
2240.000000	34.786168
2230.000000	34.575378
2220.000000	34.164138
2210.000000	35.347253
2200.000000	34.345745
2190.000000	32.556321
2180.000000	33.466523
2170.000000	31.659449
2160.000000	34.938963
2150.000000	34.599891
2140.000000	35.969729
2130.000000	36.795811
2120.000000	37.787017
2110.000000	39.001790
2100.000000	38.180411
2090.000000	38.066955
2080.000000	37.513788
2070.000000	36.521522
2060.000000	35.678803
2050.000000	34.694872
2040.000000	35.048463
2030.000000	34.137994
2020.000000	34.971965
2010.000000	35.286718
2000.000000	34.839674
1990.000000	34.776552
1980.000000	33.771971
1970.000000	32.981126
1960.000000	31.795334
1950.000000	30.740141
1940.000000	30.502220
1930.000000	31.684392
1920.000000	33.111444
1910.000000	35.236269
1900.000000	39.166824
1890.000000	42.924429
1880.000000	46.497593
1870.000000	48.779994
1860.000000	50.135737
1850.000000	50.868324
1840.000000	50.486253
1830.000000	50.716572
1820.000000	50.314885
1810.000000	49.835954
1800.000000	49.247070
1790.000000	49.116669
1780.000000	48.858339
1770.000000	48.315473
1760.000000	48.080083
1750.000000	47.486967
1740.000000	46.959857
1730.000000	46.977081
1720.000000	47.575389
1710.000000	48.228738
1700.000000	48.836154
1690.000000	48.933580
1680.000000	49.858033
1670.000000	51.552713
1660.000000	52.516958
1650.000000	52.890067
1640.000000	52.903429
1630.000000	52.533556
1620.000000	52.096949
1610.000000	51.752461
1600.000000	51.146369
1590.000000	50.533460
1580.000000	50.175657
1570.000000	49.799085
1560.000000	49.505956
1550.000000	49.079279
1540.000000	48.570152
1530.000000	47.973164
1520.000000	47.586361
1510.000000	47.219840
1500.000000	47.070394
1490.000000	47.122468
1480.000000	47.430081
1470.000000	47.688153
1460.000000	48.159296
1450.000000	48.706046
1440.000000	49.242514
1430.000000	49.575280
1420.000000	50.007243
1410.000000	51.369309
1400.000000	53.738566
1390.000000	56.580591
1380.000000	58.531347
1370.000000	58.966366
1360.000000	58.770953
1350.000000	58.808331
1340.000000	59.355867
1330.000000	60.490084
1320.000000	61.391694
1310.000000	61.872523
1300.000000	62.047689
1290.000000	62.068107
1280.000000	61.917580
1270.000000	61.764110
1260.000000	61.787123
1250.000000	61.754220
1240.000000	61.452470
1230.000000	61.319355
1220.000000	61.349319
1210.000000	61.032505
1200.000000	60.699681
1190.000000	60.545355
1180.000000	60.846188
1170.000000	61.403577
1160.000000	62.143632
1150.000000	62.590474
1140.000000	63.056438
1130.000000	63.353989
1120.000000	63.543801
1110.000000	63.585905
1100.000000	63.676733
1090.000000	63.714074
1080.000000	63.759575
1070.000000	63.687967
1060.000000	63.570538
1050.000000	63.553879
1040.000000	63.368641
1030.000000	63.215947
1020.000000	63.114104
1010.000000	63.468956
1000.000000	64.271853
990.000000	64.663429
980.000000	64.595342
970.000000	64.664873
960.000000	64.730309
950.000000	64.807425
940.000000	64.867157
930.000000	64.861397
920.000000	64.522593
910.000000	64.173238
900.000000	64.555709
890.000000	64.902604
880.000000	65.379208
870.000000	65.137626
860.000000	64.368911
850.000000	64.429609
840.000000	64.226992
830.000000	64.238914
820.000000	64.575210
810.000000	64.519340
800.000000	64.495314
790.000000	64.621880
780.000000	64.692004
770.000000	64.863204
760.000000	64.606819
750.000000	64.452062
740.000000	64.362963
730.000000	64.340786
720.000000	64.152484
710.000000	64.247485
700.000000	64.120256
690.000000	64.007248
680.000000	63.993423
670.000000	63.893065
660.000000	63.732485
650.000000	63.694303
640.000000	63.582675
630.000000	63.485579
620.000000	63.334092
610.000000	63.078541
600.000000	62.894081
590.000000	62.701335
580.000000	62.454818
570.000000	62.244621
560.000000	61.925923
550.000000	61.538557
540.000000	61.111869
530.000000	60.657834
520.000000	60.207316
510.000000	59.768858
500.000000	59.217227
490.000000	58.623742
480.000000	57.870313
470.000000	57.096216
460.000000	56.282931
450.000000	55.230807
440.000000	54.029577
430.000000	52.697844
420.000000	51.270905
410.000000	49.731075
400.000000	48.184329
390.000000	46.847371
380.000000	45.497267
370.000000	44.110114
360.000000	42.290925
350.000000	40.606601
340.000000	39.293516
330.000000	37.350596
320.000000	35.881973
310.000000	34.271892
300.000000	31.301669
290.000000	26.699034
280.000000	22.901048
270.000000	21.986102
260.000000	21.421970
250.000000	19.360296
