PE IR       SUBTECH     SPECTRUM    ASCII       PEDS        4.00        
   -1
3S-H10-C040_1.ASC
22/02/18
10:27:58.00
22/02/18
10:28:19.00
uco
Sample 040 By uco Date Friday, February 18 2022
450.000000
#HDR
-1
-1
#GR
cm-1
A
1.0
0.0
4000.000000
-1.000000
3551
8
0.118145
0.003845
#DATA
4000.000000	0.004252
3999.000000	0.004268
3998.000000	0.004279
3997.000000	0.004267
3996.000000	0.004254
3995.000000	0.004241
3994.000000	0.004240
3993.000000	0.004256
3992.000000	0.004284
3991.000000	0.004316
3990.000000	0.004343
3989.000000	0.004358
3988.000000	0.004358
3987.000000	0.004339
3986.000000	0.004308
3985.000000	0.004274
3984.000000	0.004250
3983.000000	0.004245
3982.000000	0.004260
3981.000000	0.004284
3980.000000	0.004307
3979.000000	0.004319
3978.000000	0.004323
3977.000000	0.004325
3976.000000	0.004330
3975.000000	0.004337
3974.000000	0.004344
3973.000000	0.004350
3972.000000	0.004357
3971.000000	0.004369
3970.000000	0.004384
3969.000000	0.004396
3968.000000	0.004400
3967.000000	0.004394
3966.000000	0.004380
3965.000000	0.004363
3964.000000	0.004347
3963.000000	0.004335
3962.000000	0.004329
3961.000000	0.004327
3960.000000	0.004327
3959.000000	0.004329
3958.000000	0.004328
3957.000000	0.004325
3956.000000	0.004321
3955.000000	0.004321
3954.000000	0.004329
3953.000000	0.004345
3952.000000	0.004362
3951.000000	0.004371
3950.000000	0.004370
3949.000000	0.004365
3948.000000	0.004362
3947.000000	0.004364
3946.000000	0.004367
3945.000000	0.004368
3944.000000	0.004364
3943.000000	0.004359
3942.000000	0.004358
3941.000000	0.004360
3940.000000	0.004361
3939.000000	0.004357
3938.000000	0.004345
3937.000000	0.004335
3936.000000	0.004333
3935.000000	0.004345
3934.000000	0.004370
3933.000000	0.004397
3932.000000	0.004414
3931.000000	0.004417
3930.000000	0.004409
3929.000000	0.004396
3928.000000	0.004381
3927.000000	0.004360
3926.000000	0.004337
3925.000000	0.004323
3924.000000	0.004331
3923.000000	0.004359
3922.000000	0.004389
3921.000000	0.004407
3920.000000	0.004409
3919.000000	0.004397
3918.000000	0.004375
3917.000000	0.004352
3916.000000	0.004339
3915.000000	0.004343
3914.000000	0.004359
3913.000000	0.004374
3912.000000	0.004382
3911.000000	0.004388
3910.000000	0.004403
3909.000000	0.004427
3908.000000	0.004451
3907.000000	0.004462
3906.000000	0.004456
3905.000000	0.004438
3904.000000	0.004423
3903.000000	0.004417
3902.000000	0.004404
3901.000000	0.004368
3900.000000	0.004319
3899.000000	0.004282
3898.000000	0.004276
3897.000000	0.004291
3896.000000	0.004309
3895.000000	0.004320
3894.000000	0.004323
3893.000000	0.004311
3892.000000	0.004289
3891.000000	0.004274
3890.000000	0.004286
3889.000000	0.004321
3888.000000	0.004358
3887.000000	0.004379
3886.000000	0.004379
3885.000000	0.004367
3884.000000	0.004362
3883.000000	0.004361
3882.000000	0.004353
3881.000000	0.004336
3880.000000	0.004326
3879.000000	0.004340
3878.000000	0.004372
3877.000000	0.004403
3876.000000	0.004422
3875.000000	0.004426
3874.000000	0.004422
3873.000000	0.004417
3872.000000	0.004408
3871.000000	0.004382
3870.000000	0.004347
3869.000000	0.004330
3868.000000	0.004339
3867.000000	0.004353
3866.000000	0.004351
3865.000000	0.004333
3864.000000	0.004306
3863.000000	0.004288
3862.000000	0.004286
3861.000000	0.004296
3860.000000	0.004312
3859.000000	0.004331
3858.000000	0.004351
3857.000000	0.004378
3856.000000	0.004412
3855.000000	0.004435
3854.000000	0.004417
3853.000000	0.004371
3852.000000	0.004349
3851.000000	0.004344
3850.000000	0.004327
3849.000000	0.004304
3848.000000	0.004290
3847.000000	0.004287
3846.000000	0.004292
3845.000000	0.004298
3844.000000	0.004304
3843.000000	0.004313
3842.000000	0.004328
3841.000000	0.004348
3840.000000	0.004368
3839.000000	0.004384
3838.000000	0.004395
3837.000000	0.004401
3836.000000	0.004401
3835.000000	0.004390
3834.000000	0.004369
3833.000000	0.004344
3832.000000	0.004328
3831.000000	0.004332
3830.000000	0.004359
3829.000000	0.004392
3828.000000	0.004416
3827.000000	0.004430
3826.000000	0.004445
3825.000000	0.004470
3824.000000	0.004498
3823.000000	0.004509
3822.000000	0.004483
3821.000000	0.004426
3820.000000	0.004381
3819.000000	0.004354
3818.000000	0.004321
3817.000000	0.004272
3816.000000	0.004227
3815.000000	0.004213
3814.000000	0.004232
3813.000000	0.004263
3812.000000	0.004289
3811.000000	0.004306
3810.000000	0.004311
3809.000000	0.004307
3808.000000	0.004302
3807.000000	0.004314
3806.000000	0.004350
3805.000000	0.004390
3804.000000	0.004404
3803.000000	0.004382
3802.000000	0.004337
3801.000000	0.004307
3800.000000	0.004308
3799.000000	0.004316
3798.000000	0.004307
3797.000000	0.004290
3796.000000	0.004282
3795.000000	0.004286
3794.000000	0.004292
3793.000000	0.004290
3792.000000	0.004281
3791.000000	0.004276
3790.000000	0.004278
3789.000000	0.004289
3788.000000	0.004306
3787.000000	0.004318
3786.000000	0.004317
3785.000000	0.004304
3784.000000	0.004295
3783.000000	0.004303
3782.000000	0.004328
3781.000000	0.004352
3780.000000	0.004359
3779.000000	0.004345
3778.000000	0.004321
3777.000000	0.004301
3776.000000	0.004289
3775.000000	0.004286
3774.000000	0.004295
3773.000000	0.004316
3772.000000	0.004342
3771.000000	0.004361
3770.000000	0.004368
3769.000000	0.004358
3768.000000	0.004332
3767.000000	0.004294
3766.000000	0.004257
3765.000000	0.004242
3764.000000	0.004251
3763.000000	0.004270
3762.000000	0.004283
3761.000000	0.004287
3760.000000	0.004287
3759.000000	0.004293
3758.000000	0.004308
3757.000000	0.004327
3756.000000	0.004336
3755.000000	0.004329
3754.000000	0.004316
3753.000000	0.004312
3752.000000	0.004329
3751.000000	0.004364
3750.000000	0.004411
3749.000000	0.004455
3748.000000	0.004474
3747.000000	0.004464
3746.000000	0.004439
3745.000000	0.004423
3744.000000	0.004431
3743.000000	0.004448
3742.000000	0.004437
3741.000000	0.004396
3740.000000	0.004363
3739.000000	0.004374
3738.000000	0.004423
3737.000000	0.004463
3736.000000	0.004446
3735.000000	0.004373
3734.000000	0.004293
3733.000000	0.004247
3732.000000	0.004240
3731.000000	0.004255
3730.000000	0.004271
3729.000000	0.004281
3728.000000	0.004287
3727.000000	0.004294
3726.000000	0.004298
3725.000000	0.004291
3724.000000	0.004271
3723.000000	0.004246
3722.000000	0.004231
3721.000000	0.004235
3720.000000	0.004250
3719.000000	0.004261
3718.000000	0.004262
3717.000000	0.004257
3716.000000	0.004255
3715.000000	0.004265
3714.000000	0.004297
3713.000000	0.004342
3712.000000	0.004368
3711.000000	0.004352
3710.000000	0.004309
3709.000000	0.004269
3708.000000	0.004246
3707.000000	0.004232
3706.000000	0.004224
3705.000000	0.004220
3704.000000	0.004228
3703.000000	0.004247
3702.000000	0.004272
3701.000000	0.004300
3700.000000	0.004332
3699.000000	0.004359
3698.000000	0.004376
3697.000000	0.004383
3696.000000	0.004386
3695.000000	0.004388
3694.000000	0.004392
3693.000000	0.004400
3692.000000	0.004410
3691.000000	0.004420
3690.000000	0.004429
3689.000000	0.004446
3688.000000	0.004477
3687.000000	0.004504
3686.000000	0.004506
3685.000000	0.004492
3684.000000	0.004484
3683.000000	0.004496
3682.000000	0.004524
3681.000000	0.004549
3680.000000	0.004565
3679.000000	0.004581
3678.000000	0.004612
3677.000000	0.004660
3676.000000	0.004705
3675.000000	0.004740
3674.000000	0.004772
3673.000000	0.004783
3672.000000	0.004771
3671.000000	0.004757
3670.000000	0.004764
3669.000000	0.004801
3668.000000	0.004853
3667.000000	0.004891
3666.000000	0.004902
3665.000000	0.004891
3664.000000	0.004873
3663.000000	0.004860
3662.000000	0.004859
3661.000000	0.004877
3660.000000	0.004910
3659.000000	0.004953
3658.000000	0.004998
3657.000000	0.005040
3656.000000	0.005079
3655.000000	0.005121
3654.000000	0.005157
3653.000000	0.005182
3652.000000	0.005198
3651.000000	0.005209
3650.000000	0.005219
3649.000000	0.005243
3648.000000	0.005292
3647.000000	0.005352
3646.000000	0.005400
3645.000000	0.005428
3644.000000	0.005442
3643.000000	0.005453
3642.000000	0.005466
3641.000000	0.005479
3640.000000	0.005490
3639.000000	0.005503
3638.000000	0.005527
3637.000000	0.005573
3636.000000	0.005637
3635.000000	0.005703
3634.000000	0.005757
3633.000000	0.005795
3632.000000	0.005827
3631.000000	0.005867
3630.000000	0.005920
3629.000000	0.005981
3628.000000	0.006055
3627.000000	0.006130
3626.000000	0.006175
3625.000000	0.006184
3624.000000	0.006176
3623.000000	0.006171
3622.000000	0.006176
3621.000000	0.006194
3620.000000	0.006227
3619.000000	0.006283
3618.000000	0.006364
3617.000000	0.006448
3616.000000	0.006508
3615.000000	0.006536
3614.000000	0.006552
3613.000000	0.006582
3612.000000	0.006635
3611.000000	0.006696
3610.000000	0.006749
3609.000000	0.006788
3608.000000	0.006817
3607.000000	0.006847
3606.000000	0.006884
3605.000000	0.006932
3604.000000	0.006991
3603.000000	0.007048
3602.000000	0.007086
3601.000000	0.007095
3600.000000	0.007089
3599.000000	0.007096
3598.000000	0.007133
3597.000000	0.007194
3596.000000	0.007257
3595.000000	0.007307
3594.000000	0.007347
3593.000000	0.007397
3592.000000	0.007468
3591.000000	0.007556
3590.000000	0.007647
3589.000000	0.007725
3588.000000	0.007781
3587.000000	0.007826
3586.000000	0.007882
3585.000000	0.007947
3584.000000	0.008002
3583.000000	0.008034
3582.000000	0.008049
3581.000000	0.008066
3580.000000	0.008105
3579.000000	0.008171
3578.000000	0.008255
3577.000000	0.008343
3576.000000	0.008422
3575.000000	0.008492
3574.000000	0.008558
3573.000000	0.008626
3572.000000	0.008696
3571.000000	0.008763
3570.000000	0.008819
3569.000000	0.008864
3568.000000	0.008904
3567.000000	0.008947
3566.000000	0.009001
3565.000000	0.009062
3564.000000	0.009116
3563.000000	0.009156
3562.000000	0.009188
3561.000000	0.009222
3560.000000	0.009271
3559.000000	0.009345
3558.000000	0.009443
3557.000000	0.009559
3556.000000	0.009676
3555.000000	0.009782
3554.000000	0.009864
3553.000000	0.009920
3552.000000	0.009958
3551.000000	0.009994
3550.000000	0.010042
3549.000000	0.010108
3548.000000	0.010187
3547.000000	0.010270
3546.000000	0.010348
3545.000000	0.010419
3544.000000	0.010487
3543.000000	0.010551
3542.000000	0.010608
3541.000000	0.010658
3540.000000	0.010704
3539.000000	0.010748
3538.000000	0.010797
3537.000000	0.010851
3536.000000	0.010909
3535.000000	0.010964
3534.000000	0.011014
3533.000000	0.011066
3532.000000	0.011130
3531.000000	0.011209
3530.000000	0.011295
3529.000000	0.011371
3528.000000	0.011432
3527.000000	0.011482
3526.000000	0.011532
3525.000000	0.011590
3524.000000	0.011656
3523.000000	0.011731
3522.000000	0.011815
3521.000000	0.011900
3520.000000	0.011972
3519.000000	0.012023
3518.000000	0.012056
3517.000000	0.012087
3516.000000	0.012128
3515.000000	0.012182
3514.000000	0.012241
3513.000000	0.012297
3512.000000	0.012344
3511.000000	0.012389
3510.000000	0.012447
3509.000000	0.012529
3508.000000	0.012632
3507.000000	0.012737
3506.000000	0.012817
3505.000000	0.012861
3504.000000	0.012877
3503.000000	0.012891
3502.000000	0.012922
3501.000000	0.012968
3500.000000	0.013015
3499.000000	0.013059
3498.000000	0.013105
3497.000000	0.013161
3496.000000	0.013227
3495.000000	0.013301
3494.000000	0.013380
3493.000000	0.013462
3492.000000	0.013543
3491.000000	0.013616
3490.000000	0.013674
3489.000000	0.013715
3488.000000	0.013749
3487.000000	0.013794
3486.000000	0.013861
3485.000000	0.013949
3484.000000	0.014038
3483.000000	0.014107
3482.000000	0.014151
3481.000000	0.014182
3480.000000	0.014218
3479.000000	0.014270
3478.000000	0.014335
3477.000000	0.014396
3476.000000	0.014443
3475.000000	0.014480
3474.000000	0.014519
3473.000000	0.014566
3472.000000	0.014612
3471.000000	0.014648
3470.000000	0.014672
3469.000000	0.014690
3468.000000	0.014707
3467.000000	0.014728
3466.000000	0.014755
3465.000000	0.014786
3464.000000	0.014814
3463.000000	0.014837
3462.000000	0.014866
3461.000000	0.014914
3460.000000	0.014984
3459.000000	0.015060
3458.000000	0.015125
3457.000000	0.015175
3456.000000	0.015214
3455.000000	0.015248
3454.000000	0.015278
3453.000000	0.015299
3452.000000	0.015314
3451.000000	0.015330
3450.000000	0.015352
3449.000000	0.015383
3448.000000	0.015413
3447.000000	0.015434
3446.000000	0.015448
3445.000000	0.015466
3444.000000	0.015500
3443.000000	0.015553
3442.000000	0.015616
3441.000000	0.015679
3440.000000	0.015733
3439.000000	0.015776
3438.000000	0.015808
3437.000000	0.015827
3436.000000	0.015831
3435.000000	0.015826
3434.000000	0.015826
3433.000000	0.015840
3432.000000	0.015868
3431.000000	0.015901
3430.000000	0.015934
3429.000000	0.015970
3428.000000	0.016015
3427.000000	0.016069
3426.000000	0.016121
3425.000000	0.016163
3424.000000	0.016192
3423.000000	0.016217
3422.000000	0.016246
3421.000000	0.016278
3420.000000	0.016304
3419.000000	0.016321
3418.000000	0.016335
3417.000000	0.016360
3416.000000	0.016403
3415.000000	0.016459
3414.000000	0.016511
3413.000000	0.016543
3412.000000	0.016548
3411.000000	0.016537
3410.000000	0.016534
3409.000000	0.016562
3408.000000	0.016627
3407.000000	0.016714
3406.000000	0.016802
3405.000000	0.016871
3404.000000	0.016914
3403.000000	0.016934
3402.000000	0.016944
3401.000000	0.016952
3400.000000	0.016966
3399.000000	0.016987
3398.000000	0.017012
3397.000000	0.017034
3396.000000	0.017051
3395.000000	0.017068
3394.000000	0.017090
3393.000000	0.017122
3392.000000	0.017162
3391.000000	0.017209
3390.000000	0.017260
3389.000000	0.017310
3388.000000	0.017354
3387.000000	0.017393
3386.000000	0.017431
3385.000000	0.017471
3384.000000	0.017510
3383.000000	0.017548
3382.000000	0.017584
3381.000000	0.017614
3380.000000	0.017634
3379.000000	0.017643
3378.000000	0.017655
3377.000000	0.017685
3376.000000	0.017738
3375.000000	0.017803
3374.000000	0.017872
3373.000000	0.017939
3372.000000	0.018004
3371.000000	0.018064
3370.000000	0.018115
3369.000000	0.018162
3368.000000	0.018214
3367.000000	0.018275
3366.000000	0.018345
3365.000000	0.018417
3364.000000	0.018483
3363.000000	0.018540
3362.000000	0.018592
3361.000000	0.018644
3360.000000	0.018705
3359.000000	0.018778
3358.000000	0.018860
3357.000000	0.018945
3356.000000	0.019024
3355.000000	0.019098
3354.000000	0.019170
3353.000000	0.019236
3352.000000	0.019292
3351.000000	0.019341
3350.000000	0.019397
3349.000000	0.019469
3348.000000	0.019547
3347.000000	0.019617
3346.000000	0.019682
3345.000000	0.019755
3344.000000	0.019844
3343.000000	0.019939
3342.000000	0.020029
3341.000000	0.020109
3340.000000	0.020180
3339.000000	0.020248
3338.000000	0.020317
3337.000000	0.020390
3336.000000	0.020467
3335.000000	0.020543
3334.000000	0.020608
3333.000000	0.020659
3332.000000	0.020700
3331.000000	0.020741
3330.000000	0.020786
3329.000000	0.020834
3328.000000	0.020878
3327.000000	0.020918
3326.000000	0.020957
3325.000000	0.020998
3324.000000	0.021041
3323.000000	0.021086
3322.000000	0.021136
3321.000000	0.021187
3320.000000	0.021228
3319.000000	0.021253
3318.000000	0.021263
3317.000000	0.021272
3316.000000	0.021285
3315.000000	0.021306
3314.000000	0.021334
3313.000000	0.021366
3312.000000	0.021396
3311.000000	0.021415
3310.000000	0.021420
3309.000000	0.021415
3308.000000	0.021411
3307.000000	0.021416
3306.000000	0.021432
3305.000000	0.021456
3304.000000	0.021478
3303.000000	0.021491
3302.000000	0.021499
3301.000000	0.021513
3300.000000	0.021541
3299.000000	0.021580
3298.000000	0.021617
3297.000000	0.021640
3296.000000	0.021643
3295.000000	0.021625
3294.000000	0.021593
3293.000000	0.021550
3292.000000	0.021507
3291.000000	0.021476
3290.000000	0.021472
3289.000000	0.021501
3288.000000	0.021551
3287.000000	0.021599
3286.000000	0.021628
3285.000000	0.021632
3284.000000	0.021615
3283.000000	0.021584
3282.000000	0.021545
3281.000000	0.021506
3280.000000	0.021469
3279.000000	0.021433
3278.000000	0.021393
3277.000000	0.021349
3276.000000	0.021307
3275.000000	0.021273
3274.000000	0.021246
3273.000000	0.021219
3272.000000	0.021185
3271.000000	0.021150
3270.000000	0.021124
3269.000000	0.021102
3268.000000	0.021069
3267.000000	0.021018
3266.000000	0.020957
3265.000000	0.020907
3264.000000	0.020880
3263.000000	0.020867
3262.000000	0.020851
3261.000000	0.020818
3260.000000	0.020761
3259.000000	0.020687
3258.000000	0.020610
3257.000000	0.020544
3256.000000	0.020496
3255.000000	0.020462
3254.000000	0.020436
3253.000000	0.020410
3252.000000	0.020375
3251.000000	0.020322
3250.000000	0.020249
3249.000000	0.020166
3248.000000	0.020090
3247.000000	0.020033
3246.000000	0.019997
3245.000000	0.019974
3244.000000	0.019955
3243.000000	0.019936
3242.000000	0.019914
3241.000000	0.019887
3240.000000	0.019854
3239.000000	0.019813
3238.000000	0.019769
3237.000000	0.019723
3236.000000	0.019681
3235.000000	0.019647
3234.000000	0.019623
3233.000000	0.019604
3232.000000	0.019579
3231.000000	0.019542
3230.000000	0.019495
3229.000000	0.019445
3228.000000	0.019394
3227.000000	0.019346
3226.000000	0.019303
3225.000000	0.019271
3224.000000	0.019249
3223.000000	0.019234
3222.000000	0.019219
3221.000000	0.019200
3220.000000	0.019170
3219.000000	0.019130
3218.000000	0.019085
3217.000000	0.019040
3216.000000	0.018995
3215.000000	0.018949
3214.000000	0.018905
3213.000000	0.018859
3212.000000	0.018809
3211.000000	0.018752
3210.000000	0.018697
3209.000000	0.018650
3208.000000	0.018606
3207.000000	0.018556
3206.000000	0.018505
3205.000000	0.018465
3204.000000	0.018438
3203.000000	0.018413
3202.000000	0.018374
3201.000000	0.018323
3200.000000	0.018272
3199.000000	0.018226
3198.000000	0.018180
3197.000000	0.018120
3196.000000	0.018045
3195.000000	0.017957
3194.000000	0.017868
3193.000000	0.017790
3192.000000	0.017729
3191.000000	0.017684
3190.000000	0.017652
3189.000000	0.017628
3188.000000	0.017606
3187.000000	0.017577
3186.000000	0.017528
3185.000000	0.017455
3184.000000	0.017367
3183.000000	0.017287
3182.000000	0.017235
3181.000000	0.017206
3180.000000	0.017177
3179.000000	0.017131
3178.000000	0.017067
3177.000000	0.017002
3176.000000	0.016947
3175.000000	0.016899
3174.000000	0.016849
3173.000000	0.016784
3172.000000	0.016701
3171.000000	0.016606
3170.000000	0.016513
3169.000000	0.016431
3168.000000	0.016362
3167.000000	0.016306
3166.000000	0.016262
3165.000000	0.016231
3164.000000	0.016204
3163.000000	0.016172
3162.000000	0.016129
3161.000000	0.016071
3160.000000	0.015996
3159.000000	0.015905
3158.000000	0.015813
3157.000000	0.015731
3156.000000	0.015663
3155.000000	0.015604
3154.000000	0.015552
3153.000000	0.015513
3152.000000	0.015488
3151.000000	0.015471
3150.000000	0.015449
3149.000000	0.015415
3148.000000	0.015362
3147.000000	0.015292
3146.000000	0.015211
3145.000000	0.015135
3144.000000	0.015077
3143.000000	0.015038
3142.000000	0.015002
3141.000000	0.014956
3140.000000	0.014899
3139.000000	0.014848
3138.000000	0.014823
3137.000000	0.014824
3136.000000	0.014835
3135.000000	0.014836
3134.000000	0.014820
3133.000000	0.014788
3132.000000	0.014745
3131.000000	0.014696
3130.000000	0.014650
3129.000000	0.014614
3128.000000	0.014586
3127.000000	0.014561
3126.000000	0.014533
3125.000000	0.014503
3124.000000	0.014470
3123.000000	0.014433
3122.000000	0.014400
3121.000000	0.014380
3120.000000	0.014373
3119.000000	0.014372
3118.000000	0.014368
3117.000000	0.014366
3116.000000	0.014374
3115.000000	0.014394
3114.000000	0.014421
3113.000000	0.014450
3112.000000	0.014476
3111.000000	0.014498
3110.000000	0.014518
3109.000000	0.014542
3108.000000	0.014569
3107.000000	0.014588
3106.000000	0.014591
3105.000000	0.014581
3104.000000	0.014572
3103.000000	0.014579
3102.000000	0.014608
3101.000000	0.014651
3100.000000	0.014689
3099.000000	0.014711
3098.000000	0.014719
3097.000000	0.014730
3096.000000	0.014755
3095.000000	0.014792
3094.000000	0.014830
3093.000000	0.014859
3092.000000	0.014881
3091.000000	0.014900
3090.000000	0.014917
3089.000000	0.014931
3088.000000	0.014944
3087.000000	0.014962
3086.000000	0.014992
3085.000000	0.015035
3084.000000	0.015080
3083.000000	0.015110
3082.000000	0.015120
3081.000000	0.015118
3080.000000	0.015121
3079.000000	0.015138
3078.000000	0.015164
3077.000000	0.015186
3076.000000	0.015198
3075.000000	0.015206
3074.000000	0.015214
3073.000000	0.015219
3072.000000	0.015217
3071.000000	0.015207
3070.000000	0.015196
3069.000000	0.015185
3068.000000	0.015172
3067.000000	0.015158
3066.000000	0.015146
3065.000000	0.015137
3064.000000	0.015124
3063.000000	0.015101
3062.000000	0.015066
3061.000000	0.015027
3060.000000	0.014989
3059.000000	0.014948
3058.000000	0.014906
3057.000000	0.014868
3056.000000	0.014835
3055.000000	0.014796
3054.000000	0.014737
3053.000000	0.014659
3052.000000	0.014578
3051.000000	0.014518
3050.000000	0.014485
3049.000000	0.014462
3048.000000	0.014435
3047.000000	0.014399
3046.000000	0.014362
3045.000000	0.014325
3044.000000	0.014281
3043.000000	0.014228
3042.000000	0.014181
3041.000000	0.014156
3040.000000	0.014159
3039.000000	0.014175
3038.000000	0.014186
3037.000000	0.014182
3036.000000	0.014168
3035.000000	0.014152
3034.000000	0.014139
3033.000000	0.014127
3032.000000	0.014110
3031.000000	0.014087
3030.000000	0.014074
3029.000000	0.014089
3028.000000	0.014135
3027.000000	0.014205
3026.000000	0.014281
3025.000000	0.014354
3024.000000	0.014424
3023.000000	0.014503
3022.000000	0.014604
3021.000000	0.014734
3020.000000	0.014895
3019.000000	0.015089
3018.000000	0.015316
3017.000000	0.015574
3016.000000	0.015850
3015.000000	0.016137
3014.000000	0.016441
3013.000000	0.016765
3012.000000	0.017102
3011.000000	0.017434
3010.000000	0.017747
3009.000000	0.018033
3008.000000	0.018282
3007.000000	0.018479
3006.000000	0.018610
3005.000000	0.018674
3004.000000	0.018674
3003.000000	0.018616
3002.000000	0.018504
3001.000000	0.018347
3000.000000	0.018157
2999.000000	0.017950
2998.000000	0.017749
2997.000000	0.017571
2996.000000	0.017427
2995.000000	0.017320
2994.000000	0.017258
2993.000000	0.017253
2992.000000	0.017314
2991.000000	0.017428
2990.000000	0.017574
2989.000000	0.017735
2988.000000	0.017912
2987.000000	0.018120
2986.000000	0.018372
2985.000000	0.018675
2984.000000	0.019025
2983.000000	0.019415
2982.000000	0.019840
2981.000000	0.020296
2980.000000	0.020784
2979.000000	0.021313
2978.000000	0.021894
2977.000000	0.022539
2976.000000	0.023249
2975.000000	0.024027
2974.000000	0.024875
2973.000000	0.025798
2972.000000	0.026798
2971.000000	0.027881
2970.000000	0.029051
2969.000000	0.030309
2968.000000	0.031648
2967.000000	0.033058
2966.000000	0.034528
2965.000000	0.036041
2964.000000	0.037560
2963.000000	0.039046
2962.000000	0.040466
2961.000000	0.041801
2960.000000	0.043031
2959.000000	0.044136
2958.000000	0.045094
2957.000000	0.045890
2956.000000	0.046514
2955.000000	0.046962
2954.000000	0.047254
2953.000000	0.047426
2952.000000	0.047538
2951.000000	0.047659
2950.000000	0.047866
2949.000000	0.048237
2948.000000	0.048832
2947.000000	0.049688
2946.000000	0.050817
2945.000000	0.052220
2944.000000	0.053898
2943.000000	0.055860
2942.000000	0.058112
2941.000000	0.060646
2940.000000	0.063443
2939.000000	0.066482
2938.000000	0.069747
2937.000000	0.073221
2936.000000	0.076877
2935.000000	0.080686
2934.000000	0.084615
2933.000000	0.088627
2932.000000	0.092672
2931.000000	0.096700
2930.000000	0.100655
2929.000000	0.104470
2928.000000	0.108052
2927.000000	0.111284
2926.000000	0.114039
2925.000000	0.116178
2924.000000	0.117578
2923.000000	0.118145
2922.000000	0.117833
2921.000000	0.116634
2920.000000	0.114583
2919.000000	0.111772
2918.000000	0.108348
2917.000000	0.104482
2916.000000	0.100344
2915.000000	0.096089
2914.000000	0.091859
2913.000000	0.087779
2912.000000	0.083943
2911.000000	0.080403
2910.000000	0.077171
2909.000000	0.074233
2908.000000	0.071562
2907.000000	0.069121
2906.000000	0.066876
2905.000000	0.064792
2904.000000	0.062843
2903.000000	0.061008
2902.000000	0.059274
2901.000000	0.057631
2900.000000	0.056072
2899.000000	0.054582
2898.000000	0.053140
2897.000000	0.051726
2896.000000	0.050335
2895.000000	0.048975
2894.000000	0.047659
2893.000000	0.046394
2892.000000	0.045172
2891.000000	0.043979
2890.000000	0.042812
2889.000000	0.041685
2888.000000	0.040627
2887.000000	0.039664
2886.000000	0.038809
2885.000000	0.038064
2884.000000	0.037429
2883.000000	0.036913
2882.000000	0.036531
2881.000000	0.036306
2880.000000	0.036258
2879.000000	0.036401
2878.000000	0.036742
2877.000000	0.037274
2876.000000	0.037968
2875.000000	0.038770
2874.000000	0.039598
2873.000000	0.040357
2872.000000	0.040979
2871.000000	0.041453
2870.000000	0.041846
2869.000000	0.042282
2868.000000	0.042899
2867.000000	0.043816
2866.000000	0.045119
2865.000000	0.046860
2864.000000	0.049069
2863.000000	0.051757
2862.000000	0.054916
2861.000000	0.058508
2860.000000	0.062452
2859.000000	0.066618
2858.000000	0.070819
2857.000000	0.074817
2856.000000	0.078336
2855.000000	0.081090
2854.000000	0.082804
2853.000000	0.083261
2852.000000	0.082356
2851.000000	0.080125
2850.000000	0.076735
2849.000000	0.072444
2848.000000	0.067558
2847.000000	0.062390
2846.000000	0.057230
2845.000000	0.052310
2844.000000	0.047795
2843.000000	0.043783
2842.000000	0.040304
2841.000000	0.037338
2840.000000	0.034831
2839.000000	0.032719
2838.000000	0.030936
2837.000000	0.029417
2836.000000	0.028097
2835.000000	0.026929
2834.000000	0.025887
2833.000000	0.024958
2832.000000	0.024128
2831.000000	0.023376
2830.000000	0.022682
2829.000000	0.022037
2828.000000	0.021437
2827.000000	0.020883
2826.000000	0.020376
2825.000000	0.019920
2824.000000	0.019510
2823.000000	0.019135
2822.000000	0.018783
2821.000000	0.018444
2820.000000	0.018120
2819.000000	0.017817
2818.000000	0.017544
2817.000000	0.017304
2816.000000	0.017086
2815.000000	0.016872
2814.000000	0.016656
2813.000000	0.016441
2812.000000	0.016238
2811.000000	0.016052
2810.000000	0.015883
2809.000000	0.015732
2808.000000	0.015595
2807.000000	0.015460
2806.000000	0.015320
2805.000000	0.015175
2804.000000	0.015031
2803.000000	0.014891
2802.000000	0.014763
2801.000000	0.014648
2800.000000	0.014548
2799.000000	0.014459
2798.000000	0.014375
2797.000000	0.014289
2796.000000	0.014193
2795.000000	0.014079
2794.000000	0.013951
2793.000000	0.013827
2792.000000	0.013724
2791.000000	0.013644
2790.000000	0.013575
2789.000000	0.013504
2788.000000	0.013423
2787.000000	0.013335
2786.000000	0.013246
2785.000000	0.013161
2784.000000	0.013079
2783.000000	0.012997
2782.000000	0.012911
2781.000000	0.012826
2780.000000	0.012748
2779.000000	0.012681
2778.000000	0.012623
2777.000000	0.012567
2776.000000	0.012504
2775.000000	0.012432
2774.000000	0.012357
2773.000000	0.012290
2772.000000	0.012237
2771.000000	0.012199
2770.000000	0.012170
2769.000000	0.012145
2768.000000	0.012116
2767.000000	0.012079
2766.000000	0.012030
2765.000000	0.011974
2764.000000	0.011920
2763.000000	0.011876
2762.000000	0.011844
2761.000000	0.011821
2760.000000	0.011802
2759.000000	0.011782
2758.000000	0.011762
2757.000000	0.011744
2756.000000	0.011724
2755.000000	0.011695
2754.000000	0.011655
2753.000000	0.011609
2752.000000	0.011565
2751.000000	0.011532
2750.000000	0.011513
2749.000000	0.011505
2748.000000	0.011498
2747.000000	0.011482
2746.000000	0.011458
2745.000000	0.011432
2744.000000	0.011408
2743.000000	0.011385
2742.000000	0.011364
2741.000000	0.011347
2740.000000	0.011333
2739.000000	0.011318
2738.000000	0.011297
2737.000000	0.011274
2736.000000	0.011255
2735.000000	0.011244
2734.000000	0.011238
2733.000000	0.011231
2732.000000	0.011218
2731.000000	0.011198
2730.000000	0.011175
2729.000000	0.011150
2728.000000	0.011122
2727.000000	0.011086
2726.000000	0.011045
2725.000000	0.011009
2724.000000	0.010982
2723.000000	0.010963
2722.000000	0.010948
2721.000000	0.010934
2720.000000	0.010917
2719.000000	0.010887
2718.000000	0.010845
2717.000000	0.010797
2716.000000	0.010753
2715.000000	0.010719
2714.000000	0.010696
2713.000000	0.010677
2712.000000	0.010655
2711.000000	0.010625
2710.000000	0.010589
2709.000000	0.010559
2708.000000	0.010541
2707.000000	0.010532
2706.000000	0.010524
2705.000000	0.010508
2704.000000	0.010488
2703.000000	0.010473
2702.000000	0.010471
2701.000000	0.010484
2700.000000	0.010504
2699.000000	0.010521
2698.000000	0.010528
2697.000000	0.010531
2696.000000	0.010539
2695.000000	0.010554
2694.000000	0.010571
2693.000000	0.010582
2692.000000	0.010582
2691.000000	0.010573
2690.000000	0.010561
2689.000000	0.010548
2688.000000	0.010531
2687.000000	0.010517
2686.000000	0.010512
2685.000000	0.010519
2684.000000	0.010528
2683.000000	0.010530
2682.000000	0.010525
2681.000000	0.010522
2680.000000	0.010523
2679.000000	0.010522
2678.000000	0.010513
2677.000000	0.010496
2676.000000	0.010478
2675.000000	0.010466
2674.000000	0.010463
2673.000000	0.010468
2672.000000	0.010468
2671.000000	0.010453
2670.000000	0.010426
2669.000000	0.010402
2668.000000	0.010391
2667.000000	0.010385
2666.000000	0.010374
2665.000000	0.010350
2664.000000	0.010314
2663.000000	0.010269
2662.000000	0.010222
2661.000000	0.010179
2660.000000	0.010149
2659.000000	0.010127
2658.000000	0.010105
2657.000000	0.010077
2656.000000	0.010046
2655.000000	0.010021
2654.000000	0.010005
2653.000000	0.009994
2652.000000	0.009983
2651.000000	0.009962
2650.000000	0.009928
2649.000000	0.009883
2648.000000	0.009836
2647.000000	0.009792
2646.000000	0.009755
2645.000000	0.009721
2644.000000	0.009685
2643.000000	0.009648
2642.000000	0.009613
2641.000000	0.009586
2640.000000	0.009565
2639.000000	0.009542
2638.000000	0.009509
2637.000000	0.009469
2636.000000	0.009425
2635.000000	0.009381
2634.000000	0.009342
2633.000000	0.009313
2632.000000	0.009295
2631.000000	0.009279
2630.000000	0.009257
2629.000000	0.009226
2628.000000	0.009193
2627.000000	0.009160
2626.000000	0.009127
2625.000000	0.009096
2624.000000	0.009072
2623.000000	0.009059
2622.000000	0.009056
2621.000000	0.009053
2620.000000	0.009042
2619.000000	0.009016
2618.000000	0.008975
2617.000000	0.008923
2616.000000	0.008871
2615.000000	0.008835
2614.000000	0.008818
2613.000000	0.008808
2612.000000	0.008786
2611.000000	0.008746
2610.000000	0.008703
2609.000000	0.008673
2608.000000	0.008658
2607.000000	0.008656
2606.000000	0.008658
2605.000000	0.008656
2604.000000	0.008638
2603.000000	0.008601
2602.000000	0.008552
2601.000000	0.008505
2600.000000	0.008466
2599.000000	0.008439
2598.000000	0.008435
2597.000000	0.008465
2596.000000	0.008515
2595.000000	0.008554
2594.000000	0.008560
2593.000000	0.008540
2592.000000	0.008520
2591.000000	0.008512
2590.000000	0.008513
2589.000000	0.008504
2588.000000	0.008472
2587.000000	0.008414
2586.000000	0.008341
2585.000000	0.008272
2584.000000	0.008223
2583.000000	0.008198
2582.000000	0.008187
2581.000000	0.008176
2580.000000	0.008155
2579.000000	0.008134
2578.000000	0.008128
2577.000000	0.008143
2576.000000	0.008159
2575.000000	0.008160
2574.000000	0.008142
2573.000000	0.008108
2572.000000	0.008055
2571.000000	0.007992
2570.000000	0.007944
2569.000000	0.007933
2568.000000	0.007950
2567.000000	0.007964
2566.000000	0.007962
2565.000000	0.007956
2564.000000	0.007952
2563.000000	0.007939
2562.000000	0.007907
2561.000000	0.007869
2560.000000	0.007849
2559.000000	0.007854
2558.000000	0.007875
2557.000000	0.007896
2556.000000	0.007907
2555.000000	0.007908
2554.000000	0.007903
2553.000000	0.007899
2552.000000	0.007893
2551.000000	0.007880
2550.000000	0.007861
2549.000000	0.007843
2548.000000	0.007832
2547.000000	0.007827
2546.000000	0.007820
2545.000000	0.007808
2544.000000	0.007789
2543.000000	0.007768
2542.000000	0.007758
2541.000000	0.007761
2540.000000	0.007759
2539.000000	0.007737
2538.000000	0.007703
2537.000000	0.007681
2536.000000	0.007684
2535.000000	0.007697
2534.000000	0.007701
2533.000000	0.007692
2532.000000	0.007679
2531.000000	0.007671
2530.000000	0.007666
2529.000000	0.007662
2528.000000	0.007660
2527.000000	0.007670
2526.000000	0.007706
2525.000000	0.007765
2524.000000	0.007822
2523.000000	0.007844
2522.000000	0.007816
2521.000000	0.007755
2520.000000	0.007692
2519.000000	0.007648
2518.000000	0.007631
2517.000000	0.007623
2516.000000	0.007604
2515.000000	0.007570
2514.000000	0.007541
2513.000000	0.007542
2512.000000	0.007566
2511.000000	0.007594
2510.000000	0.007611
2509.000000	0.007620
2508.000000	0.007622
2507.000000	0.007613
2506.000000	0.007596
2505.000000	0.007578
2504.000000	0.007560
2503.000000	0.007533
2502.000000	0.007494
2501.000000	0.007453
2500.000000	0.007421
2499.000000	0.007397
2498.000000	0.007377
2497.000000	0.007354
2496.000000	0.007326
2495.000000	0.007300
2494.000000	0.007293
2493.000000	0.007312
2492.000000	0.007341
2491.000000	0.007360
2490.000000	0.007368
2489.000000	0.007383
2488.000000	0.007410
2487.000000	0.007429
2486.000000	0.007426
2485.000000	0.007405
2484.000000	0.007386
2483.000000	0.007381
2482.000000	0.007392
2481.000000	0.007409
2480.000000	0.007414
2479.000000	0.007394
2478.000000	0.007357
2477.000000	0.007329
2476.000000	0.007324
2475.000000	0.007329
2474.000000	0.007325
2473.000000	0.007301
2472.000000	0.007256
2471.000000	0.007200
2470.000000	0.007156
2469.000000	0.007151
2468.000000	0.007188
2467.000000	0.007235
2466.000000	0.007260
2465.000000	0.007251
2464.000000	0.007221
2463.000000	0.007189
2462.000000	0.007167
2461.000000	0.007163
2460.000000	0.007172
2459.000000	0.007185
2458.000000	0.007194
2457.000000	0.007202
2456.000000	0.007210
2455.000000	0.007213
2454.000000	0.007204
2453.000000	0.007178
2452.000000	0.007142
2451.000000	0.007112
2450.000000	0.007102
2449.000000	0.007111
2448.000000	0.007116
2447.000000	0.007104
2446.000000	0.007084
2445.000000	0.007081
2444.000000	0.007100
2443.000000	0.007122
2442.000000	0.007129
2441.000000	0.007115
2440.000000	0.007086
2439.000000	0.007059
2438.000000	0.007057
2437.000000	0.007087
2436.000000	0.007122
2435.000000	0.007125
2434.000000	0.007088
2433.000000	0.007039
2432.000000	0.007009
2431.000000	0.007003
2430.000000	0.007019
2429.000000	0.007055
2428.000000	0.007105
2427.000000	0.007153
2426.000000	0.007179
2425.000000	0.007174
2424.000000	0.007144
2423.000000	0.007101
2422.000000	0.007066
2421.000000	0.007055
2420.000000	0.007067
2419.000000	0.007084
2418.000000	0.007091
2417.000000	0.007092
2416.000000	0.007096
2415.000000	0.007097
2414.000000	0.007088
2413.000000	0.007070
2412.000000	0.007048
2411.000000	0.007029
2410.000000	0.007010
2409.000000	0.006990
2408.000000	0.006971
2407.000000	0.006961
2406.000000	0.006971
2405.000000	0.007001
2404.000000	0.007046
2403.000000	0.007093
2402.000000	0.007134
2401.000000	0.007159
2400.000000	0.007160
2399.000000	0.007135
2398.000000	0.007094
2397.000000	0.007060
2396.000000	0.007049
2395.000000	0.007069
2394.000000	0.007112
2393.000000	0.007158
2392.000000	0.007184
2391.000000	0.007187
2390.000000	0.007183
2389.000000	0.007179
2388.000000	0.007160
2387.000000	0.007121
2386.000000	0.007087
2385.000000	0.007089
2384.000000	0.007122
2383.000000	0.007149
2382.000000	0.007149
2381.000000	0.007131
2380.000000	0.007112
2379.000000	0.007099
2378.000000	0.007097
2377.000000	0.007111
2376.000000	0.007143
2375.000000	0.007178
2374.000000	0.007195
2373.000000	0.007183
2372.000000	0.007143
2371.000000	0.007093
2370.000000	0.007069
2369.000000	0.007092
2368.000000	0.007140
2367.000000	0.007161
2366.000000	0.007134
2365.000000	0.007089
2364.000000	0.007079
2363.000000	0.007136
2362.000000	0.007249
2361.000000	0.007358
2360.000000	0.007393
2359.000000	0.007341
2358.000000	0.007260
2357.000000	0.007219
2356.000000	0.007223
2355.000000	0.007236
2354.000000	0.007238
2353.000000	0.007240
2352.000000	0.007244
2351.000000	0.007244
2350.000000	0.007241
2349.000000	0.007244
2348.000000	0.007263
2347.000000	0.007287
2346.000000	0.007293
2345.000000	0.007278
2344.000000	0.007261
2343.000000	0.007261
2342.000000	0.007272
2341.000000	0.007276
2340.000000	0.007263
2339.000000	0.007228
2338.000000	0.007182
2337.000000	0.007147
2336.000000	0.007146
2335.000000	0.007176
2334.000000	0.007214
2333.000000	0.007234
2332.000000	0.007233
2331.000000	0.007221
2330.000000	0.007213
2329.000000	0.007209
2328.000000	0.007213
2327.000000	0.007229
2326.000000	0.007268
2325.000000	0.007318
2324.000000	0.007344
2323.000000	0.007316
2322.000000	0.007246
2321.000000	0.007177
2320.000000	0.007142
2319.000000	0.007134
2318.000000	0.007137
2317.000000	0.007141
2316.000000	0.007145
2315.000000	0.007136
2314.000000	0.007103
2313.000000	0.007046
2312.000000	0.006982
2311.000000	0.006932
2310.000000	0.006915
2309.000000	0.006929
2308.000000	0.006950
2307.000000	0.006954
2306.000000	0.006937
2305.000000	0.006911
2304.000000	0.006884
2303.000000	0.006864
2302.000000	0.006863
2301.000000	0.006888
2300.000000	0.006925
2299.000000	0.006943
2298.000000	0.006928
2297.000000	0.006896
2296.000000	0.006870
2295.000000	0.006865
2294.000000	0.006888
2293.000000	0.006927
2292.000000	0.006953
2291.000000	0.006943
2290.000000	0.006900
2289.000000	0.006854
2288.000000	0.006816
2287.000000	0.006784
2286.000000	0.006760
2285.000000	0.006758
2284.000000	0.006763
2283.000000	0.006737
2282.000000	0.006658
2281.000000	0.006557
2280.000000	0.006482
2279.000000	0.006454
2278.000000	0.006462
2277.000000	0.006482
2276.000000	0.006493
2275.000000	0.006488
2274.000000	0.006487
2273.000000	0.006518
2272.000000	0.006582
2271.000000	0.006653
2270.000000	0.006706
2269.000000	0.006730
2268.000000	0.006726
2267.000000	0.006693
2266.000000	0.006644
2265.000000	0.006593
2264.000000	0.006543
2263.000000	0.006499
2262.000000	0.006482
2261.000000	0.006494
2260.000000	0.006492
2259.000000	0.006439
2258.000000	0.006367
2257.000000	0.006351
2256.000000	0.006404
2255.000000	0.006464
2254.000000	0.006479
2253.000000	0.006460
2252.000000	0.006442
2251.000000	0.006430
2250.000000	0.006402
2249.000000	0.006348
2248.000000	0.006268
2247.000000	0.006182
2246.000000	0.006128
2245.000000	0.006130
2244.000000	0.006151
2243.000000	0.006131
2242.000000	0.006070
2241.000000	0.006029
2240.000000	0.006046
2239.000000	0.006090
2238.000000	0.006119
2237.000000	0.006140
2236.000000	0.006177
2235.000000	0.006236
2234.000000	0.006294
2233.000000	0.006314
2232.000000	0.006255
2231.000000	0.006094
2230.000000	0.005883
2229.000000	0.005723
2228.000000	0.005679
2227.000000	0.005735
2226.000000	0.005840
2225.000000	0.005952
2224.000000	0.006042
2223.000000	0.006085
2222.000000	0.006071
2221.000000	0.006021
2220.000000	0.005964
2219.000000	0.005925
2218.000000	0.005915
2217.000000	0.005928
2216.000000	0.005941
2215.000000	0.005953
2214.000000	0.005987
2213.000000	0.006030
2212.000000	0.006006
2211.000000	0.005873
2210.000000	0.005702
2209.000000	0.005594
2208.000000	0.005558
2207.000000	0.005542
2206.000000	0.005549
2205.000000	0.005628
2204.000000	0.005761
2203.000000	0.005862
2202.000000	0.005909
2201.000000	0.005955
2200.000000	0.006017
2199.000000	0.006034
2198.000000	0.005969
2197.000000	0.005863
2196.000000	0.005757
2195.000000	0.005646
2194.000000	0.005559
2193.000000	0.005560
2192.000000	0.005647
2191.000000	0.005708
2190.000000	0.005649
2189.000000	0.005493
2188.000000	0.005329
2187.000000	0.005220
2186.000000	0.005202
2185.000000	0.005298
2184.000000	0.005461
2183.000000	0.005568
2182.000000	0.005517
2181.000000	0.005336
2180.000000	0.005148
2179.000000	0.005058
2178.000000	0.005096
2177.000000	0.005204
2176.000000	0.005291
2175.000000	0.005319
2174.000000	0.005346
2173.000000	0.005434
2172.000000	0.005542
2171.000000	0.005565
2170.000000	0.005464
2169.000000	0.005286
2168.000000	0.005090
2167.000000	0.004913
2166.000000	0.004794
2165.000000	0.004752
2164.000000	0.004749
2163.000000	0.004747
2162.000000	0.004770
2161.000000	0.004798
2160.000000	0.004680
2159.000000	0.004322
2158.000000	0.003940
2157.000000	0.003845
2156.000000	0.004057
2155.000000	0.004358
2154.000000	0.004620
2153.000000	0.004854
2152.000000	0.005044
2151.000000	0.005132
2150.000000	0.005163
2149.000000	0.005259
2148.000000	0.005439
2147.000000	0.005582
2146.000000	0.005608
2145.000000	0.005566
2144.000000	0.005528
2143.000000	0.005505
2142.000000	0.005508
2141.000000	0.005590
2140.000000	0.005762
2139.000000	0.005965
2138.000000	0.006139
2137.000000	0.006273
2136.000000	0.006364
2135.000000	0.006390
2134.000000	0.006356
2133.000000	0.006311
2132.000000	0.006292
2131.000000	0.006298
2130.000000	0.006317
2129.000000	0.006334
2128.000000	0.006321
2127.000000	0.006264
2126.000000	0.006202
2125.000000	0.006208
2124.000000	0.006294
2123.000000	0.006403
2122.000000	0.006485
2121.000000	0.006531
2120.000000	0.006550
2119.000000	0.006548
2118.000000	0.006542
2117.000000	0.006551
2116.000000	0.006552
2115.000000	0.006512
2114.000000	0.006450
2113.000000	0.006435
2112.000000	0.006503
2111.000000	0.006615
2110.000000	0.006721
2109.000000	0.006799
2108.000000	0.006832
2107.000000	0.006799
2106.000000	0.006713
2105.000000	0.006627
2104.000000	0.006576
2103.000000	0.006547
2102.000000	0.006523
2101.000000	0.006512
2100.000000	0.006522
2099.000000	0.006539
2098.000000	0.006555
2097.000000	0.006578
2096.000000	0.006606
2095.000000	0.006634
2094.000000	0.006676
2093.000000	0.006750
2092.000000	0.006825
2091.000000	0.006840
2090.000000	0.006781
2089.000000	0.006690
2088.000000	0.006609
2087.000000	0.006544
2086.000000	0.006508
2085.000000	0.006518
2084.000000	0.006560
2083.000000	0.006591
2082.000000	0.006596
2081.000000	0.006599
2080.000000	0.006599
2079.000000	0.006565
2078.000000	0.006497
2077.000000	0.006443
2076.000000	0.006428
2075.000000	0.006433
2074.000000	0.006447
2073.000000	0.006483
2072.000000	0.006522
2071.000000	0.006511
2070.000000	0.006440
2069.000000	0.006354
2068.000000	0.006274
2067.000000	0.006174
2066.000000	0.006051
2065.000000	0.005952
2064.000000	0.005909
2063.000000	0.005909
2062.000000	0.005954
2061.000000	0.006063
2060.000000	0.006201
2059.000000	0.006276
2058.000000	0.006263
2057.000000	0.006237
2056.000000	0.006268
2055.000000	0.006335
2054.000000	0.006393
2053.000000	0.006424
2052.000000	0.006403
2051.000000	0.006272
2050.000000	0.006013
2049.000000	0.005707
2048.000000	0.005464
2047.000000	0.005317
2046.000000	0.005246
2045.000000	0.005238
2044.000000	0.005275
2043.000000	0.005329
2042.000000	0.005398
2041.000000	0.005479
2040.000000	0.005522
2039.000000	0.005486
2038.000000	0.005428
2037.000000	0.005414
2036.000000	0.005365
2035.000000	0.005135
2034.000000	0.004769
2033.000000	0.004492
2032.000000	0.004399
2031.000000	0.004335
2030.000000	0.004160
2029.000000	0.003945
2028.000000	0.003853
2027.000000	0.003959
2026.000000	0.004251
2025.000000	0.004635
2024.000000	0.004919
2023.000000	0.004950
2022.000000	0.004792
2021.000000	0.004640
2020.000000	0.004554
2019.000000	0.004434
2018.000000	0.004281
2017.000000	0.004270
2016.000000	0.004489
2015.000000	0.004786
2014.000000	0.004963
2013.000000	0.004978
2012.000000	0.004900
2011.000000	0.004799
2010.000000	0.004731
2009.000000	0.004710
2008.000000	0.004652
2007.000000	0.004478
2006.000000	0.004283
2005.000000	0.004254
2004.000000	0.004410
2003.000000	0.004596
2002.000000	0.004714
2001.000000	0.004820
2000.000000	0.004946
1999.000000	0.005021
1998.000000	0.004995
1997.000000	0.004925
1996.000000	0.004879
1995.000000	0.004847
1994.000000	0.004803
1993.000000	0.004758
1992.000000	0.004712
1991.000000	0.004636
1990.000000	0.004552
1989.000000	0.004541
1988.000000	0.004630
1987.000000	0.004753
1986.000000	0.004842
1985.000000	0.004861
1984.000000	0.004777
1983.000000	0.004605
1982.000000	0.004475
1981.000000	0.004512
1980.000000	0.004612
1979.000000	0.004524
1978.000000	0.004198
1977.000000	0.003905
1976.000000	0.003893
1975.000000	0.004116
1974.000000	0.004389
1973.000000	0.004579
1972.000000	0.004598
1971.000000	0.004435
1970.000000	0.004231
1969.000000	0.004176
1968.000000	0.004271
1967.000000	0.004353
1966.000000	0.004368
1965.000000	0.004438
1964.000000	0.004602
1963.000000	0.004727
1962.000000	0.004718
1961.000000	0.004646
1960.000000	0.004613
1959.000000	0.004615
1958.000000	0.004609
1957.000000	0.004602
1956.000000	0.004601
1955.000000	0.004603
1954.000000	0.004645
1953.000000	0.004770
1952.000000	0.004920
1951.000000	0.004979
1950.000000	0.004937
1949.000000	0.004889
1948.000000	0.004863
1947.000000	0.004782
1946.000000	0.004627
1945.000000	0.004509
1944.000000	0.004515
1943.000000	0.004605
1942.000000	0.004698
1941.000000	0.004778
1940.000000	0.004858
1939.000000	0.004925
1938.000000	0.004973
1937.000000	0.005021
1936.000000	0.005059
1935.000000	0.005045
1934.000000	0.004987
1933.000000	0.004951
1932.000000	0.004962
1931.000000	0.004976
1930.000000	0.004969
1929.000000	0.004967
1928.000000	0.004974
1927.000000	0.004957
1926.000000	0.004916
1925.000000	0.004906
1924.000000	0.004938
1923.000000	0.004958
1922.000000	0.004951
1921.000000	0.004959
1920.000000	0.004986
1919.000000	0.004956
1918.000000	0.004827
1917.000000	0.004694
1916.000000	0.004671
1915.000000	0.004760
1914.000000	0.004883
1913.000000	0.004982
1912.000000	0.005033
1911.000000	0.005027
1910.000000	0.004973
1909.000000	0.004901
1908.000000	0.004833
1907.000000	0.004789
1906.000000	0.004797
1905.000000	0.004877
1904.000000	0.004974
1903.000000	0.005000
1902.000000	0.004944
1901.000000	0.004869
1900.000000	0.004820
1899.000000	0.004783
1898.000000	0.004756
1897.000000	0.004773
1896.000000	0.004840
1895.000000	0.004909
1894.000000	0.004939
1893.000000	0.004941
1892.000000	0.004927
1891.000000	0.004886
1890.000000	0.004830
1889.000000	0.004798
1888.000000	0.004795
1887.000000	0.004775
1886.000000	0.004724
1885.000000	0.004682
1884.000000	0.004678
1883.000000	0.004697
1882.000000	0.004717
1881.000000	0.004743
1880.000000	0.004769
1879.000000	0.004786
1878.000000	0.004795
1877.000000	0.004806
1876.000000	0.004798
1875.000000	0.004735
1874.000000	0.004640
1873.000000	0.004587
1872.000000	0.004599
1871.000000	0.004613
1870.000000	0.004569
1869.000000	0.004485
1868.000000	0.004418
1867.000000	0.004394
1866.000000	0.004408
1865.000000	0.004461
1864.000000	0.004531
1863.000000	0.004567
1862.000000	0.004548
1861.000000	0.004511
1860.000000	0.004490
1859.000000	0.004491
1858.000000	0.004522
1857.000000	0.004594
1856.000000	0.004686
1855.000000	0.004744
1854.000000	0.004754
1853.000000	0.004747
1852.000000	0.004722
1851.000000	0.004652
1850.000000	0.004537
1849.000000	0.004425
1848.000000	0.004352
1847.000000	0.004303
1846.000000	0.004259
1845.000000	0.004214
1844.000000	0.004147
1843.000000	0.004078
1842.000000	0.004100
1841.000000	0.004246
1840.000000	0.004423
1839.000000	0.004513
1838.000000	0.004493
1837.000000	0.004452
1836.000000	0.004446
1835.000000	0.004436
1834.000000	0.004394
1833.000000	0.004373
1832.000000	0.004409
1831.000000	0.004450
1830.000000	0.004411
1829.000000	0.004322
1828.000000	0.004273
1827.000000	0.004270
1826.000000	0.004264
1825.000000	0.004238
1824.000000	0.004223
1823.000000	0.004235
1822.000000	0.004261
1821.000000	0.004283
1820.000000	0.004279
1819.000000	0.004239
1818.000000	0.004190
1817.000000	0.004197
1816.000000	0.004266
1815.000000	0.004328
1814.000000	0.004340
1813.000000	0.004319
1812.000000	0.004300
1811.000000	0.004271
1810.000000	0.004229
1809.000000	0.004221
1808.000000	0.004280
1807.000000	0.004372
1806.000000	0.004445
1805.000000	0.004478
1804.000000	0.004462
1803.000000	0.004394
1802.000000	0.004323
1801.000000	0.004320
1800.000000	0.004405
1799.000000	0.004492
1798.000000	0.004512
1797.000000	0.004495
1796.000000	0.004488
1795.000000	0.004482
1794.000000	0.004454
1793.000000	0.004396
1792.000000	0.004330
1791.000000	0.004304
1790.000000	0.004364
1789.000000	0.004504
1788.000000	0.004652
1787.000000	0.004725
1786.000000	0.004711
1785.000000	0.004693
1784.000000	0.004743
1783.000000	0.004837
1782.000000	0.004925
1781.000000	0.004985
1780.000000	0.005052
1779.000000	0.005139
1778.000000	0.005252
1777.000000	0.005401
1776.000000	0.005552
1775.000000	0.005665
1774.000000	0.005774
1773.000000	0.005970
1772.000000	0.006268
1771.000000	0.006602
1770.000000	0.006960
1769.000000	0.007433
1768.000000	0.008100
1767.000000	0.008915
1766.000000	0.009809
1765.000000	0.010827
1764.000000	0.012099
1763.000000	0.013735
1762.000000	0.015764
1761.000000	0.018117
1760.000000	0.020739
1759.000000	0.023701
1758.000000	0.027262
1757.000000	0.031601
1756.000000	0.036383
1755.000000	0.041031
1754.000000	0.045476
1753.000000	0.050211
1752.000000	0.055647
1751.000000	0.061501
1750.000000	0.067071
1749.000000	0.071976
1748.000000	0.076024
1747.000000	0.078986
1746.000000	0.080837
1745.000000	0.081710
1744.000000	0.081633
1743.000000	0.080584
1742.000000	0.078655
1741.000000	0.075891
1740.000000	0.072232
1739.000000	0.067973
1738.000000	0.063818
1737.000000	0.059987
1736.000000	0.055993
1735.000000	0.051238
1734.000000	0.046008
1733.000000	0.041668
1732.000000	0.038763
1731.000000	0.036622
1730.000000	0.034602
1729.000000	0.032569
1728.000000	0.030621
1727.000000	0.028840
1726.000000	0.027247
1725.000000	0.025796
1724.000000	0.024434
1723.000000	0.023153
1722.000000	0.022021
1721.000000	0.021031
1720.000000	0.020025
1719.000000	0.018845
1718.000000	0.017550
1717.000000	0.016489
1716.000000	0.015918
1715.000000	0.015728
1714.000000	0.015681
1713.000000	0.015636
1712.000000	0.015546
1711.000000	0.015423
1710.000000	0.015319
1709.000000	0.015277
1708.000000	0.015291
1707.000000	0.015330
1706.000000	0.015374
1705.000000	0.015399
1704.000000	0.015361
1703.000000	0.015295
1702.000000	0.015428
1701.000000	0.015912
1700.000000	0.016272
1699.000000	0.016206
1698.000000	0.016153
1697.000000	0.016425
1696.000000	0.017023
1695.000000	0.017746
1694.000000	0.018529
1693.000000	0.019390
1692.000000	0.020173
1691.000000	0.020769
1690.000000	0.021236
1689.000000	0.021615
1688.000000	0.021822
1687.000000	0.021854
1686.000000	0.022019
1685.000000	0.022728
1684.000000	0.023837
1683.000000	0.024872
1682.000000	0.025799
1681.000000	0.026752
1680.000000	0.027709
1679.000000	0.028589
1678.000000	0.029411
1677.000000	0.030338
1676.000000	0.031472
1675.000000	0.032608
1674.000000	0.033520
1673.000000	0.034325
1672.000000	0.035218
1671.000000	0.036253
1670.000000	0.037402
1669.000000	0.038548
1668.000000	0.039550
1667.000000	0.040381
1666.000000	0.041133
1665.000000	0.041950
1664.000000	0.042923
1663.000000	0.043945
1662.000000	0.044845
1661.000000	0.045602
1660.000000	0.046300
1659.000000	0.046946
1658.000000	0.047445
1657.000000	0.047669
1656.000000	0.047565
1655.000000	0.047394
1654.000000	0.047657
1653.000000	0.048345
1652.000000	0.048861
1651.000000	0.049359
1650.000000	0.050010
1649.000000	0.050536
1648.000000	0.050864
1647.000000	0.051076
1646.000000	0.051203
1645.000000	0.051324
1644.000000	0.051553
1643.000000	0.051840
1642.000000	0.052080
1641.000000	0.052240
1640.000000	0.052305
1639.000000	0.052245
1638.000000	0.052116
1637.000000	0.052122
1636.000000	0.052345
1635.000000	0.052560
1634.000000	0.052593
1633.000000	0.052574
1632.000000	0.052533
1631.000000	0.052407
1630.000000	0.052194
1629.000000	0.051901
1628.000000	0.051477
1627.000000	0.050896
1626.000000	0.050220
1625.000000	0.049518
1624.000000	0.048763
1623.000000	0.047868
1622.000000	0.046867
1621.000000	0.045862
1620.000000	0.044846
1619.000000	0.043732
1618.000000	0.042508
1617.000000	0.041245
1616.000000	0.040083
1615.000000	0.039185
1614.000000	0.038505
1613.000000	0.037820
1612.000000	0.036986
1611.000000	0.036038
1610.000000	0.035071
1609.000000	0.034134
1608.000000	0.033245
1607.000000	0.032435
1606.000000	0.031722
1605.000000	0.031066
1604.000000	0.030423
1603.000000	0.029803
1602.000000	0.029238
1601.000000	0.028731
1600.000000	0.028270
1599.000000	0.027867
1598.000000	0.027542
1597.000000	0.027277
1596.000000	0.027043
1595.000000	0.026846
1594.000000	0.026703
1593.000000	0.026604
1592.000000	0.026529
1591.000000	0.026486
1590.000000	0.026484
1589.000000	0.026504
1588.000000	0.026532
1587.000000	0.026600
1586.000000	0.026743
1585.000000	0.026951
1584.000000	0.027193
1583.000000	0.027491
1582.000000	0.027855
1581.000000	0.028217
1580.000000	0.028458
1579.000000	0.028534
1578.000000	0.028565
1577.000000	0.028763
1576.000000	0.029194
1575.000000	0.029749
1574.000000	0.030361
1573.000000	0.030945
1572.000000	0.031451
1571.000000	0.031975
1570.000000	0.032565
1569.000000	0.033110
1568.000000	0.033561
1567.000000	0.034051
1566.000000	0.034669
1565.000000	0.035329
1564.000000	0.035797
1563.000000	0.035911
1562.000000	0.035744
1561.000000	0.035707
1560.000000	0.036273
1559.000000	0.037285
1558.000000	0.038149
1557.000000	0.038710
1556.000000	0.039237
1555.000000	0.039786
1554.000000	0.040320
1553.000000	0.040798
1552.000000	0.041209
1551.000000	0.041571
1550.000000	0.041911
1549.000000	0.042235
1548.000000	0.042486
1547.000000	0.042648
1546.000000	0.042748
1545.000000	0.042802
1544.000000	0.042808
1543.000000	0.042778
1542.000000	0.042736
1541.000000	0.042716
1540.000000	0.042678
1539.000000	0.042557
1538.000000	0.042454
1537.000000	0.042495
1536.000000	0.042514
1535.000000	0.042351
1534.000000	0.041996
1533.000000	0.041503
1532.000000	0.041007
1531.000000	0.040600
1530.000000	0.040266
1529.000000	0.039924
1528.000000	0.039488
1527.000000	0.038972
1526.000000	0.038476
1525.000000	0.038030
1524.000000	0.037548
1523.000000	0.036953
1522.000000	0.036302
1521.000000	0.035763
1520.000000	0.035467
1519.000000	0.035400
1518.000000	0.035394
1517.000000	0.035287
1516.000000	0.035035
1515.000000	0.034680
1514.000000	0.034291
1513.000000	0.033862
1512.000000	0.033331
1511.000000	0.032640
1510.000000	0.031808
1509.000000	0.030917
1508.000000	0.030113
1507.000000	0.029586
1506.000000	0.029407
1505.000000	0.029361
1504.000000	0.029391
1503.000000	0.029375
1502.000000	0.029166
1501.000000	0.028790
1500.000000	0.028289
1499.000000	0.027631
1498.000000	0.026863
1497.000000	0.026166
1496.000000	0.025663
1495.000000	0.025335
1494.000000	0.025145
1493.000000	0.025010
1492.000000	0.024810
1491.000000	0.024460
1490.000000	0.024057
1489.000000	0.023848
1488.000000	0.023896
1487.000000	0.024042
1486.000000	0.024208
1485.000000	0.024424
1484.000000	0.024686
1483.000000	0.024989
1482.000000	0.025378
1481.000000	0.025901
1480.000000	0.026502
1479.000000	0.027112
1478.000000	0.027782
1477.000000	0.028580
1476.000000	0.029461
1475.000000	0.030457
1474.000000	0.031978
1473.000000	0.034544
1472.000000	0.038051
1471.000000	0.041797
1470.000000	0.045351
1469.000000	0.048591
1468.000000	0.051334
1467.000000	0.053408
1466.000000	0.054847
1465.000000	0.055801
1464.000000	0.056367
1463.000000	0.056665
1462.000000	0.056871
1461.000000	0.057052
1460.000000	0.057135
1459.000000	0.057137
1458.000000	0.057300
1457.000000	0.057724
1456.000000	0.058042
1455.000000	0.058092
1454.000000	0.057973
1453.000000	0.057634
1452.000000	0.057057
1451.000000	0.056363
1450.000000	0.055715
1449.000000	0.055194
1448.000000	0.054776
1447.000000	0.054409
1446.000000	0.054095
1445.000000	0.053820
1444.000000	0.053538
1443.000000	0.053199
1442.000000	0.052794
1441.000000	0.052319
1440.000000	0.051737
1439.000000	0.051034
1438.000000	0.050267
1437.000000	0.049509
1436.000000	0.048785
1435.000000	0.048151
1434.000000	0.047606
1433.000000	0.047046
1432.000000	0.046382
1431.000000	0.045619
1430.000000	0.044829
1429.000000	0.044105
1428.000000	0.043503
1427.000000	0.043018
1426.000000	0.042640
1425.000000	0.042362
1424.000000	0.042180
1423.000000	0.042038
1422.000000	0.041868
1421.000000	0.041695
1420.000000	0.041607
1419.000000	0.041591
1418.000000	0.041585
1417.000000	0.041570
1416.000000	0.041470
1415.000000	0.041194
1414.000000	0.040723
1413.000000	0.040110
1412.000000	0.039437
1411.000000	0.038789
1410.000000	0.038232
1409.000000	0.037799
1408.000000	0.037486
1407.000000	0.037267
1406.000000	0.037132
1405.000000	0.037066
1404.000000	0.037027
1403.000000	0.036951
1402.000000	0.036789
1401.000000	0.036531
1400.000000	0.036184
1399.000000	0.035777
1398.000000	0.035365
1397.000000	0.034996
1396.000000	0.034686
1395.000000	0.034446
1394.000000	0.034292
1393.000000	0.034221
1392.000000	0.034204
1391.000000	0.034176
1390.000000	0.034098
1389.000000	0.034017
1388.000000	0.034047
1387.000000	0.034263
1386.000000	0.034642
1385.000000	0.035108
1384.000000	0.035613
1383.000000	0.036151
1382.000000	0.036726
1381.000000	0.037324
1380.000000	0.037884
1379.000000	0.038289
1378.000000	0.038408
1377.000000	0.038188
1376.000000	0.037660
1375.000000	0.036930
1374.000000	0.036158
1373.000000	0.035499
1372.000000	0.035002
1371.000000	0.034608
1370.000000	0.034245
1369.000000	0.033876
1368.000000	0.033510
1367.000000	0.033140
1366.000000	0.032729
1365.000000	0.032237
1364.000000	0.031666
1363.000000	0.031095
1362.000000	0.030632
1361.000000	0.030320
1360.000000	0.030115
1359.000000	0.029948
1358.000000	0.029779
1357.000000	0.029606
1356.000000	0.029457
1355.000000	0.029366
1354.000000	0.029342
1353.000000	0.029365
1352.000000	0.029406
1351.000000	0.029449
1350.000000	0.029495
1349.000000	0.029543
1348.000000	0.029602
1347.000000	0.029676
1346.000000	0.029768
1345.000000	0.029872
1344.000000	0.029970
1343.000000	0.030025
1342.000000	0.029995
1341.000000	0.029872
1340.000000	0.029707
1339.000000	0.029580
1338.000000	0.029520
1337.000000	0.029492
1336.000000	0.029438
1335.000000	0.029324
1334.000000	0.029141
1333.000000	0.028897
1332.000000	0.028614
1331.000000	0.028323
1330.000000	0.028062
1329.000000	0.027862
1328.000000	0.027738
1327.000000	0.027674
1326.000000	0.027636
1325.000000	0.027608
1324.000000	0.027607
1323.000000	0.027652
1322.000000	0.027732
1321.000000	0.027813
1320.000000	0.027870
1319.000000	0.027904
1318.000000	0.027934
1317.000000	0.027971
1316.000000	0.028007
1315.000000	0.028021
1314.000000	0.028000
1313.000000	0.027948
1312.000000	0.027875
1311.000000	0.027784
1310.000000	0.027671
1309.000000	0.027552
1308.000000	0.027452
1307.000000	0.027391
1306.000000	0.027355
1305.000000	0.027319
1304.000000	0.027259
1303.000000	0.027172
1302.000000	0.027063
1301.000000	0.026939
1300.000000	0.026809
1299.000000	0.026680
1298.000000	0.026564
1297.000000	0.026482
1296.000000	0.026457
1295.000000	0.026497
1294.000000	0.026593
1293.000000	0.026728
1292.000000	0.026887
1291.000000	0.027058
1290.000000	0.027245
1289.000000	0.027476
1288.000000	0.027789
1287.000000	0.028196
1286.000000	0.028672
1285.000000	0.029165
1284.000000	0.029633
1283.000000	0.030046
1282.000000	0.030398
1281.000000	0.030697
1280.000000	0.030954
1279.000000	0.031169
1278.000000	0.031333
1277.000000	0.031441
1276.000000	0.031505
1275.000000	0.031540
1274.000000	0.031567
1273.000000	0.031603
1272.000000	0.031664
1271.000000	0.031764
1270.000000	0.031905
1269.000000	0.032081
1268.000000	0.032273
1267.000000	0.032457
1266.000000	0.032631
1265.000000	0.032810
1264.000000	0.033015
1263.000000	0.033253
1262.000000	0.033523
1261.000000	0.033827
1260.000000	0.034167
1259.000000	0.034539
1258.000000	0.034936
1257.000000	0.035355
1256.000000	0.035792
1255.000000	0.036240
1254.000000	0.036698
1253.000000	0.037179
1252.000000	0.037699
1251.000000	0.038265
1250.000000	0.038884
1249.000000	0.039561
1248.000000	0.040281
1247.000000	0.041004
1246.000000	0.041701
1245.000000	0.042369
1244.000000	0.043014
1243.000000	0.043631
1242.000000	0.044200
1241.000000	0.044708
1240.000000	0.045150
1239.000000	0.045521
1238.000000	0.045823
1237.000000	0.046052
1236.000000	0.046188
1235.000000	0.046212
1234.000000	0.046123
1233.000000	0.045942
1232.000000	0.045678
1231.000000	0.045328
1230.000000	0.044904
1229.000000	0.044423
1228.000000	0.043891
1227.000000	0.043290
1226.000000	0.042613
1225.000000	0.041875
1224.000000	0.041104
1223.000000	0.040323
1222.000000	0.039557
1221.000000	0.038827
1220.000000	0.038140
1219.000000	0.037502
1218.000000	0.036943
1217.000000	0.036504
1216.000000	0.036203
1215.000000	0.036022
1214.000000	0.035930
1213.000000	0.035898
1212.000000	0.035913
1211.000000	0.035967
1210.000000	0.036062
1209.000000	0.036205
1208.000000	0.036388
1207.000000	0.036586
1206.000000	0.036779
1205.000000	0.036961
1204.000000	0.037131
1203.000000	0.037282
1202.000000	0.037404
1201.000000	0.037500
1200.000000	0.037584
1199.000000	0.037668
1198.000000	0.037762
1197.000000	0.037870
1196.000000	0.037985
1195.000000	0.038094
1194.000000	0.038201
1193.000000	0.038330
1192.000000	0.038503
1191.000000	0.038722
1190.000000	0.038985
1189.000000	0.039300
1188.000000	0.039676
1187.000000	0.040107
1186.000000	0.040585
1185.000000	0.041119
1184.000000	0.041727
1183.000000	0.042431
1182.000000	0.043245
1181.000000	0.044160
1180.000000	0.045143
1179.000000	0.046152
1178.000000	0.047165
1177.000000	0.048186
1176.000000	0.049216
1175.000000	0.050243
1174.000000	0.051258
1173.000000	0.052255
1172.000000	0.053223
1171.000000	0.054138
1170.000000	0.054991
1169.000000	0.055788
1168.000000	0.056530
1167.000000	0.057203
1166.000000	0.057798
1165.000000	0.058311
1164.000000	0.058723
1163.000000	0.059007
1162.000000	0.059163
1161.000000	0.059213
1160.000000	0.059160
1159.000000	0.058992
1158.000000	0.058709
1157.000000	0.058325
1156.000000	0.057839
1155.000000	0.057248
1154.000000	0.056588
1153.000000	0.055917
1152.000000	0.055261
1151.000000	0.054610
1150.000000	0.053963
1149.000000	0.053341
1148.000000	0.052750
1147.000000	0.052166
1146.000000	0.051556
1145.000000	0.050895
1144.000000	0.050139
1143.000000	0.049234
1142.000000	0.048142
1141.000000	0.046852
1140.000000	0.045365
1139.000000	0.043701
1138.000000	0.041916
1137.000000	0.040090
1136.000000	0.038289
1135.000000	0.036561
1134.000000	0.034963
1133.000000	0.033557
1132.000000	0.032391
1131.000000	0.031487
1130.000000	0.030858
1129.000000	0.030506
1128.000000	0.030416
1127.000000	0.030551
1126.000000	0.030878
1125.000000	0.031386
1124.000000	0.032050
1123.000000	0.032812
1122.000000	0.033587
1121.000000	0.034303
1120.000000	0.034912
1119.000000	0.035378
1118.000000	0.035678
1117.000000	0.035802
1116.000000	0.035759
1115.000000	0.035570
1114.000000	0.035269
1113.000000	0.034896
1112.000000	0.034482
1111.000000	0.034057
1110.000000	0.033669
1109.000000	0.033373
1108.000000	0.033208
1107.000000	0.033181
1106.000000	0.033281
1105.000000	0.033490
1104.000000	0.033776
1103.000000	0.034103
1102.000000	0.034446
1101.000000	0.034795
1100.000000	0.035131
1099.000000	0.035424
1098.000000	0.035647
1097.000000	0.035794
1096.000000	0.035864
1095.000000	0.035853
1094.000000	0.035764
1093.000000	0.035620
1092.000000	0.035438
1091.000000	0.035223
1090.000000	0.034988
1089.000000	0.034760
1088.000000	0.034563
1087.000000	0.034399
1086.000000	0.034259
1085.000000	0.034140
1084.000000	0.034026
1083.000000	0.033868
1082.000000	0.033593
1081.000000	0.033151
1080.000000	0.032548
1079.000000	0.031844
1078.000000	0.031113
1077.000000	0.030402
1076.000000	0.029720
1075.000000	0.029053
1074.000000	0.028404
1073.000000	0.027794
1072.000000	0.027262
1071.000000	0.026838
1070.000000	0.026532
1069.000000	0.026325
1068.000000	0.026183
1067.000000	0.026073
1066.000000	0.025980
1065.000000	0.025898
1064.000000	0.025823
1063.000000	0.025744
1062.000000	0.025655
1061.000000	0.025559
1060.000000	0.025453
1059.000000	0.025326
1058.000000	0.025160
1057.000000	0.024947
1056.000000	0.024694
1055.000000	0.024423
1054.000000	0.024158
1053.000000	0.023917
1052.000000	0.023696
1051.000000	0.023488
1050.000000	0.023293
1049.000000	0.023121
1048.000000	0.022978
1047.000000	0.022857
1046.000000	0.022758
1045.000000	0.022691
1044.000000	0.022665
1043.000000	0.022673
1042.000000	0.022711
1041.000000	0.022784
1040.000000	0.022911
1039.000000	0.023101
1038.000000	0.023347
1037.000000	0.023636
1036.000000	0.023947
1035.000000	0.024249
1034.000000	0.024508
1033.000000	0.024713
1032.000000	0.024876
1031.000000	0.025007
1030.000000	0.025093
1029.000000	0.025109
1028.000000	0.025048
1027.000000	0.024927
1026.000000	0.024774
1025.000000	0.024604
1024.000000	0.024423
1023.000000	0.024237
1022.000000	0.024062
1021.000000	0.023913
1020.000000	0.023803
1019.000000	0.023736
1018.000000	0.023701
1017.000000	0.023665
1016.000000	0.023594
1015.000000	0.023463
1014.000000	0.023266
1013.000000	0.023006
1012.000000	0.022687
1011.000000	0.022324
1010.000000	0.021939
1009.000000	0.021543
1008.000000	0.021136
1007.000000	0.020717
1006.000000	0.020298
1005.000000	0.019897
1004.000000	0.019519
1003.000000	0.019155
1002.000000	0.018799
1001.000000	0.018452
1000.000000	0.018120
999.000000	0.017809
998.000000	0.017521
997.000000	0.017255
996.000000	0.017001
995.000000	0.016738
994.000000	0.016452
993.000000	0.016141
992.000000	0.015826
991.000000	0.015546
990.000000	0.015325
989.000000	0.015158
988.000000	0.015018
987.000000	0.014876
986.000000	0.014735
985.000000	0.014614
984.000000	0.014528
983.000000	0.014471
982.000000	0.014425
981.000000	0.014385
980.000000	0.014355
979.000000	0.014344
978.000000	0.014357
977.000000	0.014392
976.000000	0.014448
975.000000	0.014520
974.000000	0.014606
973.000000	0.014702
972.000000	0.014804
971.000000	0.014901
970.000000	0.014970
969.000000	0.014996
968.000000	0.014968
967.000000	0.014888
966.000000	0.014747
965.000000	0.014532
964.000000	0.014231
963.000000	0.013859
962.000000	0.013458
961.000000	0.013073
960.000000	0.012732
959.000000	0.012428
958.000000	0.012145
957.000000	0.011868
956.000000	0.011602
955.000000	0.011355
954.000000	0.011129
953.000000	0.010914
952.000000	0.010701
951.000000	0.010493
950.000000	0.010294
949.000000	0.010107
948.000000	0.009931
947.000000	0.009764
946.000000	0.009603
945.000000	0.009446
944.000000	0.009298
943.000000	0.009156
942.000000	0.009011
941.000000	0.008845
940.000000	0.008660
939.000000	0.008483
938.000000	0.008340
937.000000	0.008229
936.000000	0.008126
935.000000	0.008007
934.000000	0.007867
933.000000	0.007709
932.000000	0.007539
931.000000	0.007367
930.000000	0.007203
929.000000	0.007053
928.000000	0.006910
927.000000	0.006775
926.000000	0.006659
925.000000	0.006568
924.000000	0.006485
923.000000	0.006383
922.000000	0.006244
921.000000	0.006081
920.000000	0.005919
919.000000	0.005776
918.000000	0.005640
917.000000	0.005484
916.000000	0.005298
915.000000	0.005107
914.000000	0.004950
913.000000	0.004854
912.000000	0.004809
911.000000	0.004786
910.000000	0.004756
909.000000	0.004706
908.000000	0.004642
907.000000	0.004578
906.000000	0.004533
905.000000	0.004519
904.000000	0.004525
903.000000	0.004532
902.000000	0.004519
901.000000	0.004476
900.000000	0.004402
899.000000	0.004308
898.000000	0.004218
897.000000	0.004159
896.000000	0.004145
895.000000	0.004166
894.000000	0.004203
893.000000	0.004234
892.000000	0.004254
891.000000	0.004269
890.000000	0.004293
889.000000	0.004332
888.000000	0.004380
887.000000	0.004437
886.000000	0.004527
885.000000	0.004687
884.000000	0.004943
883.000000	0.005308
882.000000	0.005819
881.000000	0.006546
880.000000	0.007530
879.000000	0.008708
878.000000	0.009908
877.000000	0.010923
876.000000	0.011584
875.000000	0.011784
874.000000	0.011491
873.000000	0.010770
872.000000	0.009771
871.000000	0.008694
870.000000	0.007713
869.000000	0.006930
868.000000	0.006359
867.000000	0.005957
866.000000	0.005671
865.000000	0.005471
864.000000	0.005341
863.000000	0.005258
862.000000	0.005201
861.000000	0.005167
860.000000	0.005171
859.000000	0.005215
858.000000	0.005285
857.000000	0.005364
856.000000	0.005447
855.000000	0.005526
854.000000	0.005583
853.000000	0.005607
852.000000	0.005614
851.000000	0.005622
850.000000	0.005631
849.000000	0.005621
848.000000	0.005591
847.000000	0.005554
846.000000	0.005521
845.000000	0.005490
844.000000	0.005455
843.000000	0.005419
842.000000	0.005387
841.000000	0.005373
840.000000	0.005394
839.000000	0.005457
838.000000	0.005539
837.000000	0.005602
836.000000	0.005636
835.000000	0.005666
834.000000	0.005699
833.000000	0.005699
832.000000	0.005625
831.000000	0.005487
830.000000	0.005340
829.000000	0.005232
828.000000	0.005170
827.000000	0.005141
826.000000	0.005130
825.000000	0.005120
824.000000	0.005095
823.000000	0.005055
822.000000	0.005016
821.000000	0.004978
820.000000	0.004930
819.000000	0.004872
818.000000	0.004825
817.000000	0.004807
816.000000	0.004810
815.000000	0.004818
814.000000	0.004816
813.000000	0.004784
812.000000	0.004702
811.000000	0.004582
810.000000	0.004468
809.000000	0.004391
808.000000	0.004335
807.000000	0.004268
806.000000	0.004195
805.000000	0.004147
804.000000	0.004138
803.000000	0.004149
802.000000	0.004160
801.000000	0.004175
800.000000	0.004200
799.000000	0.004229
798.000000	0.004257
797.000000	0.004281
796.000000	0.004306
795.000000	0.004340
794.000000	0.004390
793.000000	0.004443
792.000000	0.004470
791.000000	0.004465
790.000000	0.004471
789.000000	0.004539
788.000000	0.004659
787.000000	0.004767
786.000000	0.004820
785.000000	0.004834
784.000000	0.004852
783.000000	0.004893
782.000000	0.004960
781.000000	0.005057
780.000000	0.005179
779.000000	0.005290
778.000000	0.005353
777.000000	0.005356
776.000000	0.005332
775.000000	0.005334
774.000000	0.005408
773.000000	0.005566
772.000000	0.005765
771.000000	0.005938
770.000000	0.006047
769.000000	0.006108
768.000000	0.006156
767.000000	0.006214
766.000000	0.006296
765.000000	0.006410
764.000000	0.006555
763.000000	0.006710
762.000000	0.006862
761.000000	0.007010
760.000000	0.007145
759.000000	0.007247
758.000000	0.007308
757.000000	0.007362
756.000000	0.007452
755.000000	0.007590
754.000000	0.007762
753.000000	0.007952
752.000000	0.008147
751.000000	0.008339
750.000000	0.008529
749.000000	0.008735
748.000000	0.008965
747.000000	0.009197
746.000000	0.009404
745.000000	0.009584
744.000000	0.009762
743.000000	0.009973
742.000000	0.010239
741.000000	0.010556
740.000000	0.010883
739.000000	0.011176
738.000000	0.011436
737.000000	0.011726
736.000000	0.012107
735.000000	0.012582
734.000000	0.013113
733.000000	0.013671
732.000000	0.014262
731.000000	0.014901
730.000000	0.015604
729.000000	0.016392
728.000000	0.017267
727.000000	0.018195
726.000000	0.019123
725.000000	0.020018
724.000000	0.020852
723.000000	0.021566
722.000000	0.022059
721.000000	0.022244
720.000000	0.022110
719.000000	0.021730
718.000000	0.021211
717.000000	0.020661
716.000000	0.020179
715.000000	0.019839
714.000000	0.019641
713.000000	0.019490
712.000000	0.019269
711.000000	0.018929
710.000000	0.018512
709.000000	0.018092
708.000000	0.017707
707.000000	0.017366
706.000000	0.017088
705.000000	0.016910
704.000000	0.016850
703.000000	0.016874
702.000000	0.016911
701.000000	0.016893
700.000000	0.016802
699.000000	0.016682
698.000000	0.016587
697.000000	0.016514
696.000000	0.016418
695.000000	0.016292
694.000000	0.016202
693.000000	0.016193
692.000000	0.016217
691.000000	0.016200
690.000000	0.016145
689.000000	0.016118
688.000000	0.016140
687.000000	0.016151
686.000000	0.016107
685.000000	0.016021
684.000000	0.015921
683.000000	0.015819
682.000000	0.015741
681.000000	0.015723
680.000000	0.015757
679.000000	0.015785
678.000000	0.015769
677.000000	0.015753
676.000000	0.015806
675.000000	0.015932
674.000000	0.016070
673.000000	0.016148
672.000000	0.016116
671.000000	0.015967
670.000000	0.015758
669.000000	0.015610
668.000000	0.015624
667.000000	0.015752
666.000000	0.015819
665.000000	0.015791
664.000000	0.015733
663.000000	0.015672
662.000000	0.015615
661.000000	0.015578
660.000000	0.015569
659.000000	0.015568
658.000000	0.015548
657.000000	0.015524
656.000000	0.015518
655.000000	0.015518
654.000000	0.015507
653.000000	0.015506
652.000000	0.015528
651.000000	0.015538
650.000000	0.015500
649.000000	0.015438
648.000000	0.015389
647.000000	0.015341
646.000000	0.015260
645.000000	0.015163
644.000000	0.015100
643.000000	0.015092
642.000000	0.015097
641.000000	0.015072
640.000000	0.015007
639.000000	0.014924
638.000000	0.014849
637.000000	0.014797
636.000000	0.014755
635.000000	0.014712
634.000000	0.014673
633.000000	0.014650
632.000000	0.014630
631.000000	0.014589
630.000000	0.014536
629.000000	0.014497
628.000000	0.014470
627.000000	0.014443
626.000000	0.014456
625.000000	0.014568
624.000000	0.014756
623.000000	0.014901
622.000000	0.014918
621.000000	0.014838
620.000000	0.014745
619.000000	0.014677
618.000000	0.014633
617.000000	0.014616
616.000000	0.014616
615.000000	0.014615
614.000000	0.014618
613.000000	0.014662
612.000000	0.014740
611.000000	0.014781
610.000000	0.014739
609.000000	0.014656
608.000000	0.014589
607.000000	0.014541
606.000000	0.014504
605.000000	0.014506
604.000000	0.014555
603.000000	0.014600
602.000000	0.014612
601.000000	0.014659
600.000000	0.014809
599.000000	0.015012
598.000000	0.015143
597.000000	0.015140
596.000000	0.015031
595.000000	0.014861
594.000000	0.014683
593.000000	0.014585
592.000000	0.014627
591.000000	0.014755
590.000000	0.014855
589.000000	0.014893
588.000000	0.014923
587.000000	0.014974
586.000000	0.015007
585.000000	0.014996
584.000000	0.014981
583.000000	0.015023
582.000000	0.015151
581.000000	0.015346
580.000000	0.015534
579.000000	0.015616
578.000000	0.015551
577.000000	0.015390
576.000000	0.015221
575.000000	0.015095
574.000000	0.015030
573.000000	0.015044
572.000000	0.015123
571.000000	0.015203
570.000000	0.015246
569.000000	0.015286
568.000000	0.015359
567.000000	0.015443
566.000000	0.015523
565.000000	0.015647
564.000000	0.015845
563.000000	0.016038
562.000000	0.016121
561.000000	0.016100
560.000000	0.016071
559.000000	0.016095
558.000000	0.016147
557.000000	0.016160
556.000000	0.016088
555.000000	0.015938
554.000000	0.015800
553.000000	0.015746
552.000000	0.015712
551.000000	0.015545
550.000000	0.015229
549.000000	0.014942
548.000000	0.014806
547.000000	0.014723
546.000000	0.014553
545.000000	0.014345
544.000000	0.014248
543.000000	0.014281
542.000000	0.014330
541.000000	0.014335
540.000000	0.014360
539.000000	0.014471
538.000000	0.014661
537.000000	0.014853
536.000000	0.014933
535.000000	0.014810
534.000000	0.014539
533.000000	0.014316
532.000000	0.014282
531.000000	0.014375
530.000000	0.014449
529.000000	0.014466
528.000000	0.014479
527.000000	0.014491
526.000000	0.014452
525.000000	0.014358
524.000000	0.014227
523.000000	0.014010
522.000000	0.013666
521.000000	0.013268
520.000000	0.012946
519.000000	0.012743
518.000000	0.012618
517.000000	0.012550
516.000000	0.012531
515.000000	0.012483
514.000000	0.012322
513.000000	0.012070
512.000000	0.011822
511.000000	0.011617
510.000000	0.011404
509.000000	0.011141
508.000000	0.010856
507.000000	0.010609
506.000000	0.010447
505.000000	0.010387
504.000000	0.010410
503.000000	0.010478
502.000000	0.010561
501.000000	0.010619
500.000000	0.010570
499.000000	0.010360
498.000000	0.010087
497.000000	0.009944
496.000000	0.009962
495.000000	0.009920
494.000000	0.009619
493.000000	0.009164
492.000000	0.008841
491.000000	0.008763
490.000000	0.008797
489.000000	0.008783
488.000000	0.008664
487.000000	0.008418
486.000000	0.008027
485.000000	0.007570
484.000000	0.007217
483.000000	0.007093
482.000000	0.007201
481.000000	0.007481
480.000000	0.007853
479.000000	0.008207
478.000000	0.008461
477.000000	0.008596
476.000000	0.008580
475.000000	0.008320
474.000000	0.007842
473.000000	0.007429
472.000000	0.007397
471.000000	0.007682
470.000000	0.007925
469.000000	0.007901
468.000000	0.007644
467.000000	0.007291
466.000000	0.006982
465.000000	0.006794
464.000000	0.006684
463.000000	0.006529
462.000000	0.006318
461.000000	0.006201
460.000000	0.006233
459.000000	0.006196
458.000000	0.005878
457.000000	0.005441
456.000000	0.005188
455.000000	0.005072
454.000000	0.004847
453.000000	0.004505
452.000000	0.004272
451.000000	0.004239
450.000000	0.004286
