PE IR       SUBTECH     SPECTRUM    ASCII       PEDS        4.00        
   -1
3S-H10-F034_1.ASC
22/02/18
11:21:56.00
22/02/18
11:29:39.00
uco
Sample 034 By uco Date Friday, February 18 2022
450.000000
#HDR
-1
-1
#GR
cm-1
A
1.0
0.0
4000.000000
-1.000000
3551
8
0.047121
0.002183
#DATA
4000.000000	0.002852
3999.000000	0.002858
3998.000000	0.002865
3997.000000	0.002874
3996.000000	0.002884
3995.000000	0.002896
3994.000000	0.002900
3993.000000	0.002892
3992.000000	0.002873
3991.000000	0.002851
3990.000000	0.002838
3989.000000	0.002839
3988.000000	0.002853
3987.000000	0.002875
3986.000000	0.002898
3985.000000	0.002921
3984.000000	0.002938
3983.000000	0.002948
3982.000000	0.002950
3981.000000	0.002944
3980.000000	0.002931
3979.000000	0.002915
3978.000000	0.002899
3977.000000	0.002891
3976.000000	0.002897
3975.000000	0.002917
3974.000000	0.002942
3973.000000	0.002959
3972.000000	0.002961
3971.000000	0.002948
3970.000000	0.002928
3969.000000	0.002911
3968.000000	0.002899
3967.000000	0.002893
3966.000000	0.002891
3965.000000	0.002893
3964.000000	0.002901
3963.000000	0.002913
3962.000000	0.002925
3961.000000	0.002932
3960.000000	0.002935
3959.000000	0.002938
3958.000000	0.002947
3957.000000	0.002959
3956.000000	0.002968
3955.000000	0.002968
3954.000000	0.002965
3953.000000	0.002972
3952.000000	0.002996
3951.000000	0.003029
3950.000000	0.003056
3949.000000	0.003070
3948.000000	0.003075
3947.000000	0.003081
3946.000000	0.003091
3945.000000	0.003093
3944.000000	0.003075
3943.000000	0.003035
3942.000000	0.002990
3941.000000	0.002957
3940.000000	0.002946
3939.000000	0.002951
3938.000000	0.002962
3937.000000	0.002972
3936.000000	0.002980
3935.000000	0.002985
3934.000000	0.002989
3933.000000	0.002990
3932.000000	0.002990
3931.000000	0.002989
3930.000000	0.002988
3929.000000	0.002987
3928.000000	0.002986
3927.000000	0.002988
3926.000000	0.002989
3925.000000	0.002979
3924.000000	0.002961
3923.000000	0.002943
3922.000000	0.002933
3921.000000	0.002931
3920.000000	0.002932
3919.000000	0.002935
3918.000000	0.002941
3917.000000	0.002955
3916.000000	0.002974
3915.000000	0.002993
3914.000000	0.003005
3913.000000	0.003001
3912.000000	0.002982
3911.000000	0.002957
3910.000000	0.002941
3909.000000	0.002940
3908.000000	0.002951
3907.000000	0.002966
3906.000000	0.002980
3905.000000	0.002995
3904.000000	0.003013
3903.000000	0.003032
3902.000000	0.003045
3901.000000	0.003045
3900.000000	0.003032
3899.000000	0.003012
3898.000000	0.002998
3897.000000	0.002996
3896.000000	0.003004
3895.000000	0.003014
3894.000000	0.003015
3893.000000	0.003004
3892.000000	0.002981
3891.000000	0.002959
3890.000000	0.002952
3889.000000	0.002966
3888.000000	0.002996
3887.000000	0.003030
3886.000000	0.003048
3885.000000	0.003046
3884.000000	0.003033
3883.000000	0.003016
3882.000000	0.002994
3881.000000	0.002967
3880.000000	0.002949
3879.000000	0.002954
3878.000000	0.002980
3877.000000	0.003013
3876.000000	0.003038
3875.000000	0.003045
3874.000000	0.003037
3873.000000	0.003027
3872.000000	0.003023
3871.000000	0.003019
3870.000000	0.003003
3869.000000	0.002980
3868.000000	0.002965
3867.000000	0.002961
3866.000000	0.002953
3865.000000	0.002932
3864.000000	0.002905
3863.000000	0.002887
3862.000000	0.002883
3861.000000	0.002887
3860.000000	0.002895
3859.000000	0.002910
3858.000000	0.002932
3857.000000	0.002961
3856.000000	0.002998
3855.000000	0.003043
3854.000000	0.003092
3853.000000	0.003129
3852.000000	0.003146
3851.000000	0.003142
3850.000000	0.003122
3849.000000	0.003091
3848.000000	0.003057
3847.000000	0.003026
3846.000000	0.003002
3845.000000	0.002987
3844.000000	0.002974
3843.000000	0.002959
3842.000000	0.002942
3841.000000	0.002929
3840.000000	0.002922
3839.000000	0.002915
3838.000000	0.002908
3837.000000	0.002904
3836.000000	0.002904
3835.000000	0.002909
3834.000000	0.002919
3833.000000	0.002930
3832.000000	0.002942
3831.000000	0.002956
3830.000000	0.002973
3829.000000	0.002989
3828.000000	0.002998
3827.000000	0.002993
3826.000000	0.002975
3825.000000	0.002950
3824.000000	0.002926
3823.000000	0.002904
3822.000000	0.002882
3821.000000	0.002869
3820.000000	0.002886
3819.000000	0.002934
3818.000000	0.002986
3817.000000	0.003013
3816.000000	0.003003
3815.000000	0.002979
3814.000000	0.002968
3813.000000	0.002975
3812.000000	0.002988
3811.000000	0.003002
3810.000000	0.003017
3809.000000	0.003029
3808.000000	0.003023
3807.000000	0.002995
3806.000000	0.002966
3805.000000	0.002966
3804.000000	0.003003
3803.000000	0.003054
3802.000000	0.003080
3801.000000	0.003068
3800.000000	0.003048
3799.000000	0.003041
3798.000000	0.003044
3797.000000	0.003039
3796.000000	0.003016
3795.000000	0.002980
3794.000000	0.002947
3793.000000	0.002927
3792.000000	0.002921
3791.000000	0.002921
3790.000000	0.002920
3789.000000	0.002912
3788.000000	0.002902
3787.000000	0.002897
3786.000000	0.002902
3785.000000	0.002915
3784.000000	0.002928
3783.000000	0.002937
3782.000000	0.002938
3781.000000	0.002931
3780.000000	0.002925
3779.000000	0.002927
3778.000000	0.002938
3777.000000	0.002947
3776.000000	0.002938
3775.000000	0.002911
3774.000000	0.002881
3773.000000	0.002872
3772.000000	0.002891
3771.000000	0.002921
3770.000000	0.002935
3769.000000	0.002926
3768.000000	0.002904
3767.000000	0.002884
3766.000000	0.002871
3765.000000	0.002865
3764.000000	0.002863
3763.000000	0.002867
3762.000000	0.002869
3761.000000	0.002862
3760.000000	0.002846
3759.000000	0.002833
3758.000000	0.002832
3757.000000	0.002841
3756.000000	0.002859
3755.000000	0.002891
3754.000000	0.002941
3753.000000	0.002999
3752.000000	0.003049
3751.000000	0.003079
3750.000000	0.003090
3749.000000	0.003086
3748.000000	0.003078
3747.000000	0.003079
3746.000000	0.003083
3745.000000	0.003064
3744.000000	0.003013
3743.000000	0.002962
3742.000000	0.002937
3741.000000	0.002940
3740.000000	0.002959
3739.000000	0.002983
3738.000000	0.002999
3737.000000	0.002998
3736.000000	0.002973
3735.000000	0.002935
3734.000000	0.002905
3733.000000	0.002887
3732.000000	0.002867
3731.000000	0.002841
3730.000000	0.002816
3729.000000	0.002812
3728.000000	0.002839
3727.000000	0.002888
3726.000000	0.002938
3725.000000	0.002968
3724.000000	0.002969
3723.000000	0.002946
3722.000000	0.002915
3721.000000	0.002892
3720.000000	0.002883
3719.000000	0.002883
3718.000000	0.002888
3717.000000	0.002894
3716.000000	0.002902
3715.000000	0.002915
3714.000000	0.002934
3713.000000	0.002951
3712.000000	0.002957
3711.000000	0.002949
3710.000000	0.002936
3709.000000	0.002927
3708.000000	0.002919
3707.000000	0.002906
3706.000000	0.002886
3705.000000	0.002864
3704.000000	0.002849
3703.000000	0.002844
3702.000000	0.002845
3701.000000	0.002848
3700.000000	0.002848
3699.000000	0.002851
3698.000000	0.002859
3697.000000	0.002872
3696.000000	0.002885
3695.000000	0.002900
3694.000000	0.002918
3693.000000	0.002939
3692.000000	0.002960
3691.000000	0.002975
3690.000000	0.002976
3689.000000	0.002967
3688.000000	0.002962
3687.000000	0.002970
3686.000000	0.002986
3685.000000	0.003001
3684.000000	0.003004
3683.000000	0.002995
3682.000000	0.002984
3681.000000	0.002987
3680.000000	0.003009
3679.000000	0.003054
3678.000000	0.003125
3677.000000	0.003206
3676.000000	0.003252
3675.000000	0.003240
3674.000000	0.003202
3673.000000	0.003179
3672.000000	0.003184
3671.000000	0.003208
3670.000000	0.003231
3669.000000	0.003252
3668.000000	0.003274
3667.000000	0.003296
3666.000000	0.003316
3665.000000	0.003333
3664.000000	0.003349
3663.000000	0.003367
3662.000000	0.003385
3661.000000	0.003397
3660.000000	0.003398
3659.000000	0.003397
3658.000000	0.003408
3657.000000	0.003444
3656.000000	0.003503
3655.000000	0.003569
3654.000000	0.003630
3653.000000	0.003684
3652.000000	0.003733
3651.000000	0.003777
3650.000000	0.003806
3649.000000	0.003819
3648.000000	0.003819
3647.000000	0.003817
3646.000000	0.003828
3645.000000	0.003855
3644.000000	0.003896
3643.000000	0.003943
3642.000000	0.003987
3641.000000	0.004024
3640.000000	0.004051
3639.000000	0.004067
3638.000000	0.004082
3637.000000	0.004106
3636.000000	0.004141
3635.000000	0.004176
3634.000000	0.004197
3633.000000	0.004209
3632.000000	0.004230
3631.000000	0.004277
3630.000000	0.004347
3629.000000	0.004413
3628.000000	0.004464
3627.000000	0.004508
3626.000000	0.004551
3625.000000	0.004595
3624.000000	0.004633
3623.000000	0.004657
3622.000000	0.004663
3621.000000	0.004656
3620.000000	0.004655
3619.000000	0.004678
3618.000000	0.004731
3617.000000	0.004797
3616.000000	0.004856
3615.000000	0.004898
3614.000000	0.004927
3613.000000	0.004956
3612.000000	0.004994
3611.000000	0.005036
3610.000000	0.005075
3609.000000	0.005106
3608.000000	0.005141
3607.000000	0.005192
3606.000000	0.005266
3605.000000	0.005360
3604.000000	0.005460
3603.000000	0.005552
3602.000000	0.005624
3601.000000	0.005671
3600.000000	0.005696
3599.000000	0.005715
3598.000000	0.005740
3597.000000	0.005775
3596.000000	0.005815
3595.000000	0.005852
3594.000000	0.005887
3593.000000	0.005927
3592.000000	0.005977
3591.000000	0.006031
3590.000000	0.006084
3589.000000	0.006131
3588.000000	0.006175
3587.000000	0.006228
3586.000000	0.006292
3585.000000	0.006354
3584.000000	0.006399
3583.000000	0.006424
3582.000000	0.006447
3581.000000	0.006490
3580.000000	0.006563
3579.000000	0.006653
3578.000000	0.006744
3577.000000	0.006822
3576.000000	0.006888
3575.000000	0.006947
3574.000000	0.007000
3573.000000	0.007044
3572.000000	0.007080
3571.000000	0.007116
3570.000000	0.007161
3569.000000	0.007216
3568.000000	0.007272
3567.000000	0.007326
3566.000000	0.007388
3565.000000	0.007464
3564.000000	0.007545
3563.000000	0.007619
3562.000000	0.007681
3561.000000	0.007738
3560.000000	0.007801
3559.000000	0.007875
3558.000000	0.007957
3557.000000	0.008039
3556.000000	0.008114
3555.000000	0.008182
3554.000000	0.008247
3553.000000	0.008313
3552.000000	0.008378
3551.000000	0.008436
3550.000000	0.008485
3549.000000	0.008530
3548.000000	0.008582
3547.000000	0.008642
3546.000000	0.008700
3545.000000	0.008747
3544.000000	0.008780
3543.000000	0.008804
3542.000000	0.008830
3541.000000	0.008870
3540.000000	0.008931
3539.000000	0.009013
3538.000000	0.009105
3537.000000	0.009192
3536.000000	0.009265
3535.000000	0.009321
3534.000000	0.009369
3533.000000	0.009417
3532.000000	0.009468
3531.000000	0.009520
3530.000000	0.009570
3529.000000	0.009624
3528.000000	0.009686
3527.000000	0.009758
3526.000000	0.009834
3525.000000	0.009904
3524.000000	0.009959
3523.000000	0.010001
3522.000000	0.010041
3521.000000	0.010091
3520.000000	0.010155
3519.000000	0.010226
3518.000000	0.010298
3517.000000	0.010363
3516.000000	0.010418
3515.000000	0.010458
3514.000000	0.010488
3513.000000	0.010522
3512.000000	0.010577
3511.000000	0.010653
3510.000000	0.010733
3509.000000	0.010798
3508.000000	0.010841
3507.000000	0.010871
3506.000000	0.010902
3505.000000	0.010945
3504.000000	0.010997
3503.000000	0.011052
3502.000000	0.011106
3501.000000	0.011161
3500.000000	0.011220
3499.000000	0.011286
3498.000000	0.011354
3497.000000	0.011415
3496.000000	0.011460
3495.000000	0.011492
3494.000000	0.011521
3493.000000	0.011559
3492.000000	0.011603
3491.000000	0.011645
3490.000000	0.011677
3489.000000	0.011703
3488.000000	0.011731
3487.000000	0.011765
3486.000000	0.011807
3485.000000	0.011855
3484.000000	0.011908
3483.000000	0.011962
3482.000000	0.012013
3481.000000	0.012059
3480.000000	0.012104
3479.000000	0.012144
3478.000000	0.012177
3477.000000	0.012209
3476.000000	0.012251
3475.000000	0.012312
3474.000000	0.012387
3473.000000	0.012457
3472.000000	0.012512
3471.000000	0.012553
3470.000000	0.012594
3469.000000	0.012645
3468.000000	0.012705
3467.000000	0.012766
3466.000000	0.012816
3465.000000	0.012853
3464.000000	0.012884
3463.000000	0.012920
3462.000000	0.012965
3461.000000	0.013011
3460.000000	0.013049
3459.000000	0.013081
3458.000000	0.013112
3457.000000	0.013144
3456.000000	0.013178
3455.000000	0.013219
3454.000000	0.013276
3453.000000	0.013347
3452.000000	0.013419
3451.000000	0.013483
3450.000000	0.013537
3449.000000	0.013588
3448.000000	0.013643
3447.000000	0.013703
3446.000000	0.013767
3445.000000	0.013829
3444.000000	0.013884
3443.000000	0.013930
3442.000000	0.013973
3441.000000	0.014019
3440.000000	0.014069
3439.000000	0.014116
3438.000000	0.014157
3437.000000	0.014196
3436.000000	0.014238
3435.000000	0.014285
3434.000000	0.014336
3433.000000	0.014388
3432.000000	0.014440
3431.000000	0.014491
3430.000000	0.014540
3429.000000	0.014592
3428.000000	0.014654
3427.000000	0.014727
3426.000000	0.014805
3425.000000	0.014878
3424.000000	0.014937
3423.000000	0.014978
3422.000000	0.015004
3421.000000	0.015025
3420.000000	0.015053
3419.000000	0.015092
3418.000000	0.015143
3417.000000	0.015198
3416.000000	0.015252
3415.000000	0.015303
3414.000000	0.015353
3413.000000	0.015398
3412.000000	0.015435
3411.000000	0.015462
3410.000000	0.015486
3409.000000	0.015522
3408.000000	0.015578
3407.000000	0.015650
3406.000000	0.015721
3405.000000	0.015777
3404.000000	0.015811
3403.000000	0.015832
3402.000000	0.015859
3401.000000	0.015906
3400.000000	0.015972
3399.000000	0.016046
3398.000000	0.016114
3397.000000	0.016166
3396.000000	0.016200
3395.000000	0.016218
3394.000000	0.016228
3393.000000	0.016244
3392.000000	0.016279
3391.000000	0.016338
3390.000000	0.016412
3389.000000	0.016488
3388.000000	0.016560
3387.000000	0.016627
3386.000000	0.016693
3385.000000	0.016755
3384.000000	0.016810
3383.000000	0.016856
3382.000000	0.016897
3381.000000	0.016939
3380.000000	0.016985
3379.000000	0.017041
3378.000000	0.017105
3377.000000	0.017170
3376.000000	0.017226
3375.000000	0.017273
3374.000000	0.017319
3373.000000	0.017376
3372.000000	0.017447
3371.000000	0.017522
3370.000000	0.017591
3369.000000	0.017653
3368.000000	0.017713
3367.000000	0.017777
3366.000000	0.017847
3365.000000	0.017918
3364.000000	0.017986
3363.000000	0.018054
3362.000000	0.018130
3361.000000	0.018216
3360.000000	0.018304
3359.000000	0.018384
3358.000000	0.018452
3357.000000	0.018513
3356.000000	0.018573
3355.000000	0.018636
3354.000000	0.018705
3353.000000	0.018782
3352.000000	0.018867
3351.000000	0.018963
3350.000000	0.019068
3349.000000	0.019177
3348.000000	0.019278
3347.000000	0.019366
3346.000000	0.019440
3345.000000	0.019500
3344.000000	0.019546
3343.000000	0.019582
3342.000000	0.019616
3341.000000	0.019653
3340.000000	0.019697
3339.000000	0.019752
3338.000000	0.019823
3337.000000	0.019907
3336.000000	0.019992
3335.000000	0.020064
3334.000000	0.020123
3333.000000	0.020179
3332.000000	0.020242
3331.000000	0.020317
3330.000000	0.020401
3329.000000	0.020479
3328.000000	0.020540
3327.000000	0.020585
3326.000000	0.020629
3325.000000	0.020687
3324.000000	0.020758
3323.000000	0.020826
3322.000000	0.020881
3321.000000	0.020923
3320.000000	0.020966
3319.000000	0.021018
3318.000000	0.021074
3317.000000	0.021127
3316.000000	0.021170
3315.000000	0.021207
3314.000000	0.021251
3313.000000	0.021309
3312.000000	0.021372
3311.000000	0.021425
3310.000000	0.021458
3309.000000	0.021477
3308.000000	0.021498
3307.000000	0.021531
3306.000000	0.021575
3305.000000	0.021621
3304.000000	0.021662
3303.000000	0.021694
3302.000000	0.021726
3301.000000	0.021768
3300.000000	0.021820
3299.000000	0.021875
3298.000000	0.021920
3297.000000	0.021949
3296.000000	0.021961
3295.000000	0.021958
3294.000000	0.021942
3293.000000	0.021922
3292.000000	0.021907
3291.000000	0.021908
3290.000000	0.021928
3289.000000	0.021960
3288.000000	0.021996
3287.000000	0.022027
3286.000000	0.022052
3285.000000	0.022068
3284.000000	0.022075
3283.000000	0.022071
3282.000000	0.022057
3281.000000	0.022035
3280.000000	0.022008
3279.000000	0.021979
3278.000000	0.021950
3277.000000	0.021921
3276.000000	0.021893
3275.000000	0.021865
3274.000000	0.021834
3273.000000	0.021793
3272.000000	0.021743
3271.000000	0.021695
3270.000000	0.021657
3269.000000	0.021627
3268.000000	0.021587
3267.000000	0.021528
3266.000000	0.021454
3265.000000	0.021383
3264.000000	0.021330
3263.000000	0.021303
3262.000000	0.021296
3261.000000	0.021297
3260.000000	0.021288
3259.000000	0.021253
3258.000000	0.021189
3257.000000	0.021105
3256.000000	0.021017
3255.000000	0.020937
3254.000000	0.020868
3253.000000	0.020807
3252.000000	0.020745
3251.000000	0.020684
3250.000000	0.020629
3249.000000	0.020585
3248.000000	0.020550
3247.000000	0.020515
3246.000000	0.020473
3245.000000	0.020425
3244.000000	0.020372
3243.000000	0.020315
3242.000000	0.020252
3241.000000	0.020183
3240.000000	0.020112
3239.000000	0.020048
3238.000000	0.019998
3237.000000	0.019964
3236.000000	0.019940
3235.000000	0.019916
3234.000000	0.019884
3233.000000	0.019845
3232.000000	0.019806
3231.000000	0.019771
3230.000000	0.019733
3229.000000	0.019686
3228.000000	0.019634
3227.000000	0.019593
3226.000000	0.019573
3225.000000	0.019565
3224.000000	0.019550
3223.000000	0.019515
3222.000000	0.019468
3221.000000	0.019421
3220.000000	0.019381
3219.000000	0.019345
3218.000000	0.019310
3217.000000	0.019269
3216.000000	0.019216
3215.000000	0.019152
3214.000000	0.019085
3213.000000	0.019026
3212.000000	0.018978
3211.000000	0.018939
3210.000000	0.018902
3209.000000	0.018866
3208.000000	0.018832
3207.000000	0.018799
3206.000000	0.018767
3205.000000	0.018735
3204.000000	0.018704
3203.000000	0.018674
3202.000000	0.018642
3201.000000	0.018601
3200.000000	0.018546
3199.000000	0.018478
3198.000000	0.018410
3197.000000	0.018352
3196.000000	0.018300
3195.000000	0.018242
3194.000000	0.018174
3193.000000	0.018103
3192.000000	0.018046
3191.000000	0.018010
3190.000000	0.017991
3189.000000	0.017971
3188.000000	0.017929
3187.000000	0.017857
3186.000000	0.017762
3185.000000	0.017664
3184.000000	0.017581
3183.000000	0.017515
3182.000000	0.017462
3181.000000	0.017412
3180.000000	0.017357
3179.000000	0.017297
3178.000000	0.017233
3177.000000	0.017171
3176.000000	0.017111
3175.000000	0.017049
3174.000000	0.016978
3173.000000	0.016897
3172.000000	0.016810
3171.000000	0.016722
3170.000000	0.016637
3169.000000	0.016555
3168.000000	0.016476
3167.000000	0.016404
3166.000000	0.016345
3165.000000	0.016305
3164.000000	0.016282
3163.000000	0.016266
3162.000000	0.016243
3161.000000	0.016205
3160.000000	0.016149
3159.000000	0.016080
3158.000000	0.016002
3157.000000	0.015924
3156.000000	0.015851
3155.000000	0.015785
3154.000000	0.015722
3153.000000	0.015655
3152.000000	0.015585
3151.000000	0.015514
3150.000000	0.015449
3149.000000	0.015396
3148.000000	0.015357
3147.000000	0.015326
3146.000000	0.015293
3145.000000	0.015252
3144.000000	0.015212
3143.000000	0.015181
3142.000000	0.015156
3141.000000	0.015122
3140.000000	0.015071
3139.000000	0.015006
3138.000000	0.014940
3137.000000	0.014879
3136.000000	0.014820
3135.000000	0.014763
3134.000000	0.014713
3133.000000	0.014679
3132.000000	0.014658
3131.000000	0.014646
3130.000000	0.014632
3129.000000	0.014610
3128.000000	0.014577
3127.000000	0.014532
3126.000000	0.014480
3125.000000	0.014430
3124.000000	0.014390
3123.000000	0.014362
3122.000000	0.014339
3121.000000	0.014314
3120.000000	0.014292
3119.000000	0.014280
3118.000000	0.014284
3117.000000	0.014298
3116.000000	0.014309
3115.000000	0.014306
3114.000000	0.014284
3113.000000	0.014247
3112.000000	0.014209
3111.000000	0.014189
3110.000000	0.014192
3109.000000	0.014211
3108.000000	0.014237
3107.000000	0.014263
3106.000000	0.014290
3105.000000	0.014314
3104.000000	0.014323
3103.000000	0.014316
3102.000000	0.014306
3101.000000	0.014312
3100.000000	0.014340
3099.000000	0.014377
3098.000000	0.014407
3097.000000	0.014423
3096.000000	0.014430
3095.000000	0.014432
3094.000000	0.014431
3093.000000	0.014428
3092.000000	0.014424
3091.000000	0.014420
3090.000000	0.014420
3089.000000	0.014424
3088.000000	0.014434
3087.000000	0.014451
3086.000000	0.014474
3085.000000	0.014499
3084.000000	0.014521
3083.000000	0.014532
3082.000000	0.014534
3081.000000	0.014534
3080.000000	0.014537
3079.000000	0.014544
3078.000000	0.014549
3077.000000	0.014552
3076.000000	0.014558
3075.000000	0.014575
3074.000000	0.014599
3073.000000	0.014618
3072.000000	0.014622
3071.000000	0.014611
3070.000000	0.014589
3069.000000	0.014561
3068.000000	0.014531
3067.000000	0.014502
3066.000000	0.014478
3065.000000	0.014460
3064.000000	0.014448
3063.000000	0.014432
3062.000000	0.014403
3061.000000	0.014362
3060.000000	0.014315
3059.000000	0.014269
3058.000000	0.014221
3057.000000	0.014162
3056.000000	0.014093
3055.000000	0.014018
3054.000000	0.013945
3053.000000	0.013875
3052.000000	0.013808
3051.000000	0.013744
3050.000000	0.013682
3049.000000	0.013617
3048.000000	0.013548
3047.000000	0.013483
3046.000000	0.013434
3045.000000	0.013401
3044.000000	0.013373
3043.000000	0.013340
3042.000000	0.013302
3041.000000	0.013266
3040.000000	0.013235
3039.000000	0.013209
3038.000000	0.013174
3037.000000	0.013118
3036.000000	0.013041
3035.000000	0.012952
3034.000000	0.012870
3033.000000	0.012801
3032.000000	0.012742
3031.000000	0.012686
3030.000000	0.012632
3029.000000	0.012581
3028.000000	0.012530
3027.000000	0.012473
3026.000000	0.012409
3025.000000	0.012341
3024.000000	0.012279
3023.000000	0.012231
3022.000000	0.012192
3021.000000	0.012154
3020.000000	0.012105
3019.000000	0.012044
3018.000000	0.011978
3017.000000	0.011921
3016.000000	0.011881
3015.000000	0.011859
3014.000000	0.011852
3013.000000	0.011853
3012.000000	0.011851
3011.000000	0.011834
3010.000000	0.011801
3009.000000	0.011761
3008.000000	0.011730
3007.000000	0.011717
3006.000000	0.011717
3005.000000	0.011716
3004.000000	0.011706
3003.000000	0.011692
3002.000000	0.011681
3001.000000	0.011676
3000.000000	0.011672
2999.000000	0.011668
2998.000000	0.011666
2997.000000	0.011668
2996.000000	0.011675
2995.000000	0.011689
2994.000000	0.011717
2993.000000	0.011760
2992.000000	0.011810
2991.000000	0.011857
2990.000000	0.011898
2989.000000	0.011940
2988.000000	0.011995
2987.000000	0.012069
2986.000000	0.012155
2985.000000	0.012237
2984.000000	0.012308
2983.000000	0.012373
2982.000000	0.012449
2981.000000	0.012542
2980.000000	0.012640
2979.000000	0.012726
2978.000000	0.012796
2977.000000	0.012862
2976.000000	0.012933
2975.000000	0.013004
2974.000000	0.013066
2973.000000	0.013112
2972.000000	0.013151
2971.000000	0.013194
2970.000000	0.013248
2969.000000	0.013310
2968.000000	0.013375
2967.000000	0.013437
2966.000000	0.013495
2965.000000	0.013546
2964.000000	0.013590
2963.000000	0.013624
2962.000000	0.013649
2961.000000	0.013666
2960.000000	0.013679
2959.000000	0.013690
2958.000000	0.013700
2957.000000	0.013709
2956.000000	0.013715
2955.000000	0.013721
2954.000000	0.013724
2953.000000	0.013717
2952.000000	0.013697
2951.000000	0.013667
2950.000000	0.013629
2949.000000	0.013584
2948.000000	0.013529
2947.000000	0.013463
2946.000000	0.013388
2945.000000	0.013305
2944.000000	0.013218
2943.000000	0.013145
2942.000000	0.013101
2941.000000	0.013084
2940.000000	0.013071
2939.000000	0.013038
2938.000000	0.012981
2937.000000	0.012910
2936.000000	0.012833
2935.000000	0.012756
2934.000000	0.012682
2933.000000	0.012620
2932.000000	0.012573
2931.000000	0.012539
2930.000000	0.012518
2929.000000	0.012514
2928.000000	0.012526
2927.000000	0.012551
2926.000000	0.012596
2925.000000	0.012682
2924.000000	0.012836
2923.000000	0.013071
2922.000000	0.013385
2921.000000	0.013757
2920.000000	0.014149
2919.000000	0.014518
2918.000000	0.014829
2917.000000	0.015061
2916.000000	0.015208
2915.000000	0.015270
2914.000000	0.015262
2913.000000	0.015210
2912.000000	0.015141
2911.000000	0.015073
2910.000000	0.015004
2909.000000	0.014929
2908.000000	0.014847
2907.000000	0.014764
2906.000000	0.014686
2905.000000	0.014622
2904.000000	0.014575
2903.000000	0.014539
2902.000000	0.014501
2901.000000	0.014453
2900.000000	0.014394
2899.000000	0.014333
2898.000000	0.014275
2897.000000	0.014219
2896.000000	0.014170
2895.000000	0.014133
2894.000000	0.014105
2893.000000	0.014078
2892.000000	0.014042
2891.000000	0.014002
2890.000000	0.013967
2889.000000	0.013937
2888.000000	0.013902
2887.000000	0.013854
2886.000000	0.013796
2885.000000	0.013745
2884.000000	0.013713
2883.000000	0.013694
2882.000000	0.013673
2881.000000	0.013639
2880.000000	0.013591
2879.000000	0.013539
2878.000000	0.013490
2877.000000	0.013445
2876.000000	0.013402
2875.000000	0.013361
2874.000000	0.013330
2873.000000	0.013314
2872.000000	0.013310
2871.000000	0.013304
2870.000000	0.013277
2869.000000	0.013212
2868.000000	0.013100
2867.000000	0.012945
2866.000000	0.012761
2865.000000	0.012564
2864.000000	0.012363
2863.000000	0.012163
2862.000000	0.011973
2861.000000	0.011805
2860.000000	0.011667
2859.000000	0.011562
2858.000000	0.011495
2857.000000	0.011476
2856.000000	0.011526
2855.000000	0.011663
2854.000000	0.011894
2853.000000	0.012207
2852.000000	0.012561
2851.000000	0.012896
2850.000000	0.013155
2849.000000	0.013305
2848.000000	0.013352
2847.000000	0.013322
2846.000000	0.013246
2845.000000	0.013145
2844.000000	0.013025
2843.000000	0.012894
2842.000000	0.012756
2841.000000	0.012617
2840.000000	0.012476
2839.000000	0.012336
2838.000000	0.012203
2837.000000	0.012082
2836.000000	0.011975
2835.000000	0.011877
2834.000000	0.011785
2833.000000	0.011693
2832.000000	0.011601
2831.000000	0.011509
2830.000000	0.011421
2829.000000	0.011343
2828.000000	0.011280
2827.000000	0.011230
2826.000000	0.011180
2825.000000	0.011116
2824.000000	0.011032
2823.000000	0.010943
2822.000000	0.010868
2821.000000	0.010815
2820.000000	0.010774
2819.000000	0.010728
2818.000000	0.010673
2817.000000	0.010612
2816.000000	0.010556
2815.000000	0.010507
2814.000000	0.010463
2813.000000	0.010418
2812.000000	0.010371
2811.000000	0.010329
2810.000000	0.010299
2809.000000	0.010280
2808.000000	0.010259
2807.000000	0.010224
2806.000000	0.010178
2805.000000	0.010131
2804.000000	0.010089
2803.000000	0.010051
2802.000000	0.010012
2801.000000	0.009975
2800.000000	0.009943
2799.000000	0.009916
2798.000000	0.009892
2797.000000	0.009868
2796.000000	0.009841
2795.000000	0.009809
2794.000000	0.009773
2793.000000	0.009734
2792.000000	0.009694
2791.000000	0.009655
2790.000000	0.009625
2789.000000	0.009607
2788.000000	0.009596
2787.000000	0.009582
2786.000000	0.009554
2785.000000	0.009514
2784.000000	0.009472
2783.000000	0.009439
2782.000000	0.009417
2781.000000	0.009400
2780.000000	0.009381
2779.000000	0.009358
2778.000000	0.009334
2777.000000	0.009307
2776.000000	0.009275
2775.000000	0.009241
2774.000000	0.009211
2773.000000	0.009192
2772.000000	0.009184
2771.000000	0.009178
2770.000000	0.009170
2769.000000	0.009159
2768.000000	0.009145
2767.000000	0.009127
2766.000000	0.009100
2765.000000	0.009067
2764.000000	0.009033
2763.000000	0.009004
2762.000000	0.008980
2761.000000	0.008960
2760.000000	0.008937
2759.000000	0.008913
2758.000000	0.008891
2757.000000	0.008878
2756.000000	0.008873
2755.000000	0.008872
2754.000000	0.008865
2753.000000	0.008845
2752.000000	0.008813
2751.000000	0.008776
2750.000000	0.008751
2749.000000	0.008746
2748.000000	0.008756
2747.000000	0.008764
2746.000000	0.008759
2745.000000	0.008742
2744.000000	0.008718
2743.000000	0.008693
2742.000000	0.008666
2741.000000	0.008639
2740.000000	0.008617
2739.000000	0.008601
2738.000000	0.008587
2737.000000	0.008568
2736.000000	0.008545
2735.000000	0.008522
2734.000000	0.008505
2733.000000	0.008496
2732.000000	0.008491
2731.000000	0.008486
2730.000000	0.008479
2729.000000	0.008469
2728.000000	0.008456
2727.000000	0.008439
2726.000000	0.008416
2725.000000	0.008387
2724.000000	0.008353
2723.000000	0.008318
2722.000000	0.008290
2721.000000	0.008275
2720.000000	0.008267
2719.000000	0.008259
2718.000000	0.008242
2717.000000	0.008219
2716.000000	0.008194
2715.000000	0.008168
2714.000000	0.008141
2713.000000	0.008119
2712.000000	0.008103
2711.000000	0.008088
2710.000000	0.008070
2709.000000	0.008047
2708.000000	0.008029
2707.000000	0.008021
2706.000000	0.008018
2705.000000	0.008012
2704.000000	0.007999
2703.000000	0.007982
2702.000000	0.007967
2701.000000	0.007955
2700.000000	0.007940
2699.000000	0.007919
2698.000000	0.007894
2697.000000	0.007870
2696.000000	0.007855
2695.000000	0.007856
2694.000000	0.007870
2693.000000	0.007885
2692.000000	0.007886
2691.000000	0.007870
2690.000000	0.007847
2689.000000	0.007832
2688.000000	0.007830
2687.000000	0.007832
2686.000000	0.007826
2685.000000	0.007807
2684.000000	0.007781
2683.000000	0.007760
2682.000000	0.007753
2681.000000	0.007760
2680.000000	0.007771
2679.000000	0.007774
2678.000000	0.007765
2677.000000	0.007751
2676.000000	0.007742
2675.000000	0.007742
2674.000000	0.007745
2673.000000	0.007740
2672.000000	0.007725
2671.000000	0.007704
2670.000000	0.007683
2669.000000	0.007667
2668.000000	0.007659
2667.000000	0.007660
2666.000000	0.007668
2665.000000	0.007672
2664.000000	0.007664
2663.000000	0.007645
2662.000000	0.007627
2661.000000	0.007622
2660.000000	0.007627
2659.000000	0.007632
2658.000000	0.007629
2657.000000	0.007616
2656.000000	0.007595
2655.000000	0.007567
2654.000000	0.007536
2653.000000	0.007510
2652.000000	0.007493
2651.000000	0.007480
2650.000000	0.007457
2649.000000	0.007419
2648.000000	0.007375
2647.000000	0.007346
2646.000000	0.007341
2645.000000	0.007348
2644.000000	0.007339
2643.000000	0.007300
2642.000000	0.007242
2641.000000	0.007189
2640.000000	0.007155
2639.000000	0.007139
2638.000000	0.007132
2637.000000	0.007128
2636.000000	0.007123
2635.000000	0.007112
2634.000000	0.007088
2633.000000	0.007052
2632.000000	0.007005
2631.000000	0.006958
2630.000000	0.006921
2629.000000	0.006900
2628.000000	0.006890
2627.000000	0.006872
2626.000000	0.006838
2625.000000	0.006794
2624.000000	0.006764
2623.000000	0.006764
2622.000000	0.006791
2621.000000	0.006821
2620.000000	0.006826
2619.000000	0.006794
2618.000000	0.006740
2617.000000	0.006694
2616.000000	0.006675
2615.000000	0.006679
2614.000000	0.006685
2613.000000	0.006675
2612.000000	0.006654
2611.000000	0.006640
2610.000000	0.006637
2609.000000	0.006631
2608.000000	0.006607
2607.000000	0.006575
2606.000000	0.006558
2605.000000	0.006571
2604.000000	0.006595
2603.000000	0.006597
2602.000000	0.006567
2601.000000	0.006519
2600.000000	0.006478
2599.000000	0.006455
2598.000000	0.006446
2597.000000	0.006446
2596.000000	0.006444
2595.000000	0.006434
2594.000000	0.006406
2593.000000	0.006362
2592.000000	0.006315
2591.000000	0.006279
2590.000000	0.006260
2589.000000	0.006248
2588.000000	0.006236
2587.000000	0.006221
2586.000000	0.006213
2585.000000	0.006216
2584.000000	0.006229
2583.000000	0.006247
2582.000000	0.006265
2581.000000	0.006273
2580.000000	0.006261
2579.000000	0.006230
2578.000000	0.006189
2577.000000	0.006144
2576.000000	0.006100
2575.000000	0.006059
2574.000000	0.006035
2573.000000	0.006043
2572.000000	0.006081
2571.000000	0.006134
2570.000000	0.006179
2569.000000	0.006201
2568.000000	0.006194
2567.000000	0.006167
2566.000000	0.006133
2565.000000	0.006095
2564.000000	0.006053
2563.000000	0.006015
2562.000000	0.005997
2561.000000	0.006005
2560.000000	0.006018
2559.000000	0.006008
2558.000000	0.005966
2557.000000	0.005915
2556.000000	0.005884
2555.000000	0.005892
2554.000000	0.005935
2553.000000	0.005991
2552.000000	0.006022
2551.000000	0.006003
2550.000000	0.005944
2549.000000	0.005886
2548.000000	0.005858
2547.000000	0.005860
2546.000000	0.005872
2545.000000	0.005878
2544.000000	0.005878
2543.000000	0.005876
2542.000000	0.005867
2541.000000	0.005852
2540.000000	0.005834
2539.000000	0.005825
2538.000000	0.005831
2537.000000	0.005847
2536.000000	0.005860
2535.000000	0.005857
2534.000000	0.005832
2533.000000	0.005793
2532.000000	0.005749
2531.000000	0.005711
2530.000000	0.005687
2529.000000	0.005682
2528.000000	0.005698
2527.000000	0.005730
2526.000000	0.005763
2525.000000	0.005776
2524.000000	0.005755
2523.000000	0.005706
2522.000000	0.005657
2521.000000	0.005628
2520.000000	0.005616
2519.000000	0.005611
2518.000000	0.005612
2517.000000	0.005629
2516.000000	0.005660
2515.000000	0.005699
2514.000000	0.005736
2513.000000	0.005770
2512.000000	0.005789
2511.000000	0.005782
2510.000000	0.005750
2509.000000	0.005719
2508.000000	0.005717
2507.000000	0.005742
2506.000000	0.005767
2505.000000	0.005769
2504.000000	0.005744
2503.000000	0.005701
2502.000000	0.005649
2501.000000	0.005593
2500.000000	0.005544
2499.000000	0.005520
2498.000000	0.005526
2497.000000	0.005545
2496.000000	0.005556
2495.000000	0.005550
2494.000000	0.005536
2493.000000	0.005519
2492.000000	0.005506
2491.000000	0.005502
2490.000000	0.005517
2489.000000	0.005547
2488.000000	0.005571
2487.000000	0.005573
2486.000000	0.005563
2485.000000	0.005559
2484.000000	0.005572
2483.000000	0.005590
2482.000000	0.005599
2481.000000	0.005590
2480.000000	0.005558
2479.000000	0.005503
2478.000000	0.005440
2477.000000	0.005389
2476.000000	0.005364
2475.000000	0.005365
2474.000000	0.005377
2473.000000	0.005391
2472.000000	0.005403
2471.000000	0.005417
2470.000000	0.005433
2469.000000	0.005442
2468.000000	0.005435
2467.000000	0.005417
2466.000000	0.005406
2465.000000	0.005411
2464.000000	0.005425
2463.000000	0.005437
2462.000000	0.005453
2461.000000	0.005479
2460.000000	0.005504
2459.000000	0.005507
2458.000000	0.005485
2457.000000	0.005462
2456.000000	0.005459
2455.000000	0.005473
2454.000000	0.005480
2453.000000	0.005465
2452.000000	0.005433
2451.000000	0.005405
2450.000000	0.005398
2449.000000	0.005408
2448.000000	0.005420
2447.000000	0.005426
2446.000000	0.005428
2445.000000	0.005427
2444.000000	0.005413
2443.000000	0.005377
2442.000000	0.005329
2441.000000	0.005295
2440.000000	0.005290
2439.000000	0.005311
2438.000000	0.005343
2437.000000	0.005363
2436.000000	0.005353
2435.000000	0.005316
2434.000000	0.005273
2433.000000	0.005245
2432.000000	0.005228
2431.000000	0.005209
2430.000000	0.005191
2429.000000	0.005196
2428.000000	0.005231
2427.000000	0.005278
2426.000000	0.005309
2425.000000	0.005308
2424.000000	0.005277
2423.000000	0.005228
2422.000000	0.005188
2421.000000	0.005179
2420.000000	0.005204
2419.000000	0.005241
2418.000000	0.005272
2417.000000	0.005293
2416.000000	0.005302
2415.000000	0.005287
2414.000000	0.005241
2413.000000	0.005172
2412.000000	0.005110
2411.000000	0.005082
2410.000000	0.005095
2409.000000	0.005134
2408.000000	0.005176
2407.000000	0.005207
2406.000000	0.005226
2405.000000	0.005240
2404.000000	0.005248
2403.000000	0.005247
2402.000000	0.005234
2401.000000	0.005216
2400.000000	0.005194
2399.000000	0.005175
2398.000000	0.005168
2397.000000	0.005173
2396.000000	0.005181
2395.000000	0.005184
2394.000000	0.005191
2393.000000	0.005218
2392.000000	0.005258
2391.000000	0.005287
2390.000000	0.005286
2389.000000	0.005267
2388.000000	0.005256
2387.000000	0.005270
2386.000000	0.005306
2385.000000	0.005348
2384.000000	0.005379
2383.000000	0.005390
2382.000000	0.005384
2381.000000	0.005375
2380.000000	0.005369
2379.000000	0.005367
2378.000000	0.005367
2377.000000	0.005362
2376.000000	0.005344
2375.000000	0.005313
2374.000000	0.005293
2373.000000	0.005308
2372.000000	0.005352
2371.000000	0.005399
2370.000000	0.005433
2369.000000	0.005464
2368.000000	0.005499
2367.000000	0.005527
2366.000000	0.005532
2365.000000	0.005520
2364.000000	0.005498
2363.000000	0.005471
2362.000000	0.005450
2361.000000	0.005447
2360.000000	0.005469
2359.000000	0.005495
2358.000000	0.005505
2357.000000	0.005502
2356.000000	0.005509
2355.000000	0.005537
2354.000000	0.005564
2353.000000	0.005560
2352.000000	0.005527
2351.000000	0.005500
2350.000000	0.005506
2349.000000	0.005539
2348.000000	0.005573
2347.000000	0.005582
2346.000000	0.005560
2345.000000	0.005535
2344.000000	0.005535
2343.000000	0.005556
2342.000000	0.005568
2341.000000	0.005557
2340.000000	0.005542
2339.000000	0.005543
2338.000000	0.005562
2337.000000	0.005584
2336.000000	0.005602
2335.000000	0.005611
2334.000000	0.005600
2333.000000	0.005567
2332.000000	0.005532
2331.000000	0.005513
2330.000000	0.005514
2329.000000	0.005516
2328.000000	0.005521
2327.000000	0.005543
2326.000000	0.005590
2325.000000	0.005647
2324.000000	0.005678
2323.000000	0.005656
2322.000000	0.005583
2321.000000	0.005493
2320.000000	0.005424
2319.000000	0.005391
2318.000000	0.005387
2317.000000	0.005392
2316.000000	0.005399
2315.000000	0.005412
2314.000000	0.005438
2313.000000	0.005467
2312.000000	0.005481
2311.000000	0.005466
2310.000000	0.005429
2309.000000	0.005382
2308.000000	0.005326
2307.000000	0.005259
2306.000000	0.005196
2305.000000	0.005161
2304.000000	0.005167
2303.000000	0.005204
2302.000000	0.005246
2301.000000	0.005276
2300.000000	0.005289
2299.000000	0.005289
2298.000000	0.005276
2297.000000	0.005251
2296.000000	0.005226
2295.000000	0.005214
2294.000000	0.005224
2293.000000	0.005252
2292.000000	0.005280
2291.000000	0.005292
2290.000000	0.005284
2289.000000	0.005264
2288.000000	0.005241
2287.000000	0.005218
2286.000000	0.005195
2285.000000	0.005167
2284.000000	0.005136
2283.000000	0.005116
2282.000000	0.005121
2281.000000	0.005147
2280.000000	0.005169
2279.000000	0.005172
2278.000000	0.005169
2277.000000	0.005178
2276.000000	0.005191
2275.000000	0.005188
2274.000000	0.005169
2273.000000	0.005155
2272.000000	0.005156
2271.000000	0.005151
2270.000000	0.005113
2269.000000	0.005037
2268.000000	0.004943
2267.000000	0.004872
2266.000000	0.004855
2265.000000	0.004890
2264.000000	0.004946
2263.000000	0.004981
2262.000000	0.004974
2261.000000	0.004928
2260.000000	0.004858
2259.000000	0.004791
2258.000000	0.004754
2257.000000	0.004759
2256.000000	0.004787
2255.000000	0.004815
2254.000000	0.004836
2253.000000	0.004853
2252.000000	0.004864
2251.000000	0.004867
2250.000000	0.004881
2249.000000	0.004922
2248.000000	0.004978
2247.000000	0.005025
2246.000000	0.005058
2245.000000	0.005075
2244.000000	0.005055
2243.000000	0.004974
2242.000000	0.004860
2241.000000	0.004788
2240.000000	0.004813
2239.000000	0.004920
2238.000000	0.005057
2237.000000	0.005167
2236.000000	0.005198
2235.000000	0.005131
2234.000000	0.005003
2233.000000	0.004896
2232.000000	0.004864
2231.000000	0.004895
2230.000000	0.004935
2229.000000	0.004943
2228.000000	0.004905
2227.000000	0.004826
2226.000000	0.004728
2225.000000	0.004639
2224.000000	0.004576
2223.000000	0.004543
2222.000000	0.004544
2221.000000	0.004584
2220.000000	0.004654
2219.000000	0.004739
2218.000000	0.004833
2217.000000	0.004921
2216.000000	0.004950
2215.000000	0.004868
2214.000000	0.004700
2213.000000	0.004537
2212.000000	0.004452
2211.000000	0.004436
2210.000000	0.004447
2209.000000	0.004464
2208.000000	0.004485
2207.000000	0.004500
2206.000000	0.004503
2205.000000	0.004511
2204.000000	0.004537
2203.000000	0.004571
2202.000000	0.004594
2201.000000	0.004591
2200.000000	0.004555
2199.000000	0.004485
2198.000000	0.004412
2197.000000	0.004378
2196.000000	0.004391
2195.000000	0.004406
2194.000000	0.004377
2193.000000	0.004303
2192.000000	0.004211
2191.000000	0.004138
2190.000000	0.004137
2189.000000	0.004260
2188.000000	0.004479
2187.000000	0.004658
2186.000000	0.004662
2185.000000	0.004493
2184.000000	0.004292
2183.000000	0.004196
2182.000000	0.004229
2181.000000	0.004311
2180.000000	0.004360
2179.000000	0.004349
2178.000000	0.004306
2177.000000	0.004279
2176.000000	0.004296
2175.000000	0.004348
2174.000000	0.004404
2173.000000	0.004444
2172.000000	0.004477
2171.000000	0.004507
2170.000000	0.004501
2169.000000	0.004400
2168.000000	0.004197
2167.000000	0.003990
2166.000000	0.003916
2165.000000	0.004029
2164.000000	0.004258
2163.000000	0.004479
2162.000000	0.004593
2161.000000	0.004508
2160.000000	0.004174
2159.000000	0.003690
2158.000000	0.003305
2157.000000	0.003177
2156.000000	0.003235
2155.000000	0.003342
2154.000000	0.003479
2153.000000	0.003674
2152.000000	0.003861
2151.000000	0.003914
2150.000000	0.003806
2149.000000	0.003657
2148.000000	0.003606
2147.000000	0.003698
2146.000000	0.003893
2145.000000	0.004113
2144.000000	0.004274
2143.000000	0.004333
2142.000000	0.004319
2141.000000	0.004311
2140.000000	0.004348
2139.000000	0.004409
2138.000000	0.004457
2137.000000	0.004483
2136.000000	0.004480
2135.000000	0.004429
2134.000000	0.004320
2133.000000	0.004192
2132.000000	0.004113
2131.000000	0.004128
2130.000000	0.004224
2129.000000	0.004330
2128.000000	0.004373
2127.000000	0.004345
2126.000000	0.004313
2125.000000	0.004344
2124.000000	0.004432
2123.000000	0.004513
2122.000000	0.004541
2121.000000	0.004528
2120.000000	0.004512
2119.000000	0.004517
2118.000000	0.004551
2117.000000	0.004599
2116.000000	0.004625
2115.000000	0.004591
2114.000000	0.004506
2113.000000	0.004437
2112.000000	0.004447
2111.000000	0.004540
2110.000000	0.004665
2109.000000	0.004764
2108.000000	0.004810
2107.000000	0.004807
2106.000000	0.004774
2105.000000	0.004728
2104.000000	0.004676
2103.000000	0.004623
2102.000000	0.004588
2101.000000	0.004590
2100.000000	0.004632
2099.000000	0.004689
2098.000000	0.004739
2097.000000	0.004772
2096.000000	0.004786
2095.000000	0.004770
2094.000000	0.004712
2093.000000	0.004616
2092.000000	0.004513
2091.000000	0.004450
2090.000000	0.004449
2089.000000	0.004482
2088.000000	0.004497
2087.000000	0.004478
2086.000000	0.004465
2085.000000	0.004507
2084.000000	0.004592
2083.000000	0.004648
2082.000000	0.004617
2081.000000	0.004513
2080.000000	0.004415
2079.000000	0.004395
2078.000000	0.004459
2077.000000	0.004538
2076.000000	0.004560
2075.000000	0.004514
2074.000000	0.004435
2073.000000	0.004349
2072.000000	0.004257
2071.000000	0.004197
2070.000000	0.004227
2069.000000	0.004336
2068.000000	0.004416
2067.000000	0.004387
2066.000000	0.004313
2065.000000	0.004323
2064.000000	0.004433
2063.000000	0.004523
2062.000000	0.004490
2061.000000	0.004353
2060.000000	0.004211
2059.000000	0.004141
2058.000000	0.004158
2057.000000	0.004218
2056.000000	0.004256
2055.000000	0.004238
2054.000000	0.004204
2053.000000	0.004211
2052.000000	0.004257
2051.000000	0.004294
2050.000000	0.004300
2049.000000	0.004298
2048.000000	0.004294
2047.000000	0.004258
2046.000000	0.004178
2045.000000	0.004082
2044.000000	0.004012
2043.000000	0.003998
2042.000000	0.004060
2041.000000	0.004161
2040.000000	0.004178
2039.000000	0.004017
2038.000000	0.003739
2037.000000	0.003501
2036.000000	0.003355
2035.000000	0.003199
2034.000000	0.002967
2033.000000	0.002758
2032.000000	0.002711
2031.000000	0.002846
2030.000000	0.003077
2029.000000	0.003303
2028.000000	0.003443
2027.000000	0.003467
2026.000000	0.003419
2025.000000	0.003388
2024.000000	0.003407
2023.000000	0.003448
2022.000000	0.003494
2021.000000	0.003576
2020.000000	0.003700
2019.000000	0.003804
2018.000000	0.003805
2017.000000	0.003664
2016.000000	0.003442
2015.000000	0.003283
2014.000000	0.003324
2013.000000	0.003535
2012.000000	0.003686
2011.000000	0.003562
2010.000000	0.003195
2009.000000	0.002808
2008.000000	0.002571
2007.000000	0.002480
2006.000000	0.002504
2005.000000	0.002657
2004.000000	0.002914
2003.000000	0.003169
2002.000000	0.003347
2001.000000	0.003469
2000.000000	0.003579
1999.000000	0.003656
1998.000000	0.003658
1997.000000	0.003592
1996.000000	0.003503
1995.000000	0.003417
1994.000000	0.003333
1993.000000	0.003266
1992.000000	0.003251
1991.000000	0.003316
1990.000000	0.003446
1989.000000	0.003576
1988.000000	0.003629
1987.000000	0.003592
1986.000000	0.003537
1985.000000	0.003543
1984.000000	0.003610
1983.000000	0.003686
1982.000000	0.003739
1981.000000	0.003768
1980.000000	0.003742
1979.000000	0.003613
1978.000000	0.003402
1977.000000	0.003202
1976.000000	0.003086
1975.000000	0.003065
1974.000000	0.003131
1973.000000	0.003249
1972.000000	0.003347
1971.000000	0.003380
1970.000000	0.003399
1969.000000	0.003485
1968.000000	0.003626
1967.000000	0.003738
1966.000000	0.003790
1965.000000	0.003817
1964.000000	0.003827
1963.000000	0.003785
1962.000000	0.003689
1961.000000	0.003589
1960.000000	0.003522
1959.000000	0.003498
1958.000000	0.003538
1957.000000	0.003650
1956.000000	0.003772
1955.000000	0.003799
1954.000000	0.003690
1953.000000	0.003496
1952.000000	0.003297
1951.000000	0.003166
1950.000000	0.003161
1949.000000	0.003293
1948.000000	0.003472
1947.000000	0.003574
1946.000000	0.003562
1945.000000	0.003500
1944.000000	0.003444
1943.000000	0.003373
1942.000000	0.003264
1941.000000	0.003169
1940.000000	0.003170
1939.000000	0.003285
1938.000000	0.003459
1937.000000	0.003602
1936.000000	0.003653
1935.000000	0.003619
1934.000000	0.003560
1933.000000	0.003520
1932.000000	0.003486
1931.000000	0.003422
1930.000000	0.003345
1929.000000	0.003317
1928.000000	0.003369
1927.000000	0.003459
1926.000000	0.003517
1925.000000	0.003513
1924.000000	0.003466
1923.000000	0.003428
1922.000000	0.003447
1921.000000	0.003523
1920.000000	0.003598
1919.000000	0.003610
1918.000000	0.003544
1917.000000	0.003457
1916.000000	0.003403
1915.000000	0.003393
1914.000000	0.003416
1913.000000	0.003461
1912.000000	0.003516
1911.000000	0.003570
1910.000000	0.003615
1909.000000	0.003653
1908.000000	0.003676
1907.000000	0.003671
1906.000000	0.003633
1905.000000	0.003570
1904.000000	0.003501
1903.000000	0.003446
1902.000000	0.003430
1901.000000	0.003455
1900.000000	0.003497
1899.000000	0.003530
1898.000000	0.003554
1897.000000	0.003582
1896.000000	0.003603
1895.000000	0.003598
1894.000000	0.003563
1893.000000	0.003514
1892.000000	0.003459
1891.000000	0.003394
1890.000000	0.003334
1889.000000	0.003305
1888.000000	0.003316
1887.000000	0.003349
1886.000000	0.003385
1885.000000	0.003416
1884.000000	0.003432
1883.000000	0.003425
1882.000000	0.003409
1881.000000	0.003407
1880.000000	0.003426
1879.000000	0.003443
1878.000000	0.003440
1877.000000	0.003409
1876.000000	0.003348
1875.000000	0.003270
1874.000000	0.003202
1873.000000	0.003175
1872.000000	0.003186
1871.000000	0.003209
1870.000000	0.003228
1869.000000	0.003238
1868.000000	0.003245
1867.000000	0.003258
1866.000000	0.003283
1865.000000	0.003312
1864.000000	0.003318
1863.000000	0.003289
1862.000000	0.003244
1861.000000	0.003218
1860.000000	0.003217
1859.000000	0.003215
1858.000000	0.003192
1857.000000	0.003160
1856.000000	0.003140
1855.000000	0.003147
1854.000000	0.003180
1853.000000	0.003221
1852.000000	0.003241
1851.000000	0.003229
1850.000000	0.003198
1849.000000	0.003164
1848.000000	0.003123
1847.000000	0.003082
1846.000000	0.003068
1845.000000	0.003102
1844.000000	0.003155
1843.000000	0.003168
1842.000000	0.003136
1841.000000	0.003101
1840.000000	0.003091
1839.000000	0.003096
1838.000000	0.003104
1837.000000	0.003117
1836.000000	0.003130
1835.000000	0.003127
1834.000000	0.003100
1833.000000	0.003053
1832.000000	0.002983
1831.000000	0.002897
1830.000000	0.002825
1829.000000	0.002806
1828.000000	0.002839
1827.000000	0.002896
1826.000000	0.002961
1825.000000	0.003030
1824.000000	0.003086
1823.000000	0.003117
1822.000000	0.003128
1821.000000	0.003127
1820.000000	0.003109
1819.000000	0.003074
1818.000000	0.003041
1817.000000	0.003033
1816.000000	0.003038
1815.000000	0.003031
1814.000000	0.003008
1813.000000	0.002986
1812.000000	0.002978
1811.000000	0.002981
1810.000000	0.002993
1809.000000	0.003012
1808.000000	0.003032
1807.000000	0.003045
1806.000000	0.003058
1805.000000	0.003083
1804.000000	0.003113
1803.000000	0.003129
1802.000000	0.003118
1801.000000	0.003080
1800.000000	0.003034
1799.000000	0.003005
1798.000000	0.003007
1797.000000	0.003020
1796.000000	0.003012
1795.000000	0.002967
1794.000000	0.002912
1793.000000	0.002889
1792.000000	0.002905
1791.000000	0.002927
1790.000000	0.002943
1789.000000	0.002968
1788.000000	0.003009
1787.000000	0.003055
1786.000000	0.003086
1785.000000	0.003094
1784.000000	0.003083
1783.000000	0.003070
1782.000000	0.003082
1781.000000	0.003124
1780.000000	0.003171
1779.000000	0.003195
1778.000000	0.003202
1777.000000	0.003208
1776.000000	0.003212
1775.000000	0.003198
1774.000000	0.003166
1773.000000	0.003141
1772.000000	0.003144
1771.000000	0.003175
1770.000000	0.003245
1769.000000	0.003349
1768.000000	0.003425
1767.000000	0.003410
1766.000000	0.003319
1765.000000	0.003217
1764.000000	0.003133
1763.000000	0.003050
1762.000000	0.002961
1761.000000	0.002888
1760.000000	0.002839
1759.000000	0.002797
1758.000000	0.002769
1757.000000	0.002769
1756.000000	0.002790
1755.000000	0.002817
1754.000000	0.002866
1753.000000	0.002953
1752.000000	0.003044
1751.000000	0.003085
1750.000000	0.003091
1749.000000	0.003154
1748.000000	0.003304
1747.000000	0.003497
1746.000000	0.003700
1745.000000	0.003917
1744.000000	0.004133
1743.000000	0.004300
1742.000000	0.004431
1741.000000	0.004621
1740.000000	0.004918
1739.000000	0.005239
1738.000000	0.005499
1737.000000	0.005718
1736.000000	0.005931
1735.000000	0.006104
1734.000000	0.006194
1733.000000	0.006227
1732.000000	0.006222
1731.000000	0.006194
1730.000000	0.006179
1729.000000	0.006199
1728.000000	0.006233
1727.000000	0.006248
1726.000000	0.006252
1725.000000	0.006276
1724.000000	0.006322
1723.000000	0.006328
1722.000000	0.006270
1721.000000	0.006217
1720.000000	0.006265
1719.000000	0.006446
1718.000000	0.006703
1717.000000	0.006926
1716.000000	0.007049
1715.000000	0.007095
1714.000000	0.007122
1713.000000	0.007185
1712.000000	0.007293
1711.000000	0.007418
1710.000000	0.007546
1709.000000	0.007678
1708.000000	0.007819
1707.000000	0.007998
1706.000000	0.008258
1705.000000	0.008593
1704.000000	0.008928
1703.000000	0.009224
1702.000000	0.009535
1701.000000	0.010010
1700.000000	0.010707
1699.000000	0.011422
1698.000000	0.012063
1697.000000	0.012761
1696.000000	0.013541
1695.000000	0.014249
1694.000000	0.014785
1693.000000	0.015251
1692.000000	0.015790
1691.000000	0.016414
1690.000000	0.017063
1689.000000	0.017693
1688.000000	0.018298
1687.000000	0.018884
1686.000000	0.019478
1685.000000	0.020188
1684.000000	0.021027
1683.000000	0.021821
1682.000000	0.022548
1681.000000	0.023309
1680.000000	0.024085
1679.000000	0.024782
1678.000000	0.025410
1677.000000	0.026109
1676.000000	0.026983
1675.000000	0.027940
1674.000000	0.028811
1673.000000	0.029576
1672.000000	0.030330
1671.000000	0.031134
1670.000000	0.032018
1669.000000	0.032972
1668.000000	0.033908
1667.000000	0.034719
1666.000000	0.035408
1665.000000	0.036071
1664.000000	0.036776
1663.000000	0.037501
1662.000000	0.038211
1661.000000	0.038927
1660.000000	0.039650
1659.000000	0.040313
1658.000000	0.040869
1657.000000	0.041371
1656.000000	0.041905
1655.000000	0.042443
1654.000000	0.042874
1653.000000	0.043232
1652.000000	0.043683
1651.000000	0.044073
1650.000000	0.044353
1649.000000	0.044658
1648.000000	0.044990
1647.000000	0.045239
1646.000000	0.045413
1645.000000	0.045648
1644.000000	0.045950
1643.000000	0.046252
1642.000000	0.046517
1641.000000	0.046729
1640.000000	0.046895
1639.000000	0.047031
1638.000000	0.047121
1637.000000	0.047097
1636.000000	0.046920
1635.000000	0.046729
1634.000000	0.046704
1633.000000	0.046824
1632.000000	0.046972
1631.000000	0.047029
1630.000000	0.046905
1629.000000	0.046607
1628.000000	0.046223
1627.000000	0.045842
1626.000000	0.045479
1625.000000	0.045057
1624.000000	0.044491
1623.000000	0.043789
1622.000000	0.043103
1621.000000	0.042557
1620.000000	0.042126
1619.000000	0.041678
1618.000000	0.041026
1617.000000	0.040081
1616.000000	0.039030
1615.000000	0.038119
1614.000000	0.037379
1613.000000	0.036710
1612.000000	0.036007
1611.000000	0.035229
1610.000000	0.034415
1609.000000	0.033623
1608.000000	0.032876
1607.000000	0.032183
1606.000000	0.031556
1605.000000	0.030986
1604.000000	0.030455
1603.000000	0.029955
1602.000000	0.029492
1601.000000	0.029063
1600.000000	0.028669
1599.000000	0.028322
1598.000000	0.028039
1597.000000	0.027816
1596.000000	0.027635
1595.000000	0.027489
1594.000000	0.027377
1593.000000	0.027278
1592.000000	0.027168
1591.000000	0.027042
1590.000000	0.026907
1589.000000	0.026763
1588.000000	0.026617
1587.000000	0.026501
1586.000000	0.026447
1585.000000	0.026447
1584.000000	0.026474
1583.000000	0.026533
1582.000000	0.026636
1581.000000	0.026771
1580.000000	0.026929
1579.000000	0.027139
1578.000000	0.027429
1577.000000	0.027771
1576.000000	0.028094
1575.000000	0.028352
1574.000000	0.028559
1573.000000	0.028758
1572.000000	0.028968
1571.000000	0.029200
1570.000000	0.029513
1569.000000	0.029954
1568.000000	0.030474
1567.000000	0.031007
1566.000000	0.031532
1565.000000	0.032048
1564.000000	0.032539
1563.000000	0.033015
1562.000000	0.033479
1561.000000	0.033861
1560.000000	0.034122
1559.000000	0.034336
1558.000000	0.034666
1557.000000	0.035222
1556.000000	0.035838
1555.000000	0.036406
1554.000000	0.036897
1553.000000	0.037323
1552.000000	0.037710
1551.000000	0.038060
1550.000000	0.038350
1549.000000	0.038591
1548.000000	0.038825
1547.000000	0.039075
1546.000000	0.039322
1545.000000	0.039525
1544.000000	0.039662
1543.000000	0.039764
1542.000000	0.039867
1541.000000	0.039940
1540.000000	0.039930
1539.000000	0.039922
1538.000000	0.039998
1537.000000	0.040084
1536.000000	0.040143
1535.000000	0.040137
1534.000000	0.040035
1533.000000	0.039900
1532.000000	0.039842
1531.000000	0.039857
1530.000000	0.039855
1529.000000	0.039781
1528.000000	0.039637
1527.000000	0.039438
1526.000000	0.039202
1525.000000	0.038966
1524.000000	0.038763
1523.000000	0.038570
1522.000000	0.038313
1521.000000	0.038001
1520.000000	0.037750
1519.000000	0.037607
1518.000000	0.037526
1517.000000	0.037420
1516.000000	0.037234
1515.000000	0.036999
1514.000000	0.036738
1513.000000	0.036413
1512.000000	0.035994
1511.000000	0.035517
1510.000000	0.035060
1509.000000	0.034649
1508.000000	0.034210
1507.000000	0.033639
1506.000000	0.033046
1505.000000	0.032617
1504.000000	0.032236
1503.000000	0.031794
1502.000000	0.031249
1501.000000	0.030561
1500.000000	0.029743
1499.000000	0.028870
1498.000000	0.027997
1497.000000	0.027122
1496.000000	0.026261
1495.000000	0.025457
1494.000000	0.024740
1493.000000	0.024120
1492.000000	0.023578
1491.000000	0.023067
1490.000000	0.022557
1489.000000	0.022076
1488.000000	0.021679
1487.000000	0.021370
1486.000000	0.021117
1485.000000	0.020910
1484.000000	0.020759
1483.000000	0.020674
1482.000000	0.020664
1481.000000	0.020732
1480.000000	0.020858
1479.000000	0.021003
1478.000000	0.021145
1477.000000	0.021288
1476.000000	0.021429
1475.000000	0.021558
1474.000000	0.021677
1473.000000	0.021808
1472.000000	0.021968
1471.000000	0.022158
1470.000000	0.022382
1469.000000	0.022641
1468.000000	0.022914
1467.000000	0.023160
1466.000000	0.023374
1465.000000	0.023597
1464.000000	0.023864
1463.000000	0.024151
1462.000000	0.024411
1461.000000	0.024645
1460.000000	0.024896
1459.000000	0.025213
1458.000000	0.025630
1457.000000	0.026120
1456.000000	0.026565
1455.000000	0.026879
1454.000000	0.027112
1453.000000	0.027342
1452.000000	0.027549
1451.000000	0.027683
1450.000000	0.027744
1449.000000	0.027765
1448.000000	0.027748
1447.000000	0.027702
1446.000000	0.027671
1445.000000	0.027666
1444.000000	0.027654
1443.000000	0.027598
1442.000000	0.027493
1441.000000	0.027365
1440.000000	0.027234
1439.000000	0.027096
1438.000000	0.026924
1437.000000	0.026703
1436.000000	0.026450
1435.000000	0.026202
1434.000000	0.025968
1433.000000	0.025725
1432.000000	0.025440
1431.000000	0.025110
1430.000000	0.024783
1429.000000	0.024516
1428.000000	0.024329
1427.000000	0.024207
1426.000000	0.024131
1425.000000	0.024078
1424.000000	0.024029
1423.000000	0.023981
1422.000000	0.023958
1421.000000	0.023966
1420.000000	0.023989
1419.000000	0.024016
1418.000000	0.024053
1417.000000	0.024110
1416.000000	0.024186
1415.000000	0.024273
1414.000000	0.024373
1413.000000	0.024497
1412.000000	0.024643
1411.000000	0.024791
1410.000000	0.024930
1409.000000	0.025071
1408.000000	0.025215
1407.000000	0.025353
1406.000000	0.025483
1405.000000	0.025608
1404.000000	0.025719
1403.000000	0.025797
1402.000000	0.025840
1401.000000	0.025853
1400.000000	0.025826
1399.000000	0.025755
1398.000000	0.025667
1397.000000	0.025594
1396.000000	0.025520
1395.000000	0.025407
1394.000000	0.025272
1393.000000	0.025161
1392.000000	0.025080
1391.000000	0.025010
1390.000000	0.024941
1389.000000	0.024872
1388.000000	0.024789
1387.000000	0.024669
1386.000000	0.024515
1385.000000	0.024348
1384.000000	0.024173
1383.000000	0.023984
1382.000000	0.023788
1381.000000	0.023607
1380.000000	0.023443
1379.000000	0.023277
1378.000000	0.023102
1377.000000	0.022928
1376.000000	0.022763
1375.000000	0.022592
1374.000000	0.022411
1373.000000	0.022235
1372.000000	0.022080
1371.000000	0.021939
1370.000000	0.021808
1369.000000	0.021693
1368.000000	0.021593
1367.000000	0.021493
1366.000000	0.021379
1365.000000	0.021238
1364.000000	0.021061
1363.000000	0.020839
1362.000000	0.020579
1361.000000	0.020313
1360.000000	0.020064
1359.000000	0.019835
1358.000000	0.019627
1357.000000	0.019443
1356.000000	0.019281
1355.000000	0.019133
1354.000000	0.019003
1353.000000	0.018910
1352.000000	0.018869
1351.000000	0.018876
1350.000000	0.018915
1349.000000	0.018976
1348.000000	0.019056
1347.000000	0.019157
1346.000000	0.019278
1345.000000	0.019416
1344.000000	0.019565
1343.000000	0.019721
1342.000000	0.019882
1341.000000	0.020048
1340.000000	0.020203
1339.000000	0.020322
1338.000000	0.020390
1337.000000	0.020409
1336.000000	0.020383
1335.000000	0.020319
1334.000000	0.020221
1333.000000	0.020095
1332.000000	0.019938
1331.000000	0.019754
1330.000000	0.019559
1329.000000	0.019374
1328.000000	0.019209
1327.000000	0.019063
1326.000000	0.018941
1325.000000	0.018858
1324.000000	0.018821
1323.000000	0.018823
1322.000000	0.018862
1321.000000	0.018933
1320.000000	0.019021
1319.000000	0.019103
1318.000000	0.019169
1317.000000	0.019236
1316.000000	0.019313
1315.000000	0.019385
1314.000000	0.019427
1313.000000	0.019422
1312.000000	0.019365
1311.000000	0.019257
1310.000000	0.019113
1309.000000	0.018961
1308.000000	0.018819
1307.000000	0.018682
1306.000000	0.018533
1305.000000	0.018364
1304.000000	0.018184
1303.000000	0.018004
1302.000000	0.017831
1301.000000	0.017671
1300.000000	0.017533
1299.000000	0.017418
1298.000000	0.017328
1297.000000	0.017270
1296.000000	0.017252
1295.000000	0.017277
1294.000000	0.017347
1293.000000	0.017463
1292.000000	0.017623
1291.000000	0.017812
1290.000000	0.018010
1289.000000	0.018196
1288.000000	0.018358
1287.000000	0.018506
1286.000000	0.018667
1285.000000	0.018872
1284.000000	0.019128
1283.000000	0.019406
1282.000000	0.019670
1281.000000	0.019904
1280.000000	0.020111
1279.000000	0.020289
1278.000000	0.020427
1277.000000	0.020524
1276.000000	0.020586
1275.000000	0.020622
1274.000000	0.020637
1273.000000	0.020638
1272.000000	0.020636
1271.000000	0.020642
1270.000000	0.020663
1269.000000	0.020690
1268.000000	0.020706
1267.000000	0.020704
1266.000000	0.020694
1265.000000	0.020697
1264.000000	0.020724
1263.000000	0.020777
1262.000000	0.020855
1261.000000	0.020971
1260.000000	0.021136
1259.000000	0.021357
1258.000000	0.021635
1257.000000	0.021965
1256.000000	0.022323
1255.000000	0.022673
1254.000000	0.022993
1253.000000	0.023281
1252.000000	0.023543
1251.000000	0.023793
1250.000000	0.024055
1249.000000	0.024352
1248.000000	0.024686
1247.000000	0.025034
1246.000000	0.025388
1245.000000	0.025754
1244.000000	0.026138
1243.000000	0.026528
1242.000000	0.026916
1241.000000	0.027307
1240.000000	0.027697
1239.000000	0.028063
1238.000000	0.028391
1237.000000	0.028683
1236.000000	0.028936
1235.000000	0.029127
1234.000000	0.029234
1233.000000	0.029264
1232.000000	0.029232
1231.000000	0.029134
1230.000000	0.028955
1229.000000	0.028678
1228.000000	0.028296
1227.000000	0.027821
1226.000000	0.027283
1225.000000	0.026709
1224.000000	0.026103
1223.000000	0.025456
1222.000000	0.024779
1221.000000	0.024108
1220.000000	0.023468
1219.000000	0.022863
1218.000000	0.022296
1217.000000	0.021787
1216.000000	0.021361
1215.000000	0.021021
1214.000000	0.020752
1213.000000	0.020534
1212.000000	0.020353
1211.000000	0.020202
1210.000000	0.020080
1209.000000	0.019982
1208.000000	0.019892
1207.000000	0.019789
1206.000000	0.019664
1205.000000	0.019525
1204.000000	0.019381
1203.000000	0.019222
1202.000000	0.019029
1201.000000	0.018789
1200.000000	0.018507
1199.000000	0.018191
1198.000000	0.017844
1197.000000	0.017471
1196.000000	0.017087
1195.000000	0.016706
1194.000000	0.016339
1193.000000	0.015985
1192.000000	0.015647
1191.000000	0.015338
1190.000000	0.015070
1189.000000	0.014842
1188.000000	0.014643
1187.000000	0.014475
1186.000000	0.014364
1185.000000	0.014345
1184.000000	0.014425
1183.000000	0.014578
1182.000000	0.014767
1181.000000	0.014965
1180.000000	0.015159
1179.000000	0.015341
1178.000000	0.015506
1177.000000	0.015649
1176.000000	0.015767
1175.000000	0.015866
1174.000000	0.015962
1173.000000	0.016068
1172.000000	0.016179
1171.000000	0.016277
1170.000000	0.016357
1169.000000	0.016431
1168.000000	0.016505
1167.000000	0.016572
1166.000000	0.016619
1165.000000	0.016652
1164.000000	0.016686
1163.000000	0.016728
1162.000000	0.016764
1161.000000	0.016773
1160.000000	0.016739
1159.000000	0.016658
1158.000000	0.016549
1157.000000	0.016432
1156.000000	0.016315
1155.000000	0.016184
1154.000000	0.016025
1153.000000	0.015840
1152.000000	0.015642
1151.000000	0.015444
1150.000000	0.015256
1149.000000	0.015087
1148.000000	0.014932
1147.000000	0.014771
1146.000000	0.014585
1145.000000	0.014374
1144.000000	0.014156
1143.000000	0.013956
1142.000000	0.013788
1141.000000	0.013649
1140.000000	0.013514
1139.000000	0.013360
1138.000000	0.013181
1137.000000	0.012998
1136.000000	0.012833
1135.000000	0.012698
1134.000000	0.012592
1133.000000	0.012518
1132.000000	0.012474
1131.000000	0.012451
1130.000000	0.012436
1129.000000	0.012426
1128.000000	0.012430
1127.000000	0.012458
1126.000000	0.012505
1125.000000	0.012558
1124.000000	0.012607
1123.000000	0.012648
1122.000000	0.012691
1121.000000	0.012751
1120.000000	0.012835
1119.000000	0.012931
1118.000000	0.013019
1117.000000	0.013100
1116.000000	0.013193
1115.000000	0.013311
1114.000000	0.013442
1113.000000	0.013561
1112.000000	0.013657
1111.000000	0.013738
1110.000000	0.013818
1109.000000	0.013904
1108.000000	0.013995
1107.000000	0.014099
1106.000000	0.014234
1105.000000	0.014408
1104.000000	0.014606
1103.000000	0.014799
1102.000000	0.014969
1101.000000	0.015121
1100.000000	0.015265
1099.000000	0.015400
1098.000000	0.015525
1097.000000	0.015643
1096.000000	0.015762
1095.000000	0.015892
1094.000000	0.016039
1093.000000	0.016206
1092.000000	0.016391
1091.000000	0.016588
1090.000000	0.016797
1089.000000	0.017031
1088.000000	0.017306
1087.000000	0.017634
1086.000000	0.018013
1085.000000	0.018419
1084.000000	0.018798
1083.000000	0.019087
1082.000000	0.019254
1081.000000	0.019290
1080.000000	0.019193
1079.000000	0.018964
1078.000000	0.018637
1077.000000	0.018269
1076.000000	0.017907
1075.000000	0.017556
1074.000000	0.017219
1073.000000	0.016919
1072.000000	0.016691
1071.000000	0.016547
1070.000000	0.016476
1069.000000	0.016466
1068.000000	0.016501
1067.000000	0.016561
1066.000000	0.016631
1065.000000	0.016716
1064.000000	0.016829
1063.000000	0.016962
1062.000000	0.017091
1061.000000	0.017207
1060.000000	0.017325
1059.000000	0.017458
1058.000000	0.017589
1057.000000	0.017695
1056.000000	0.017775
1055.000000	0.017847
1054.000000	0.017920
1053.000000	0.017975
1052.000000	0.017985
1051.000000	0.017944
1050.000000	0.017878
1049.000000	0.017825
1048.000000	0.017802
1047.000000	0.017797
1046.000000	0.017788
1045.000000	0.017761
1044.000000	0.017721
1043.000000	0.017685
1042.000000	0.017677
1041.000000	0.017714
1040.000000	0.017797
1039.000000	0.017914
1038.000000	0.018060
1037.000000	0.018240
1036.000000	0.018451
1035.000000	0.018676
1034.000000	0.018894
1033.000000	0.019090
1032.000000	0.019256
1031.000000	0.019389
1030.000000	0.019486
1029.000000	0.019554
1028.000000	0.019601
1027.000000	0.019629
1026.000000	0.019641
1025.000000	0.019636
1024.000000	0.019615
1023.000000	0.019587
1022.000000	0.019571
1021.000000	0.019592
1020.000000	0.019662
1019.000000	0.019769
1018.000000	0.019885
1017.000000	0.019969
1016.000000	0.019977
1015.000000	0.019874
1014.000000	0.019650
1013.000000	0.019320
1012.000000	0.018904
1011.000000	0.018423
1010.000000	0.017907
1009.000000	0.017388
1008.000000	0.016890
1007.000000	0.016417
1006.000000	0.015965
1005.000000	0.015531
1004.000000	0.015121
1003.000000	0.014735
1002.000000	0.014363
1001.000000	0.013990
1000.000000	0.013612
999.000000	0.013251
998.000000	0.012932
997.000000	0.012661
996.000000	0.012414
995.000000	0.012169
994.000000	0.011923
993.000000	0.011681
992.000000	0.011439
991.000000	0.011191
990.000000	0.010940
989.000000	0.010709
988.000000	0.010508
987.000000	0.010327
986.000000	0.010145
985.000000	0.009947
984.000000	0.009743
983.000000	0.009555
982.000000	0.009400
981.000000	0.009270
980.000000	0.009151
979.000000	0.009040
978.000000	0.008945
977.000000	0.008863
976.000000	0.008767
975.000000	0.008637
974.000000	0.008490
973.000000	0.008356
972.000000	0.008245
971.000000	0.008134
970.000000	0.008001
969.000000	0.007852
968.000000	0.007707
967.000000	0.007581
966.000000	0.007475
965.000000	0.007392
964.000000	0.007332
963.000000	0.007287
962.000000	0.007246
961.000000	0.007200
960.000000	0.007153
959.000000	0.007113
958.000000	0.007084
957.000000	0.007064
956.000000	0.007043
955.000000	0.007014
954.000000	0.006974
953.000000	0.006922
952.000000	0.006845
951.000000	0.006736
950.000000	0.006601
949.000000	0.006461
948.000000	0.006327
947.000000	0.006196
946.000000	0.006060
945.000000	0.005918
944.000000	0.005782
943.000000	0.005672
942.000000	0.005611
941.000000	0.005605
940.000000	0.005634
939.000000	0.005659
938.000000	0.005657
937.000000	0.005629
936.000000	0.005589
935.000000	0.005545
934.000000	0.005497
933.000000	0.005446
932.000000	0.005389
931.000000	0.005324
930.000000	0.005260
929.000000	0.005212
928.000000	0.005176
927.000000	0.005121
926.000000	0.005021
925.000000	0.004881
924.000000	0.004726
923.000000	0.004574
922.000000	0.004427
921.000000	0.004284
920.000000	0.004146
919.000000	0.004017
918.000000	0.003897
917.000000	0.003792
916.000000	0.003698
915.000000	0.003597
914.000000	0.003463
913.000000	0.003297
912.000000	0.003134
911.000000	0.003012
910.000000	0.002948
909.000000	0.002927
908.000000	0.002922
907.000000	0.002914
906.000000	0.002901
905.000000	0.002899
904.000000	0.002921
903.000000	0.002963
902.000000	0.003001
901.000000	0.003013
900.000000	0.002995
899.000000	0.002954
898.000000	0.002903
897.000000	0.002856
896.000000	0.002826
895.000000	0.002810
894.000000	0.002796
893.000000	0.002787
892.000000	0.002794
891.000000	0.002823
890.000000	0.002860
889.000000	0.002878
888.000000	0.002869
887.000000	0.002840
886.000000	0.002812
885.000000	0.002799
884.000000	0.002815
883.000000	0.002870
882.000000	0.002964
881.000000	0.003088
880.000000	0.003234
879.000000	0.003393
878.000000	0.003554
877.000000	0.003697
876.000000	0.003794
875.000000	0.003820
874.000000	0.003771
873.000000	0.003660
872.000000	0.003500
871.000000	0.003308
870.000000	0.003108
869.000000	0.002940
868.000000	0.002828
867.000000	0.002772
866.000000	0.002751
865.000000	0.002755
864.000000	0.002782
863.000000	0.002828
862.000000	0.002882
861.000000	0.002945
860.000000	0.003033
859.000000	0.003157
858.000000	0.003305
857.000000	0.003449
856.000000	0.003566
855.000000	0.003650
854.000000	0.003712
853.000000	0.003766
852.000000	0.003826
851.000000	0.003896
850.000000	0.003972
849.000000	0.004042
848.000000	0.004094
847.000000	0.004133
846.000000	0.004185
845.000000	0.004281
844.000000	0.004429
843.000000	0.004608
842.000000	0.004798
841.000000	0.005001
840.000000	0.005226
839.000000	0.005458
838.000000	0.005661
837.000000	0.005802
836.000000	0.005880
835.000000	0.005913
834.000000	0.005925
833.000000	0.005927
832.000000	0.005906
831.000000	0.005843
830.000000	0.005734
829.000000	0.005604
828.000000	0.005478
827.000000	0.005346
826.000000	0.005175
825.000000	0.004950
824.000000	0.004703
823.000000	0.004483
822.000000	0.004310
821.000000	0.004168
820.000000	0.004040
819.000000	0.003926
818.000000	0.003832
817.000000	0.003750
816.000000	0.003658
815.000000	0.003545
814.000000	0.003430
813.000000	0.003341
812.000000	0.003281
811.000000	0.003216
810.000000	0.003108
809.000000	0.002954
808.000000	0.002792
807.000000	0.002677
806.000000	0.002647
805.000000	0.002691
804.000000	0.002763
803.000000	0.002815
802.000000	0.002837
801.000000	0.002849
800.000000	0.002865
799.000000	0.002877
798.000000	0.002868
797.000000	0.002844
796.000000	0.002821
795.000000	0.002809
794.000000	0.002809
793.000000	0.002829
792.000000	0.002874
791.000000	0.002936
790.000000	0.002996
789.000000	0.003038
788.000000	0.003056
787.000000	0.003056
786.000000	0.003050
785.000000	0.003046
784.000000	0.003040
783.000000	0.003027
782.000000	0.003015
781.000000	0.003021
780.000000	0.003044
779.000000	0.003070
778.000000	0.003096
777.000000	0.003142
776.000000	0.003223
775.000000	0.003315
774.000000	0.003372
773.000000	0.003366
772.000000	0.003308
771.000000	0.003230
770.000000	0.003174
769.000000	0.003162
768.000000	0.003186
767.000000	0.003214
766.000000	0.003229
765.000000	0.003244
764.000000	0.003278
763.000000	0.003331
762.000000	0.003386
761.000000	0.003437
760.000000	0.003487
759.000000	0.003535
758.000000	0.003579
757.000000	0.003625
756.000000	0.003694
755.000000	0.003794
754.000000	0.003917
753.000000	0.004036
752.000000	0.004136
751.000000	0.004221
750.000000	0.004309
749.000000	0.004403
748.000000	0.004471
747.000000	0.004478
746.000000	0.004420
745.000000	0.004325
744.000000	0.004219
743.000000	0.004109
742.000000	0.004008
741.000000	0.003954
740.000000	0.003979
739.000000	0.004076
738.000000	0.004204
737.000000	0.004319
736.000000	0.004398
735.000000	0.004443
734.000000	0.004476
733.000000	0.004522
732.000000	0.004585
731.000000	0.004651
730.000000	0.004715
729.000000	0.004798
728.000000	0.004927
727.000000	0.005105
726.000000	0.005313
725.000000	0.005521
724.000000	0.005696
723.000000	0.005827
722.000000	0.005932
721.000000	0.006041
720.000000	0.006149
719.000000	0.006219
718.000000	0.006243
717.000000	0.006260
716.000000	0.006313
715.000000	0.006396
714.000000	0.006474
713.000000	0.006531
712.000000	0.006587
711.000000	0.006659
710.000000	0.006747
709.000000	0.006837
708.000000	0.006913
707.000000	0.006969
706.000000	0.007030
705.000000	0.007128
704.000000	0.007255
703.000000	0.007357
702.000000	0.007392
701.000000	0.007376
700.000000	0.007354
699.000000	0.007340
698.000000	0.007328
697.000000	0.007325
696.000000	0.007346
695.000000	0.007386
694.000000	0.007413
693.000000	0.007411
692.000000	0.007391
691.000000	0.007371
690.000000	0.007353
689.000000	0.007334
688.000000	0.007301
687.000000	0.007255
686.000000	0.007212
685.000000	0.007205
684.000000	0.007254
683.000000	0.007338
682.000000	0.007425
681.000000	0.007504
680.000000	0.007588
679.000000	0.007688
678.000000	0.007800
677.000000	0.007929
676.000000	0.008084
675.000000	0.008247
674.000000	0.008380
673.000000	0.008459
672.000000	0.008485
671.000000	0.008460
670.000000	0.008375
669.000000	0.008218
668.000000	0.008041
667.000000	0.008041
666.000000	0.008218
665.000000	0.008403
664.000000	0.008495
663.000000	0.008487
662.000000	0.008454
661.000000	0.008475
660.000000	0.008546
659.000000	0.008601
658.000000	0.008615
657.000000	0.008628
656.000000	0.008688
655.000000	0.008790
654.000000	0.008919
653.000000	0.009057
652.000000	0.009143
651.000000	0.009098
650.000000	0.008929
649.000000	0.008752
648.000000	0.008661
647.000000	0.008651
646.000000	0.008678
645.000000	0.008727
644.000000	0.008782
643.000000	0.008793
642.000000	0.008733
641.000000	0.008639
640.000000	0.008541
639.000000	0.008423
638.000000	0.008283
637.000000	0.008186
636.000000	0.008190
635.000000	0.008265
634.000000	0.008338
633.000000	0.008379
632.000000	0.008392
631.000000	0.008368
630.000000	0.008299
629.000000	0.008222
628.000000	0.008192
627.000000	0.008218
626.000000	0.008269
625.000000	0.008310
624.000000	0.008317
623.000000	0.008279
622.000000	0.008232
621.000000	0.008253
620.000000	0.008377
619.000000	0.008544
618.000000	0.008664
617.000000	0.008696
616.000000	0.008654
615.000000	0.008559
614.000000	0.008438
613.000000	0.008347
612.000000	0.008321
611.000000	0.008341
610.000000	0.008366
609.000000	0.008393
608.000000	0.008430
607.000000	0.008449
606.000000	0.008429
605.000000	0.008402
604.000000	0.008419
603.000000	0.008473
602.000000	0.008517
601.000000	0.008540
600.000000	0.008572
599.000000	0.008638
598.000000	0.008738
597.000000	0.008856
596.000000	0.008953
595.000000	0.008969
594.000000	0.008874
593.000000	0.008702
592.000000	0.008526
591.000000	0.008399
590.000000	0.008348
589.000000	0.008376
588.000000	0.008434
587.000000	0.008441
586.000000	0.008374
585.000000	0.008299
584.000000	0.008302
583.000000	0.008398
582.000000	0.008563
581.000000	0.008774
580.000000	0.008989
579.000000	0.009119
578.000000	0.009112
577.000000	0.009002
576.000000	0.008856
575.000000	0.008718
574.000000	0.008647
573.000000	0.008715
572.000000	0.008906
571.000000	0.009080
570.000000	0.009125
569.000000	0.009106
568.000000	0.009181
567.000000	0.009394
566.000000	0.009659
565.000000	0.009902
564.000000	0.010113
563.000000	0.010294
562.000000	0.010452
561.000000	0.010637
560.000000	0.010879
559.000000	0.011101
558.000000	0.011187
557.000000	0.011128
556.000000	0.011026
555.000000	0.010956
554.000000	0.010899
553.000000	0.010797
552.000000	0.010616
551.000000	0.010374
550.000000	0.010141
549.000000	0.009986
548.000000	0.009911
547.000000	0.009852
546.000000	0.009767
545.000000	0.009655
544.000000	0.009502
543.000000	0.009297
542.000000	0.009124
541.000000	0.009120
540.000000	0.009262
539.000000	0.009337
538.000000	0.009214
537.000000	0.009044
536.000000	0.009060
535.000000	0.009270
534.000000	0.009488
533.000000	0.009612
532.000000	0.009713
531.000000	0.009889
530.000000	0.010141
529.000000	0.010402
528.000000	0.010577
527.000000	0.010575
526.000000	0.010402
525.000000	0.010193
524.000000	0.010038
523.000000	0.009869
522.000000	0.009592
521.000000	0.009261
520.000000	0.009002
519.000000	0.008840
518.000000	0.008692
517.000000	0.008495
516.000000	0.008239
515.000000	0.007928
514.000000	0.007607
513.000000	0.007373
512.000000	0.007264
511.000000	0.007207
510.000000	0.007151
509.000000	0.007186
508.000000	0.007401
507.000000	0.007681
506.000000	0.007796
505.000000	0.007688
504.000000	0.007478
503.000000	0.007265
502.000000	0.007051
501.000000	0.006842
500.000000	0.006675
499.000000	0.006522
498.000000	0.006324
497.000000	0.006098
496.000000	0.005927
495.000000	0.005833
494.000000	0.005750
493.000000	0.005611
492.000000	0.005404
491.000000	0.005163
490.000000	0.004969
489.000000	0.004924
488.000000	0.005042
487.000000	0.005200
486.000000	0.005260
485.000000	0.005190
484.000000	0.005012
483.000000	0.004706
482.000000	0.004320
481.000000	0.004051
480.000000	0.004055
479.000000	0.004234
478.000000	0.004348
477.000000	0.004285
476.000000	0.004077
475.000000	0.003772
474.000000	0.003455
473.000000	0.003331
472.000000	0.003536
471.000000	0.003880
470.000000	0.004057
469.000000	0.004050
468.000000	0.004055
467.000000	0.004124
466.000000	0.004113
465.000000	0.003966
464.000000	0.003805
463.000000	0.003695
462.000000	0.003524
461.000000	0.003183
460.000000	0.002725
459.000000	0.002315
458.000000	0.002183
457.000000	0.002486
456.000000	0.003047
455.000000	0.003439
454.000000	0.003402
453.000000	0.003165
452.000000	0.002847
451.000000	0.002640
450.000000	0.002397
