PE IR       SUBTECH     SPECTRUM    ASCII       PEDS        4.00        
   -1
3S-H10-F009_1.ASC
22/02/18
10:45:05.00
22/02/18
11:02:52.00
uco
Sample 009 By uco Date Friday, February 18 2022
450.000000
#HDR
-1
-1
#GR
cm-1
A
1.0
0.0
4000.000000
-1.000000
3551
8
0.036637
-0.002047
#DATA
4000.000000	0.002951
3999.000000	0.002958
3998.000000	0.002962
3997.000000	0.002959
3996.000000	0.002952
3995.000000	0.002949
3994.000000	0.002940
3993.000000	0.002947
3992.000000	0.002950
3991.000000	0.002946
3990.000000	0.002942
3989.000000	0.002943
3988.000000	0.002950
3987.000000	0.002961
3986.000000	0.002976
3985.000000	0.002998
3984.000000	0.003024
3983.000000	0.003045
3982.000000	0.003052
3981.000000	0.003042
3980.000000	0.003023
3979.000000	0.003004
3978.000000	0.002997
3977.000000	0.003008
3976.000000	0.003036
3975.000000	0.003070
3974.000000	0.003099
3973.000000	0.003112
3972.000000	0.003106
3971.000000	0.003090
3970.000000	0.003073
3969.000000	0.003059
3968.000000	0.003049
3967.000000	0.003038
3966.000000	0.003026
3965.000000	0.003017
3964.000000	0.003014
3963.000000	0.003015
3962.000000	0.003017
3961.000000	0.003020
3960.000000	0.003027
3959.000000	0.003040
3958.000000	0.003058
3957.000000	0.003076
3956.000000	0.003086
3955.000000	0.003089
3954.000000	0.003087
3953.000000	0.003087
3952.000000	0.003093
3951.000000	0.003101
3950.000000	0.003108
3949.000000	0.003115
3948.000000	0.003128
3947.000000	0.003144
3946.000000	0.003154
3945.000000	0.003149
3944.000000	0.003127
3943.000000	0.003099
3942.000000	0.003076
3941.000000	0.003066
3940.000000	0.003063
3939.000000	0.003064
3938.000000	0.003067
3937.000000	0.003075
3936.000000	0.003086
3935.000000	0.003093
3934.000000	0.003089
3933.000000	0.003075
3932.000000	0.003061
3931.000000	0.003060
3930.000000	0.003075
3929.000000	0.003098
3928.000000	0.003115
3927.000000	0.003113
3926.000000	0.003092
3925.000000	0.003064
3924.000000	0.003044
3923.000000	0.003041
3922.000000	0.003051
3921.000000	0.003066
3920.000000	0.003078
3919.000000	0.003085
3918.000000	0.003090
3917.000000	0.003101
3916.000000	0.003122
3915.000000	0.003147
3914.000000	0.003164
3913.000000	0.003159
3912.000000	0.003137
3911.000000	0.003113
3910.000000	0.003101
3909.000000	0.003104
3908.000000	0.003112
3907.000000	0.003117
3906.000000	0.003120
3905.000000	0.003133
3904.000000	0.003164
3903.000000	0.003201
3902.000000	0.003222
3901.000000	0.003214
3900.000000	0.003183
3899.000000	0.003148
3898.000000	0.003126
3897.000000	0.003120
3896.000000	0.003120
3895.000000	0.003117
3894.000000	0.003104
3893.000000	0.003081
3892.000000	0.003057
3891.000000	0.003048
3890.000000	0.003061
3889.000000	0.003085
3888.000000	0.003104
3887.000000	0.003111
3886.000000	0.003103
3885.000000	0.003091
3884.000000	0.003085
3883.000000	0.003083
3882.000000	0.003075
3881.000000	0.003062
3880.000000	0.003055
3879.000000	0.003070
3878.000000	0.003105
3877.000000	0.003149
3876.000000	0.003185
3875.000000	0.003199
3874.000000	0.003189
3873.000000	0.003159
3872.000000	0.003119
3871.000000	0.003077
3870.000000	0.003045
3869.000000	0.003036
3868.000000	0.003045
3867.000000	0.003053
3866.000000	0.003054
3865.000000	0.003047
3864.000000	0.003040
3863.000000	0.003037
3862.000000	0.003040
3861.000000	0.003048
3860.000000	0.003064
3859.000000	0.003088
3858.000000	0.003120
3857.000000	0.003161
3856.000000	0.003205
3855.000000	0.003229
3854.000000	0.003202
3853.000000	0.003140
3852.000000	0.003095
3851.000000	0.003077
3850.000000	0.003072
3849.000000	0.003070
3848.000000	0.003073
3847.000000	0.003083
3846.000000	0.003097
3845.000000	0.003106
3844.000000	0.003100
3843.000000	0.003077
3842.000000	0.003040
3841.000000	0.002997
3840.000000	0.002959
3839.000000	0.002943
3838.000000	0.002963
3837.000000	0.003011
3836.000000	0.003060
3835.000000	0.003086
3834.000000	0.003078
3833.000000	0.003046
3832.000000	0.003012
3831.000000	0.002996
3830.000000	0.003005
3829.000000	0.003031
3828.000000	0.003063
3827.000000	0.003090
3826.000000	0.003107
3825.000000	0.003113
3824.000000	0.003108
3823.000000	0.003088
3822.000000	0.003053
3821.000000	0.003019
3820.000000	0.003003
3819.000000	0.003000
3818.000000	0.002993
3817.000000	0.002982
3816.000000	0.002978
3815.000000	0.002996
3814.000000	0.003029
3813.000000	0.003062
3812.000000	0.003085
3811.000000	0.003096
3810.000000	0.003096
3809.000000	0.003078
3808.000000	0.003041
3807.000000	0.002998
3806.000000	0.002974
3805.000000	0.002977
3804.000000	0.002993
3803.000000	0.003007
3802.000000	0.003011
3801.000000	0.003019
3800.000000	0.003044
3799.000000	0.003074
3798.000000	0.003093
3797.000000	0.003096
3796.000000	0.003087
3795.000000	0.003077
3794.000000	0.003069
3793.000000	0.003062
3792.000000	0.003051
3791.000000	0.003031
3790.000000	0.003007
3789.000000	0.002988
3788.000000	0.002983
3787.000000	0.002991
3786.000000	0.003002
3785.000000	0.003008
3784.000000	0.003006
3783.000000	0.002998
3782.000000	0.002986
3781.000000	0.002972
3780.000000	0.002964
3779.000000	0.002972
3778.000000	0.002992
3777.000000	0.003010
3776.000000	0.003013
3775.000000	0.003000
3774.000000	0.002981
3773.000000	0.002965
3772.000000	0.002953
3771.000000	0.002947
3770.000000	0.002948
3769.000000	0.002960
3768.000000	0.002978
3767.000000	0.002988
3766.000000	0.002984
3765.000000	0.002973
3764.000000	0.002968
3763.000000	0.002974
3762.000000	0.002986
3761.000000	0.002993
3760.000000	0.002990
3759.000000	0.002984
3758.000000	0.002985
3757.000000	0.002990
3756.000000	0.002987
3755.000000	0.002968
3754.000000	0.002941
3753.000000	0.002925
3752.000000	0.002929
3751.000000	0.002947
3750.000000	0.002964
3749.000000	0.002975
3748.000000	0.002983
3747.000000	0.003000
3746.000000	0.003032
3745.000000	0.003066
3744.000000	0.003082
3743.000000	0.003080
3742.000000	0.003065
3741.000000	0.003047
3740.000000	0.003036
3739.000000	0.003031
3738.000000	0.003025
3737.000000	0.003009
3736.000000	0.002984
3735.000000	0.002962
3734.000000	0.002953
3733.000000	0.002954
3732.000000	0.002953
3731.000000	0.002944
3730.000000	0.002928
3729.000000	0.002916
3728.000000	0.002922
3727.000000	0.002955
3726.000000	0.003004
3725.000000	0.003046
3724.000000	0.003060
3723.000000	0.003041
3722.000000	0.003005
3721.000000	0.002974
3720.000000	0.002962
3719.000000	0.002969
3718.000000	0.002989
3717.000000	0.003012
3716.000000	0.003032
3715.000000	0.003043
3714.000000	0.003035
3713.000000	0.003003
3712.000000	0.002954
3711.000000	0.002916
3710.000000	0.002910
3709.000000	0.002928
3708.000000	0.002950
3707.000000	0.002963
3706.000000	0.002963
3705.000000	0.002959
3704.000000	0.002956
3703.000000	0.002963
3702.000000	0.002979
3701.000000	0.002996
3700.000000	0.003003
3699.000000	0.002995
3698.000000	0.002974
3697.000000	0.002951
3696.000000	0.002939
3695.000000	0.002943
3694.000000	0.002963
3693.000000	0.002990
3692.000000	0.003004
3691.000000	0.002992
3690.000000	0.002962
3689.000000	0.002942
3688.000000	0.002955
3687.000000	0.002988
3686.000000	0.003016
3685.000000	0.003026
3684.000000	0.003020
3683.000000	0.003008
3682.000000	0.003002
3681.000000	0.003012
3680.000000	0.003040
3679.000000	0.003083
3678.000000	0.003134
3677.000000	0.003181
3676.000000	0.003201
3675.000000	0.003194
3674.000000	0.003173
3673.000000	0.003150
3672.000000	0.003138
3671.000000	0.003156
3670.000000	0.003202
3669.000000	0.003256
3668.000000	0.003296
3667.000000	0.003313
3666.000000	0.003313
3665.000000	0.003312
3664.000000	0.003319
3663.000000	0.003333
3662.000000	0.003349
3661.000000	0.003362
3660.000000	0.003370
3659.000000	0.003377
3658.000000	0.003387
3657.000000	0.003396
3656.000000	0.003410
3655.000000	0.003437
3654.000000	0.003488
3653.000000	0.003561
3652.000000	0.003644
3651.000000	0.003710
3650.000000	0.003731
3649.000000	0.003710
3648.000000	0.003675
3647.000000	0.003649
3646.000000	0.003639
3645.000000	0.003645
3644.000000	0.003665
3643.000000	0.003697
3642.000000	0.003734
3641.000000	0.003770
3640.000000	0.003802
3639.000000	0.003831
3638.000000	0.003866
3637.000000	0.003908
3636.000000	0.003950
3635.000000	0.003980
3634.000000	0.003993
3633.000000	0.003997
3632.000000	0.004008
3631.000000	0.004032
3630.000000	0.004064
3629.000000	0.004095
3628.000000	0.004128
3627.000000	0.004166
3626.000000	0.004208
3625.000000	0.004257
3624.000000	0.004317
3623.000000	0.004376
3622.000000	0.004414
3621.000000	0.004424
3620.000000	0.004417
3619.000000	0.004422
3618.000000	0.004452
3617.000000	0.004493
3616.000000	0.004524
3615.000000	0.004546
3614.000000	0.004572
3613.000000	0.004609
3612.000000	0.004648
3611.000000	0.004677
3610.000000	0.004692
3609.000000	0.004704
3608.000000	0.004726
3607.000000	0.004767
3606.000000	0.004822
3605.000000	0.004883
3604.000000	0.004941
3603.000000	0.004989
3602.000000	0.005022
3601.000000	0.005044
3600.000000	0.005064
3599.000000	0.005091
3598.000000	0.005131
3597.000000	0.005182
3596.000000	0.005236
3595.000000	0.005284
3594.000000	0.005324
3593.000000	0.005361
3592.000000	0.005398
3591.000000	0.005437
3590.000000	0.005484
3589.000000	0.005542
3588.000000	0.005611
3587.000000	0.005681
3586.000000	0.005738
3585.000000	0.005772
3584.000000	0.005786
3583.000000	0.005792
3582.000000	0.005800
3581.000000	0.005816
3580.000000	0.005842
3579.000000	0.005882
3578.000000	0.005939
3577.000000	0.006012
3576.000000	0.006086
3575.000000	0.006149
3574.000000	0.006192
3573.000000	0.006222
3572.000000	0.006248
3571.000000	0.006285
3570.000000	0.006340
3569.000000	0.006405
3568.000000	0.006462
3567.000000	0.006501
3566.000000	0.006534
3565.000000	0.006581
3564.000000	0.006645
3563.000000	0.006714
3562.000000	0.006771
3561.000000	0.006813
3560.000000	0.006852
3559.000000	0.006903
3558.000000	0.006972
3557.000000	0.007053
3556.000000	0.007129
3555.000000	0.007190
3554.000000	0.007232
3553.000000	0.007266
3552.000000	0.007298
3551.000000	0.007327
3550.000000	0.007351
3549.000000	0.007375
3548.000000	0.007411
3547.000000	0.007469
3546.000000	0.007544
3545.000000	0.007618
3544.000000	0.007679
3543.000000	0.007719
3542.000000	0.007743
3541.000000	0.007762
3540.000000	0.007785
3539.000000	0.007818
3538.000000	0.007857
3537.000000	0.007901
3536.000000	0.007955
3535.000000	0.008022
3534.000000	0.008104
3533.000000	0.008188
3532.000000	0.008256
3531.000000	0.008297
3530.000000	0.008317
3529.000000	0.008332
3528.000000	0.008363
3527.000000	0.008418
3526.000000	0.008491
3525.000000	0.008565
3524.000000	0.008628
3523.000000	0.008673
3522.000000	0.008705
3521.000000	0.008733
3520.000000	0.008765
3519.000000	0.008808
3518.000000	0.008860
3517.000000	0.008916
3516.000000	0.008967
3515.000000	0.009011
3514.000000	0.009054
3513.000000	0.009102
3512.000000	0.009160
3511.000000	0.009227
3510.000000	0.009294
3509.000000	0.009347
3508.000000	0.009377
3507.000000	0.009389
3506.000000	0.009402
3505.000000	0.009434
3504.000000	0.009490
3503.000000	0.009559
3502.000000	0.009618
3501.000000	0.009657
3500.000000	0.009680
3499.000000	0.009700
3498.000000	0.009730
3497.000000	0.009774
3496.000000	0.009827
3495.000000	0.009880
3494.000000	0.009925
3493.000000	0.009962
3492.000000	0.009997
3491.000000	0.010030
3490.000000	0.010059
3489.000000	0.010081
3488.000000	0.010094
3487.000000	0.010104
3486.000000	0.010115
3485.000000	0.010133
3484.000000	0.010157
3483.000000	0.010185
3482.000000	0.010215
3481.000000	0.010253
3480.000000	0.010304
3479.000000	0.010361
3478.000000	0.010413
3477.000000	0.010453
3476.000000	0.010486
3475.000000	0.010527
3474.000000	0.010579
3473.000000	0.010636
3472.000000	0.010688
3471.000000	0.010731
3470.000000	0.010768
3469.000000	0.010803
3468.000000	0.010834
3467.000000	0.010862
3466.000000	0.010891
3465.000000	0.010924
3464.000000	0.010961
3463.000000	0.010999
3462.000000	0.011030
3461.000000	0.011052
3460.000000	0.011066
3459.000000	0.011080
3458.000000	0.011108
3457.000000	0.011150
3456.000000	0.011202
3455.000000	0.011254
3454.000000	0.011303
3453.000000	0.011345
3452.000000	0.011379
3451.000000	0.011403
3450.000000	0.011424
3449.000000	0.011453
3448.000000	0.011498
3447.000000	0.011558
3446.000000	0.011621
3445.000000	0.011673
3444.000000	0.011707
3443.000000	0.011727
3442.000000	0.011748
3441.000000	0.011781
3440.000000	0.011826
3439.000000	0.011873
3438.000000	0.011921
3437.000000	0.011972
3436.000000	0.012029
3435.000000	0.012089
3434.000000	0.012143
3433.000000	0.012186
3432.000000	0.012216
3431.000000	0.012235
3430.000000	0.012245
3429.000000	0.012256
3428.000000	0.012281
3427.000000	0.012328
3426.000000	0.012393
3425.000000	0.012459
3424.000000	0.012506
3423.000000	0.012526
3422.000000	0.012530
3421.000000	0.012541
3420.000000	0.012575
3419.000000	0.012633
3418.000000	0.012707
3417.000000	0.012782
3416.000000	0.012848
3415.000000	0.012896
3414.000000	0.012924
3413.000000	0.012942
3412.000000	0.012960
3411.000000	0.012986
3410.000000	0.013024
3409.000000	0.013072
3408.000000	0.013124
3407.000000	0.013171
3406.000000	0.013203
3405.000000	0.013213
3404.000000	0.013205
3403.000000	0.013199
3402.000000	0.013218
3401.000000	0.013274
3400.000000	0.013357
3399.000000	0.013445
3398.000000	0.013518
3397.000000	0.013567
3396.000000	0.013593
3395.000000	0.013603
3394.000000	0.013609
3393.000000	0.013624
3392.000000	0.013657
3391.000000	0.013701
3390.000000	0.013744
3389.000000	0.013777
3388.000000	0.013803
3387.000000	0.013832
3386.000000	0.013871
3385.000000	0.013921
3384.000000	0.013979
3383.000000	0.014042
3382.000000	0.014106
3381.000000	0.014166
3380.000000	0.014221
3379.000000	0.014273
3378.000000	0.014321
3377.000000	0.014360
3376.000000	0.014387
3375.000000	0.014412
3374.000000	0.014449
3373.000000	0.014504
3372.000000	0.014572
3371.000000	0.014637
3370.000000	0.014688
3369.000000	0.014724
3368.000000	0.014750
3367.000000	0.014782
3366.000000	0.014828
3365.000000	0.014891
3364.000000	0.014962
3363.000000	0.015031
3362.000000	0.015100
3361.000000	0.015170
3360.000000	0.015240
3359.000000	0.015303
3358.000000	0.015353
3357.000000	0.015394
3356.000000	0.015433
3355.000000	0.015478
3354.000000	0.015536
3353.000000	0.015610
3352.000000	0.015696
3351.000000	0.015783
3350.000000	0.015860
3349.000000	0.015926
3348.000000	0.015986
3347.000000	0.016046
3346.000000	0.016112
3345.000000	0.016184
3344.000000	0.016257
3343.000000	0.016323
3342.000000	0.016373
3341.000000	0.016407
3340.000000	0.016435
3339.000000	0.016470
3338.000000	0.016521
3337.000000	0.016587
3336.000000	0.016653
3335.000000	0.016707
3334.000000	0.016750
3333.000000	0.016792
3332.000000	0.016843
3331.000000	0.016906
3330.000000	0.016972
3329.000000	0.017035
3328.000000	0.017093
3327.000000	0.017144
3326.000000	0.017189
3325.000000	0.017224
3324.000000	0.017254
3323.000000	0.017283
3322.000000	0.017317
3321.000000	0.017361
3320.000000	0.017411
3319.000000	0.017459
3318.000000	0.017500
3317.000000	0.017529
3316.000000	0.017551
3315.000000	0.017575
3314.000000	0.017607
3313.000000	0.017645
3312.000000	0.017684
3311.000000	0.017715
3310.000000	0.017731
3309.000000	0.017734
3308.000000	0.017739
3307.000000	0.017758
3306.000000	0.017792
3305.000000	0.017831
3304.000000	0.017861
3303.000000	0.017884
3302.000000	0.017912
3301.000000	0.017951
3300.000000	0.017997
3299.000000	0.018037
3298.000000	0.018066
3297.000000	0.018084
3296.000000	0.018096
3295.000000	0.018102
3294.000000	0.018101
3293.000000	0.018092
3292.000000	0.018081
3291.000000	0.018076
3290.000000	0.018084
3289.000000	0.018109
3288.000000	0.018144
3287.000000	0.018181
3286.000000	0.018209
3285.000000	0.018223
3284.000000	0.018226
3283.000000	0.018227
3282.000000	0.018226
3281.000000	0.018215
3280.000000	0.018188
3279.000000	0.018144
3278.000000	0.018094
3277.000000	0.018053
3276.000000	0.018031
3275.000000	0.018031
3274.000000	0.018040
3273.000000	0.018043
3272.000000	0.018028
3271.000000	0.017997
3270.000000	0.017958
3269.000000	0.017916
3268.000000	0.017875
3267.000000	0.017836
3266.000000	0.017803
3265.000000	0.017772
3264.000000	0.017741
3263.000000	0.017710
3262.000000	0.017684
3261.000000	0.017663
3260.000000	0.017642
3259.000000	0.017612
3258.000000	0.017567
3257.000000	0.017511
3256.000000	0.017454
3255.000000	0.017408
3254.000000	0.017378
3253.000000	0.017354
3252.000000	0.017317
3251.000000	0.017262
3250.000000	0.017201
3249.000000	0.017144
3248.000000	0.017093
3247.000000	0.017042
3246.000000	0.016990
3245.000000	0.016945
3244.000000	0.016914
3243.000000	0.016893
3242.000000	0.016871
3241.000000	0.016837
3240.000000	0.016793
3239.000000	0.016747
3238.000000	0.016710
3237.000000	0.016685
3236.000000	0.016659
3235.000000	0.016623
3234.000000	0.016580
3233.000000	0.016541
3232.000000	0.016514
3231.000000	0.016495
3230.000000	0.016475
3229.000000	0.016451
3228.000000	0.016424
3227.000000	0.016400
3226.000000	0.016379
3225.000000	0.016363
3224.000000	0.016354
3223.000000	0.016346
3222.000000	0.016332
3221.000000	0.016305
3220.000000	0.016267
3219.000000	0.016222
3218.000000	0.016181
3217.000000	0.016149
3216.000000	0.016122
3215.000000	0.016089
3214.000000	0.016044
3213.000000	0.015991
3212.000000	0.015935
3211.000000	0.015882
3210.000000	0.015831
3209.000000	0.015785
3208.000000	0.015749
3207.000000	0.015724
3206.000000	0.015706
3205.000000	0.015685
3204.000000	0.015658
3203.000000	0.015627
3202.000000	0.015594
3201.000000	0.015555
3200.000000	0.015502
3199.000000	0.015435
3198.000000	0.015369
3197.000000	0.015318
3196.000000	0.015281
3195.000000	0.015241
3194.000000	0.015188
3193.000000	0.015129
3192.000000	0.015086
3191.000000	0.015071
3190.000000	0.015080
3189.000000	0.015091
3188.000000	0.015079
3187.000000	0.015028
3186.000000	0.014942
3185.000000	0.014842
3184.000000	0.014754
3183.000000	0.014690
3182.000000	0.014647
3181.000000	0.014617
3180.000000	0.014591
3179.000000	0.014562
3178.000000	0.014523
3177.000000	0.014469
3176.000000	0.014404
3175.000000	0.014338
3174.000000	0.014279
3173.000000	0.014231
3172.000000	0.014193
3171.000000	0.014155
3170.000000	0.014104
3169.000000	0.014033
3168.000000	0.013949
3167.000000	0.013871
3166.000000	0.013814
3165.000000	0.013783
3164.000000	0.013767
3163.000000	0.013750
3162.000000	0.013719
3161.000000	0.013672
3160.000000	0.013614
3159.000000	0.013551
3158.000000	0.013488
3157.000000	0.013425
3156.000000	0.013365
3155.000000	0.013314
3154.000000	0.013270
3153.000000	0.013229
3152.000000	0.013188
3151.000000	0.013144
3150.000000	0.013096
3149.000000	0.013045
3148.000000	0.012996
3147.000000	0.012956
3146.000000	0.012928
3145.000000	0.012905
3144.000000	0.012880
3143.000000	0.012851
3142.000000	0.012821
3141.000000	0.012790
3140.000000	0.012753
3139.000000	0.012708
3138.000000	0.012657
3137.000000	0.012607
3136.000000	0.012564
3135.000000	0.012524
3134.000000	0.012486
3133.000000	0.012451
3132.000000	0.012418
3131.000000	0.012388
3130.000000	0.012363
3129.000000	0.012348
3128.000000	0.012344
3127.000000	0.012347
3126.000000	0.012345
3125.000000	0.012331
3124.000000	0.012304
3123.000000	0.012267
3122.000000	0.012226
3121.000000	0.012187
3120.000000	0.012162
3119.000000	0.012161
3118.000000	0.012178
3117.000000	0.012198
3116.000000	0.012208
3115.000000	0.012207
3114.000000	0.012197
3113.000000	0.012183
3112.000000	0.012168
3111.000000	0.012158
3110.000000	0.012150
3109.000000	0.012141
3108.000000	0.012131
3107.000000	0.012128
3106.000000	0.012142
3105.000000	0.012168
3104.000000	0.012189
3103.000000	0.012191
3102.000000	0.012178
3101.000000	0.012167
3100.000000	0.012172
3099.000000	0.012191
3098.000000	0.012214
3097.000000	0.012231
3096.000000	0.012241
3095.000000	0.012247
3094.000000	0.012252
3093.000000	0.012256
3092.000000	0.012254
3091.000000	0.012245
3090.000000	0.012232
3089.000000	0.012224
3088.000000	0.012228
3087.000000	0.012246
3086.000000	0.012271
3085.000000	0.012294
3084.000000	0.012309
3083.000000	0.012317
3082.000000	0.012324
3081.000000	0.012334
3080.000000	0.012345
3079.000000	0.012350
3078.000000	0.012340
3077.000000	0.012318
3076.000000	0.012299
3075.000000	0.012297
3074.000000	0.012314
3073.000000	0.012341
3072.000000	0.012361
3071.000000	0.012361
3070.000000	0.012334
3069.000000	0.012291
3068.000000	0.012248
3067.000000	0.012219
3066.000000	0.012208
3065.000000	0.012203
3064.000000	0.012193
3063.000000	0.012169
3062.000000	0.012132
3061.000000	0.012086
3060.000000	0.012037
3059.000000	0.011992
3058.000000	0.011950
3057.000000	0.011910
3056.000000	0.011869
3055.000000	0.011825
3054.000000	0.011776
3053.000000	0.011722
3052.000000	0.011664
3051.000000	0.011609
3050.000000	0.011555
3049.000000	0.011499
3048.000000	0.011438
3047.000000	0.011378
3046.000000	0.011323
3045.000000	0.011268
3044.000000	0.011208
3043.000000	0.011149
3042.000000	0.011108
3041.000000	0.011094
3040.000000	0.011098
3039.000000	0.011100
3038.000000	0.011082
3037.000000	0.011038
3036.000000	0.010968
3035.000000	0.010886
3034.000000	0.010809
3033.000000	0.010748
3032.000000	0.010700
3031.000000	0.010659
3030.000000	0.010618
3029.000000	0.010579
3028.000000	0.010542
3027.000000	0.010503
3026.000000	0.010450
3025.000000	0.010379
3024.000000	0.010300
3023.000000	0.010232
3022.000000	0.010188
3021.000000	0.010159
3020.000000	0.010128
3019.000000	0.010079
3018.000000	0.010014
3017.000000	0.009947
3016.000000	0.009887
3015.000000	0.009834
3014.000000	0.009780
3013.000000	0.009722
3012.000000	0.009661
3011.000000	0.009601
3010.000000	0.009544
3009.000000	0.009493
3008.000000	0.009454
3007.000000	0.009429
3006.000000	0.009414
3005.000000	0.009400
3004.000000	0.009382
3003.000000	0.009369
3002.000000	0.009369
3001.000000	0.009384
3000.000000	0.009408
2999.000000	0.009430
2998.000000	0.009444
2997.000000	0.009447
2996.000000	0.009445
2995.000000	0.009445
2994.000000	0.009453
2993.000000	0.009469
2992.000000	0.009487
2991.000000	0.009504
2990.000000	0.009519
2989.000000	0.009537
2988.000000	0.009563
2987.000000	0.009598
2986.000000	0.009637
2985.000000	0.009667
2984.000000	0.009685
2983.000000	0.009699
2982.000000	0.009722
2981.000000	0.009752
2980.000000	0.009775
2979.000000	0.009781
2978.000000	0.009774
2977.000000	0.009770
2976.000000	0.009774
2975.000000	0.009778
2974.000000	0.009762
2973.000000	0.009718
2972.000000	0.009648
2971.000000	0.009568
2970.000000	0.009490
2969.000000	0.009412
2968.000000	0.009328
2967.000000	0.009238
2966.000000	0.009148
2965.000000	0.009063
2964.000000	0.008977
2963.000000	0.008885
2962.000000	0.008789
2961.000000	0.008692
2960.000000	0.008598
2959.000000	0.008508
2958.000000	0.008426
2957.000000	0.008355
2956.000000	0.008292
2955.000000	0.008232
2954.000000	0.008180
2953.000000	0.008141
2952.000000	0.008118
2951.000000	0.008100
2950.000000	0.008071
2949.000000	0.008014
2948.000000	0.007923
2947.000000	0.007797
2946.000000	0.007636
2945.000000	0.007438
2944.000000	0.007206
2943.000000	0.006951
2942.000000	0.006691
2941.000000	0.006430
2940.000000	0.006155
2939.000000	0.005847
2938.000000	0.005499
2937.000000	0.005116
2936.000000	0.004709
2935.000000	0.004284
2934.000000	0.003853
2933.000000	0.003428
2932.000000	0.003021
2931.000000	0.002633
2930.000000	0.002265
2929.000000	0.001920
2928.000000	0.001608
2927.000000	0.001347
2926.000000	0.001164
2925.000000	0.001090
2924.000000	0.001148
2923.000000	0.001348
2922.000000	0.001686
2921.000000	0.002148
2920.000000	0.002707
2919.000000	0.003326
2918.000000	0.003964
2917.000000	0.004584
2916.000000	0.005157
2915.000000	0.005660
2914.000000	0.006080
2913.000000	0.006424
2912.000000	0.006707
2911.000000	0.006949
2910.000000	0.007164
2909.000000	0.007363
2908.000000	0.007551
2907.000000	0.007729
2906.000000	0.007896
2905.000000	0.008049
2904.000000	0.008184
2903.000000	0.008298
2902.000000	0.008397
2901.000000	0.008490
2900.000000	0.008582
2899.000000	0.008672
2898.000000	0.008755
2897.000000	0.008831
2896.000000	0.008909
2895.000000	0.008997
2894.000000	0.009091
2893.000000	0.009184
2892.000000	0.009268
2891.000000	0.009344
2890.000000	0.009416
2889.000000	0.009485
2888.000000	0.009548
2887.000000	0.009601
2886.000000	0.009640
2885.000000	0.009661
2884.000000	0.009665
2883.000000	0.009654
2882.000000	0.009635
2881.000000	0.009607
2880.000000	0.009569
2879.000000	0.009519
2878.000000	0.009453
2877.000000	0.009369
2876.000000	0.009266
2875.000000	0.009151
2874.000000	0.009038
2873.000000	0.008941
2872.000000	0.008861
2871.000000	0.008792
2870.000000	0.008718
2869.000000	0.008619
2868.000000	0.008475
2867.000000	0.008269
2866.000000	0.007995
2865.000000	0.007662
2864.000000	0.007285
2863.000000	0.006870
2862.000000	0.006421
2861.000000	0.005949
2860.000000	0.005474
2859.000000	0.005022
2858.000000	0.004619
2857.000000	0.004289
2856.000000	0.004060
2855.000000	0.003963
2854.000000	0.004027
2853.000000	0.004269
2852.000000	0.004679
2851.000000	0.005217
2850.000000	0.005815
2849.000000	0.006400
2848.000000	0.006925
2847.000000	0.007378
2846.000000	0.007771
2845.000000	0.008116
2844.000000	0.008416
2843.000000	0.008665
2842.000000	0.008859
2841.000000	0.008996
2840.000000	0.009081
2839.000000	0.009125
2838.000000	0.009146
2837.000000	0.009162
2836.000000	0.009187
2835.000000	0.009225
2834.000000	0.009273
2833.000000	0.009318
2832.000000	0.009345
2831.000000	0.009349
2830.000000	0.009334
2829.000000	0.009309
2828.000000	0.009279
2827.000000	0.009247
2826.000000	0.009217
2825.000000	0.009189
2824.000000	0.009168
2823.000000	0.009152
2822.000000	0.009140
2821.000000	0.009123
2820.000000	0.009096
2819.000000	0.009062
2818.000000	0.009027
2817.000000	0.008991
2816.000000	0.008951
2815.000000	0.008909
2814.000000	0.008870
2813.000000	0.008843
2812.000000	0.008822
2811.000000	0.008804
2810.000000	0.008787
2809.000000	0.008777
2808.000000	0.008771
2807.000000	0.008762
2806.000000	0.008742
2805.000000	0.008712
2804.000000	0.008677
2803.000000	0.008647
2802.000000	0.008625
2801.000000	0.008612
2800.000000	0.008604
2799.000000	0.008596
2798.000000	0.008589
2797.000000	0.008584
2796.000000	0.008579
2795.000000	0.008568
2794.000000	0.008544
2793.000000	0.008510
2792.000000	0.008475
2791.000000	0.008451
2790.000000	0.008441
2789.000000	0.008438
2788.000000	0.008429
2787.000000	0.008408
2786.000000	0.008380
2785.000000	0.008354
2784.000000	0.008333
2783.000000	0.008310
2782.000000	0.008279
2781.000000	0.008239
2780.000000	0.008202
2779.000000	0.008179
2778.000000	0.008174
2777.000000	0.008178
2776.000000	0.008179
2775.000000	0.008173
2774.000000	0.008167
2773.000000	0.008167
2772.000000	0.008166
2771.000000	0.008152
2770.000000	0.008125
2769.000000	0.008096
2768.000000	0.008079
2767.000000	0.008074
2766.000000	0.008071
2765.000000	0.008061
2764.000000	0.008040
2763.000000	0.008014
2762.000000	0.007988
2761.000000	0.007965
2760.000000	0.007946
2759.000000	0.007929
2758.000000	0.007916
2757.000000	0.007905
2756.000000	0.007896
2755.000000	0.007886
2754.000000	0.007872
2753.000000	0.007854
2752.000000	0.007831
2751.000000	0.007809
2750.000000	0.007796
2749.000000	0.007795
2748.000000	0.007803
2747.000000	0.007810
2746.000000	0.007809
2745.000000	0.007798
2744.000000	0.007778
2743.000000	0.007748
2742.000000	0.007709
2741.000000	0.007669
2740.000000	0.007637
2739.000000	0.007619
2738.000000	0.007614
2737.000000	0.007615
2736.000000	0.007617
2735.000000	0.007617
2734.000000	0.007616
2733.000000	0.007614
2732.000000	0.007609
2731.000000	0.007599
2730.000000	0.007585
2729.000000	0.007568
2728.000000	0.007551
2727.000000	0.007537
2726.000000	0.007528
2725.000000	0.007519
2724.000000	0.007503
2723.000000	0.007475
2722.000000	0.007441
2721.000000	0.007412
2720.000000	0.007391
2719.000000	0.007372
2718.000000	0.007352
2717.000000	0.007333
2716.000000	0.007319
2715.000000	0.007309
2714.000000	0.007303
2713.000000	0.007304
2712.000000	0.007312
2711.000000	0.007322
2710.000000	0.007323
2709.000000	0.007310
2708.000000	0.007290
2707.000000	0.007275
2706.000000	0.007272
2705.000000	0.007276
2704.000000	0.007281
2703.000000	0.007281
2702.000000	0.007275
2701.000000	0.007262
2700.000000	0.007243
2699.000000	0.007218
2698.000000	0.007192
2697.000000	0.007167
2696.000000	0.007147
2695.000000	0.007136
2694.000000	0.007133
2693.000000	0.007135
2692.000000	0.007133
2691.000000	0.007123
2690.000000	0.007111
2689.000000	0.007107
2688.000000	0.007115
2687.000000	0.007125
2686.000000	0.007122
2685.000000	0.007101
2684.000000	0.007071
2683.000000	0.007049
2682.000000	0.007041
2681.000000	0.007043
2680.000000	0.007044
2679.000000	0.007035
2678.000000	0.007019
2677.000000	0.007009
2676.000000	0.007013
2675.000000	0.007025
2674.000000	0.007033
2673.000000	0.007029
2672.000000	0.007017
2671.000000	0.007008
2670.000000	0.007005
2669.000000	0.007000
2668.000000	0.006988
2667.000000	0.006975
2666.000000	0.006973
2665.000000	0.006982
2664.000000	0.006990
2663.000000	0.006989
2662.000000	0.006982
2661.000000	0.006978
2660.000000	0.006982
2659.000000	0.006985
2658.000000	0.006979
2657.000000	0.006964
2656.000000	0.006947
2655.000000	0.006937
2654.000000	0.006932
2653.000000	0.006926
2652.000000	0.006909
2651.000000	0.006875
2650.000000	0.006827
2649.000000	0.006772
2648.000000	0.006725
2647.000000	0.006699
2646.000000	0.006697
2645.000000	0.006709
2644.000000	0.006715
2643.000000	0.006700
2642.000000	0.006665
2641.000000	0.006628
2640.000000	0.006604
2639.000000	0.006598
2638.000000	0.006598
2637.000000	0.006594
2636.000000	0.006583
2635.000000	0.006566
2634.000000	0.006543
2633.000000	0.006519
2632.000000	0.006495
2631.000000	0.006476
2630.000000	0.006466
2629.000000	0.006463
2628.000000	0.006460
2627.000000	0.006448
2626.000000	0.006421
2625.000000	0.006384
2624.000000	0.006354
2623.000000	0.006342
2622.000000	0.006346
2621.000000	0.006351
2620.000000	0.006340
2619.000000	0.006311
2618.000000	0.006274
2617.000000	0.006244
2616.000000	0.006231
2615.000000	0.006230
2614.000000	0.006228
2613.000000	0.006210
2612.000000	0.006174
2611.000000	0.006135
2610.000000	0.006106
2609.000000	0.006092
2608.000000	0.006089
2607.000000	0.006095
2606.000000	0.006108
2605.000000	0.006123
2604.000000	0.006128
2603.000000	0.006117
2602.000000	0.006099
2601.000000	0.006091
2600.000000	0.006095
2599.000000	0.006096
2598.000000	0.006077
2597.000000	0.006041
2596.000000	0.006010
2595.000000	0.005998
2594.000000	0.005997
2593.000000	0.005986
2592.000000	0.005956
2591.000000	0.005922
2590.000000	0.005905
2589.000000	0.005909
2588.000000	0.005924
2587.000000	0.005931
2586.000000	0.005923
2585.000000	0.005903
2584.000000	0.005881
2583.000000	0.005869
2582.000000	0.005872
2581.000000	0.005887
2580.000000	0.005897
2579.000000	0.005889
2578.000000	0.005863
2577.000000	0.005832
2576.000000	0.005804
2575.000000	0.005779
2574.000000	0.005754
2573.000000	0.005733
2572.000000	0.005730
2571.000000	0.005752
2570.000000	0.005787
2569.000000	0.005813
2568.000000	0.005826
2567.000000	0.005835
2566.000000	0.005848
2565.000000	0.005856
2564.000000	0.005842
2563.000000	0.005801
2562.000000	0.005753
2561.000000	0.005722
2560.000000	0.005709
2559.000000	0.005694
2558.000000	0.005660
2557.000000	0.005612
2556.000000	0.005576
2555.000000	0.005578
2554.000000	0.005617
2553.000000	0.005672
2552.000000	0.005714
2551.000000	0.005728
2550.000000	0.005717
2549.000000	0.005691
2548.000000	0.005655
2547.000000	0.005612
2546.000000	0.005567
2545.000000	0.005530
2544.000000	0.005514
2543.000000	0.005516
2542.000000	0.005520
2541.000000	0.005512
2540.000000	0.005497
2539.000000	0.005494
2538.000000	0.005511
2537.000000	0.005533
2536.000000	0.005545
2535.000000	0.005547
2534.000000	0.005553
2533.000000	0.005566
2532.000000	0.005579
2531.000000	0.005580
2530.000000	0.005566
2529.000000	0.005534
2528.000000	0.005489
2527.000000	0.005451
2526.000000	0.005438
2525.000000	0.005448
2524.000000	0.005464
2523.000000	0.005474
2522.000000	0.005482
2521.000000	0.005481
2520.000000	0.005455
2519.000000	0.005394
2518.000000	0.005318
2517.000000	0.005269
2516.000000	0.005267
2515.000000	0.005302
2514.000000	0.005356
2513.000000	0.005415
2512.000000	0.005470
2511.000000	0.005511
2510.000000	0.005524
2509.000000	0.005513
2508.000000	0.005495
2507.000000	0.005491
2506.000000	0.005505
2505.000000	0.005522
2504.000000	0.005518
2503.000000	0.005491
2502.000000	0.005452
2501.000000	0.005416
2500.000000	0.005390
2499.000000	0.005373
2498.000000	0.005367
2497.000000	0.005368
2496.000000	0.005365
2495.000000	0.005354
2494.000000	0.005342
2493.000000	0.005339
2492.000000	0.005348
2491.000000	0.005366
2490.000000	0.005392
2489.000000	0.005423
2488.000000	0.005441
2487.000000	0.005429
2486.000000	0.005388
2485.000000	0.005344
2484.000000	0.005318
2483.000000	0.005314
2482.000000	0.005319
2481.000000	0.005321
2480.000000	0.005315
2479.000000	0.005307
2478.000000	0.005306
2477.000000	0.005314
2476.000000	0.005320
2475.000000	0.005311
2474.000000	0.005286
2473.000000	0.005259
2472.000000	0.005249
2471.000000	0.005261
2470.000000	0.005286
2469.000000	0.005303
2468.000000	0.005299
2467.000000	0.005276
2466.000000	0.005247
2465.000000	0.005223
2464.000000	0.005206
2463.000000	0.005189
2462.000000	0.005176
2461.000000	0.005180
2460.000000	0.005205
2459.000000	0.005243
2458.000000	0.005274
2457.000000	0.005290
2456.000000	0.005293
2455.000000	0.005290
2454.000000	0.005285
2453.000000	0.005277
2452.000000	0.005268
2451.000000	0.005261
2450.000000	0.005264
2449.000000	0.005279
2448.000000	0.005305
2447.000000	0.005330
2446.000000	0.005342
2445.000000	0.005333
2444.000000	0.005298
2443.000000	0.005241
2442.000000	0.005172
2441.000000	0.005106
2440.000000	0.005064
2439.000000	0.005054
2438.000000	0.005068
2437.000000	0.005087
2436.000000	0.005093
2435.000000	0.005087
2434.000000	0.005081
2433.000000	0.005080
2432.000000	0.005077
2431.000000	0.005068
2430.000000	0.005055
2429.000000	0.005053
2428.000000	0.005068
2427.000000	0.005097
2426.000000	0.005123
2425.000000	0.005128
2424.000000	0.005109
2423.000000	0.005083
2422.000000	0.005075
2421.000000	0.005095
2420.000000	0.005133
2419.000000	0.005172
2418.000000	0.005198
2417.000000	0.005201
2416.000000	0.005178
2415.000000	0.005136
2414.000000	0.005089
2413.000000	0.005049
2412.000000	0.005023
2411.000000	0.005005
2410.000000	0.004989
2409.000000	0.004977
2408.000000	0.004978
2407.000000	0.004997
2406.000000	0.005026
2405.000000	0.005037
2404.000000	0.005016
2403.000000	0.004984
2402.000000	0.004969
2401.000000	0.004978
2400.000000	0.004990
2399.000000	0.004990
2398.000000	0.004986
2397.000000	0.004986
2396.000000	0.004987
2395.000000	0.004986
2394.000000	0.004997
2393.000000	0.005030
2392.000000	0.005076
2391.000000	0.005110
2390.000000	0.005121
2389.000000	0.005121
2388.000000	0.005127
2387.000000	0.005144
2386.000000	0.005162
2385.000000	0.005170
2384.000000	0.005165
2383.000000	0.005157
2382.000000	0.005161
2381.000000	0.005175
2380.000000	0.005188
2379.000000	0.005194
2378.000000	0.005200
2377.000000	0.005209
2376.000000	0.005213
2375.000000	0.005205
2374.000000	0.005194
2373.000000	0.005190
2372.000000	0.005187
2371.000000	0.005180
2370.000000	0.005184
2369.000000	0.005217
2368.000000	0.005265
2367.000000	0.005298
2366.000000	0.005308
2365.000000	0.005321
2364.000000	0.005344
2363.000000	0.005362
2362.000000	0.005363
2361.000000	0.005357
2360.000000	0.005353
2359.000000	0.005343
2358.000000	0.005329
2357.000000	0.005328
2356.000000	0.005358
2355.000000	0.005406
2354.000000	0.005442
2353.000000	0.005447
2352.000000	0.005428
2351.000000	0.005408
2350.000000	0.005406
2349.000000	0.005423
2348.000000	0.005451
2347.000000	0.005473
2346.000000	0.005476
2345.000000	0.005461
2344.000000	0.005449
2343.000000	0.005454
2342.000000	0.005472
2341.000000	0.005492
2340.000000	0.005502
2339.000000	0.005494
2338.000000	0.005467
2337.000000	0.005436
2336.000000	0.005425
2335.000000	0.005441
2334.000000	0.005467
2333.000000	0.005479
2332.000000	0.005474
2331.000000	0.005465
2330.000000	0.005460
2329.000000	0.005465
2328.000000	0.005487
2327.000000	0.005542
2326.000000	0.005627
2325.000000	0.005708
2324.000000	0.005735
2323.000000	0.005685
2322.000000	0.005585
2321.000000	0.005488
2320.000000	0.005427
2319.000000	0.005398
2318.000000	0.005376
2317.000000	0.005343
2316.000000	0.005305
2315.000000	0.005276
2314.000000	0.005266
2313.000000	0.005266
2312.000000	0.005265
2311.000000	0.005257
2310.000000	0.005250
2309.000000	0.005240
2308.000000	0.005218
2307.000000	0.005179
2306.000000	0.005137
2305.000000	0.005109
2304.000000	0.005099
2303.000000	0.005101
2302.000000	0.005113
2301.000000	0.005133
2300.000000	0.005151
2299.000000	0.005155
2298.000000	0.005143
2297.000000	0.005130
2296.000000	0.005131
2295.000000	0.005153
2294.000000	0.005190
2293.000000	0.005230
2292.000000	0.005256
2291.000000	0.005257
2290.000000	0.005240
2289.000000	0.005218
2288.000000	0.005205
2287.000000	0.005208
2286.000000	0.005220
2285.000000	0.005226
2284.000000	0.005202
2283.000000	0.005145
2282.000000	0.005083
2281.000000	0.005056
2280.000000	0.005075
2279.000000	0.005117
2278.000000	0.005146
2277.000000	0.005140
2276.000000	0.005104
2275.000000	0.005060
2274.000000	0.005033
2273.000000	0.005034
2272.000000	0.005054
2271.000000	0.005068
2270.000000	0.005056
2269.000000	0.005002
2268.000000	0.004910
2267.000000	0.004813
2266.000000	0.004759
2265.000000	0.004771
2264.000000	0.004819
2263.000000	0.004854
2262.000000	0.004857
2261.000000	0.004838
2260.000000	0.004802
2259.000000	0.004743
2258.000000	0.004670
2257.000000	0.004621
2256.000000	0.004637
2255.000000	0.004709
2254.000000	0.004775
2253.000000	0.004774
2252.000000	0.004709
2251.000000	0.004655
2250.000000	0.004682
2249.000000	0.004775
2248.000000	0.004856
2247.000000	0.004884
2246.000000	0.004890
2245.000000	0.004907
2244.000000	0.004901
2243.000000	0.004827
2242.000000	0.004718
2241.000000	0.004665
2240.000000	0.004718
2239.000000	0.004841
2238.000000	0.004972
2237.000000	0.005070
2236.000000	0.005108
2235.000000	0.005073
2234.000000	0.004989
2233.000000	0.004918
2232.000000	0.004896
2231.000000	0.004897
2230.000000	0.004878
2229.000000	0.004834
2228.000000	0.004797
2227.000000	0.004784
2226.000000	0.004777
2225.000000	0.004731
2224.000000	0.004630
2223.000000	0.004508
2222.000000	0.004433
2221.000000	0.004437
2220.000000	0.004491
2219.000000	0.004552
2218.000000	0.004629
2217.000000	0.004748
2216.000000	0.004867
2215.000000	0.004891
2214.000000	0.004779
2213.000000	0.004611
2212.000000	0.004504
2211.000000	0.004503
2210.000000	0.004565
2209.000000	0.004628
2208.000000	0.004668
2207.000000	0.004693
2206.000000	0.004713
2205.000000	0.004713
2204.000000	0.004670
2203.000000	0.004594
2202.000000	0.004535
2201.000000	0.004543
2200.000000	0.004607
2199.000000	0.004669
2198.000000	0.004691
2197.000000	0.004674
2196.000000	0.004633
2195.000000	0.004589
2194.000000	0.004574
2193.000000	0.004598
2192.000000	0.004608
2191.000000	0.004528
2190.000000	0.004367
2189.000000	0.004229
2188.000000	0.004203
2187.000000	0.004261
2186.000000	0.004321
2185.000000	0.004355
2184.000000	0.004400
2183.000000	0.004472
2182.000000	0.004527
2181.000000	0.004502
2180.000000	0.004373
2179.000000	0.004175
2178.000000	0.004004
2177.000000	0.003962
2176.000000	0.004073
2175.000000	0.004237
2174.000000	0.004321
2173.000000	0.004289
2172.000000	0.004228
2171.000000	0.004225
2170.000000	0.004266
2169.000000	0.004271
2168.000000	0.004210
2167.000000	0.004150
2166.000000	0.004185
2165.000000	0.004326
2164.000000	0.004493
2163.000000	0.004598
2162.000000	0.004598
2161.000000	0.004463
2160.000000	0.004168
2159.000000	0.003766
2158.000000	0.003409
2157.000000	0.003216
2156.000000	0.003154
2155.000000	0.003133
2154.000000	0.003151
2153.000000	0.003277
2152.000000	0.003528
2151.000000	0.003812
2150.000000	0.004011
2149.000000	0.004079
2148.000000	0.004062
2147.000000	0.004041
2146.000000	0.004060
2145.000000	0.004097
2144.000000	0.004099
2143.000000	0.004048
2142.000000	0.003995
2141.000000	0.004007
2140.000000	0.004092
2139.000000	0.004203
2138.000000	0.004283
2137.000000	0.004315
2136.000000	0.004299
2135.000000	0.004239
2134.000000	0.004144
2133.000000	0.004047
2132.000000	0.003988
2131.000000	0.003981
2130.000000	0.004006
2129.000000	0.004040
2128.000000	0.004086
2127.000000	0.004181
2126.000000	0.004344
2125.000000	0.004532
2124.000000	0.004658
2123.000000	0.004669
2122.000000	0.004594
2121.000000	0.004505
2120.000000	0.004449
2119.000000	0.004434
2118.000000	0.004452
2117.000000	0.004500
2116.000000	0.004563
2115.000000	0.004611
2114.000000	0.004622
2113.000000	0.004601
2112.000000	0.004576
2111.000000	0.004564
2110.000000	0.004553
2109.000000	0.004518
2108.000000	0.004454
2107.000000	0.004395
2106.000000	0.004382
2105.000000	0.004416
2104.000000	0.004456
2103.000000	0.004462
2102.000000	0.004448
2101.000000	0.004460
2100.000000	0.004525
2099.000000	0.004617
2098.000000	0.004688
2097.000000	0.004707
2096.000000	0.004673
2095.000000	0.004604
2094.000000	0.004524
2093.000000	0.004464
2092.000000	0.004455
2091.000000	0.004520
2090.000000	0.004641
2089.000000	0.004758
2088.000000	0.004808
2087.000000	0.004785
2086.000000	0.004734
2085.000000	0.004700
2084.000000	0.004681
2083.000000	0.004651
2082.000000	0.004606
2081.000000	0.004568
2080.000000	0.004567
2079.000000	0.004603
2078.000000	0.004631
2077.000000	0.004591
2076.000000	0.004463
2075.000000	0.004307
2074.000000	0.004210
2073.000000	0.004197
2072.000000	0.004226
2071.000000	0.004267
2070.000000	0.004340
2069.000000	0.004450
2068.000000	0.004533
2067.000000	0.004526
2066.000000	0.004456
2065.000000	0.004417
2064.000000	0.004450
2063.000000	0.004496
2062.000000	0.004475
2061.000000	0.004373
2060.000000	0.004257
2059.000000	0.004211
2058.000000	0.004258
2057.000000	0.004333
2056.000000	0.004350
2055.000000	0.004303
2054.000000	0.004280
2053.000000	0.004345
2052.000000	0.004444
2051.000000	0.004469
2050.000000	0.004387
2049.000000	0.004260
2048.000000	0.004161
2047.000000	0.004112
2046.000000	0.004102
2045.000000	0.004115
2044.000000	0.004118
2043.000000	0.004089
2042.000000	0.004049
2041.000000	0.004033
2040.000000	0.004024
2039.000000	0.003979
2038.000000	0.003905
2037.000000	0.003857
2036.000000	0.003840
2035.000000	0.003787
2034.000000	0.003646
2033.000000	0.003466
2032.000000	0.003357
2031.000000	0.003402
2030.000000	0.003596
2029.000000	0.003828
2028.000000	0.003955
2027.000000	0.003920
2026.000000	0.003808
2025.000000	0.003723
2024.000000	0.003665
2023.000000	0.003561
2022.000000	0.003391
2021.000000	0.003223
2020.000000	0.003131
2019.000000	0.003138
2018.000000	0.003233
2017.000000	0.003384
2016.000000	0.003539
2015.000000	0.003672
2014.000000	0.003781
2013.000000	0.003835
2012.000000	0.003746
2011.000000	0.003473
2010.000000	0.003110
2009.000000	0.002825
2008.000000	0.002705
2007.000000	0.002720
2006.000000	0.002801
2005.000000	0.002888
2004.000000	0.002948
2003.000000	0.003009
2002.000000	0.003158
2001.000000	0.003435
2000.000000	0.003729
1999.000000	0.003881
1998.000000	0.003850
1997.000000	0.003718
1996.000000	0.003560
1995.000000	0.003377
1994.000000	0.003172
1993.000000	0.003011
1992.000000	0.002954
1991.000000	0.002989
1990.000000	0.003053
1989.000000	0.003101
1988.000000	0.003125
1987.000000	0.003135
1986.000000	0.003160
1985.000000	0.003230
1984.000000	0.003359
1983.000000	0.003544
1982.000000	0.003768
1981.000000	0.003971
1980.000000	0.004044
1979.000000	0.003919
1978.000000	0.003651
1977.000000	0.003375
1976.000000	0.003190
1975.000000	0.003121
1974.000000	0.003179
1973.000000	0.003344
1972.000000	0.003527
1971.000000	0.003635
1970.000000	0.003668
1969.000000	0.003679
1968.000000	0.003667
1967.000000	0.003589
1966.000000	0.003466
1965.000000	0.003378
1964.000000	0.003353
1963.000000	0.003325
1962.000000	0.003238
1961.000000	0.003127
1960.000000	0.003079
1959.000000	0.003139
1958.000000	0.003285
1957.000000	0.003455
1956.000000	0.003598
1955.000000	0.003699
1954.000000	0.003777
1953.000000	0.003832
1952.000000	0.003836
1951.000000	0.003783
1950.000000	0.003724
1949.000000	0.003714
1948.000000	0.003740
1947.000000	0.003740
1946.000000	0.003696
1945.000000	0.003660
1944.000000	0.003676
1943.000000	0.003713
1942.000000	0.003704
1941.000000	0.003633
1940.000000	0.003561
1939.000000	0.003565
1938.000000	0.003670
1937.000000	0.003825
1936.000000	0.003946
1935.000000	0.003998
1934.000000	0.004013
1933.000000	0.004033
1932.000000	0.004053
1931.000000	0.004031
1930.000000	0.003958
1929.000000	0.003876
1928.000000	0.003828
1927.000000	0.003829
1926.000000	0.003858
1925.000000	0.003889
1924.000000	0.003896
1923.000000	0.003867
1922.000000	0.003829
1921.000000	0.003824
1920.000000	0.003869
1919.000000	0.003939
1918.000000	0.003988
1917.000000	0.003992
1916.000000	0.003968
1915.000000	0.003954
1914.000000	0.003978
1913.000000	0.004032
1912.000000	0.004078
1911.000000	0.004086
1910.000000	0.004057
1909.000000	0.004009
1908.000000	0.003951
1907.000000	0.003897
1906.000000	0.003861
1905.000000	0.003856
1904.000000	0.003878
1903.000000	0.003906
1902.000000	0.003937
1901.000000	0.003970
1900.000000	0.003993
1899.000000	0.003998
1898.000000	0.003999
1897.000000	0.004010
1896.000000	0.004023
1895.000000	0.004015
1894.000000	0.003985
1893.000000	0.003950
1892.000000	0.003919
1891.000000	0.003891
1890.000000	0.003875
1889.000000	0.003894
1888.000000	0.003951
1887.000000	0.004031
1886.000000	0.004108
1885.000000	0.004157
1884.000000	0.004159
1883.000000	0.004119
1882.000000	0.004068
1881.000000	0.004029
1880.000000	0.003999
1879.000000	0.003968
1878.000000	0.003942
1877.000000	0.003921
1876.000000	0.003892
1875.000000	0.003842
1874.000000	0.003782
1873.000000	0.003739
1872.000000	0.003729
1871.000000	0.003752
1870.000000	0.003809
1869.000000	0.003882
1868.000000	0.003935
1867.000000	0.003945
1866.000000	0.003934
1865.000000	0.003932
1864.000000	0.003940
1863.000000	0.003948
1862.000000	0.003964
1861.000000	0.004006
1860.000000	0.004064
1859.000000	0.004100
1858.000000	0.004085
1857.000000	0.004030
1856.000000	0.003977
1855.000000	0.003966
1854.000000	0.004011
1853.000000	0.004085
1852.000000	0.004128
1851.000000	0.004115
1850.000000	0.004062
1849.000000	0.003992
1848.000000	0.003920
1847.000000	0.003868
1846.000000	0.003862
1845.000000	0.003894
1844.000000	0.003918
1843.000000	0.003905
1842.000000	0.003881
1841.000000	0.003893
1840.000000	0.003937
1839.000000	0.003975
1838.000000	0.003979
1837.000000	0.003965
1836.000000	0.003957
1835.000000	0.003952
1834.000000	0.003940
1833.000000	0.003912
1832.000000	0.003854
1831.000000	0.003769
1830.000000	0.003671
1829.000000	0.003592
1828.000000	0.003563
1827.000000	0.003604
1826.000000	0.003706
1825.000000	0.003823
1824.000000	0.003905
1823.000000	0.003945
1822.000000	0.003974
1821.000000	0.004002
1820.000000	0.004012
1819.000000	0.004002
1818.000000	0.003989
1817.000000	0.003989
1816.000000	0.003987
1815.000000	0.003962
1814.000000	0.003923
1813.000000	0.003888
1812.000000	0.003868
1811.000000	0.003857
1810.000000	0.003856
1809.000000	0.003878
1808.000000	0.003916
1807.000000	0.003948
1806.000000	0.003961
1805.000000	0.003964
1804.000000	0.003965
1803.000000	0.003961
1802.000000	0.003948
1801.000000	0.003914
1800.000000	0.003867
1799.000000	0.003836
1798.000000	0.003838
1797.000000	0.003857
1796.000000	0.003857
1795.000000	0.003835
1794.000000	0.003815
1793.000000	0.003801
1792.000000	0.003772
1791.000000	0.003729
1790.000000	0.003715
1789.000000	0.003759
1788.000000	0.003843
1787.000000	0.003918
1786.000000	0.003953
1785.000000	0.003940
1784.000000	0.003886
1783.000000	0.003821
1782.000000	0.003797
1781.000000	0.003815
1780.000000	0.003835
1779.000000	0.003836
1778.000000	0.003829
1777.000000	0.003827
1776.000000	0.003813
1775.000000	0.003796
1774.000000	0.003792
1773.000000	0.003775
1772.000000	0.003702
1771.000000	0.003610
1770.000000	0.003590
1769.000000	0.003663
1768.000000	0.003728
1767.000000	0.003676
1766.000000	0.003525
1765.000000	0.003367
1764.000000	0.003235
1763.000000	0.003078
1762.000000	0.002847
1761.000000	0.002556
1760.000000	0.002256
1759.000000	0.001957
1758.000000	0.001643
1757.000000	0.001280
1756.000000	0.000855
1755.000000	0.000427
1754.000000	0.000065
1753.000000	-0.000243
1752.000000	-0.000593
1751.000000	-0.001046
1750.000000	-0.001523
1749.000000	-0.001869
1748.000000	-0.002032
1747.000000	-0.002047
1746.000000	-0.001947
1745.000000	-0.001744
1744.000000	-0.001457
1743.000000	-0.001140
1742.000000	-0.000789
1741.000000	-0.000315
1740.000000	0.000312
1739.000000	0.000938
1738.000000	0.001431
1737.000000	0.001878
1736.000000	0.002421
1735.000000	0.003029
1734.000000	0.003518
1733.000000	0.003778
1732.000000	0.003899
1731.000000	0.004013
1730.000000	0.004183
1729.000000	0.004385
1728.000000	0.004570
1727.000000	0.004715
1726.000000	0.004836
1725.000000	0.004954
1724.000000	0.005076
1723.000000	0.005156
1722.000000	0.005161
1721.000000	0.005155
1720.000000	0.005242
1719.000000	0.005444
1718.000000	0.005671
1717.000000	0.005827
1716.000000	0.005906
1715.000000	0.005960
1714.000000	0.006040
1713.000000	0.006174
1712.000000	0.006341
1711.000000	0.006497
1710.000000	0.006621
1709.000000	0.006714
1708.000000	0.006792
1707.000000	0.006903
1706.000000	0.007077
1705.000000	0.007277
1704.000000	0.007454
1703.000000	0.007661
1702.000000	0.008004
1701.000000	0.008509
1700.000000	0.009045
1699.000000	0.009449
1698.000000	0.009849
1697.000000	0.010462
1696.000000	0.011212
1695.000000	0.011778
1694.000000	0.012072
1693.000000	0.012309
1692.000000	0.012674
1691.000000	0.013141
1690.000000	0.013593
1689.000000	0.013990
1688.000000	0.014372
1687.000000	0.014817
1686.000000	0.015354
1685.000000	0.015981
1684.000000	0.016586
1683.000000	0.017027
1682.000000	0.017430
1681.000000	0.017964
1680.000000	0.018582
1679.000000	0.019138
1678.000000	0.019630
1677.000000	0.020208
1676.000000	0.020942
1675.000000	0.021681
1674.000000	0.022253
1673.000000	0.022706
1672.000000	0.023214
1671.000000	0.023856
1670.000000	0.024608
1669.000000	0.025390
1668.000000	0.026103
1667.000000	0.026692
1666.000000	0.027197
1665.000000	0.027716
1664.000000	0.028299
1663.000000	0.028891
1662.000000	0.029434
1661.000000	0.029952
1660.000000	0.030478
1659.000000	0.030972
1658.000000	0.031360
1657.000000	0.031654
1656.000000	0.031987
1655.000000	0.032468
1654.000000	0.033042
1653.000000	0.033565
1652.000000	0.033897
1651.000000	0.033976
1650.000000	0.033963
1649.000000	0.034111
1648.000000	0.034440
1647.000000	0.034772
1646.000000	0.034999
1645.000000	0.035193
1644.000000	0.035399
1643.000000	0.035602
1642.000000	0.035807
1641.000000	0.035985
1640.000000	0.036097
1639.000000	0.036165
1638.000000	0.036247
1637.000000	0.036362
1636.000000	0.036440
1635.000000	0.036445
1634.000000	0.036437
1633.000000	0.036476
1632.000000	0.036563
1631.000000	0.036637
1630.000000	0.036619
1629.000000	0.036484
1628.000000	0.036262
1627.000000	0.036000
1626.000000	0.035733
1625.000000	0.035451
1624.000000	0.035102
1623.000000	0.034654
1622.000000	0.034165
1621.000000	0.033724
1620.000000	0.033366
1619.000000	0.033062
1618.000000	0.032687
1617.000000	0.032107
1616.000000	0.031357
1615.000000	0.030605
1614.000000	0.029958
1613.000000	0.029412
1612.000000	0.028884
1611.000000	0.028299
1610.000000	0.027679
1609.000000	0.027081
1608.000000	0.026523
1607.000000	0.025990
1606.000000	0.025485
1605.000000	0.025013
1604.000000	0.024575
1603.000000	0.024177
1602.000000	0.023817
1601.000000	0.023483
1600.000000	0.023178
1599.000000	0.022913
1598.000000	0.022695
1597.000000	0.022508
1596.000000	0.022339
1595.000000	0.022192
1594.000000	0.022075
1593.000000	0.021982
1592.000000	0.021901
1591.000000	0.021826
1590.000000	0.021749
1589.000000	0.021664
1588.000000	0.021584
1587.000000	0.021536
1586.000000	0.021526
1585.000000	0.021526
1584.000000	0.021512
1583.000000	0.021524
1582.000000	0.021595
1581.000000	0.021690
1580.000000	0.021781
1579.000000	0.021937
1578.000000	0.022235
1577.000000	0.022630
1576.000000	0.022963
1575.000000	0.023127
1574.000000	0.023183
1573.000000	0.023255
1572.000000	0.023413
1571.000000	0.023640
1570.000000	0.023910
1569.000000	0.024220
1568.000000	0.024557
1567.000000	0.024933
1566.000000	0.025353
1565.000000	0.025781
1564.000000	0.026150
1563.000000	0.026478
1562.000000	0.026835
1561.000000	0.027204
1560.000000	0.027483
1559.000000	0.027677
1558.000000	0.027861
1557.000000	0.028169
1556.000000	0.028589
1555.000000	0.029061
1554.000000	0.029493
1553.000000	0.029812
1552.000000	0.030063
1551.000000	0.030317
1550.000000	0.030550
1549.000000	0.030716
1548.000000	0.030837
1547.000000	0.030970
1546.000000	0.031117
1545.000000	0.031221
1544.000000	0.031251
1543.000000	0.031259
1542.000000	0.031315
1541.000000	0.031437
1540.000000	0.031564
1539.000000	0.031643
1538.000000	0.031650
1537.000000	0.031589
1536.000000	0.031537
1535.000000	0.031517
1534.000000	0.031455
1533.000000	0.031318
1532.000000	0.031198
1531.000000	0.031148
1530.000000	0.031112
1529.000000	0.031028
1528.000000	0.030887
1527.000000	0.030706
1526.000000	0.030496
1525.000000	0.030266
1524.000000	0.030057
1523.000000	0.029895
1522.000000	0.029726
1521.000000	0.029492
1520.000000	0.029222
1519.000000	0.028989
1518.000000	0.028834
1517.000000	0.028719
1516.000000	0.028578
1515.000000	0.028409
1514.000000	0.028238
1513.000000	0.028028
1512.000000	0.027717
1511.000000	0.027298
1510.000000	0.026858
1509.000000	0.026488
1508.000000	0.026174
1507.000000	0.025807
1506.000000	0.025395
1505.000000	0.025059
1504.000000	0.024741
1503.000000	0.024390
1502.000000	0.024005
1501.000000	0.023541
1500.000000	0.022978
1499.000000	0.022371
1498.000000	0.021773
1497.000000	0.021187
1496.000000	0.020611
1495.000000	0.020043
1494.000000	0.019501
1493.000000	0.019022
1492.000000	0.018607
1491.000000	0.018194
1490.000000	0.017746
1489.000000	0.017318
1488.000000	0.016991
1487.000000	0.016760
1486.000000	0.016578
1485.000000	0.016435
1484.000000	0.016325
1483.000000	0.016253
1482.000000	0.016216
1481.000000	0.016211
1480.000000	0.016235
1479.000000	0.016279
1478.000000	0.016324
1477.000000	0.016355
1476.000000	0.016369
1475.000000	0.016374
1474.000000	0.016377
1473.000000	0.016347
1472.000000	0.016265
1471.000000	0.016160
1470.000000	0.016082
1469.000000	0.016064
1468.000000	0.016112
1467.000000	0.016204
1466.000000	0.016346
1465.000000	0.016547
1464.000000	0.016779
1463.000000	0.016992
1462.000000	0.017150
1461.000000	0.017273
1460.000000	0.017418
1459.000000	0.017656
1458.000000	0.018034
1457.000000	0.018519
1456.000000	0.018954
1455.000000	0.019232
1454.000000	0.019441
1453.000000	0.019686
1452.000000	0.019942
1451.000000	0.020116
1450.000000	0.020198
1449.000000	0.020244
1448.000000	0.020283
1447.000000	0.020295
1446.000000	0.020298
1445.000000	0.020300
1444.000000	0.020290
1443.000000	0.020252
1442.000000	0.020174
1441.000000	0.020066
1440.000000	0.019959
1439.000000	0.019877
1438.000000	0.019795
1437.000000	0.019669
1436.000000	0.019493
1435.000000	0.019306
1434.000000	0.019143
1433.000000	0.019011
1432.000000	0.018874
1431.000000	0.018699
1430.000000	0.018506
1429.000000	0.018351
1428.000000	0.018258
1427.000000	0.018203
1426.000000	0.018174
1425.000000	0.018149
1424.000000	0.018097
1423.000000	0.018021
1422.000000	0.017963
1421.000000	0.017956
1420.000000	0.017985
1419.000000	0.018021
1418.000000	0.018051
1417.000000	0.018098
1416.000000	0.018192
1415.000000	0.018324
1414.000000	0.018471
1413.000000	0.018626
1412.000000	0.018797
1411.000000	0.018972
1410.000000	0.019127
1409.000000	0.019262
1408.000000	0.019395
1407.000000	0.019525
1406.000000	0.019661
1405.000000	0.019806
1404.000000	0.019940
1403.000000	0.020031
1402.000000	0.020076
1401.000000	0.020095
1400.000000	0.020091
1399.000000	0.020054
1398.000000	0.019996
1397.000000	0.019956
1396.000000	0.019940
1395.000000	0.019905
1394.000000	0.019837
1393.000000	0.019762
1392.000000	0.019702
1391.000000	0.019649
1390.000000	0.019594
1389.000000	0.019529
1388.000000	0.019449
1387.000000	0.019335
1386.000000	0.019180
1385.000000	0.019004
1384.000000	0.018825
1383.000000	0.018640
1382.000000	0.018442
1381.000000	0.018243
1380.000000	0.018062
1379.000000	0.017902
1378.000000	0.017762
1377.000000	0.017644
1376.000000	0.017545
1375.000000	0.017445
1374.000000	0.017335
1373.000000	0.017225
1372.000000	0.017136
1371.000000	0.017067
1370.000000	0.017006
1369.000000	0.016936
1368.000000	0.016843
1367.000000	0.016729
1366.000000	0.016602
1365.000000	0.016465
1364.000000	0.016311
1363.000000	0.016139
1362.000000	0.015966
1361.000000	0.015812
1360.000000	0.015673
1359.000000	0.015531
1358.000000	0.015386
1357.000000	0.015258
1356.000000	0.015164
1355.000000	0.015101
1354.000000	0.015060
1353.000000	0.015039
1352.000000	0.015038
1351.000000	0.015052
1350.000000	0.015082
1349.000000	0.015132
1348.000000	0.015208
1347.000000	0.015304
1346.000000	0.015407
1345.000000	0.015513
1344.000000	0.015626
1343.000000	0.015747
1342.000000	0.015877
1341.000000	0.016005
1340.000000	0.016120
1339.000000	0.016209
1338.000000	0.016270
1337.000000	0.016306
1336.000000	0.016313
1335.000000	0.016287
1334.000000	0.016235
1333.000000	0.016157
1332.000000	0.016046
1331.000000	0.015892
1330.000000	0.015709
1329.000000	0.015524
1328.000000	0.015357
1327.000000	0.015209
1326.000000	0.015085
1325.000000	0.014996
1324.000000	0.014949
1323.000000	0.014938
1322.000000	0.014955
1321.000000	0.014989
1320.000000	0.015029
1319.000000	0.015066
1318.000000	0.015102
1317.000000	0.015147
1316.000000	0.015202
1315.000000	0.015249
1314.000000	0.015270
1313.000000	0.015255
1312.000000	0.015206
1311.000000	0.015123
1310.000000	0.015012
1309.000000	0.014890
1308.000000	0.014773
1307.000000	0.014659
1306.000000	0.014536
1305.000000	0.014396
1304.000000	0.014245
1303.000000	0.014097
1302.000000	0.013962
1301.000000	0.013841
1300.000000	0.013732
1299.000000	0.013632
1298.000000	0.013547
1297.000000	0.013493
1296.000000	0.013479
1295.000000	0.013499
1294.000000	0.013540
1293.000000	0.013597
1292.000000	0.013682
1291.000000	0.013804
1290.000000	0.013955
1289.000000	0.014110
1288.000000	0.014242
1287.000000	0.014338
1286.000000	0.014416
1285.000000	0.014515
1284.000000	0.014659
1283.000000	0.014839
1282.000000	0.015020
1281.000000	0.015173
1280.000000	0.015291
1279.000000	0.015376
1278.000000	0.015430
1277.000000	0.015455
1276.000000	0.015459
1275.000000	0.015456
1274.000000	0.015460
1273.000000	0.015476
1272.000000	0.015500
1271.000000	0.015526
1270.000000	0.015546
1269.000000	0.015559
1268.000000	0.015559
1267.000000	0.015541
1266.000000	0.015508
1265.000000	0.015476
1264.000000	0.015467
1263.000000	0.015493
1262.000000	0.015544
1261.000000	0.015612
1260.000000	0.015702
1259.000000	0.015833
1258.000000	0.016015
1257.000000	0.016233
1256.000000	0.016454
1255.000000	0.016655
1254.000000	0.016841
1253.000000	0.017026
1252.000000	0.017212
1251.000000	0.017394
1250.000000	0.017574
1249.000000	0.017767
1248.000000	0.017976
1247.000000	0.018193
1246.000000	0.018408
1245.000000	0.018633
1244.000000	0.018881
1243.000000	0.019157
1242.000000	0.019448
1241.000000	0.019734
1240.000000	0.019997
1239.000000	0.020230
1238.000000	0.020439
1237.000000	0.020639
1236.000000	0.020823
1235.000000	0.020964
1234.000000	0.021037
1233.000000	0.021046
1232.000000	0.021007
1231.000000	0.020927
1230.000000	0.020800
1229.000000	0.020618
1228.000000	0.020380
1227.000000	0.020088
1226.000000	0.019750
1225.000000	0.019374
1224.000000	0.018968
1223.000000	0.018540
1222.000000	0.018099
1221.000000	0.017650
1220.000000	0.017202
1219.000000	0.016773
1218.000000	0.016383
1217.000000	0.016045
1216.000000	0.015756
1215.000000	0.015511
1214.000000	0.015313
1213.000000	0.015165
1212.000000	0.015056
1211.000000	0.014968
1210.000000	0.014893
1209.000000	0.014837
1208.000000	0.014797
1207.000000	0.014759
1206.000000	0.014705
1205.000000	0.014630
1204.000000	0.014537
1203.000000	0.014425
1202.000000	0.014282
1201.000000	0.014097
1200.000000	0.013864
1199.000000	0.013586
1198.000000	0.013274
1197.000000	0.012936
1196.000000	0.012587
1195.000000	0.012241
1194.000000	0.011909
1193.000000	0.011586
1192.000000	0.011268
1191.000000	0.010962
1190.000000	0.010683
1189.000000	0.010434
1188.000000	0.010208
1187.000000	0.010005
1186.000000	0.009851
1185.000000	0.009771
1184.000000	0.009768
1183.000000	0.009812
1182.000000	0.009876
1181.000000	0.009947
1180.000000	0.010018
1179.000000	0.010075
1178.000000	0.010107
1177.000000	0.010120
1176.000000	0.010135
1175.000000	0.010167
1174.000000	0.010212
1173.000000	0.010254
1172.000000	0.010277
1171.000000	0.010282
1170.000000	0.010286
1169.000000	0.010309
1168.000000	0.010358
1167.000000	0.010421
1166.000000	0.010478
1165.000000	0.010523
1164.000000	0.010564
1163.000000	0.010605
1162.000000	0.010639
1161.000000	0.010657
1160.000000	0.010649
1159.000000	0.010614
1158.000000	0.010562
1157.000000	0.010504
1156.000000	0.010447
1155.000000	0.010382
1154.000000	0.010291
1153.000000	0.010169
1152.000000	0.010030
1151.000000	0.009900
1150.000000	0.009783
1149.000000	0.009667
1148.000000	0.009542
1147.000000	0.009419
1146.000000	0.009319
1145.000000	0.009247
1144.000000	0.009190
1143.000000	0.009137
1142.000000	0.009095
1141.000000	0.009068
1140.000000	0.009050
1139.000000	0.009029
1138.000000	0.009008
1137.000000	0.009005
1136.000000	0.009030
1135.000000	0.009071
1134.000000	0.009114
1133.000000	0.009160
1132.000000	0.009211
1131.000000	0.009257
1130.000000	0.009276
1129.000000	0.009266
1128.000000	0.009243
1127.000000	0.009226
1126.000000	0.009216
1125.000000	0.009197
1124.000000	0.009160
1123.000000	0.009111
1122.000000	0.009076
1121.000000	0.009078
1120.000000	0.009114
1119.000000	0.009163
1118.000000	0.009211
1117.000000	0.009273
1116.000000	0.009378
1115.000000	0.009533
1114.000000	0.009708
1113.000000	0.009870
1112.000000	0.009998
1111.000000	0.010097
1110.000000	0.010182
1109.000000	0.010264
1108.000000	0.010349
1107.000000	0.010437
1106.000000	0.010525
1105.000000	0.010612
1104.000000	0.010706
1103.000000	0.010813
1102.000000	0.010928
1101.000000	0.011030
1100.000000	0.011101
1099.000000	0.011146
1098.000000	0.011185
1097.000000	0.011244
1096.000000	0.011329
1095.000000	0.011435
1094.000000	0.011563
1093.000000	0.011714
1092.000000	0.011885
1091.000000	0.012065
1090.000000	0.012248
1089.000000	0.012444
1088.000000	0.012680
1087.000000	0.012969
1086.000000	0.013303
1085.000000	0.013651
1084.000000	0.013975
1083.000000	0.014238
1082.000000	0.014419
1081.000000	0.014506
1080.000000	0.014488
1079.000000	0.014369
1078.000000	0.014174
1077.000000	0.013940
1076.000000	0.013693
1075.000000	0.013447
1074.000000	0.013213
1073.000000	0.013011
1072.000000	0.012867
1071.000000	0.012784
1070.000000	0.012747
1069.000000	0.012738
1068.000000	0.012754
1067.000000	0.012803
1066.000000	0.012895
1065.000000	0.013028
1064.000000	0.013193
1063.000000	0.013367
1062.000000	0.013522
1061.000000	0.013646
1060.000000	0.013752
1059.000000	0.013864
1058.000000	0.013987
1057.000000	0.014099
1056.000000	0.014176
1055.000000	0.014220
1054.000000	0.014249
1053.000000	0.014262
1052.000000	0.014244
1051.000000	0.014195
1050.000000	0.014146
1049.000000	0.014128
1048.000000	0.014138
1047.000000	0.014148
1046.000000	0.014140
1045.000000	0.014117
1044.000000	0.014094
1043.000000	0.014082
1042.000000	0.014090
1041.000000	0.014120
1040.000000	0.014174
1039.000000	0.014257
1038.000000	0.014376
1037.000000	0.014528
1036.000000	0.014701
1035.000000	0.014893
1034.000000	0.015104
1033.000000	0.015321
1032.000000	0.015498
1031.000000	0.015600
1030.000000	0.015637
1029.000000	0.015647
1028.000000	0.015655
1027.000000	0.015658
1026.000000	0.015641
1025.000000	0.015598
1024.000000	0.015534
1023.000000	0.015467
1022.000000	0.015426
1021.000000	0.015431
1020.000000	0.015472
1019.000000	0.015520
1018.000000	0.015556
1017.000000	0.015571
1016.000000	0.015551
1015.000000	0.015477
1014.000000	0.015352
1013.000000	0.015190
1012.000000	0.014989
1011.000000	0.014734
1010.000000	0.014423
1009.000000	0.014078
1008.000000	0.013728
1007.000000	0.013385
1006.000000	0.013055
1005.000000	0.012749
1004.000000	0.012472
1003.000000	0.012214
1002.000000	0.011963
1001.000000	0.011711
1000.000000	0.011466
999.000000	0.011233
998.000000	0.011015
997.000000	0.010808
996.000000	0.010604
995.000000	0.010396
994.000000	0.010181
993.000000	0.009959
992.000000	0.009737
991.000000	0.009522
990.000000	0.009322
989.000000	0.009136
988.000000	0.008960
987.000000	0.008791
986.000000	0.008633
985.000000	0.008498
984.000000	0.008390
983.000000	0.008302
982.000000	0.008221
981.000000	0.008130
980.000000	0.008026
979.000000	0.007922
978.000000	0.007833
977.000000	0.007755
976.000000	0.007661
975.000000	0.007538
974.000000	0.007405
973.000000	0.007296
972.000000	0.007212
971.000000	0.007124
970.000000	0.007011
969.000000	0.006881
968.000000	0.006759
967.000000	0.006665
966.000000	0.006600
965.000000	0.006558
964.000000	0.006521
963.000000	0.006470
962.000000	0.006408
961.000000	0.006355
960.000000	0.006326
959.000000	0.006317
958.000000	0.006316
957.000000	0.006316
956.000000	0.006321
955.000000	0.006324
954.000000	0.006308
953.000000	0.006256
952.000000	0.006172
951.000000	0.006076
950.000000	0.005987
949.000000	0.005912
948.000000	0.005834
947.000000	0.005739
946.000000	0.005623
945.000000	0.005498
944.000000	0.005369
943.000000	0.005247
942.000000	0.005156
941.000000	0.005119
940.000000	0.005137
939.000000	0.005175
938.000000	0.005193
937.000000	0.005174
936.000000	0.005124
935.000000	0.005060
934.000000	0.005003
933.000000	0.004966
932.000000	0.004943
931.000000	0.004918
930.000000	0.004883
929.000000	0.004847
928.000000	0.004813
927.000000	0.004761
926.000000	0.004673
925.000000	0.004554
924.000000	0.004431
923.000000	0.004313
922.000000	0.004194
921.000000	0.004066
920.000000	0.003940
919.000000	0.003832
918.000000	0.003741
917.000000	0.003655
916.000000	0.003563
915.000000	0.003468
914.000000	0.003380
913.000000	0.003302
912.000000	0.003224
911.000000	0.003144
910.000000	0.003083
909.000000	0.003062
908.000000	0.003077
907.000000	0.003089
906.000000	0.003065
905.000000	0.003015
904.000000	0.002985
903.000000	0.003000
902.000000	0.003041
901.000000	0.003067
900.000000	0.003060
899.000000	0.003036
898.000000	0.003020
897.000000	0.003015
896.000000	0.003002
895.000000	0.002961
894.000000	0.002904
893.000000	0.002867
892.000000	0.002881
891.000000	0.002934
890.000000	0.002990
889.000000	0.003013
888.000000	0.002997
887.000000	0.002951
886.000000	0.002901
885.000000	0.002870
884.000000	0.002874
883.000000	0.002911
882.000000	0.002955
881.000000	0.002988
880.000000	0.003007
879.000000	0.003036
878.000000	0.003093
877.000000	0.003171
876.000000	0.003239
875.000000	0.003270
874.000000	0.003266
873.000000	0.003249
872.000000	0.003223
871.000000	0.003179
870.000000	0.003112
869.000000	0.003042
868.000000	0.002985
867.000000	0.002940
866.000000	0.002897
865.000000	0.002863
864.000000	0.002854
863.000000	0.002873
862.000000	0.002906
861.000000	0.002948
860.000000	0.003009
859.000000	0.003096
858.000000	0.003196
857.000000	0.003288
856.000000	0.003354
855.000000	0.003393
854.000000	0.003418
853.000000	0.003449
852.000000	0.003500
851.000000	0.003569
850.000000	0.003642
849.000000	0.003709
848.000000	0.003763
847.000000	0.003802
846.000000	0.003832
845.000000	0.003861
844.000000	0.003896
843.000000	0.003936
842.000000	0.003989
841.000000	0.004077
840.000000	0.004221
839.000000	0.004406
838.000000	0.004589
837.000000	0.004724
836.000000	0.004798
835.000000	0.004831
834.000000	0.004850
833.000000	0.004868
832.000000	0.004873
831.000000	0.004846
830.000000	0.004784
829.000000	0.004711
828.000000	0.004656
827.000000	0.004623
826.000000	0.004589
825.000000	0.004525
824.000000	0.004423
823.000000	0.004294
822.000000	0.004164
821.000000	0.004051
820.000000	0.003958
819.000000	0.003870
818.000000	0.003781
817.000000	0.003690
816.000000	0.003605
815.000000	0.003534
814.000000	0.003483
813.000000	0.003455
812.000000	0.003433
811.000000	0.003383
810.000000	0.003289
809.000000	0.003163
808.000000	0.003037
807.000000	0.002937
806.000000	0.002878
805.000000	0.002858
804.000000	0.002857
803.000000	0.002846
802.000000	0.002828
801.000000	0.002839
800.000000	0.002907
799.000000	0.003007
798.000000	0.003081
797.000000	0.003099
796.000000	0.003076
795.000000	0.003039
794.000000	0.002996
793.000000	0.002946
792.000000	0.002892
791.000000	0.002854
790.000000	0.002854
789.000000	0.002905
788.000000	0.002980
787.000000	0.003033
786.000000	0.003033
785.000000	0.003005
784.000000	0.002992
783.000000	0.003003
782.000000	0.003008
781.000000	0.002983
780.000000	0.002948
779.000000	0.002932
778.000000	0.002946
777.000000	0.002981
776.000000	0.003030
775.000000	0.003089
774.000000	0.003146
773.000000	0.003179
772.000000	0.003172
771.000000	0.003140
770.000000	0.003113
769.000000	0.003104
768.000000	0.003094
767.000000	0.003053
766.000000	0.002980
765.000000	0.002908
764.000000	0.002870
763.000000	0.002871
762.000000	0.002897
761.000000	0.002937
760.000000	0.002984
759.000000	0.003030
758.000000	0.003072
757.000000	0.003127
756.000000	0.003207
755.000000	0.003306
754.000000	0.003399
753.000000	0.003465
752.000000	0.003499
751.000000	0.003510
750.000000	0.003513
749.000000	0.003527
748.000000	0.003554
747.000000	0.003580
746.000000	0.003593
745.000000	0.003599
744.000000	0.003598
743.000000	0.003569
742.000000	0.003498
741.000000	0.003410
740.000000	0.003353
739.000000	0.003341
738.000000	0.003337
737.000000	0.003307
736.000000	0.003265
735.000000	0.003254
734.000000	0.003294
733.000000	0.003369
732.000000	0.003456
731.000000	0.003545
730.000000	0.003630
729.000000	0.003700
728.000000	0.003745
727.000000	0.003776
726.000000	0.003819
725.000000	0.003879
724.000000	0.003936
723.000000	0.003981
722.000000	0.004039
721.000000	0.004150
720.000000	0.004309
719.000000	0.004460
718.000000	0.004558
717.000000	0.004610
716.000000	0.004661
715.000000	0.004741
714.000000	0.004850
713.000000	0.004969
712.000000	0.005081
711.000000	0.005185
710.000000	0.005303
709.000000	0.005458
708.000000	0.005631
707.000000	0.005761
706.000000	0.005801
705.000000	0.005770
704.000000	0.005727
703.000000	0.005712
702.000000	0.005730
701.000000	0.005774
700.000000	0.005836
699.000000	0.005896
698.000000	0.005933
697.000000	0.005952
696.000000	0.005970
695.000000	0.005992
694.000000	0.006002
693.000000	0.006000
692.000000	0.006007
691.000000	0.006023
690.000000	0.006013
689.000000	0.005958
688.000000	0.005896
687.000000	0.005886
686.000000	0.005934
685.000000	0.005990
684.000000	0.006020
683.000000	0.006041
682.000000	0.006082
681.000000	0.006134
680.000000	0.006170
679.000000	0.006187
678.000000	0.006215
677.000000	0.006289
676.000000	0.006417
675.000000	0.006576
674.000000	0.006729
673.000000	0.006840
672.000000	0.006879
671.000000	0.006840
670.000000	0.006756
669.000000	0.006702
668.000000	0.006735
667.000000	0.006851
666.000000	0.006976
665.000000	0.007046
664.000000	0.007043
663.000000	0.006996
662.000000	0.006955
661.000000	0.006956
660.000000	0.007000
659.000000	0.007074
658.000000	0.007159
657.000000	0.007227
656.000000	0.007257
655.000000	0.007255
654.000000	0.007271
653.000000	0.007334
652.000000	0.007407
651.000000	0.007426
650.000000	0.007378
649.000000	0.007298
648.000000	0.007212
647.000000	0.007131
646.000000	0.007087
645.000000	0.007106
644.000000	0.007157
643.000000	0.007173
642.000000	0.007136
641.000000	0.007092
640.000000	0.007076
639.000000	0.007067
638.000000	0.007042
637.000000	0.007019
636.000000	0.007017
635.000000	0.007021
634.000000	0.007004
633.000000	0.006959
632.000000	0.006896
631.000000	0.006837
630.000000	0.006812
629.000000	0.006827
628.000000	0.006833
627.000000	0.006788
626.000000	0.006722
625.000000	0.006708
624.000000	0.006752
623.000000	0.006790
622.000000	0.006803
621.000000	0.006854
620.000000	0.006987
619.000000	0.007140
618.000000	0.007220
617.000000	0.007206
616.000000	0.007145
615.000000	0.007088
614.000000	0.007067
613.000000	0.007099
612.000000	0.007160
611.000000	0.007187
610.000000	0.007151
609.000000	0.007091
608.000000	0.007050
607.000000	0.007029
606.000000	0.007016
605.000000	0.007034
604.000000	0.007095
603.000000	0.007164
602.000000	0.007208
601.000000	0.007255
600.000000	0.007331
599.000000	0.007401
598.000000	0.007406
597.000000	0.007348
596.000000	0.007274
595.000000	0.007204
594.000000	0.007126
593.000000	0.007046
592.000000	0.007000
591.000000	0.007007
590.000000	0.007047
589.000000	0.007088
588.000000	0.007101
587.000000	0.007069
586.000000	0.007011
585.000000	0.006977
584.000000	0.006987
583.000000	0.007007
582.000000	0.007007
581.000000	0.007018
580.000000	0.007093
579.000000	0.007234
578.000000	0.007382
577.000000	0.007464
576.000000	0.007428
575.000000	0.007294
574.000000	0.007174
573.000000	0.007201
572.000000	0.007401
571.000000	0.007671
570.000000	0.007891
569.000000	0.008034
568.000000	0.008134
567.000000	0.008205
566.000000	0.008253
565.000000	0.008312
564.000000	0.008411
563.000000	0.008537
562.000000	0.008677
561.000000	0.008847
560.000000	0.009031
559.000000	0.009139
558.000000	0.009108
557.000000	0.008996
556.000000	0.008926
555.000000	0.008958
554.000000	0.009061
553.000000	0.009162
552.000000	0.009179
551.000000	0.009046
550.000000	0.008780
549.000000	0.008502
548.000000	0.008329
547.000000	0.008274
546.000000	0.008267
545.000000	0.008221
544.000000	0.008065
543.000000	0.007793
542.000000	0.007516
541.000000	0.007403
540.000000	0.007500
539.000000	0.007681
538.000000	0.007820
537.000000	0.007923
536.000000	0.008032
535.000000	0.008092
534.000000	0.008039
533.000000	0.007944
532.000000	0.007946
531.000000	0.008083
530.000000	0.008263
529.000000	0.008394
528.000000	0.008444
527.000000	0.008418
526.000000	0.008340
525.000000	0.008267
524.000000	0.008217
523.000000	0.008133
522.000000	0.007964
521.000000	0.007744
520.000000	0.007533
519.000000	0.007346
518.000000	0.007182
517.000000	0.007081
516.000000	0.007064
515.000000	0.007059
514.000000	0.006972
513.000000	0.006783
512.000000	0.006533
511.000000	0.006271
510.000000	0.006054
509.000000	0.005944
508.000000	0.005937
507.000000	0.005935
506.000000	0.005876
505.000000	0.005814
504.000000	0.005828
503.000000	0.005894
502.000000	0.005926
501.000000	0.005892
500.000000	0.005825
499.000000	0.005748
498.000000	0.005685
497.000000	0.005683
496.000000	0.005750
495.000000	0.005802
494.000000	0.005734
493.000000	0.005498
492.000000	0.005134
491.000000	0.004755
490.000000	0.004536
489.000000	0.004589
488.000000	0.004812
487.000000	0.004952
486.000000	0.004875
485.000000	0.004679
484.000000	0.004508
483.000000	0.004368
482.000000	0.004224
481.000000	0.004144
480.000000	0.004182
479.000000	0.004251
478.000000	0.004247
477.000000	0.004179
476.000000	0.004073
475.000000	0.003874
474.000000	0.003580
473.000000	0.003383
472.000000	0.003449
471.000000	0.003646
470.000000	0.003741
469.000000	0.003725
468.000000	0.003720
467.000000	0.003711
466.000000	0.003581
465.000000	0.003318
464.000000	0.003005
463.000000	0.002689
462.000000	0.002435
461.000000	0.002394
460.000000	0.002617
459.000000	0.002904
458.000000	0.003014
457.000000	0.003008
456.000000	0.003096
455.000000	0.003213
454.000000	0.003123
453.000000	0.002775
452.000000	0.002309
451.000000	0.001828
450.000000	0.001407
