PE IR       SUBTECH     SPECTRUM    ASCII       PEDS        4.00        
   -1
3S-H10-F006_1.ASC
22/02/18
10:41:10.00
22/02/18
11:02:52.00
uco
Sample 006 By uco Date Friday, February 18 2022
450.000000
#HDR
-1
-1
#GR
cm-1
A
1.0
0.0
4000.000000
-1.000000
3551
8
0.047744
0.001840
#DATA
4000.000000	0.002974
3999.000000	0.002984
3998.000000	0.002994
3997.000000	0.003012
3996.000000	0.003030
3995.000000	0.003040
3994.000000	0.003037
3993.000000	0.003017
3992.000000	0.002985
3991.000000	0.002958
3990.000000	0.002950
3989.000000	0.002964
3988.000000	0.002992
3987.000000	0.003018
3986.000000	0.003034
3985.000000	0.003042
3984.000000	0.003046
3983.000000	0.003050
3982.000000	0.003053
3981.000000	0.003051
3980.000000	0.003042
3979.000000	0.003027
3978.000000	0.003014
3977.000000	0.003013
3976.000000	0.003033
3975.000000	0.003069
3974.000000	0.003106
3973.000000	0.003126
3972.000000	0.003123
3971.000000	0.003106
3970.000000	0.003086
3969.000000	0.003072
3968.000000	0.003061
3967.000000	0.003052
3966.000000	0.003048
3965.000000	0.003052
3964.000000	0.003062
3963.000000	0.003070
3962.000000	0.003070
3961.000000	0.003063
3960.000000	0.003056
3959.000000	0.003059
3958.000000	0.003075
3957.000000	0.003104
3956.000000	0.003137
3955.000000	0.003166
3954.000000	0.003188
3953.000000	0.003205
3952.000000	0.003217
3951.000000	0.003223
3950.000000	0.003218
3949.000000	0.003203
3948.000000	0.003181
3947.000000	0.003161
3946.000000	0.003146
3945.000000	0.003135
3944.000000	0.003122
3943.000000	0.003108
3942.000000	0.003097
3941.000000	0.003096
3940.000000	0.003106
3939.000000	0.003122
3938.000000	0.003134
3937.000000	0.003139
3936.000000	0.003138
3935.000000	0.003132
3934.000000	0.003124
3933.000000	0.003111
3932.000000	0.003097
3931.000000	0.003089
3930.000000	0.003091
3929.000000	0.003103
3928.000000	0.003123
3927.000000	0.003140
3926.000000	0.003143
3925.000000	0.003124
3924.000000	0.003091
3923.000000	0.003058
3922.000000	0.003037
3921.000000	0.003028
3920.000000	0.003028
3919.000000	0.003035
3918.000000	0.003052
3917.000000	0.003083
3916.000000	0.003122
3915.000000	0.003159
3914.000000	0.003182
3913.000000	0.003185
3912.000000	0.003166
3911.000000	0.003135
3910.000000	0.003099
3909.000000	0.003063
3908.000000	0.003033
3907.000000	0.003015
3906.000000	0.003015
3905.000000	0.003035
3904.000000	0.003062
3903.000000	0.003086
3902.000000	0.003101
3901.000000	0.003111
3900.000000	0.003122
3899.000000	0.003134
3898.000000	0.003148
3897.000000	0.003163
3896.000000	0.003176
3895.000000	0.003181
3894.000000	0.003174
3893.000000	0.003159
3892.000000	0.003142
3891.000000	0.003125
3890.000000	0.003114
3889.000000	0.003111
3888.000000	0.003120
3887.000000	0.003138
3886.000000	0.003156
3885.000000	0.003162
3884.000000	0.003157
3883.000000	0.003146
3882.000000	0.003134
3881.000000	0.003122
3880.000000	0.003111
3879.000000	0.003107
3878.000000	0.003119
3877.000000	0.003145
3876.000000	0.003170
3875.000000	0.003175
3874.000000	0.003151
3873.000000	0.003116
3872.000000	0.003092
3871.000000	0.003086
3870.000000	0.003087
3869.000000	0.003085
3868.000000	0.003081
3867.000000	0.003078
3866.000000	0.003074
3865.000000	0.003071
3864.000000	0.003070
3863.000000	0.003068
3862.000000	0.003060
3861.000000	0.003048
3860.000000	0.003043
3859.000000	0.003048
3858.000000	0.003060
3857.000000	0.003072
3856.000000	0.003078
3855.000000	0.003069
3854.000000	0.003044
3853.000000	0.003024
3852.000000	0.003036
3851.000000	0.003078
3850.000000	0.003125
3849.000000	0.003158
3848.000000	0.003174
3847.000000	0.003180
3846.000000	0.003179
3845.000000	0.003173
3844.000000	0.003156
3843.000000	0.003124
3842.000000	0.003084
3841.000000	0.003044
3840.000000	0.003013
3839.000000	0.002999
3838.000000	0.003006
3837.000000	0.003031
3836.000000	0.003064
3835.000000	0.003095
3834.000000	0.003118
3833.000000	0.003129
3832.000000	0.003128
3831.000000	0.003117
3830.000000	0.003103
3829.000000	0.003095
3828.000000	0.003091
3827.000000	0.003082
3826.000000	0.003061
3825.000000	0.003031
3824.000000	0.003007
3823.000000	0.003003
3822.000000	0.003017
3821.000000	0.003035
3820.000000	0.003046
3819.000000	0.003053
3818.000000	0.003065
3817.000000	0.003083
3816.000000	0.003103
3815.000000	0.003130
3814.000000	0.003168
3813.000000	0.003207
3812.000000	0.003234
3811.000000	0.003242
3810.000000	0.003235
3809.000000	0.003216
3808.000000	0.003182
3807.000000	0.003125
3806.000000	0.003057
3805.000000	0.003004
3804.000000	0.002984
3803.000000	0.002997
3802.000000	0.003024
3801.000000	0.003049
3800.000000	0.003072
3799.000000	0.003104
3798.000000	0.003142
3797.000000	0.003169
3796.000000	0.003172
3795.000000	0.003154
3794.000000	0.003132
3793.000000	0.003121
3792.000000	0.003127
3791.000000	0.003139
3790.000000	0.003141
3789.000000	0.003123
3788.000000	0.003090
3787.000000	0.003063
3786.000000	0.003060
3785.000000	0.003083
3784.000000	0.003116
3783.000000	0.003141
3782.000000	0.003153
3781.000000	0.003161
3780.000000	0.003176
3779.000000	0.003201
3778.000000	0.003225
3777.000000	0.003233
3776.000000	0.003220
3775.000000	0.003193
3774.000000	0.003163
3773.000000	0.003145
3772.000000	0.003139
3771.000000	0.003140
3770.000000	0.003140
3769.000000	0.003136
3768.000000	0.003136
3767.000000	0.003142
3766.000000	0.003150
3765.000000	0.003152
3764.000000	0.003144
3763.000000	0.003126
3762.000000	0.003098
3761.000000	0.003061
3760.000000	0.003025
3759.000000	0.003002
3758.000000	0.002992
3757.000000	0.002986
3756.000000	0.002973
3755.000000	0.002955
3754.000000	0.002940
3753.000000	0.002943
3752.000000	0.002975
3751.000000	0.003026
3750.000000	0.003064
3749.000000	0.003071
3748.000000	0.003065
3747.000000	0.003072
3746.000000	0.003100
3745.000000	0.003122
3744.000000	0.003113
3743.000000	0.003088
3742.000000	0.003073
3741.000000	0.003066
3740.000000	0.003059
3739.000000	0.003050
3738.000000	0.003040
3737.000000	0.003028
3736.000000	0.003010
3735.000000	0.002995
3734.000000	0.002996
3733.000000	0.003011
3732.000000	0.003028
3731.000000	0.003038
3730.000000	0.003045
3729.000000	0.003058
3728.000000	0.003081
3727.000000	0.003113
3726.000000	0.003149
3725.000000	0.003180
3724.000000	0.003192
3723.000000	0.003179
3722.000000	0.003149
3721.000000	0.003122
3720.000000	0.003111
3719.000000	0.003116
3718.000000	0.003123
3717.000000	0.003116
3716.000000	0.003095
3715.000000	0.003070
3714.000000	0.003053
3713.000000	0.003048
3712.000000	0.003050
3711.000000	0.003055
3710.000000	0.003066
3709.000000	0.003085
3708.000000	0.003110
3707.000000	0.003130
3706.000000	0.003137
3705.000000	0.003132
3704.000000	0.003129
3703.000000	0.003145
3702.000000	0.003186
3701.000000	0.003234
3700.000000	0.003264
3699.000000	0.003267
3698.000000	0.003251
3697.000000	0.003227
3696.000000	0.003205
3695.000000	0.003184
3694.000000	0.003163
3693.000000	0.003139
3692.000000	0.003117
3691.000000	0.003105
3690.000000	0.003105
3689.000000	0.003111
3688.000000	0.003115
3687.000000	0.003122
3686.000000	0.003138
3685.000000	0.003161
3684.000000	0.003184
3683.000000	0.003202
3682.000000	0.003214
3681.000000	0.003221
3680.000000	0.003225
3679.000000	0.003231
3678.000000	0.003247
3677.000000	0.003275
3676.000000	0.003297
3675.000000	0.003298
3674.000000	0.003283
3673.000000	0.003270
3672.000000	0.003277
3671.000000	0.003305
3670.000000	0.003342
3669.000000	0.003374
3668.000000	0.003403
3667.000000	0.003442
3666.000000	0.003499
3665.000000	0.003566
3664.000000	0.003622
3663.000000	0.003659
3662.000000	0.003679
3661.000000	0.003688
3660.000000	0.003687
3659.000000	0.003673
3658.000000	0.003649
3657.000000	0.003628
3656.000000	0.003623
3655.000000	0.003637
3654.000000	0.003666
3653.000000	0.003701
3652.000000	0.003737
3651.000000	0.003777
3650.000000	0.003830
3649.000000	0.003894
3648.000000	0.003953
3647.000000	0.004002
3646.000000	0.004044
3645.000000	0.004087
3644.000000	0.004132
3643.000000	0.004176
3642.000000	0.004218
3641.000000	0.004256
3640.000000	0.004289
3639.000000	0.004318
3638.000000	0.004347
3637.000000	0.004381
3636.000000	0.004416
3635.000000	0.004442
3634.000000	0.004453
3633.000000	0.004461
3632.000000	0.004485
3631.000000	0.004540
3630.000000	0.004619
3629.000000	0.004693
3628.000000	0.004735
3627.000000	0.004752
3626.000000	0.004766
3625.000000	0.004791
3624.000000	0.004825
3623.000000	0.004860
3622.000000	0.004892
3621.000000	0.004922
3620.000000	0.004959
3619.000000	0.005002
3618.000000	0.005042
3617.000000	0.005069
3616.000000	0.005087
3615.000000	0.005103
3614.000000	0.005128
3613.000000	0.005163
3612.000000	0.005209
3611.000000	0.005268
3610.000000	0.005342
3609.000000	0.005425
3608.000000	0.005503
3607.000000	0.005569
3606.000000	0.005623
3605.000000	0.005675
3604.000000	0.005733
3603.000000	0.005796
3602.000000	0.005858
3601.000000	0.005906
3600.000000	0.005937
3599.000000	0.005956
3598.000000	0.005976
3597.000000	0.006007
3596.000000	0.006049
3595.000000	0.006099
3594.000000	0.006154
3593.000000	0.006210
3592.000000	0.006263
3591.000000	0.006307
3590.000000	0.006348
3589.000000	0.006402
3588.000000	0.006481
3587.000000	0.006582
3586.000000	0.006685
3585.000000	0.006772
3584.000000	0.006833
3583.000000	0.006871
3582.000000	0.006899
3581.000000	0.006930
3580.000000	0.006973
3579.000000	0.007027
3578.000000	0.007086
3577.000000	0.007148
3576.000000	0.007212
3575.000000	0.007279
3574.000000	0.007345
3573.000000	0.007409
3572.000000	0.007470
3571.000000	0.007526
3570.000000	0.007582
3569.000000	0.007640
3568.000000	0.007711
3567.000000	0.007799
3566.000000	0.007895
3565.000000	0.007988
3564.000000	0.008065
3563.000000	0.008129
3562.000000	0.008187
3561.000000	0.008244
3560.000000	0.008303
3559.000000	0.008367
3558.000000	0.008439
3557.000000	0.008520
3556.000000	0.008602
3555.000000	0.008676
3554.000000	0.008736
3553.000000	0.008786
3552.000000	0.008835
3551.000000	0.008889
3550.000000	0.008952
3549.000000	0.009023
3548.000000	0.009096
3547.000000	0.009166
3546.000000	0.009228
3545.000000	0.009285
3544.000000	0.009341
3543.000000	0.009397
3542.000000	0.009452
3541.000000	0.009505
3540.000000	0.009563
3539.000000	0.009631
3538.000000	0.009704
3537.000000	0.009769
3536.000000	0.009819
3535.000000	0.009865
3534.000000	0.009916
3533.000000	0.009975
3532.000000	0.010030
3531.000000	0.010075
3530.000000	0.010117
3529.000000	0.010172
3528.000000	0.010248
3527.000000	0.010343
3526.000000	0.010442
3525.000000	0.010532
3524.000000	0.010602
3523.000000	0.010655
3522.000000	0.010702
3521.000000	0.010752
3520.000000	0.010810
3519.000000	0.010873
3518.000000	0.010939
3517.000000	0.010998
3516.000000	0.011037
3515.000000	0.011054
3514.000000	0.011065
3513.000000	0.011097
3512.000000	0.011168
3511.000000	0.011272
3510.000000	0.011385
3509.000000	0.011475
3508.000000	0.011523
3507.000000	0.011536
3506.000000	0.011541
3505.000000	0.011569
3504.000000	0.011633
3503.000000	0.011726
3502.000000	0.011821
3501.000000	0.011897
3500.000000	0.011944
3499.000000	0.011977
3498.000000	0.012012
3497.000000	0.012061
3496.000000	0.012119
3495.000000	0.012179
3494.000000	0.012243
3493.000000	0.012312
3492.000000	0.012382
3491.000000	0.012441
3490.000000	0.012483
3489.000000	0.012513
3488.000000	0.012540
3487.000000	0.012571
3486.000000	0.012609
3485.000000	0.012652
3484.000000	0.012697
3483.000000	0.012737
3482.000000	0.012772
3481.000000	0.012804
3480.000000	0.012841
3479.000000	0.012886
3478.000000	0.012935
3477.000000	0.012984
3476.000000	0.013033
3475.000000	0.013088
3474.000000	0.013150
3473.000000	0.013215
3472.000000	0.013275
3471.000000	0.013328
3470.000000	0.013378
3469.000000	0.013432
3468.000000	0.013486
3467.000000	0.013533
3466.000000	0.013566
3465.000000	0.013588
3464.000000	0.013607
3463.000000	0.013628
3462.000000	0.013654
3461.000000	0.013682
3460.000000	0.013715
3459.000000	0.013758
3458.000000	0.013818
3457.000000	0.013890
3456.000000	0.013963
3455.000000	0.014030
3454.000000	0.014095
3453.000000	0.014160
3452.000000	0.014225
3451.000000	0.014282
3450.000000	0.014330
3449.000000	0.014375
3448.000000	0.014427
3447.000000	0.014490
3446.000000	0.014559
3445.000000	0.014621
3444.000000	0.014667
3443.000000	0.014701
3442.000000	0.014739
3441.000000	0.014791
3440.000000	0.014847
3439.000000	0.014893
3438.000000	0.014931
3437.000000	0.014977
3436.000000	0.015041
3435.000000	0.015114
3434.000000	0.015178
3433.000000	0.015222
3432.000000	0.015250
3431.000000	0.015268
3430.000000	0.015283
3429.000000	0.015303
3428.000000	0.015338
3427.000000	0.015392
3426.000000	0.015456
3425.000000	0.015514
3424.000000	0.015552
3423.000000	0.015574
3422.000000	0.015598
3421.000000	0.015643
3420.000000	0.015711
3419.000000	0.015793
3418.000000	0.015875
3417.000000	0.015947
3416.000000	0.016002
3415.000000	0.016040
3414.000000	0.016068
3413.000000	0.016097
3412.000000	0.016137
3411.000000	0.016183
3410.000000	0.016229
3409.000000	0.016271
3408.000000	0.016312
3407.000000	0.016352
3406.000000	0.016387
3405.000000	0.016408
3404.000000	0.016416
3403.000000	0.016423
3402.000000	0.016456
3401.000000	0.016526
3400.000000	0.016625
3399.000000	0.016723
3398.000000	0.016793
3397.000000	0.016831
3396.000000	0.016853
3395.000000	0.016875
3394.000000	0.016904
3393.000000	0.016935
3392.000000	0.016967
3391.000000	0.017000
3390.000000	0.017043
3389.000000	0.017097
3388.000000	0.017161
3387.000000	0.017230
3386.000000	0.017297
3385.000000	0.017357
3384.000000	0.017408
3383.000000	0.017451
3382.000000	0.017488
3381.000000	0.017524
3380.000000	0.017561
3379.000000	0.017607
3378.000000	0.017667
3377.000000	0.017734
3376.000000	0.017798
3375.000000	0.017854
3374.000000	0.017907
3373.000000	0.017969
3372.000000	0.018040
3371.000000	0.018108
3370.000000	0.018161
3369.000000	0.018198
3368.000000	0.018226
3367.000000	0.018262
3366.000000	0.018315
3365.000000	0.018388
3364.000000	0.018477
3363.000000	0.018574
3362.000000	0.018677
3361.000000	0.018778
3360.000000	0.018869
3359.000000	0.018942
3358.000000	0.018997
3357.000000	0.019041
3356.000000	0.019086
3355.000000	0.019140
3354.000000	0.019208
3353.000000	0.019287
3352.000000	0.019375
3351.000000	0.019472
3350.000000	0.019572
3349.000000	0.019663
3348.000000	0.019733
3347.000000	0.019785
3346.000000	0.019836
3345.000000	0.019900
3344.000000	0.019982
3343.000000	0.020070
3342.000000	0.020156
3341.000000	0.020232
3340.000000	0.020299
3339.000000	0.020360
3338.000000	0.020424
3337.000000	0.020494
3336.000000	0.020561
3335.000000	0.020613
3334.000000	0.020651
3333.000000	0.020689
3332.000000	0.020740
3331.000000	0.020807
3330.000000	0.020885
3329.000000	0.020966
3328.000000	0.021042
3327.000000	0.021114
3326.000000	0.021184
3325.000000	0.021252
3324.000000	0.021311
3323.000000	0.021353
3322.000000	0.021379
3321.000000	0.021402
3320.000000	0.021432
3319.000000	0.021471
3318.000000	0.021517
3317.000000	0.021566
3316.000000	0.021620
3315.000000	0.021675
3314.000000	0.021727
3313.000000	0.021771
3312.000000	0.021808
3311.000000	0.021838
3310.000000	0.021864
3309.000000	0.021887
3308.000000	0.021914
3307.000000	0.021949
3306.000000	0.021992
3305.000000	0.022030
3304.000000	0.022052
3303.000000	0.022064
3302.000000	0.022081
3301.000000	0.022115
3300.000000	0.022160
3299.000000	0.022201
3298.000000	0.022233
3297.000000	0.022259
3296.000000	0.022285
3295.000000	0.022308
3294.000000	0.022314
3293.000000	0.022301
3292.000000	0.022279
3291.000000	0.022271
3290.000000	0.022287
3289.000000	0.022320
3288.000000	0.022348
3287.000000	0.022357
3286.000000	0.022349
3285.000000	0.022340
3284.000000	0.022342
3283.000000	0.022359
3282.000000	0.022376
3281.000000	0.022378
3280.000000	0.022353
3279.000000	0.022306
3278.000000	0.022250
3277.000000	0.022204
3276.000000	0.022175
3275.000000	0.022161
3274.000000	0.022148
3273.000000	0.022123
3272.000000	0.022081
3271.000000	0.022031
3270.000000	0.021987
3269.000000	0.021952
3268.000000	0.021924
3267.000000	0.021895
3266.000000	0.021863
3265.000000	0.021821
3264.000000	0.021768
3263.000000	0.021704
3262.000000	0.021640
3261.000000	0.021587
3260.000000	0.021547
3259.000000	0.021513
3258.000000	0.021474
3257.000000	0.021425
3256.000000	0.021364
3255.000000	0.021300
3254.000000	0.021241
3253.000000	0.021189
3252.000000	0.021137
3251.000000	0.021077
3250.000000	0.021014
3249.000000	0.020952
3248.000000	0.020892
3247.000000	0.020835
3246.000000	0.020783
3245.000000	0.020740
3244.000000	0.020701
3243.000000	0.020654
3242.000000	0.020588
3241.000000	0.020509
3240.000000	0.020434
3239.000000	0.020377
3238.000000	0.020341
3237.000000	0.020319
3236.000000	0.020293
3235.000000	0.020255
3234.000000	0.020208
3233.000000	0.020165
3232.000000	0.020135
3231.000000	0.020111
3230.000000	0.020080
3229.000000	0.020035
3228.000000	0.019984
3227.000000	0.019937
3226.000000	0.019903
3225.000000	0.019877
3224.000000	0.019851
3223.000000	0.019822
3222.000000	0.019792
3221.000000	0.019762
3220.000000	0.019728
3219.000000	0.019687
3218.000000	0.019644
3217.000000	0.019603
3216.000000	0.019564
3215.000000	0.019521
3214.000000	0.019472
3213.000000	0.019419
3212.000000	0.019362
3211.000000	0.019300
3210.000000	0.019235
3209.000000	0.019176
3208.000000	0.019131
3207.000000	0.019105
3206.000000	0.019088
3205.000000	0.019062
3204.000000	0.019015
3203.000000	0.018951
3202.000000	0.018886
3201.000000	0.018827
3200.000000	0.018763
3199.000000	0.018688
3198.000000	0.018609
3197.000000	0.018548
3196.000000	0.018511
3195.000000	0.018479
3194.000000	0.018433
3193.000000	0.018369
3192.000000	0.018306
3191.000000	0.018257
3190.000000	0.018223
3189.000000	0.018192
3188.000000	0.018148
3187.000000	0.018084
3186.000000	0.018001
3185.000000	0.017911
3184.000000	0.017826
3183.000000	0.017753
3182.000000	0.017695
3181.000000	0.017644
3180.000000	0.017588
3179.000000	0.017516
3178.000000	0.017428
3177.000000	0.017339
3176.000000	0.017265
3175.000000	0.017206
3174.000000	0.017150
3173.000000	0.017084
3172.000000	0.017005
3171.000000	0.016921
3170.000000	0.016842
3169.000000	0.016776
3168.000000	0.016727
3167.000000	0.016687
3166.000000	0.016647
3165.000000	0.016598
3164.000000	0.016540
3163.000000	0.016475
3162.000000	0.016407
3161.000000	0.016339
3160.000000	0.016275
3159.000000	0.016214
3158.000000	0.016161
3157.000000	0.016117
3156.000000	0.016079
3155.000000	0.016031
3154.000000	0.015959
3153.000000	0.015861
3152.000000	0.015753
3151.000000	0.015656
3150.000000	0.015585
3149.000000	0.015538
3148.000000	0.015507
3147.000000	0.015479
3146.000000	0.015442
3145.000000	0.015399
3144.000000	0.015359
3143.000000	0.015330
3142.000000	0.015307
3141.000000	0.015275
3140.000000	0.015224
3139.000000	0.015162
3138.000000	0.015101
3137.000000	0.015050
3136.000000	0.015008
3135.000000	0.014967
3134.000000	0.014922
3133.000000	0.014875
3132.000000	0.014833
3131.000000	0.014804
3130.000000	0.014789
3129.000000	0.014779
3128.000000	0.014760
3127.000000	0.014721
3126.000000	0.014667
3125.000000	0.014614
3124.000000	0.014580
3123.000000	0.014563
3122.000000	0.014545
3121.000000	0.014514
3120.000000	0.014476
3119.000000	0.014450
3118.000000	0.014447
3117.000000	0.014460
3116.000000	0.014472
3115.000000	0.014471
3114.000000	0.014455
3113.000000	0.014428
3112.000000	0.014397
3111.000000	0.014374
3110.000000	0.014362
3109.000000	0.014359
3108.000000	0.014363
3107.000000	0.014379
3106.000000	0.014412
3105.000000	0.014452
3104.000000	0.014478
3103.000000	0.014480
3102.000000	0.014469
3101.000000	0.014462
3100.000000	0.014462
3099.000000	0.014464
3098.000000	0.014464
3097.000000	0.014470
3096.000000	0.014487
3095.000000	0.014512
3094.000000	0.014535
3093.000000	0.014551
3092.000000	0.014566
3091.000000	0.014583
3090.000000	0.014601
3089.000000	0.014614
3088.000000	0.014619
3087.000000	0.014618
3086.000000	0.014622
3085.000000	0.014636
3084.000000	0.014659
3083.000000	0.014683
3082.000000	0.014707
3081.000000	0.014732
3080.000000	0.014757
3079.000000	0.014772
3078.000000	0.014769
3077.000000	0.014749
3076.000000	0.014724
3075.000000	0.014707
3074.000000	0.014701
3073.000000	0.014703
3072.000000	0.014706
3071.000000	0.014704
3070.000000	0.014695
3069.000000	0.014682
3068.000000	0.014665
3067.000000	0.014645
3066.000000	0.014621
3065.000000	0.014597
3064.000000	0.014575
3063.000000	0.014554
3062.000000	0.014525
3061.000000	0.014479
3060.000000	0.014416
3059.000000	0.014347
3058.000000	0.014283
3057.000000	0.014223
3056.000000	0.014161
3055.000000	0.014090
3054.000000	0.014017
3053.000000	0.013956
3052.000000	0.013914
3051.000000	0.013883
3050.000000	0.013845
3049.000000	0.013787
3048.000000	0.013714
3047.000000	0.013642
3046.000000	0.013583
3045.000000	0.013530
3044.000000	0.013471
3043.000000	0.013407
3042.000000	0.013353
3041.000000	0.013320
3040.000000	0.013299
3039.000000	0.013271
3038.000000	0.013218
3037.000000	0.013135
3036.000000	0.013036
3035.000000	0.012941
3034.000000	0.012871
3033.000000	0.012827
3032.000000	0.012795
3031.000000	0.012760
3030.000000	0.012723
3029.000000	0.012690
3028.000000	0.012662
3027.000000	0.012624
3026.000000	0.012568
3025.000000	0.012500
3024.000000	0.012436
3023.000000	0.012388
3022.000000	0.012353
3021.000000	0.012324
3020.000000	0.012289
3019.000000	0.012243
3018.000000	0.012196
3017.000000	0.012159
3016.000000	0.012136
3015.000000	0.012123
3014.000000	0.012115
3013.000000	0.012120
3012.000000	0.012143
3011.000000	0.012175
3010.000000	0.012201
3009.000000	0.012214
3008.000000	0.012220
3007.000000	0.012227
3006.000000	0.012237
3005.000000	0.012240
3004.000000	0.012232
3003.000000	0.012217
3002.000000	0.012202
3001.000000	0.012190
3000.000000	0.012176
2999.000000	0.012158
2998.000000	0.012136
2997.000000	0.012116
2996.000000	0.012105
2995.000000	0.012111
2994.000000	0.012135
2993.000000	0.012169
2992.000000	0.012201
2991.000000	0.012227
2990.000000	0.012253
2989.000000	0.012293
2988.000000	0.012354
2987.000000	0.012436
2986.000000	0.012537
2985.000000	0.012647
2984.000000	0.012754
2983.000000	0.012857
2982.000000	0.012961
2981.000000	0.013072
2980.000000	0.013183
2979.000000	0.013281
2978.000000	0.013368
2977.000000	0.013460
2976.000000	0.013567
2975.000000	0.013682
2974.000000	0.013789
2973.000000	0.013886
2972.000000	0.013988
2971.000000	0.014110
2970.000000	0.014254
2969.000000	0.014413
2968.000000	0.014576
2967.000000	0.014741
2966.000000	0.014908
2965.000000	0.015076
2964.000000	0.015239
2963.000000	0.015387
2962.000000	0.015516
2961.000000	0.015630
2960.000000	0.015739
2959.000000	0.015851
2958.000000	0.015965
2957.000000	0.016070
2956.000000	0.016152
2955.000000	0.016207
2954.000000	0.016236
2953.000000	0.016250
2952.000000	0.016257
2951.000000	0.016259
2950.000000	0.016259
2949.000000	0.016259
2948.000000	0.016262
2947.000000	0.016271
2946.000000	0.016287
2945.000000	0.016315
2944.000000	0.016365
2943.000000	0.016454
2942.000000	0.016593
2941.000000	0.016777
2940.000000	0.016985
2939.000000	0.017197
2938.000000	0.017406
2937.000000	0.017619
2936.000000	0.017839
2935.000000	0.018067
2934.000000	0.018304
2933.000000	0.018554
2932.000000	0.018820
2931.000000	0.019105
2930.000000	0.019411
2929.000000	0.019735
2928.000000	0.020069
2927.000000	0.020406
2926.000000	0.020742
2925.000000	0.021085
2924.000000	0.021437
2923.000000	0.021792
2922.000000	0.022127
2921.000000	0.022414
2920.000000	0.022629
2919.000000	0.022757
2918.000000	0.022789
2917.000000	0.022718
2916.000000	0.022547
2915.000000	0.022289
2914.000000	0.021968
2913.000000	0.021614
2912.000000	0.021253
2911.000000	0.020901
2910.000000	0.020570
2909.000000	0.020260
2908.000000	0.019968
2907.000000	0.019688
2906.000000	0.019425
2905.000000	0.019189
2904.000000	0.018982
2903.000000	0.018792
2902.000000	0.018608
2901.000000	0.018424
2900.000000	0.018245
2899.000000	0.018069
2898.000000	0.017891
2897.000000	0.017709
2896.000000	0.017533
2895.000000	0.017374
2894.000000	0.017233
2893.000000	0.017097
2892.000000	0.016953
2891.000000	0.016803
2890.000000	0.016657
2889.000000	0.016526
2888.000000	0.016410
2887.000000	0.016301
2886.000000	0.016192
2885.000000	0.016083
2884.000000	0.015979
2883.000000	0.015881
2882.000000	0.015794
2881.000000	0.015725
2880.000000	0.015679
2879.000000	0.015657
2878.000000	0.015647
2877.000000	0.015643
2876.000000	0.015645
2875.000000	0.015656
2874.000000	0.015680
2873.000000	0.015714
2872.000000	0.015749
2871.000000	0.015771
2870.000000	0.015766
2869.000000	0.015732
2868.000000	0.015674
2867.000000	0.015611
2866.000000	0.015558
2865.000000	0.015530
2864.000000	0.015539
2863.000000	0.015597
2862.000000	0.015710
2861.000000	0.015880
2860.000000	0.016104
2859.000000	0.016382
2858.000000	0.016707
2857.000000	0.017066
2856.000000	0.017443
2855.000000	0.017824
2854.000000	0.018193
2853.000000	0.018529
2852.000000	0.018792
2851.000000	0.018935
2850.000000	0.018919
2849.000000	0.018735
2848.000000	0.018406
2847.000000	0.017973
2846.000000	0.017482
2845.000000	0.016964
2844.000000	0.016447
2843.000000	0.015955
2842.000000	0.015504
2841.000000	0.015102
2840.000000	0.014741
2839.000000	0.014411
2838.000000	0.014106
2837.000000	0.013827
2836.000000	0.013581
2835.000000	0.013375
2834.000000	0.013207
2833.000000	0.013063
2832.000000	0.012930
2831.000000	0.012802
2830.000000	0.012680
2829.000000	0.012564
2828.000000	0.012452
2827.000000	0.012343
2826.000000	0.012238
2825.000000	0.012132
2824.000000	0.012025
2823.000000	0.011921
2822.000000	0.011830
2821.000000	0.011752
2820.000000	0.011679
2819.000000	0.011599
2818.000000	0.011510
2817.000000	0.011419
2816.000000	0.011334
2815.000000	0.011259
2814.000000	0.011193
2813.000000	0.011131
2812.000000	0.011068
2811.000000	0.011005
2810.000000	0.010947
2809.000000	0.010897
2808.000000	0.010857
2807.000000	0.010826
2806.000000	0.010802
2805.000000	0.010777
2804.000000	0.010745
2803.000000	0.010708
2802.000000	0.010668
2801.000000	0.010630
2800.000000	0.010591
2799.000000	0.010551
2798.000000	0.010509
2797.000000	0.010467
2796.000000	0.010426
2795.000000	0.010386
2794.000000	0.010345
2793.000000	0.010303
2792.000000	0.010257
2791.000000	0.010212
2790.000000	0.010173
2789.000000	0.010143
2788.000000	0.010113
2787.000000	0.010073
2786.000000	0.010024
2785.000000	0.009973
2784.000000	0.009931
2783.000000	0.009897
2782.000000	0.009864
2781.000000	0.009828
2780.000000	0.009787
2779.000000	0.009750
2778.000000	0.009723
2777.000000	0.009706
2776.000000	0.009690
2775.000000	0.009672
2774.000000	0.009654
2773.000000	0.009638
2772.000000	0.009620
2771.000000	0.009590
2770.000000	0.009554
2769.000000	0.009521
2768.000000	0.009499
2767.000000	0.009482
2766.000000	0.009461
2765.000000	0.009431
2764.000000	0.009400
2763.000000	0.009374
2762.000000	0.009359
2761.000000	0.009351
2760.000000	0.009340
2759.000000	0.009325
2758.000000	0.009309
2757.000000	0.009298
2756.000000	0.009286
2755.000000	0.009264
2754.000000	0.009227
2753.000000	0.009181
2752.000000	0.009136
2751.000000	0.009100
2750.000000	0.009077
2749.000000	0.009065
2748.000000	0.009058
2747.000000	0.009047
2746.000000	0.009032
2745.000000	0.009015
2744.000000	0.008999
2743.000000	0.008981
2742.000000	0.008960
2741.000000	0.008941
2740.000000	0.008929
2739.000000	0.008921
2738.000000	0.008913
2737.000000	0.008899
2736.000000	0.008878
2735.000000	0.008853
2734.000000	0.008826
2733.000000	0.008804
2732.000000	0.008791
2731.000000	0.008789
2730.000000	0.008790
2729.000000	0.008785
2728.000000	0.008771
2727.000000	0.008750
2726.000000	0.008728
2725.000000	0.008706
2724.000000	0.008681
2723.000000	0.008649
2722.000000	0.008618
2721.000000	0.008595
2720.000000	0.008579
2719.000000	0.008560
2718.000000	0.008532
2717.000000	0.008495
2716.000000	0.008460
2715.000000	0.008436
2714.000000	0.008424
2713.000000	0.008420
2712.000000	0.008418
2711.000000	0.008409
2710.000000	0.008392
2709.000000	0.008367
2708.000000	0.008346
2707.000000	0.008338
2706.000000	0.008342
2705.000000	0.008345
2704.000000	0.008338
2703.000000	0.008321
2702.000000	0.008299
2701.000000	0.008279
2700.000000	0.008256
2699.000000	0.008229
2698.000000	0.008203
2697.000000	0.008184
2696.000000	0.008175
2695.000000	0.008174
2694.000000	0.008173
2693.000000	0.008168
2692.000000	0.008159
2691.000000	0.008148
2690.000000	0.008141
2689.000000	0.008141
2688.000000	0.008146
2687.000000	0.008152
2686.000000	0.008152
2685.000000	0.008145
2684.000000	0.008133
2683.000000	0.008127
2682.000000	0.008133
2681.000000	0.008146
2680.000000	0.008155
2679.000000	0.008146
2678.000000	0.008121
2677.000000	0.008093
2676.000000	0.008074
2675.000000	0.008066
2674.000000	0.008064
2673.000000	0.008059
2672.000000	0.008046
2671.000000	0.008024
2670.000000	0.008000
2669.000000	0.007981
2668.000000	0.007973
2667.000000	0.007975
2666.000000	0.007985
2665.000000	0.007997
2664.000000	0.008003
2663.000000	0.007998
2662.000000	0.007986
2661.000000	0.007973
2660.000000	0.007960
2659.000000	0.007945
2658.000000	0.007926
2657.000000	0.007910
2656.000000	0.007902
2655.000000	0.007899
2654.000000	0.007891
2653.000000	0.007872
2652.000000	0.007846
2651.000000	0.007817
2650.000000	0.007786
2649.000000	0.007749
2648.000000	0.007703
2647.000000	0.007658
2646.000000	0.007630
2645.000000	0.007620
2644.000000	0.007612
2643.000000	0.007591
2642.000000	0.007560
2641.000000	0.007532
2640.000000	0.007518
2639.000000	0.007510
2638.000000	0.007501
2637.000000	0.007488
2636.000000	0.007472
2635.000000	0.007452
2634.000000	0.007428
2633.000000	0.007402
2632.000000	0.007371
2631.000000	0.007334
2630.000000	0.007294
2629.000000	0.007262
2628.000000	0.007244
2627.000000	0.007234
2626.000000	0.007216
2625.000000	0.007188
2624.000000	0.007159
2623.000000	0.007143
2622.000000	0.007141
2621.000000	0.007137
2620.000000	0.007117
2619.000000	0.007079
2618.000000	0.007036
2617.000000	0.007007
2616.000000	0.006997
2615.000000	0.006996
2614.000000	0.006987
2613.000000	0.006960
2612.000000	0.006921
2611.000000	0.006887
2610.000000	0.006868
2609.000000	0.006858
2608.000000	0.006848
2607.000000	0.006840
2606.000000	0.006840
2605.000000	0.006845
2604.000000	0.006841
2603.000000	0.006816
2602.000000	0.006780
2601.000000	0.006757
2600.000000	0.006755
2599.000000	0.006759
2598.000000	0.006752
2597.000000	0.006733
2596.000000	0.006714
2595.000000	0.006702
2594.000000	0.006695
2593.000000	0.006681
2592.000000	0.006657
2591.000000	0.006627
2590.000000	0.006605
2589.000000	0.006601
2588.000000	0.006609
2587.000000	0.006615
2586.000000	0.006605
2585.000000	0.006573
2584.000000	0.006527
2583.000000	0.006481
2582.000000	0.006447
2581.000000	0.006429
2580.000000	0.006416
2579.000000	0.006399
2578.000000	0.006383
2577.000000	0.006375
2576.000000	0.006372
2575.000000	0.006365
2574.000000	0.006352
2573.000000	0.006346
2572.000000	0.006364
2571.000000	0.006398
2570.000000	0.006426
2569.000000	0.006431
2568.000000	0.006414
2567.000000	0.006397
2566.000000	0.006391
2565.000000	0.006392
2564.000000	0.006385
2563.000000	0.006368
2562.000000	0.006354
2561.000000	0.006355
2560.000000	0.006364
2559.000000	0.006358
2558.000000	0.006322
2557.000000	0.006260
2556.000000	0.006195
2555.000000	0.006155
2554.000000	0.006156
2553.000000	0.006185
2552.000000	0.006216
2551.000000	0.006227
2550.000000	0.006217
2549.000000	0.006199
2548.000000	0.006184
2547.000000	0.006178
2546.000000	0.006179
2545.000000	0.006183
2544.000000	0.006180
2543.000000	0.006161
2542.000000	0.006129
2541.000000	0.006096
2540.000000	0.006068
2539.000000	0.006049
2538.000000	0.006043
2537.000000	0.006057
2536.000000	0.006087
2535.000000	0.006120
2534.000000	0.006136
2533.000000	0.006126
2532.000000	0.006094
2531.000000	0.006058
2530.000000	0.006031
2529.000000	0.006013
2528.000000	0.006000
2527.000000	0.005996
2526.000000	0.006009
2525.000000	0.006034
2524.000000	0.006058
2523.000000	0.006067
2522.000000	0.006059
2521.000000	0.006039
2520.000000	0.006013
2519.000000	0.005989
2518.000000	0.005985
2517.000000	0.006007
2516.000000	0.006040
2515.000000	0.006061
2514.000000	0.006060
2513.000000	0.006043
2512.000000	0.006012
2511.000000	0.005969
2510.000000	0.005928
2509.000000	0.005913
2508.000000	0.005932
2507.000000	0.005968
2506.000000	0.005997
2505.000000	0.006006
2504.000000	0.005992
2503.000000	0.005958
2502.000000	0.005914
2501.000000	0.005869
2500.000000	0.005836
2499.000000	0.005825
2498.000000	0.005840
2497.000000	0.005869
2496.000000	0.005888
2495.000000	0.005881
2494.000000	0.005854
2493.000000	0.005830
2492.000000	0.005821
2491.000000	0.005831
2490.000000	0.005855
2489.000000	0.005878
2488.000000	0.005882
2487.000000	0.005858
2486.000000	0.005821
2485.000000	0.005799
2484.000000	0.005802
2483.000000	0.005816
2482.000000	0.005824
2481.000000	0.005820
2480.000000	0.005809
2479.000000	0.005795
2478.000000	0.005789
2477.000000	0.005802
2476.000000	0.005833
2475.000000	0.005867
2474.000000	0.005885
2473.000000	0.005878
2472.000000	0.005847
2471.000000	0.005799
2470.000000	0.005748
2469.000000	0.005711
2468.000000	0.005695
2467.000000	0.005691
2466.000000	0.005687
2465.000000	0.005680
2464.000000	0.005669
2463.000000	0.005663
2462.000000	0.005668
2461.000000	0.005691
2460.000000	0.005720
2459.000000	0.005733
2458.000000	0.005720
2457.000000	0.005694
2456.000000	0.005677
2455.000000	0.005679
2454.000000	0.005692
2453.000000	0.005702
2452.000000	0.005704
2451.000000	0.005705
2450.000000	0.005720
2449.000000	0.005751
2448.000000	0.005782
2447.000000	0.005791
2446.000000	0.005768
2445.000000	0.005723
2444.000000	0.005675
2443.000000	0.005630
2442.000000	0.005588
2441.000000	0.005554
2440.000000	0.005537
2439.000000	0.005546
2438.000000	0.005579
2437.000000	0.005628
2436.000000	0.005671
2435.000000	0.005689
2434.000000	0.005675
2433.000000	0.005634
2432.000000	0.005588
2431.000000	0.005552
2430.000000	0.005535
2429.000000	0.005533
2428.000000	0.005536
2427.000000	0.005542
2426.000000	0.005550
2425.000000	0.005556
2424.000000	0.005556
2423.000000	0.005553
2422.000000	0.005556
2421.000000	0.005568
2420.000000	0.005576
2419.000000	0.005565
2418.000000	0.005541
2417.000000	0.005525
2416.000000	0.005529
2415.000000	0.005542
2414.000000	0.005545
2413.000000	0.005530
2412.000000	0.005507
2411.000000	0.005487
2410.000000	0.005473
2409.000000	0.005462
2408.000000	0.005454
2407.000000	0.005452
2406.000000	0.005455
2405.000000	0.005451
2404.000000	0.005439
2403.000000	0.005437
2402.000000	0.005463
2401.000000	0.005508
2400.000000	0.005535
2399.000000	0.005525
2398.000000	0.005493
2397.000000	0.005465
2396.000000	0.005455
2395.000000	0.005460
2394.000000	0.005480
2393.000000	0.005511
2392.000000	0.005539
2391.000000	0.005548
2390.000000	0.005545
2389.000000	0.005544
2388.000000	0.005554
2387.000000	0.005570
2386.000000	0.005586
2385.000000	0.005602
2384.000000	0.005607
2383.000000	0.005596
2382.000000	0.005575
2381.000000	0.005560
2380.000000	0.005554
2379.000000	0.005550
2378.000000	0.005553
2377.000000	0.005572
2376.000000	0.005599
2375.000000	0.005603
2374.000000	0.005569
2373.000000	0.005523
2372.000000	0.005505
2371.000000	0.005533
2370.000000	0.005591
2369.000000	0.005656
2368.000000	0.005706
2367.000000	0.005724
2366.000000	0.005718
2365.000000	0.005711
2364.000000	0.005712
2363.000000	0.005698
2362.000000	0.005653
2361.000000	0.005598
2360.000000	0.005572
2359.000000	0.005581
2358.000000	0.005603
2357.000000	0.005627
2356.000000	0.005666
2355.000000	0.005728
2354.000000	0.005786
2353.000000	0.005806
2352.000000	0.005792
2351.000000	0.005777
2350.000000	0.005779
2349.000000	0.005794
2348.000000	0.005810
2347.000000	0.005818
2346.000000	0.005822
2345.000000	0.005835
2344.000000	0.005863
2343.000000	0.005891
2342.000000	0.005904
2341.000000	0.005894
2340.000000	0.005870
2339.000000	0.005842
2338.000000	0.005817
2337.000000	0.005796
2336.000000	0.005792
2335.000000	0.005813
2334.000000	0.005850
2333.000000	0.005880
2332.000000	0.005888
2331.000000	0.005884
2330.000000	0.005882
2329.000000	0.005896
2328.000000	0.005933
2327.000000	0.006001
2326.000000	0.006088
2325.000000	0.006154
2324.000000	0.006150
2323.000000	0.006066
2322.000000	0.005954
2321.000000	0.005876
2320.000000	0.005845
2319.000000	0.005826
2318.000000	0.005784
2317.000000	0.005725
2316.000000	0.005683
2315.000000	0.005687
2314.000000	0.005732
2313.000000	0.005790
2312.000000	0.005822
2311.000000	0.005815
2310.000000	0.005783
2309.000000	0.005746
2308.000000	0.005708
2307.000000	0.005660
2306.000000	0.005604
2305.000000	0.005561
2304.000000	0.005544
2303.000000	0.005554
2302.000000	0.005582
2301.000000	0.005620
2300.000000	0.005656
2299.000000	0.005675
2298.000000	0.005665
2297.000000	0.005631
2296.000000	0.005591
2295.000000	0.005565
2294.000000	0.005564
2293.000000	0.005589
2292.000000	0.005628
2291.000000	0.005661
2290.000000	0.005673
2289.000000	0.005665
2288.000000	0.005652
2287.000000	0.005648
2286.000000	0.005651
2285.000000	0.005639
2284.000000	0.005598
2283.000000	0.005540
2282.000000	0.005499
2281.000000	0.005491
2280.000000	0.005499
2279.000000	0.005501
2278.000000	0.005499
2277.000000	0.005502
2276.000000	0.005504
2275.000000	0.005485
2274.000000	0.005451
2273.000000	0.005424
2272.000000	0.005409
2271.000000	0.005385
2270.000000	0.005329
2269.000000	0.005248
2268.000000	0.005178
2267.000000	0.005163
2266.000000	0.005220
2265.000000	0.005311
2264.000000	0.005369
2263.000000	0.005356
2262.000000	0.005298
2261.000000	0.005249
2260.000000	0.005234
2259.000000	0.005243
2258.000000	0.005256
2257.000000	0.005266
2256.000000	0.005265
2255.000000	0.005253
2254.000000	0.005236
2253.000000	0.005228
2252.000000	0.005233
2251.000000	0.005251
2250.000000	0.005285
2249.000000	0.005318
2248.000000	0.005311
2247.000000	0.005250
2246.000000	0.005177
2245.000000	0.005138
2244.000000	0.005127
2243.000000	0.005107
2242.000000	0.005079
2241.000000	0.005082
2240.000000	0.005137
2239.000000	0.005222
2238.000000	0.005309
2237.000000	0.005374
2236.000000	0.005375
2235.000000	0.005281
2234.000000	0.005133
2233.000000	0.005032
2232.000000	0.005039
2231.000000	0.005106
2230.000000	0.005144
2229.000000	0.005114
2228.000000	0.005041
2227.000000	0.004965
2226.000000	0.004900
2225.000000	0.004835
2224.000000	0.004759
2223.000000	0.004695
2222.000000	0.004695
2221.000000	0.004778
2220.000000	0.004903
2219.000000	0.004999
2218.000000	0.005046
2217.000000	0.005061
2216.000000	0.005042
2215.000000	0.004967
2214.000000	0.004846
2213.000000	0.004738
2212.000000	0.004684
2211.000000	0.004681
2210.000000	0.004711
2209.000000	0.004774
2208.000000	0.004859
2207.000000	0.004929
2206.000000	0.004953
2205.000000	0.004925
2204.000000	0.004853
2203.000000	0.004750
2202.000000	0.004652
2201.000000	0.004600
2200.000000	0.004602
2199.000000	0.004634
2198.000000	0.004691
2197.000000	0.004786
2196.000000	0.004896
2195.000000	0.004963
2194.000000	0.004954
2193.000000	0.004894
2192.000000	0.004819
2191.000000	0.004735
2190.000000	0.004652
2189.000000	0.004619
2188.000000	0.004663
2187.000000	0.004731
2186.000000	0.004727
2185.000000	0.004620
2184.000000	0.004475
2183.000000	0.004392
2182.000000	0.004413
2181.000000	0.004493
2180.000000	0.004541
2179.000000	0.004515
2178.000000	0.004454
2177.000000	0.004425
2176.000000	0.004436
2175.000000	0.004432
2174.000000	0.004372
2173.000000	0.004291
2172.000000	0.004262
2171.000000	0.004317
2170.000000	0.004408
2169.000000	0.004439
2168.000000	0.004361
2167.000000	0.004252
2166.000000	0.004266
2165.000000	0.004476
2164.000000	0.004772
2163.000000	0.004950
2162.000000	0.004880
2161.000000	0.004559
2160.000000	0.004086
2159.000000	0.003632
2158.000000	0.003364
2157.000000	0.003304
2156.000000	0.003331
2155.000000	0.003360
2154.000000	0.003444
2153.000000	0.003628
2152.000000	0.003818
2151.000000	0.003875
2150.000000	0.003797
2149.000000	0.003722
2148.000000	0.003771
2147.000000	0.003951
2146.000000	0.004209
2145.000000	0.004475
2144.000000	0.004649
2143.000000	0.004650
2142.000000	0.004502
2141.000000	0.004340
2140.000000	0.004297
2139.000000	0.004403
2138.000000	0.004595
2137.000000	0.004775
2136.000000	0.004846
2135.000000	0.004752
2134.000000	0.004527
2133.000000	0.004289
2132.000000	0.004155
2131.000000	0.004163
2130.000000	0.004278
2129.000000	0.004438
2128.000000	0.004591
2127.000000	0.004720
2126.000000	0.004827
2125.000000	0.004914
2124.000000	0.004958
2123.000000	0.004945
2122.000000	0.004901
2121.000000	0.004874
2120.000000	0.004894
2119.000000	0.004950
2118.000000	0.005020
2117.000000	0.005082
2116.000000	0.005102
2115.000000	0.005049
2114.000000	0.004937
2113.000000	0.004830
2112.000000	0.004794
2111.000000	0.004840
2110.000000	0.004929
2109.000000	0.005004
2108.000000	0.005033
2107.000000	0.005027
2106.000000	0.005021
2105.000000	0.005039
2104.000000	0.005059
2103.000000	0.005041
2102.000000	0.004978
2101.000000	0.004912
2100.000000	0.004886
2099.000000	0.004903
2098.000000	0.004934
2097.000000	0.004949
2096.000000	0.004935
2095.000000	0.004898
2094.000000	0.004850
2093.000000	0.004801
2092.000000	0.004762
2091.000000	0.004748
2090.000000	0.004771
2089.000000	0.004819
2088.000000	0.004859
2087.000000	0.004871
2086.000000	0.004874
2085.000000	0.004896
2084.000000	0.004927
2083.000000	0.004930
2082.000000	0.004890
2081.000000	0.004843
2080.000000	0.004836
2079.000000	0.004880
2078.000000	0.004934
2077.000000	0.004940
2076.000000	0.004875
2075.000000	0.004775
2074.000000	0.004690
2073.000000	0.004628
2072.000000	0.004580
2071.000000	0.004573
2070.000000	0.004658
2069.000000	0.004811
2068.000000	0.004915
2067.000000	0.004888
2066.000000	0.004787
2065.000000	0.004727
2064.000000	0.004730
2063.000000	0.004718
2062.000000	0.004634
2061.000000	0.004512
2060.000000	0.004419
2059.000000	0.004396
2058.000000	0.004439
2057.000000	0.004495
2056.000000	0.004493
2055.000000	0.004420
2054.000000	0.004361
2053.000000	0.004408
2052.000000	0.004540
2051.000000	0.004634
2050.000000	0.004597
2049.000000	0.004443
2048.000000	0.004253
2047.000000	0.004099
2046.000000	0.004016
2045.000000	0.003990
2044.000000	0.003969
2043.000000	0.003935
2042.000000	0.003962
2041.000000	0.004121
2040.000000	0.004355
2039.000000	0.004518
2038.000000	0.004549
2037.000000	0.004511
2036.000000	0.004451
2035.000000	0.004325
2034.000000	0.004075
2033.000000	0.003740
2032.000000	0.003424
2031.000000	0.003218
2030.000000	0.003160
2029.000000	0.003225
2028.000000	0.003342
2027.000000	0.003469
2026.000000	0.003636
2025.000000	0.003842
2024.000000	0.003982
2023.000000	0.003966
2022.000000	0.003860
2021.000000	0.003820
2020.000000	0.003894
2019.000000	0.004001
2018.000000	0.004067
2017.000000	0.004082
2016.000000	0.004052
2015.000000	0.003978
2014.000000	0.003887
2013.000000	0.003791
2012.000000	0.003620
2011.000000	0.003313
2010.000000	0.002947
2009.000000	0.002692
2008.000000	0.002622
2007.000000	0.002667
2006.000000	0.002768
2005.000000	0.002947
2004.000000	0.003201
2003.000000	0.003471
2002.000000	0.003706
2001.000000	0.003906
2000.000000	0.004056
1999.000000	0.004119
1998.000000	0.004090
1997.000000	0.004013
1996.000000	0.003914
1995.000000	0.003784
1994.000000	0.003631
1993.000000	0.003507
1992.000000	0.003459
1991.000000	0.003469
1990.000000	0.003486
1989.000000	0.003470
1988.000000	0.003426
1987.000000	0.003403
1986.000000	0.003464
1985.000000	0.003611
1984.000000	0.003768
1983.000000	0.003873
1982.000000	0.003945
1981.000000	0.004003
1980.000000	0.003966
1979.000000	0.003729
1978.000000	0.003335
1977.000000	0.002980
1976.000000	0.002812
1975.000000	0.002814
1974.000000	0.002889
1973.000000	0.002963
1972.000000	0.003002
1971.000000	0.003042
1970.000000	0.003164
1969.000000	0.003382
1968.000000	0.003580
1967.000000	0.003635
1966.000000	0.003567
1965.000000	0.003472
1964.000000	0.003384
1963.000000	0.003296
1962.000000	0.003250
1961.000000	0.003301
1960.000000	0.003408
1959.000000	0.003487
1958.000000	0.003537
1957.000000	0.003617
1956.000000	0.003718
1955.000000	0.003767
1954.000000	0.003735
1953.000000	0.003670
1952.000000	0.003622
1951.000000	0.003604
1950.000000	0.003628
1949.000000	0.003684
1948.000000	0.003707
1947.000000	0.003633
1946.000000	0.003501
1945.000000	0.003419
1944.000000	0.003427
1943.000000	0.003455
1942.000000	0.003421
1941.000000	0.003334
1940.000000	0.003268
1939.000000	0.003285
1938.000000	0.003393
1937.000000	0.003531
1936.000000	0.003601
1935.000000	0.003568
1934.000000	0.003514
1933.000000	0.003538
1932.000000	0.003630
1931.000000	0.003684
1930.000000	0.003646
1929.000000	0.003561
1928.000000	0.003494
1927.000000	0.003466
1926.000000	0.003469
1925.000000	0.003496
1924.000000	0.003517
1923.000000	0.003501
1922.000000	0.003466
1921.000000	0.003464
1920.000000	0.003509
1919.000000	0.003565
1918.000000	0.003605
1917.000000	0.003634
1916.000000	0.003666
1915.000000	0.003701
1914.000000	0.003738
1913.000000	0.003774
1912.000000	0.003795
1911.000000	0.003791
1910.000000	0.003780
1909.000000	0.003782
1908.000000	0.003785
1907.000000	0.003752
1906.000000	0.003680
1905.000000	0.003608
1904.000000	0.003563
1903.000000	0.003551
1902.000000	0.003572
1901.000000	0.003620
1900.000000	0.003662
1899.000000	0.003659
1898.000000	0.003619
1897.000000	0.003586
1896.000000	0.003591
1895.000000	0.003623
1894.000000	0.003659
1893.000000	0.003677
1892.000000	0.003657
1891.000000	0.003600
1890.000000	0.003549
1889.000000	0.003555
1888.000000	0.003610
1887.000000	0.003664
1886.000000	0.003684
1885.000000	0.003678
1884.000000	0.003657
1883.000000	0.003625
1882.000000	0.003595
1881.000000	0.003577
1880.000000	0.003563
1879.000000	0.003529
1878.000000	0.003472
1877.000000	0.003415
1876.000000	0.003370
1875.000000	0.003331
1874.000000	0.003300
1873.000000	0.003283
1872.000000	0.003266
1871.000000	0.003230
1870.000000	0.003198
1869.000000	0.003215
1868.000000	0.003276
1867.000000	0.003336
1866.000000	0.003380
1865.000000	0.003419
1864.000000	0.003453
1863.000000	0.003472
1862.000000	0.003482
1861.000000	0.003503
1860.000000	0.003528
1859.000000	0.003526
1858.000000	0.003481
1857.000000	0.003409
1856.000000	0.003347
1855.000000	0.003324
1854.000000	0.003361
1853.000000	0.003441
1852.000000	0.003513
1851.000000	0.003533
1850.000000	0.003496
1849.000000	0.003432
1848.000000	0.003368
1847.000000	0.003311
1846.000000	0.003261
1845.000000	0.003231
1844.000000	0.003226
1843.000000	0.003226
1842.000000	0.003226
1841.000000	0.003250
1840.000000	0.003282
1839.000000	0.003286
1838.000000	0.003269
1837.000000	0.003270
1836.000000	0.003290
1835.000000	0.003296
1834.000000	0.003262
1833.000000	0.003180
1832.000000	0.003052
1831.000000	0.002904
1830.000000	0.002807
1829.000000	0.002812
1828.000000	0.002892
1827.000000	0.002985
1826.000000	0.003066
1825.000000	0.003153
1824.000000	0.003244
1823.000000	0.003305
1822.000000	0.003330
1821.000000	0.003341
1820.000000	0.003345
1819.000000	0.003319
1818.000000	0.003263
1817.000000	0.003210
1816.000000	0.003186
1815.000000	0.003176
1814.000000	0.003148
1813.000000	0.003109
1812.000000	0.003065
1811.000000	0.003062
1810.000000	0.003064
1809.000000	0.003187
1808.000000	0.003294
1807.000000	0.003272
1806.000000	0.003283
1805.000000	0.003275
1804.000000	0.003281
1803.000000	0.003277
1802.000000	0.003259
1801.000000	0.003267
1800.000000	0.003254
1799.000000	0.003301
1798.000000	0.003175
1797.000000	0.003053
1796.000000	0.003099
1795.000000	0.003016
1794.000000	0.002937
1793.000000	0.002863
1792.000000	0.002870
1791.000000	0.002908
1790.000000	0.002954
1789.000000	0.003020
1788.000000	0.003109
1787.000000	0.003189
1786.000000	0.003217
1785.000000	0.003178
1784.000000	0.003085
1783.000000	0.002979
1782.000000	0.002914
1781.000000	0.002883
1780.000000	0.002905
1779.000000	0.002874
1778.000000	0.002957
1777.000000	0.003092
1776.000000	0.003128
1775.000000	0.003221
1774.000000	0.003252
1773.000000	0.003321
1772.000000	0.003315
1771.000000	0.003404
1770.000000	0.003193
1769.000000	0.003097
1768.000000	0.003361
1767.000000	0.003317
1766.000000	0.003261
1765.000000	0.003193
1764.000000	0.003203
1763.000000	0.003234
1762.000000	0.003313
1761.000000	0.003471
1760.000000	0.003698
1759.000000	0.003958
1758.000000	0.004242
1757.000000	0.004557
1756.000000	0.004917
1755.000000	0.005331
1754.000000	0.005816
1753.000000	0.006350
1752.000000	0.006853
1751.000000	0.007263
1750.000000	0.007619
1749.000000	0.008036
1748.000000	0.008546
1747.000000	0.009074
1746.000000	0.009539
1745.000000	0.009918
1744.000000	0.010186
1743.000000	0.010309
1742.000000	0.010322
1741.000000	0.010319
1740.000000	0.010322
1739.000000	0.010279
1738.000000	0.010226
1737.000000	0.010244
1736.000000	0.010246
1735.000000	0.010054
1734.000000	0.009700
1733.000000	0.009324
1732.000000	0.008981
1731.000000	0.008705
1730.000000	0.008508
1729.000000	0.008370
1728.000000	0.008258
1727.000000	0.008137
1726.000000	0.007991
1725.000000	0.007844
1724.000000	0.007706
1723.000000	0.007537
1722.000000	0.007347
1721.000000	0.007218
1720.000000	0.007190
1719.000000	0.007203
1718.000000	0.007201
1717.000000	0.007176
1716.000000	0.007135
1715.000000	0.007106
1714.000000	0.007141
1713.000000	0.007247
1712.000000	0.007374
1711.000000	0.007468
1710.000000	0.007519
1709.000000	0.007540
1708.000000	0.007560
1707.000000	0.007630
1706.000000	0.007819
1705.000000	0.008151
1704.000000	0.008572
1703.000000	0.009007
1702.000000	0.009348
1701.000000	0.009721
1700.000000	0.010356
1699.000000	0.011103
1698.000000	0.011862
1697.000000	0.012710
1696.000000	0.013538
1695.000000	0.014146
1694.000000	0.014508
1693.000000	0.014852
1692.000000	0.015330
1691.000000	0.015878
1690.000000	0.016434
1689.000000	0.017019
1688.000000	0.017662
1687.000000	0.018285
1686.000000	0.018745
1685.000000	0.019186
1684.000000	0.019859
1683.000000	0.020630
1682.000000	0.021378
1681.000000	0.022183
1680.000000	0.022993
1679.000000	0.023705
1678.000000	0.024331
1677.000000	0.024994
1676.000000	0.025789
1675.000000	0.026661
1674.000000	0.027439
1673.000000	0.028100
1672.000000	0.028766
1671.000000	0.029528
1670.000000	0.030473
1669.000000	0.031588
1668.000000	0.032674
1667.000000	0.033558
1666.000000	0.034260
1665.000000	0.034906
1664.000000	0.035600
1663.000000	0.036384
1662.000000	0.037220
1661.000000	0.038054
1660.000000	0.038851
1659.000000	0.039536
1658.000000	0.040077
1657.000000	0.040582
1656.000000	0.041157
1655.000000	0.041662
1654.000000	0.042087
1653.000000	0.042742
1652.000000	0.043329
1651.000000	0.043456
1650.000000	0.043462
1649.000000	0.043659
1648.000000	0.044054
1647.000000	0.044558
1646.000000	0.045090
1645.000000	0.045561
1644.000000	0.045925
1643.000000	0.046227
1642.000000	0.046493
1641.000000	0.046692
1640.000000	0.046821
1639.000000	0.046903
1638.000000	0.046936
1637.000000	0.046916
1636.000000	0.046954
1635.000000	0.047127
1634.000000	0.047349
1633.000000	0.047554
1632.000000	0.047714
1631.000000	0.047744
1630.000000	0.047572
1629.000000	0.047251
1628.000000	0.046890
1627.000000	0.046547
1626.000000	0.046190
1625.000000	0.045752
1624.000000	0.045204
1623.000000	0.044582
1622.000000	0.043960
1621.000000	0.043408
1620.000000	0.042940
1619.000000	0.042450
1618.000000	0.041736
1617.000000	0.040741
1616.000000	0.039650
1615.000000	0.038667
1614.000000	0.037852
1613.000000	0.037123
1612.000000	0.036345
1611.000000	0.035473
1610.000000	0.034581
1609.000000	0.033740
1608.000000	0.032956
1607.000000	0.032220
1606.000000	0.031535
1605.000000	0.030883
1604.000000	0.030252
1603.000000	0.029658
1602.000000	0.029120
1601.000000	0.028628
1600.000000	0.028169
1599.000000	0.027756
1598.000000	0.027406
1597.000000	0.027110
1596.000000	0.026846
1595.000000	0.026619
1594.000000	0.026442
1593.000000	0.026300
1592.000000	0.026174
1591.000000	0.026066
1590.000000	0.025989
1589.000000	0.025933
1588.000000	0.025890
1587.000000	0.025881
1586.000000	0.025931
1585.000000	0.026012
1584.000000	0.026097
1583.000000	0.026210
1582.000000	0.026367
1581.000000	0.026551
1580.000000	0.026777
1579.000000	0.027096
1578.000000	0.027488
1577.000000	0.027873
1576.000000	0.028196
1575.000000	0.028416
1574.000000	0.028563
1573.000000	0.028729
1572.000000	0.028908
1571.000000	0.029092
1570.000000	0.029419
1569.000000	0.029956
1568.000000	0.030559
1567.000000	0.031112
1566.000000	0.031633
1565.000000	0.032165
1564.000000	0.032730
1563.000000	0.033334
1562.000000	0.033881
1561.000000	0.034087
1560.000000	0.034011
1559.000000	0.034271
1558.000000	0.034964
1557.000000	0.035711
1556.000000	0.036412
1555.000000	0.037078
1554.000000	0.037639
1553.000000	0.038060
1552.000000	0.038408
1551.000000	0.038735
1550.000000	0.039029
1549.000000	0.039283
1548.000000	0.039518
1547.000000	0.039741
1546.000000	0.039913
1545.000000	0.039996
1544.000000	0.040000
1543.000000	0.039978
1542.000000	0.039987
1541.000000	0.040099
1540.000000	0.040345
1539.000000	0.040592
1538.000000	0.040666
1537.000000	0.040603
1536.000000	0.040515
1535.000000	0.040376
1534.000000	0.040164
1533.000000	0.039973
1532.000000	0.039867
1531.000000	0.039788
1530.000000	0.039670
1529.000000	0.039513
1528.000000	0.039328
1527.000000	0.039078
1526.000000	0.038740
1525.000000	0.038382
1524.000000	0.038102
1523.000000	0.037882
1522.000000	0.037616
1521.000000	0.037249
1520.000000	0.036820
1519.000000	0.036426
1518.000000	0.036148
1517.000000	0.035973
1516.000000	0.035825
1515.000000	0.035650
1514.000000	0.035420
1513.000000	0.035083
1512.000000	0.034599
1511.000000	0.034021
1510.000000	0.033454
1509.000000	0.032893
1508.000000	0.032211
1507.000000	0.031420
1506.000000	0.030785
1505.000000	0.030344
1504.000000	0.029920
1503.000000	0.029479
1502.000000	0.028971
1501.000000	0.028330
1500.000000	0.027601
1499.000000	0.026899
1498.000000	0.026254
1497.000000	0.025612
1496.000000	0.024927
1495.000000	0.024211
1494.000000	0.023530
1493.000000	0.022935
1492.000000	0.022381
1491.000000	0.021794
1490.000000	0.021192
1489.000000	0.020682
1488.000000	0.020332
1487.000000	0.020105
1486.000000	0.019951
1485.000000	0.019847
1484.000000	0.019778
1483.000000	0.019730
1482.000000	0.019705
1481.000000	0.019736
1480.000000	0.019832
1479.000000	0.019964
1478.000000	0.020108
1477.000000	0.020289
1476.000000	0.020527
1475.000000	0.020798
1474.000000	0.021109
1473.000000	0.021561
1472.000000	0.022195
1471.000000	0.022887
1470.000000	0.023547
1469.000000	0.024180
1468.000000	0.024765
1467.000000	0.025253
1466.000000	0.025670
1465.000000	0.026099
1464.000000	0.026557
1463.000000	0.026950
1462.000000	0.027229
1461.000000	0.027460
1460.000000	0.027744
1459.000000	0.028141
1458.000000	0.028696
1457.000000	0.029391
1456.000000	0.029961
1455.000000	0.030226
1454.000000	0.030360
1453.000000	0.030521
1452.000000	0.030662
1451.000000	0.030702
1450.000000	0.030661
1449.000000	0.030603
1448.000000	0.030548
1447.000000	0.030499
1446.000000	0.030466
1445.000000	0.030434
1444.000000	0.030384
1443.000000	0.030286
1442.000000	0.030135
1441.000000	0.029968
1440.000000	0.029834
1439.000000	0.029716
1438.000000	0.029525
1437.000000	0.029215
1436.000000	0.028832
1435.000000	0.028443
1434.000000	0.028092
1433.000000	0.027759
1432.000000	0.027386
1431.000000	0.026972
1430.000000	0.026591
1429.000000	0.026306
1428.000000	0.026106
1427.000000	0.025957
1426.000000	0.025832
1425.000000	0.025711
1424.000000	0.025609
1423.000000	0.025570
1422.000000	0.025613
1421.000000	0.025679
1420.000000	0.025705
1419.000000	0.025699
1418.000000	0.025685
1417.000000	0.025677
1416.000000	0.025696
1415.000000	0.025732
1414.000000	0.025769
1413.000000	0.025817
1412.000000	0.025883
1411.000000	0.025948
1410.000000	0.026001
1409.000000	0.026063
1408.000000	0.026153
1407.000000	0.026272
1406.000000	0.026414
1405.000000	0.026561
1404.000000	0.026686
1403.000000	0.026757
1402.000000	0.026774
1401.000000	0.026756
1400.000000	0.026715
1399.000000	0.026654
1398.000000	0.026583
1397.000000	0.026513
1396.000000	0.026429
1395.000000	0.026316
1394.000000	0.026199
1393.000000	0.026103
1392.000000	0.026034
1391.000000	0.025984
1390.000000	0.025941
1389.000000	0.025891
1388.000000	0.025814
1387.000000	0.025699
1386.000000	0.025559
1385.000000	0.025431
1384.000000	0.025335
1383.000000	0.025257
1382.000000	0.025183
1381.000000	0.025119
1380.000000	0.025054
1379.000000	0.024951
1378.000000	0.024787
1377.000000	0.024581
1376.000000	0.024363
1375.000000	0.024149
1374.000000	0.023937
1373.000000	0.023727
1372.000000	0.023519
1371.000000	0.023309
1370.000000	0.023090
1369.000000	0.022862
1368.000000	0.022633
1367.000000	0.022412
1366.000000	0.022191
1365.000000	0.021955
1364.000000	0.021687
1363.000000	0.021393
1362.000000	0.021104
1361.000000	0.020848
1360.000000	0.020622
1359.000000	0.020414
1358.000000	0.020228
1357.000000	0.020076
1356.000000	0.019959
1355.000000	0.019870
1354.000000	0.019812
1353.000000	0.019801
1352.000000	0.019839
1351.000000	0.019912
1350.000000	0.020007
1349.000000	0.020120
1348.000000	0.020255
1347.000000	0.020408
1346.000000	0.020571
1345.000000	0.020739
1344.000000	0.020920
1343.000000	0.021121
1342.000000	0.021342
1341.000000	0.021573
1340.000000	0.021782
1339.000000	0.021936
1338.000000	0.022012
1337.000000	0.022010
1336.000000	0.021948
1335.000000	0.021847
1334.000000	0.021722
1333.000000	0.021571
1332.000000	0.021385
1331.000000	0.021166
1330.000000	0.020936
1329.000000	0.020717
1328.000000	0.020518
1327.000000	0.020348
1326.000000	0.020227
1325.000000	0.020163
1324.000000	0.020145
1323.000000	0.020152
1322.000000	0.020173
1321.000000	0.020211
1320.000000	0.020261
1319.000000	0.020310
1318.000000	0.020353
1317.000000	0.020394
1316.000000	0.020432
1315.000000	0.020449
1314.000000	0.020426
1313.000000	0.020354
1312.000000	0.020232
1311.000000	0.020071
1310.000000	0.019896
1309.000000	0.019734
1308.000000	0.019589
1307.000000	0.019442
1306.000000	0.019275
1305.000000	0.019094
1304.000000	0.018918
1303.000000	0.018749
1302.000000	0.018580
1301.000000	0.018409
1300.000000	0.018255
1299.000000	0.018132
1298.000000	0.018043
1297.000000	0.017982
1296.000000	0.017952
1295.000000	0.017960
1294.000000	0.018006
1293.000000	0.018082
1292.000000	0.018186
1291.000000	0.018317
1290.000000	0.018477
1289.000000	0.018656
1288.000000	0.018837
1287.000000	0.019011
1286.000000	0.019189
1285.000000	0.019395
1284.000000	0.019633
1283.000000	0.019885
1282.000000	0.020118
1281.000000	0.020314
1280.000000	0.020465
1279.000000	0.020569
1278.000000	0.020625
1277.000000	0.020648
1276.000000	0.020657
1275.000000	0.020665
1274.000000	0.020674
1273.000000	0.020683
1272.000000	0.020697
1271.000000	0.020724
1270.000000	0.020770
1269.000000	0.020833
1268.000000	0.020900
1267.000000	0.020958
1266.000000	0.021007
1265.000000	0.021057
1264.000000	0.021126
1263.000000	0.021220
1262.000000	0.021339
1261.000000	0.021480
1260.000000	0.021646
1259.000000	0.021844
1258.000000	0.022080
1257.000000	0.022350
1256.000000	0.022636
1255.000000	0.022915
1254.000000	0.023187
1253.000000	0.023462
1252.000000	0.023750
1251.000000	0.024050
1250.000000	0.024364
1249.000000	0.024702
1248.000000	0.025066
1247.000000	0.025439
1246.000000	0.025810
1245.000000	0.026178
1244.000000	0.026544
1243.000000	0.026901
1242.000000	0.027245
1241.000000	0.027578
1240.000000	0.027893
1239.000000	0.028170
1238.000000	0.028400
1237.000000	0.028588
1236.000000	0.028735
1235.000000	0.028826
1234.000000	0.028847
1233.000000	0.028804
1232.000000	0.028713
1231.000000	0.028579
1230.000000	0.028390
1229.000000	0.028134
1228.000000	0.027801
1227.000000	0.027391
1226.000000	0.026923
1225.000000	0.026424
1224.000000	0.025905
1223.000000	0.025361
1222.000000	0.024790
1221.000000	0.024211
1220.000000	0.023658
1219.000000	0.023159
1218.000000	0.022722
1217.000000	0.022338
1216.000000	0.021992
1215.000000	0.021686
1214.000000	0.021436
1213.000000	0.021251
1212.000000	0.021123
1211.000000	0.021041
1210.000000	0.021003
1209.000000	0.021010
1208.000000	0.021041
1207.000000	0.021069
1206.000000	0.021082
1205.000000	0.021095
1204.000000	0.021109
1203.000000	0.021097
1202.000000	0.021028
1201.000000	0.020896
1200.000000	0.020711
1199.000000	0.020480
1198.000000	0.020205
1197.000000	0.019896
1196.000000	0.019569
1195.000000	0.019242
1194.000000	0.018920
1193.000000	0.018606
1192.000000	0.018308
1191.000000	0.018042
1190.000000	0.017819
1189.000000	0.017634
1188.000000	0.017478
1187.000000	0.017351
1186.000000	0.017270
1185.000000	0.017251
1184.000000	0.017294
1183.000000	0.017384
1182.000000	0.017506
1181.000000	0.017655
1180.000000	0.017825
1179.000000	0.018005
1178.000000	0.018192
1177.000000	0.018389
1176.000000	0.018597
1175.000000	0.018811
1174.000000	0.019027
1173.000000	0.019256
1172.000000	0.019500
1171.000000	0.019747
1170.000000	0.019983
1169.000000	0.020209
1168.000000	0.020430
1167.000000	0.020643
1166.000000	0.020843
1165.000000	0.021032
1164.000000	0.021211
1163.000000	0.021371
1162.000000	0.021492
1161.000000	0.021562
1160.000000	0.021574
1159.000000	0.021525
1158.000000	0.021422
1157.000000	0.021283
1156.000000	0.021123
1155.000000	0.020936
1154.000000	0.020710
1153.000000	0.020447
1152.000000	0.020168
1151.000000	0.019893
1150.000000	0.019633
1149.000000	0.019385
1148.000000	0.019142
1147.000000	0.018899
1146.000000	0.018651
1145.000000	0.018393
1144.000000	0.018129
1143.000000	0.017863
1142.000000	0.017604
1141.000000	0.017346
1140.000000	0.017071
1139.000000	0.016760
1138.000000	0.016423
1137.000000	0.016086
1136.000000	0.015769
1135.000000	0.015476
1134.000000	0.015206
1133.000000	0.014970
1132.000000	0.014778
1131.000000	0.014632
1130.000000	0.014524
1129.000000	0.014451
1128.000000	0.014427
1127.000000	0.014458
1126.000000	0.014539
1125.000000	0.014652
1124.000000	0.014781
1123.000000	0.014917
1122.000000	0.015059
1121.000000	0.015215
1120.000000	0.015384
1119.000000	0.015552
1118.000000	0.015703
1117.000000	0.015835
1116.000000	0.015956
1115.000000	0.016067
1114.000000	0.016163
1113.000000	0.016239
1112.000000	0.016304
1111.000000	0.016362
1110.000000	0.016416
1109.000000	0.016467
1108.000000	0.016526
1107.000000	0.016603
1106.000000	0.016699
1105.000000	0.016810
1104.000000	0.016933
1103.000000	0.017065
1102.000000	0.017207
1101.000000	0.017358
1100.000000	0.017510
1099.000000	0.017647
1098.000000	0.017765
1097.000000	0.017873
1096.000000	0.017990
1095.000000	0.018123
1094.000000	0.018262
1093.000000	0.018399
1092.000000	0.018541
1091.000000	0.018700
1090.000000	0.018889
1089.000000	0.019115
1088.000000	0.019387
1087.000000	0.019708
1086.000000	0.020063
1085.000000	0.020414
1084.000000	0.020711
1083.000000	0.020918
1082.000000	0.021021
1081.000000	0.021018
1080.000000	0.020903
1079.000000	0.020682
1078.000000	0.020389
1077.000000	0.020075
1076.000000	0.019769
1075.000000	0.019461
1074.000000	0.019141
1073.000000	0.018824
1072.000000	0.018550
1071.000000	0.018355
1070.000000	0.018253
1069.000000	0.018235
1068.000000	0.018280
1067.000000	0.018363
1066.000000	0.018465
1065.000000	0.018581
1064.000000	0.018705
1063.000000	0.018827
1062.000000	0.018935
1061.000000	0.019025
1060.000000	0.019101
1059.000000	0.019167
1058.000000	0.019222
1057.000000	0.019261
1056.000000	0.019286
1055.000000	0.019291
1054.000000	0.019272
1053.000000	0.019219
1052.000000	0.019129
1051.000000	0.019010
1050.000000	0.018892
1049.000000	0.018804
1048.000000	0.018752
1047.000000	0.018717
1046.000000	0.018672
1045.000000	0.018610
1044.000000	0.018544
1043.000000	0.018491
1042.000000	0.018462
1041.000000	0.018468
1040.000000	0.018525
1039.000000	0.018653
1038.000000	0.018861
1037.000000	0.019132
1036.000000	0.019434
1035.000000	0.019731
1034.000000	0.020002
1033.000000	0.020237
1032.000000	0.020425
1031.000000	0.020549
1030.000000	0.020601
1029.000000	0.020597
1028.000000	0.020560
1027.000000	0.020504
1026.000000	0.020426
1025.000000	0.020320
1024.000000	0.020184
1023.000000	0.020026
1022.000000	0.019858
1021.000000	0.019700
1020.000000	0.019576
1019.000000	0.019496
1018.000000	0.019452
1017.000000	0.019416
1016.000000	0.019353
1015.000000	0.019233
1014.000000	0.019043
1013.000000	0.018790
1012.000000	0.018492
1011.000000	0.018166
1010.000000	0.017821
1009.000000	0.017456
1008.000000	0.017072
1007.000000	0.016687
1006.000000	0.016322
1005.000000	0.015984
1004.000000	0.015671
1003.000000	0.015373
1002.000000	0.015079
1001.000000	0.014776
1000.000000	0.014461
999.000000	0.014151
998.000000	0.013864
997.000000	0.013601
996.000000	0.013344
995.000000	0.013080
994.000000	0.012816
993.000000	0.012563
992.000000	0.012320
991.000000	0.012081
990.000000	0.011849
989.000000	0.011633
988.000000	0.011443
987.000000	0.011278
986.000000	0.011127
985.000000	0.010973
984.000000	0.010811
983.000000	0.010658
982.000000	0.010533
981.000000	0.010433
980.000000	0.010339
979.000000	0.010243
978.000000	0.010166
977.000000	0.010123
976.000000	0.010092
975.000000	0.010039
974.000000	0.009959
973.000000	0.009877
972.000000	0.009808
971.000000	0.009736
970.000000	0.009636
969.000000	0.009504
968.000000	0.009351
967.000000	0.009190
966.000000	0.009032
965.000000	0.008880
964.000000	0.008727
963.000000	0.008560
962.000000	0.008374
961.000000	0.008184
960.000000	0.008022
959.000000	0.007902
958.000000	0.007818
957.000000	0.007750
956.000000	0.007678
955.000000	0.007593
954.000000	0.007496
953.000000	0.007383
952.000000	0.007249
951.000000	0.007094
950.000000	0.006931
949.000000	0.006780
948.000000	0.006651
947.000000	0.006538
946.000000	0.006427
945.000000	0.006307
944.000000	0.006179
943.000000	0.006061
942.000000	0.005977
941.000000	0.005938
940.000000	0.005928
939.000000	0.005910
938.000000	0.005861
937.000000	0.005792
936.000000	0.005720
935.000000	0.005647
934.000000	0.005557
933.000000	0.005445
932.000000	0.005330
931.000000	0.005231
930.000000	0.005152
929.000000	0.005082
928.000000	0.005014
927.000000	0.004954
926.000000	0.004902
925.000000	0.004846
924.000000	0.004767
923.000000	0.004660
922.000000	0.004534
921.000000	0.004404
920.000000	0.004274
919.000000	0.004148
918.000000	0.004031
917.000000	0.003930
916.000000	0.003836
915.000000	0.003731
914.000000	0.003608
913.000000	0.003480
912.000000	0.003369
911.000000	0.003289
910.000000	0.003240
909.000000	0.003210
908.000000	0.003179
907.000000	0.003130
906.000000	0.003065
905.000000	0.003011
904.000000	0.003002
903.000000	0.003037
902.000000	0.003083
901.000000	0.003100
900.000000	0.003078
899.000000	0.003037
898.000000	0.002999
897.000000	0.002978
896.000000	0.002968
895.000000	0.002954
894.000000	0.002928
893.000000	0.002904
892.000000	0.002909
891.000000	0.002950
890.000000	0.002995
889.000000	0.003004
888.000000	0.002974
887.000000	0.002938
886.000000	0.002929
885.000000	0.002955
884.000000	0.003016
883.000000	0.003122
882.000000	0.003276
881.000000	0.003462
880.000000	0.003658
879.000000	0.003858
878.000000	0.004058
877.000000	0.004236
876.000000	0.004352
875.000000	0.004385
874.000000	0.004335
873.000000	0.004211
872.000000	0.004015
871.000000	0.003767
870.000000	0.003520
869.000000	0.003316
868.000000	0.003161
867.000000	0.003032
866.000000	0.002926
865.000000	0.002860
864.000000	0.002845
863.000000	0.002873
862.000000	0.002921
861.000000	0.002976
860.000000	0.003033
859.000000	0.003090
858.000000	0.003142
857.000000	0.003183
856.000000	0.003210
855.000000	0.003229
854.000000	0.003261
853.000000	0.003324
852.000000	0.003414
851.000000	0.003503
850.000000	0.003559
849.000000	0.003572
848.000000	0.003560
847.000000	0.003546
846.000000	0.003549
845.000000	0.003563
844.000000	0.003573
843.000000	0.003572
842.000000	0.003577
841.000000	0.003607
840.000000	0.003663
839.000000	0.003730
838.000000	0.003796
837.000000	0.003848
836.000000	0.003880
835.000000	0.003887
834.000000	0.003885
833.000000	0.003890
832.000000	0.003908
831.000000	0.003924
830.000000	0.003929
829.000000	0.003922
828.000000	0.003896
827.000000	0.003836
826.000000	0.003738
825.000000	0.003623
824.000000	0.003527
823.000000	0.003474
822.000000	0.003466
821.000000	0.003484
820.000000	0.003506
819.000000	0.003514
818.000000	0.003503
817.000000	0.003466
816.000000	0.003397
815.000000	0.003305
814.000000	0.003227
813.000000	0.003188
812.000000	0.003165
811.000000	0.003117
810.000000	0.003043
809.000000	0.002983
808.000000	0.002958
807.000000	0.002953
806.000000	0.002943
805.000000	0.002933
804.000000	0.002927
803.000000	0.002914
802.000000	0.002893
801.000000	0.002882
800.000000	0.002901
799.000000	0.002931
798.000000	0.002948
797.000000	0.002954
796.000000	0.002963
795.000000	0.002972
794.000000	0.002963
793.000000	0.002940
792.000000	0.002929
791.000000	0.002956
790.000000	0.003017
789.000000	0.003089
788.000000	0.003141
787.000000	0.003162
786.000000	0.003167
785.000000	0.003179
784.000000	0.003199
783.000000	0.003206
782.000000	0.003190
781.000000	0.003160
780.000000	0.003131
779.000000	0.003106
778.000000	0.003094
777.000000	0.003117
776.000000	0.003187
775.000000	0.003283
774.000000	0.003367
773.000000	0.003414
772.000000	0.003424
771.000000	0.003411
770.000000	0.003393
769.000000	0.003374
768.000000	0.003345
767.000000	0.003287
766.000000	0.003215
765.000000	0.003163
764.000000	0.003156
763.000000	0.003181
762.000000	0.003213
761.000000	0.003247
760.000000	0.003285
759.000000	0.003325
758.000000	0.003374
757.000000	0.003450
756.000000	0.003556
755.000000	0.003663
754.000000	0.003739
753.000000	0.003780
752.000000	0.003813
751.000000	0.003860
750.000000	0.003928
749.000000	0.004010
748.000000	0.004087
747.000000	0.004136
746.000000	0.004152
745.000000	0.004152
744.000000	0.004151
743.000000	0.004142
742.000000	0.004132
741.000000	0.004148
740.000000	0.004207
739.000000	0.004283
738.000000	0.004339
737.000000	0.004382
736.000000	0.004448
735.000000	0.004549
734.000000	0.004663
733.000000	0.004778
732.000000	0.004917
731.000000	0.005101
730.000000	0.005318
729.000000	0.005539
728.000000	0.005757
727.000000	0.005992
726.000000	0.006259
725.000000	0.006539
724.000000	0.006785
723.000000	0.006958
722.000000	0.007071
721.000000	0.007162
720.000000	0.007249
719.000000	0.007313
718.000000	0.007342
717.000000	0.007356
716.000000	0.007384
715.000000	0.007425
714.000000	0.007462
713.000000	0.007481
712.000000	0.007483
711.000000	0.007485
710.000000	0.007518
709.000000	0.007608
708.000000	0.007743
707.000000	0.007857
706.000000	0.007900
705.000000	0.007892
704.000000	0.007900
703.000000	0.007967
702.000000	0.008070
701.000000	0.008165
700.000000	0.008227
699.000000	0.008261
698.000000	0.008267
697.000000	0.008239
696.000000	0.008175
695.000000	0.008097
694.000000	0.008046
693.000000	0.008045
692.000000	0.008083
691.000000	0.008124
690.000000	0.008137
689.000000	0.008107
688.000000	0.008044
687.000000	0.007983
686.000000	0.007964
685.000000	0.007994
684.000000	0.008038
683.000000	0.008066
682.000000	0.008100
681.000000	0.008185
680.000000	0.008316
679.000000	0.008437
678.000000	0.008509
677.000000	0.008550
676.000000	0.008593
675.000000	0.008643
674.000000	0.008706
673.000000	0.008797
672.000000	0.008896
671.000000	0.008945
670.000000	0.008899
669.000000	0.008777
668.000000	0.008694
667.000000	0.008787
666.000000	0.008971
665.000000	0.009106
664.000000	0.009160
663.000000	0.009144
662.000000	0.009100
661.000000	0.009078
660.000000	0.009103
659.000000	0.009162
658.000000	0.009228
657.000000	0.009271
656.000000	0.009274
655.000000	0.009262
654.000000	0.009302
653.000000	0.009430
652.000000	0.009578
651.000000	0.009640
650.000000	0.009601
649.000000	0.009526
648.000000	0.009460
647.000000	0.009397
646.000000	0.009358
645.000000	0.009394
644.000000	0.009488
643.000000	0.009543
642.000000	0.009502
641.000000	0.009408
640.000000	0.009323
639.000000	0.009256
638.000000	0.009198
637.000000	0.009160
636.000000	0.009136
635.000000	0.009096
634.000000	0.009048
633.000000	0.009049
632.000000	0.009107
631.000000	0.009149
630.000000	0.009113
629.000000	0.009033
628.000000	0.008975
627.000000	0.008963
626.000000	0.008994
625.000000	0.009059
624.000000	0.009121
623.000000	0.009117
622.000000	0.009053
621.000000	0.009028
620.000000	0.009106
619.000000	0.009228
618.000000	0.009292
617.000000	0.009269
616.000000	0.009183
615.000000	0.009047
614.000000	0.008893
613.000000	0.008803
612.000000	0.008830
611.000000	0.008917
610.000000	0.008966
609.000000	0.008968
608.000000	0.008986
607.000000	0.009054
606.000000	0.009144
605.000000	0.009223
604.000000	0.009277
603.000000	0.009292
602.000000	0.009274
601.000000	0.009261
600.000000	0.009278
599.000000	0.009307
598.000000	0.009344
597.000000	0.009421
596.000000	0.009531
595.000000	0.009585
594.000000	0.009525
593.000000	0.009428
592.000000	0.009422
591.000000	0.009535
590.000000	0.009679
589.000000	0.009771
588.000000	0.009798
587.000000	0.009766
586.000000	0.009687
585.000000	0.009585
584.000000	0.009489
583.000000	0.009407
582.000000	0.009359
581.000000	0.009380
580.000000	0.009475
579.000000	0.009582
578.000000	0.009639
577.000000	0.009637
576.000000	0.009586
575.000000	0.009502
574.000000	0.009444
573.000000	0.009499
572.000000	0.009667
571.000000	0.009824
570.000000	0.009884
569.000000	0.009921
568.000000	0.010056
567.000000	0.010271
566.000000	0.010460
565.000000	0.010594
564.000000	0.010739
563.000000	0.010935
562.000000	0.011174
561.000000	0.011463
560.000000	0.011796
559.000000	0.012087
558.000000	0.012224
557.000000	0.012187
556.000000	0.012049
555.000000	0.011878
554.000000	0.011708
553.000000	0.011575
552.000000	0.011498
551.000000	0.011456
550.000000	0.011430
549.000000	0.011415
548.000000	0.011373
547.000000	0.011241
546.000000	0.011029
545.000000	0.010830
544.000000	0.010683
543.000000	0.010515
542.000000	0.010299
541.000000	0.010137
540.000000	0.010111
539.000000	0.010148
538.000000	0.010135
537.000000	0.010088
536.000000	0.010102
535.000000	0.010190
534.000000	0.010308
533.000000	0.010453
532.000000	0.010638
531.000000	0.010841
530.000000	0.011046
529.000000	0.011278
528.000000	0.011503
527.000000	0.011581
526.000000	0.011439
525.000000	0.011201
524.000000	0.011009
523.000000	0.010840
522.000000	0.010620
521.000000	0.010382
520.000000	0.010190
519.000000	0.009992
518.000000	0.009719
517.000000	0.009435
516.000000	0.009245
515.000000	0.009125
514.000000	0.008999
513.000000	0.008876
512.000000	0.008770
511.000000	0.008589
510.000000	0.008260
509.000000	0.007890
508.000000	0.007643
507.000000	0.007523
506.000000	0.007423
505.000000	0.007334
504.000000	0.007329
503.000000	0.007406
502.000000	0.007486
501.000000	0.007518
500.000000	0.007478
499.000000	0.007319
498.000000	0.007073
497.000000	0.006903
496.000000	0.006908
495.000000	0.006943
494.000000	0.006784
493.000000	0.006427
492.000000	0.006068
491.000000	0.005855
490.000000	0.005798
489.000000	0.005872
488.000000	0.006006
487.000000	0.006038
486.000000	0.005850
485.000000	0.005541
484.000000	0.005307
483.000000	0.005186
482.000000	0.005101
481.000000	0.005058
480.000000	0.005101
479.000000	0.005142
478.000000	0.005042
477.000000	0.004819
476.000000	0.004582
475.000000	0.004343
474.000000	0.004085
473.000000	0.003964
472.000000	0.004177
471.000000	0.004611
470.000000	0.004919
469.000000	0.004925
468.000000	0.004690
467.000000	0.004316
466.000000	0.003914
465.000000	0.003670
464.000000	0.003685
463.000000	0.003786
462.000000	0.003665
461.000000	0.003250
460.000000	0.002737
459.000000	0.002352
458.000000	0.002286
457.000000	0.002700
456.000000	0.003424
455.000000	0.003742
454.000000	0.003463
453.000000	0.002788
452.000000	0.002248
451.000000	0.002016
450.000000	0.001840
