PE IR       SUBTECH     SPECTRUM    ASCII       PEDS        4.00        
   -1
3S-H10-F017_1.ASC
22/02/18
10:58:28.00
22/02/18
11:02:52.00
uco
Sample 017 By uco Date Friday, February 18 2022
450.000000
#HDR
-1
-1
#GR
cm-1
A
1.0
0.0
4000.000000
-1.000000
3551
8
0.030688
0.000486
#DATA
4000.000000	0.001115
3999.000000	0.001113
3998.000000	0.001110
3997.000000	0.001104
3996.000000	0.001099
3995.000000	0.001101
3994.000000	0.001110
3993.000000	0.001121
3992.000000	0.001124
3991.000000	0.001115
3990.000000	0.001098
3989.000000	0.001083
3988.000000	0.001081
3987.000000	0.001096
3986.000000	0.001122
3985.000000	0.001151
3984.000000	0.001172
3983.000000	0.001179
3982.000000	0.001174
3981.000000	0.001165
3980.000000	0.001159
3979.000000	0.001159
3978.000000	0.001162
3977.000000	0.001166
3976.000000	0.001172
3975.000000	0.001185
3974.000000	0.001203
3973.000000	0.001216
3972.000000	0.001216
3971.000000	0.001204
3970.000000	0.001191
3969.000000	0.001186
3968.000000	0.001188
3967.000000	0.001192
3966.000000	0.001191
3965.000000	0.001187
3964.000000	0.001183
3963.000000	0.001180
3962.000000	0.001175
3961.000000	0.001165
3960.000000	0.001155
3959.000000	0.001153
3958.000000	0.001167
3957.000000	0.001197
3956.000000	0.001230
3955.000000	0.001255
3954.000000	0.001269
3953.000000	0.001278
3952.000000	0.001287
3951.000000	0.001295
3950.000000	0.001298
3949.000000	0.001299
3948.000000	0.001302
3947.000000	0.001314
3946.000000	0.001333
3945.000000	0.001350
3944.000000	0.001356
3943.000000	0.001344
3942.000000	0.001317
3941.000000	0.001285
3940.000000	0.001255
3939.000000	0.001233
3938.000000	0.001221
3937.000000	0.001220
3936.000000	0.001231
3935.000000	0.001250
3934.000000	0.001266
3933.000000	0.001274
3932.000000	0.001275
3931.000000	0.001275
3930.000000	0.001275
3929.000000	0.001272
3928.000000	0.001266
3927.000000	0.001260
3926.000000	0.001256
3925.000000	0.001250
3924.000000	0.001246
3923.000000	0.001249
3922.000000	0.001263
3921.000000	0.001281
3920.000000	0.001291
3919.000000	0.001292
3918.000000	0.001293
3917.000000	0.001302
3916.000000	0.001315
3915.000000	0.001324
3914.000000	0.001320
3913.000000	0.001302
3912.000000	0.001274
3911.000000	0.001245
3910.000000	0.001220
3909.000000	0.001198
3908.000000	0.001180
3907.000000	0.001169
3906.000000	0.001173
3905.000000	0.001194
3904.000000	0.001224
3903.000000	0.001252
3902.000000	0.001274
3901.000000	0.001289
3900.000000	0.001298
3899.000000	0.001304
3898.000000	0.001311
3897.000000	0.001321
3896.000000	0.001329
3895.000000	0.001323
3894.000000	0.001302
3893.000000	0.001274
3892.000000	0.001255
3891.000000	0.001248
3890.000000	0.001247
3889.000000	0.001249
3888.000000	0.001259
3887.000000	0.001278
3886.000000	0.001291
3885.000000	0.001281
3884.000000	0.001253
3883.000000	0.001225
3882.000000	0.001208
3881.000000	0.001201
3880.000000	0.001200
3879.000000	0.001206
3878.000000	0.001219
3877.000000	0.001243
3876.000000	0.001270
3875.000000	0.001277
3874.000000	0.001247
3873.000000	0.001194
3872.000000	0.001151
3871.000000	0.001138
3870.000000	0.001140
3869.000000	0.001134
3868.000000	0.001119
3867.000000	0.001113
3866.000000	0.001125
3865.000000	0.001145
3864.000000	0.001166
3863.000000	0.001183
3862.000000	0.001194
3861.000000	0.001196
3860.000000	0.001191
3859.000000	0.001185
3858.000000	0.001176
3857.000000	0.001166
3856.000000	0.001162
3855.000000	0.001167
3854.000000	0.001170
3853.000000	0.001178
3852.000000	0.001207
3851.000000	0.001253
3850.000000	0.001299
3849.000000	0.001330
3848.000000	0.001342
3847.000000	0.001337
3846.000000	0.001318
3845.000000	0.001288
3844.000000	0.001251
3843.000000	0.001211
3842.000000	0.001172
3841.000000	0.001137
3840.000000	0.001107
3839.000000	0.001088
3838.000000	0.001089
3837.000000	0.001111
3836.000000	0.001139
3835.000000	0.001157
3834.000000	0.001165
3833.000000	0.001173
3832.000000	0.001184
3831.000000	0.001197
3830.000000	0.001209
3829.000000	0.001219
3828.000000	0.001228
3827.000000	0.001228
3826.000000	0.001206
3825.000000	0.001158
3824.000000	0.001101
3823.000000	0.001060
3822.000000	0.001048
3821.000000	0.001062
3820.000000	0.001089
3819.000000	0.001118
3818.000000	0.001150
3817.000000	0.001183
3816.000000	0.001214
3815.000000	0.001242
3814.000000	0.001275
3813.000000	0.001311
3812.000000	0.001338
3811.000000	0.001341
3810.000000	0.001318
3809.000000	0.001281
3808.000000	0.001237
3807.000000	0.001183
3806.000000	0.001120
3805.000000	0.001064
3804.000000	0.001037
3803.000000	0.001053
3802.000000	0.001094
3801.000000	0.001133
3800.000000	0.001161
3799.000000	0.001185
3798.000000	0.001215
3797.000000	0.001246
3796.000000	0.001268
3795.000000	0.001275
3794.000000	0.001274
3793.000000	0.001271
3792.000000	0.001269
3791.000000	0.001264
3790.000000	0.001251
3789.000000	0.001228
3788.000000	0.001205
3787.000000	0.001193
3786.000000	0.001199
3785.000000	0.001221
3784.000000	0.001243
3783.000000	0.001251
3782.000000	0.001246
3781.000000	0.001234
3780.000000	0.001228
3779.000000	0.001233
3778.000000	0.001246
3777.000000	0.001255
3776.000000	0.001250
3775.000000	0.001229
3774.000000	0.001195
3773.000000	0.001165
3772.000000	0.001153
3771.000000	0.001163
3770.000000	0.001186
3769.000000	0.001210
3768.000000	0.001228
3767.000000	0.001236
3766.000000	0.001232
3765.000000	0.001215
3764.000000	0.001191
3763.000000	0.001174
3762.000000	0.001173
3761.000000	0.001179
3760.000000	0.001180
3759.000000	0.001172
3758.000000	0.001163
3757.000000	0.001153
3756.000000	0.001145
3755.000000	0.001143
3754.000000	0.001148
3753.000000	0.001149
3752.000000	0.001137
3751.000000	0.001124
3750.000000	0.001122
3749.000000	0.001117
3748.000000	0.001093
3747.000000	0.001065
3746.000000	0.001066
3745.000000	0.001097
3744.000000	0.001135
3743.000000	0.001159
3742.000000	0.001170
3741.000000	0.001169
3740.000000	0.001152
3739.000000	0.001129
3738.000000	0.001119
3737.000000	0.001131
3736.000000	0.001142
3735.000000	0.001136
3734.000000	0.001126
3733.000000	0.001131
3732.000000	0.001147
3731.000000	0.001155
3730.000000	0.001146
3729.000000	0.001137
3728.000000	0.001147
3727.000000	0.001184
3726.000000	0.001238
3725.000000	0.001289
3724.000000	0.001319
3723.000000	0.001321
3722.000000	0.001307
3721.000000	0.001292
3720.000000	0.001284
3719.000000	0.001281
3718.000000	0.001274
3717.000000	0.001257
3716.000000	0.001228
3715.000000	0.001197
3714.000000	0.001172
3713.000000	0.001150
3712.000000	0.001128
3711.000000	0.001107
3710.000000	0.001095
3709.000000	0.001097
3708.000000	0.001109
3707.000000	0.001123
3706.000000	0.001136
3705.000000	0.001151
3704.000000	0.001171
3703.000000	0.001196
3702.000000	0.001218
3701.000000	0.001226
3700.000000	0.001219
3699.000000	0.001208
3698.000000	0.001202
3697.000000	0.001202
3696.000000	0.001198
3695.000000	0.001185
3694.000000	0.001170
3693.000000	0.001157
3692.000000	0.001149
3691.000000	0.001146
3690.000000	0.001153
3689.000000	0.001173
3688.000000	0.001201
3687.000000	0.001223
3686.000000	0.001234
3685.000000	0.001237
3684.000000	0.001233
3683.000000	0.001225
3682.000000	0.001215
3681.000000	0.001206
3680.000000	0.001198
3679.000000	0.001194
3678.000000	0.001208
3677.000000	0.001243
3676.000000	0.001262
3675.000000	0.001236
3674.000000	0.001183
3673.000000	0.001142
3672.000000	0.001148
3671.000000	0.001203
3670.000000	0.001277
3669.000000	0.001346
3668.000000	0.001402
3667.000000	0.001450
3666.000000	0.001494
3665.000000	0.001536
3664.000000	0.001572
3663.000000	0.001604
3662.000000	0.001626
3661.000000	0.001628
3660.000000	0.001605
3659.000000	0.001562
3658.000000	0.001521
3657.000000	0.001502
3656.000000	0.001513
3655.000000	0.001546
3654.000000	0.001594
3653.000000	0.001654
3652.000000	0.001720
3651.000000	0.001772
3650.000000	0.001793
3649.000000	0.001796
3648.000000	0.001807
3647.000000	0.001828
3646.000000	0.001852
3645.000000	0.001877
3644.000000	0.001906
3643.000000	0.001942
3642.000000	0.001984
3641.000000	0.002030
3640.000000	0.002071
3639.000000	0.002097
3638.000000	0.002105
3637.000000	0.002105
3636.000000	0.002110
3635.000000	0.002121
3634.000000	0.002125
3633.000000	0.002120
3632.000000	0.002121
3631.000000	0.002152
3630.000000	0.002210
3629.000000	0.002264
3628.000000	0.002300
3627.000000	0.002336
3626.000000	0.002389
3625.000000	0.002460
3624.000000	0.002531
3623.000000	0.002575
3622.000000	0.002578
3621.000000	0.002545
3620.000000	0.002500
3619.000000	0.002472
3618.000000	0.002479
3617.000000	0.002511
3616.000000	0.002549
3615.000000	0.002579
3614.000000	0.002593
3613.000000	0.002596
3612.000000	0.002600
3611.000000	0.002620
3610.000000	0.002663
3609.000000	0.002722
3608.000000	0.002786
3607.000000	0.002848
3606.000000	0.002908
3605.000000	0.002968
3604.000000	0.003031
3603.000000	0.003093
3602.000000	0.003149
3601.000000	0.003187
3600.000000	0.003201
3599.000000	0.003198
3598.000000	0.003193
3597.000000	0.003200
3596.000000	0.003229
3595.000000	0.003273
3594.000000	0.003319
3593.000000	0.003354
3592.000000	0.003375
3591.000000	0.003390
3590.000000	0.003412
3589.000000	0.003450
3588.000000	0.003507
3587.000000	0.003578
3586.000000	0.003652
3585.000000	0.003713
3584.000000	0.003752
3583.000000	0.003772
3582.000000	0.003783
3581.000000	0.003801
3580.000000	0.003835
3579.000000	0.003887
3578.000000	0.003945
3577.000000	0.004000
3576.000000	0.004047
3575.000000	0.004090
3574.000000	0.004137
3573.000000	0.004191
3572.000000	0.004252
3571.000000	0.004317
3570.000000	0.004380
3569.000000	0.004431
3568.000000	0.004462
3567.000000	0.004478
3566.000000	0.004499
3565.000000	0.004537
3564.000000	0.004588
3563.000000	0.004642
3562.000000	0.004693
3561.000000	0.004738
3560.000000	0.004781
3559.000000	0.004826
3558.000000	0.004875
3557.000000	0.004928
3556.000000	0.004979
3555.000000	0.005023
3554.000000	0.005058
3553.000000	0.005088
3552.000000	0.005121
3551.000000	0.005161
3550.000000	0.005206
3549.000000	0.005256
3548.000000	0.005306
3547.000000	0.005353
3546.000000	0.005389
3545.000000	0.005415
3544.000000	0.005435
3543.000000	0.005454
3542.000000	0.005478
3541.000000	0.005516
3540.000000	0.005574
3539.000000	0.005648
3538.000000	0.005723
3537.000000	0.005777
3536.000000	0.005804
3535.000000	0.005818
3534.000000	0.005840
3533.000000	0.005877
3532.000000	0.005918
3531.000000	0.005948
3530.000000	0.005963
3529.000000	0.005979
3528.000000	0.006010
3527.000000	0.006060
3526.000000	0.006119
3525.000000	0.006169
3524.000000	0.006202
3523.000000	0.006225
3522.000000	0.006253
3521.000000	0.006295
3520.000000	0.006352
3519.000000	0.006417
3518.000000	0.006481
3517.000000	0.006536
3516.000000	0.006577
3515.000000	0.006603
3514.000000	0.006623
3513.000000	0.006653
3512.000000	0.006705
3511.000000	0.006777
3510.000000	0.006858
3509.000000	0.006927
3508.000000	0.006970
3507.000000	0.006986
3506.000000	0.006982
3505.000000	0.006970
3504.000000	0.006965
3503.000000	0.006974
3502.000000	0.006996
3501.000000	0.007028
3500.000000	0.007070
3499.000000	0.007120
3498.000000	0.007176
3497.000000	0.007229
3496.000000	0.007271
3495.000000	0.007302
3494.000000	0.007330
3493.000000	0.007364
3492.000000	0.007406
3491.000000	0.007453
3490.000000	0.007497
3489.000000	0.007529
3488.000000	0.007545
3487.000000	0.007549
3486.000000	0.007555
3485.000000	0.007575
3484.000000	0.007610
3483.000000	0.007656
3482.000000	0.007700
3481.000000	0.007738
3480.000000	0.007764
3479.000000	0.007779
3478.000000	0.007790
3477.000000	0.007806
3476.000000	0.007841
3475.000000	0.007901
3474.000000	0.007978
3473.000000	0.008054
3472.000000	0.008109
3471.000000	0.008146
3470.000000	0.008180
3469.000000	0.008225
3468.000000	0.008281
3467.000000	0.008329
3466.000000	0.008357
3465.000000	0.008364
3464.000000	0.008361
3463.000000	0.008361
3462.000000	0.008369
3461.000000	0.008386
3460.000000	0.008410
3459.000000	0.008441
3458.000000	0.008479
3457.000000	0.008523
3456.000000	0.008568
3455.000000	0.008613
3454.000000	0.008658
3453.000000	0.008703
3452.000000	0.008747
3451.000000	0.008787
3450.000000	0.008825
3449.000000	0.008860
3448.000000	0.008895
3447.000000	0.008930
3446.000000	0.008970
3445.000000	0.009016
3444.000000	0.009059
3443.000000	0.009094
3442.000000	0.009124
3441.000000	0.009157
3440.000000	0.009196
3439.000000	0.009238
3438.000000	0.009278
3437.000000	0.009320
3436.000000	0.009362
3435.000000	0.009400
3434.000000	0.009427
3433.000000	0.009443
3432.000000	0.009453
3431.000000	0.009467
3430.000000	0.009490
3429.000000	0.009517
3428.000000	0.009549
3427.000000	0.009588
3426.000000	0.009637
3425.000000	0.009691
3424.000000	0.009733
3423.000000	0.009753
3422.000000	0.009759
3421.000000	0.009774
3420.000000	0.009812
3419.000000	0.009874
3418.000000	0.009948
3417.000000	0.010024
3416.000000	0.010091
3415.000000	0.010140
3414.000000	0.010166
3413.000000	0.010175
3412.000000	0.010179
3411.000000	0.010188
3410.000000	0.010206
3409.000000	0.010234
3408.000000	0.010271
3407.000000	0.010313
3406.000000	0.010350
3405.000000	0.010370
3404.000000	0.010371
3403.000000	0.010366
3402.000000	0.010374
3401.000000	0.010411
3400.000000	0.010479
3399.000000	0.010561
3398.000000	0.010637
3397.000000	0.010690
3396.000000	0.010719
3395.000000	0.010737
3394.000000	0.010754
3393.000000	0.010775
3392.000000	0.010799
3391.000000	0.010826
3390.000000	0.010857
3389.000000	0.010891
3388.000000	0.010929
3387.000000	0.010970
3386.000000	0.011013
3385.000000	0.011057
3384.000000	0.011097
3383.000000	0.011132
3382.000000	0.011159
3381.000000	0.011184
3380.000000	0.011212
3379.000000	0.011243
3378.000000	0.011276
3377.000000	0.011306
3376.000000	0.011335
3375.000000	0.011372
3374.000000	0.011428
3373.000000	0.011499
3372.000000	0.011572
3371.000000	0.011629
3370.000000	0.011661
3369.000000	0.011675
3368.000000	0.011690
3367.000000	0.011726
3366.000000	0.011793
3365.000000	0.011881
3364.000000	0.011971
3363.000000	0.012045
3362.000000	0.012099
3361.000000	0.012134
3360.000000	0.012152
3359.000000	0.012164
3358.000000	0.012181
3357.000000	0.012213
3356.000000	0.012259
3355.000000	0.012313
3354.000000	0.012373
3353.000000	0.012440
3352.000000	0.012516
3351.000000	0.012595
3350.000000	0.012666
3349.000000	0.012723
3348.000000	0.012767
3347.000000	0.012808
3346.000000	0.012850
3345.000000	0.012895
3344.000000	0.012941
3343.000000	0.012986
3342.000000	0.013032
3341.000000	0.013076
3340.000000	0.013119
3339.000000	0.013162
3338.000000	0.013207
3337.000000	0.013254
3336.000000	0.013297
3335.000000	0.013332
3334.000000	0.013362
3333.000000	0.013401
3332.000000	0.013456
3331.000000	0.013521
3330.000000	0.013579
3329.000000	0.013619
3328.000000	0.013642
3327.000000	0.013664
3326.000000	0.013696
3325.000000	0.013739
3324.000000	0.013785
3323.000000	0.013822
3322.000000	0.013847
3321.000000	0.013871
3320.000000	0.013903
3319.000000	0.013951
3318.000000	0.014008
3317.000000	0.014066
3316.000000	0.014118
3315.000000	0.014164
3314.000000	0.014208
3313.000000	0.014247
3312.000000	0.014277
3311.000000	0.014292
3310.000000	0.014292
3309.000000	0.014286
3308.000000	0.014291
3307.000000	0.014318
3306.000000	0.014361
3305.000000	0.014402
3304.000000	0.014424
3303.000000	0.014428
3302.000000	0.014432
3301.000000	0.014446
3300.000000	0.014471
3299.000000	0.014502
3298.000000	0.014533
3297.000000	0.014562
3296.000000	0.014585
3295.000000	0.014598
3294.000000	0.014598
3293.000000	0.014591
3292.000000	0.014587
3291.000000	0.014597
3290.000000	0.014625
3289.000000	0.014667
3288.000000	0.014707
3287.000000	0.014734
3286.000000	0.014743
3285.000000	0.014741
3284.000000	0.014738
3283.000000	0.014738
3282.000000	0.014738
3281.000000	0.014730
3280.000000	0.014705
3279.000000	0.014669
3278.000000	0.014633
3277.000000	0.014606
3276.000000	0.014589
3275.000000	0.014576
3274.000000	0.014563
3273.000000	0.014554
3272.000000	0.014550
3271.000000	0.014545
3270.000000	0.014528
3269.000000	0.014494
3268.000000	0.014443
3267.000000	0.014387
3266.000000	0.014341
3265.000000	0.014308
3264.000000	0.014281
3263.000000	0.014255
3262.000000	0.014230
3261.000000	0.014210
3260.000000	0.014191
3259.000000	0.014164
3258.000000	0.014122
3257.000000	0.014069
3256.000000	0.014013
3255.000000	0.013964
3254.000000	0.013928
3253.000000	0.013898
3252.000000	0.013866
3251.000000	0.013826
3250.000000	0.013785
3249.000000	0.013745
3248.000000	0.013704
3247.000000	0.013662
3246.000000	0.013622
3245.000000	0.013591
3244.000000	0.013570
3243.000000	0.013552
3242.000000	0.013531
3241.000000	0.013500
3240.000000	0.013459
3239.000000	0.013411
3238.000000	0.013367
3237.000000	0.013339
3236.000000	0.013329
3235.000000	0.013322
3234.000000	0.013303
3233.000000	0.013270
3232.000000	0.013231
3231.000000	0.013195
3230.000000	0.013165
3229.000000	0.013140
3228.000000	0.013118
3227.000000	0.013105
3226.000000	0.013098
3225.000000	0.013093
3224.000000	0.013082
3223.000000	0.013066
3222.000000	0.013050
3221.000000	0.013036
3220.000000	0.013014
3219.000000	0.012975
3218.000000	0.012923
3217.000000	0.012875
3216.000000	0.012840
3215.000000	0.012810
3214.000000	0.012776
3213.000000	0.012731
3212.000000	0.012680
3211.000000	0.012628
3210.000000	0.012580
3209.000000	0.012543
3208.000000	0.012521
3207.000000	0.012515
3206.000000	0.012517
3205.000000	0.012516
3204.000000	0.012506
3203.000000	0.012485
3202.000000	0.012454
3201.000000	0.012416
3200.000000	0.012368
3199.000000	0.012312
3198.000000	0.012257
3197.000000	0.012218
3196.000000	0.012198
3195.000000	0.012188
3194.000000	0.012171
3193.000000	0.012137
3192.000000	0.012094
3191.000000	0.012057
3190.000000	0.012035
3189.000000	0.012023
3188.000000	0.012002
3187.000000	0.011955
3186.000000	0.011881
3185.000000	0.011796
3184.000000	0.011722
3183.000000	0.011669
3182.000000	0.011629
3181.000000	0.011591
3180.000000	0.011550
3179.000000	0.011511
3178.000000	0.011481
3177.000000	0.011458
3176.000000	0.011431
3175.000000	0.011387
3174.000000	0.011329
3173.000000	0.011269
3172.000000	0.011215
3171.000000	0.011167
3170.000000	0.011115
3169.000000	0.011060
3168.000000	0.011011
3167.000000	0.010976
3166.000000	0.010955
3165.000000	0.010937
3164.000000	0.010914
3163.000000	0.010880
3162.000000	0.010838
3161.000000	0.010796
3160.000000	0.010760
3159.000000	0.010732
3158.000000	0.010705
3157.000000	0.010676
3156.000000	0.010641
3155.000000	0.010602
3154.000000	0.010555
3153.000000	0.010499
3152.000000	0.010439
3151.000000	0.010381
3150.000000	0.010328
3149.000000	0.010279
3148.000000	0.010236
3147.000000	0.010201
3146.000000	0.010172
3145.000000	0.010143
3144.000000	0.010115
3143.000000	0.010088
3142.000000	0.010061
3141.000000	0.010029
3140.000000	0.009988
3139.000000	0.009944
3138.000000	0.009902
3137.000000	0.009863
3136.000000	0.009822
3135.000000	0.009785
3134.000000	0.009763
3133.000000	0.009758
3132.000000	0.009759
3131.000000	0.009751
3130.000000	0.009725
3129.000000	0.009688
3128.000000	0.009651
3127.000000	0.009625
3126.000000	0.009612
3125.000000	0.009606
3124.000000	0.009597
3123.000000	0.009577
3122.000000	0.009547
3121.000000	0.009514
3120.000000	0.009490
3119.000000	0.009489
3118.000000	0.009509
3117.000000	0.009538
3116.000000	0.009554
3115.000000	0.009547
3114.000000	0.009520
3113.000000	0.009488
3112.000000	0.009462
3111.000000	0.009445
3110.000000	0.009432
3109.000000	0.009421
3108.000000	0.009415
3107.000000	0.009424
3106.000000	0.009447
3105.000000	0.009470
3104.000000	0.009473
3103.000000	0.009454
3102.000000	0.009431
3101.000000	0.009424
3100.000000	0.009440
3099.000000	0.009467
3098.000000	0.009494
3097.000000	0.009516
3096.000000	0.009533
3095.000000	0.009545
3094.000000	0.009555
3093.000000	0.009561
3092.000000	0.009562
3091.000000	0.009553
3090.000000	0.009536
3089.000000	0.009521
3088.000000	0.009516
3087.000000	0.009521
3086.000000	0.009534
3085.000000	0.009552
3084.000000	0.009574
3083.000000	0.009597
3082.000000	0.009614
3081.000000	0.009624
3080.000000	0.009626
3079.000000	0.009624
3078.000000	0.009621
3077.000000	0.009616
3076.000000	0.009606
3075.000000	0.009594
3074.000000	0.009587
3073.000000	0.009590
3072.000000	0.009604
3071.000000	0.009620
3070.000000	0.009622
3069.000000	0.009604
3068.000000	0.009573
3067.000000	0.009546
3066.000000	0.009533
3065.000000	0.009532
3064.000000	0.009533
3063.000000	0.009526
3062.000000	0.009504
3061.000000	0.009470
3060.000000	0.009426
3059.000000	0.009383
3058.000000	0.009344
3057.000000	0.009307
3056.000000	0.009263
3055.000000	0.009210
3054.000000	0.009155
3053.000000	0.009106
3052.000000	0.009066
3051.000000	0.009031
3050.000000	0.008995
3049.000000	0.008954
3048.000000	0.008909
3047.000000	0.008865
3046.000000	0.008822
3045.000000	0.008778
3044.000000	0.008737
3043.000000	0.008703
3042.000000	0.008682
3041.000000	0.008670
3040.000000	0.008652
3039.000000	0.008617
3038.000000	0.008565
3037.000000	0.008505
3036.000000	0.008447
3035.000000	0.008394
3034.000000	0.008349
3033.000000	0.008313
3032.000000	0.008285
3031.000000	0.008265
3030.000000	0.008251
3029.000000	0.008239
3028.000000	0.008220
3027.000000	0.008185
3026.000000	0.008133
3025.000000	0.008077
3024.000000	0.008027
3023.000000	0.007992
3022.000000	0.007966
3021.000000	0.007940
3020.000000	0.007903
3019.000000	0.007858
3018.000000	0.007812
3017.000000	0.007778
3016.000000	0.007757
3015.000000	0.007741
3014.000000	0.007727
3013.000000	0.007715
3012.000000	0.007706
3011.000000	0.007689
3010.000000	0.007657
3009.000000	0.007614
3008.000000	0.007576
3007.000000	0.007552
3006.000000	0.007542
3005.000000	0.007535
3004.000000	0.007527
3003.000000	0.007522
3002.000000	0.007523
3001.000000	0.007524
3000.000000	0.007517
2999.000000	0.007499
2998.000000	0.007478
2997.000000	0.007461
2996.000000	0.007449
2995.000000	0.007445
2994.000000	0.007455
2993.000000	0.007484
2992.000000	0.007527
2991.000000	0.007571
2990.000000	0.007606
2989.000000	0.007633
2988.000000	0.007656
2987.000000	0.007684
2986.000000	0.007721
2985.000000	0.007766
2984.000000	0.007817
2983.000000	0.007873
2982.000000	0.007936
2981.000000	0.007998
2980.000000	0.008046
2979.000000	0.008070
2978.000000	0.008079
2977.000000	0.008090
2976.000000	0.008112
2975.000000	0.008138
2974.000000	0.008150
2973.000000	0.008146
2972.000000	0.008132
2971.000000	0.008124
2970.000000	0.008130
2969.000000	0.008150
2968.000000	0.008173
2967.000000	0.008190
2966.000000	0.008193
2965.000000	0.008182
2964.000000	0.008160
2963.000000	0.008128
2962.000000	0.008089
2961.000000	0.008041
2960.000000	0.007985
2959.000000	0.007927
2958.000000	0.007875
2957.000000	0.007836
2956.000000	0.007811
2955.000000	0.007796
2954.000000	0.007785
2953.000000	0.007771
2952.000000	0.007751
2951.000000	0.007718
2950.000000	0.007666
2949.000000	0.007600
2948.000000	0.007528
2947.000000	0.007452
2946.000000	0.007360
2945.000000	0.007238
2944.000000	0.007088
2943.000000	0.006934
2942.000000	0.006796
2941.000000	0.006674
2940.000000	0.006545
2939.000000	0.006391
2938.000000	0.006209
2937.000000	0.006008
2936.000000	0.005791
2935.000000	0.005563
2934.000000	0.005328
2933.000000	0.005094
2932.000000	0.004867
2931.000000	0.004648
2930.000000	0.004441
2929.000000	0.004251
2928.000000	0.004081
2927.000000	0.003935
2926.000000	0.003825
2925.000000	0.003781
2924.000000	0.003834
2923.000000	0.003997
2922.000000	0.004254
2921.000000	0.004574
2920.000000	0.004933
2919.000000	0.005316
2918.000000	0.005715
2917.000000	0.006110
2916.000000	0.006471
2915.000000	0.006770
2914.000000	0.006997
2913.000000	0.007165
2912.000000	0.007296
2911.000000	0.007406
2910.000000	0.007496
2909.000000	0.007569
2908.000000	0.007631
2907.000000	0.007685
2906.000000	0.007735
2905.000000	0.007782
2904.000000	0.007833
2903.000000	0.007890
2902.000000	0.007951
2901.000000	0.008005
2900.000000	0.008042
2899.000000	0.008064
2898.000000	0.008074
2897.000000	0.008081
2896.000000	0.008088
2895.000000	0.008103
2894.000000	0.008127
2893.000000	0.008159
2892.000000	0.008192
2891.000000	0.008223
2890.000000	0.008253
2889.000000	0.008283
2888.000000	0.008310
2887.000000	0.008329
2886.000000	0.008338
2885.000000	0.008338
2884.000000	0.008329
2883.000000	0.008310
2882.000000	0.008279
2881.000000	0.008238
2880.000000	0.008194
2879.000000	0.008149
2878.000000	0.008101
2877.000000	0.008047
2876.000000	0.007987
2875.000000	0.007929
2874.000000	0.007882
2873.000000	0.007849
2872.000000	0.007827
2871.000000	0.007802
2870.000000	0.007761
2869.000000	0.007692
2868.000000	0.007591
2867.000000	0.007458
2866.000000	0.007297
2865.000000	0.007104
2864.000000	0.006871
2863.000000	0.006596
2862.000000	0.006285
2861.000000	0.005962
2860.000000	0.005656
2859.000000	0.005388
2858.000000	0.005165
2857.000000	0.004989
2856.000000	0.004871
2855.000000	0.004840
2854.000000	0.004929
2853.000000	0.005149
2852.000000	0.005472
2851.000000	0.005845
2850.000000	0.006214
2849.000000	0.006536
2848.000000	0.006792
2847.000000	0.006983
2846.000000	0.007129
2845.000000	0.007249
2844.000000	0.007356
2843.000000	0.007449
2842.000000	0.007522
2841.000000	0.007567
2840.000000	0.007577
2839.000000	0.007552
2838.000000	0.007502
2837.000000	0.007448
2836.000000	0.007404
2835.000000	0.007375
2834.000000	0.007356
2833.000000	0.007340
2832.000000	0.007322
2831.000000	0.007297
2830.000000	0.007263
2829.000000	0.007223
2828.000000	0.007182
2827.000000	0.007147
2826.000000	0.007113
2825.000000	0.007071
2824.000000	0.007013
2823.000000	0.006945
2822.000000	0.006882
2821.000000	0.006833
2820.000000	0.006794
2819.000000	0.006756
2818.000000	0.006718
2817.000000	0.006684
2816.000000	0.006657
2815.000000	0.006635
2814.000000	0.006614
2813.000000	0.006589
2812.000000	0.006557
2811.000000	0.006521
2810.000000	0.006486
2809.000000	0.006456
2808.000000	0.006432
2807.000000	0.006415
2806.000000	0.006405
2805.000000	0.006405
2804.000000	0.006410
2803.000000	0.006410
2802.000000	0.006397
2801.000000	0.006372
2800.000000	0.006341
2799.000000	0.006311
2798.000000	0.006289
2797.000000	0.006274
2796.000000	0.006257
2795.000000	0.006230
2794.000000	0.006195
2793.000000	0.006166
2792.000000	0.006149
2791.000000	0.006144
2790.000000	0.006142
2789.000000	0.006139
2788.000000	0.006128
2787.000000	0.006105
2786.000000	0.006070
2785.000000	0.006035
2784.000000	0.006009
2783.000000	0.005995
2782.000000	0.005984
2781.000000	0.005967
2780.000000	0.005944
2779.000000	0.005920
2778.000000	0.005902
2777.000000	0.005891
2776.000000	0.005884
2775.000000	0.005876
2774.000000	0.005866
2773.000000	0.005858
2772.000000	0.005851
2771.000000	0.005840
2770.000000	0.005822
2769.000000	0.005803
2768.000000	0.005787
2767.000000	0.005776
2766.000000	0.005764
2765.000000	0.005754
2764.000000	0.005747
2763.000000	0.005739
2762.000000	0.005728
2761.000000	0.005712
2760.000000	0.005693
2759.000000	0.005676
2758.000000	0.005663
2757.000000	0.005651
2756.000000	0.005638
2755.000000	0.005624
2754.000000	0.005608
2753.000000	0.005591
2752.000000	0.005574
2751.000000	0.005559
2750.000000	0.005547
2749.000000	0.005539
2748.000000	0.005534
2747.000000	0.005531
2746.000000	0.005529
2745.000000	0.005527
2744.000000	0.005520
2743.000000	0.005504
2742.000000	0.005479
2741.000000	0.005450
2740.000000	0.005427
2739.000000	0.005418
2738.000000	0.005427
2737.000000	0.005447
2736.000000	0.005460
2735.000000	0.005454
2734.000000	0.005430
2733.000000	0.005403
2732.000000	0.005388
2731.000000	0.005384
2730.000000	0.005382
2729.000000	0.005375
2728.000000	0.005362
2727.000000	0.005346
2726.000000	0.005325
2725.000000	0.005298
2724.000000	0.005266
2723.000000	0.005234
2722.000000	0.005209
2721.000000	0.005195
2720.000000	0.005193
2719.000000	0.005192
2718.000000	0.005185
2717.000000	0.005173
2716.000000	0.005159
2715.000000	0.005148
2714.000000	0.005137
2713.000000	0.005126
2712.000000	0.005117
2711.000000	0.005111
2710.000000	0.005103
2709.000000	0.005088
2708.000000	0.005071
2707.000000	0.005060
2706.000000	0.005060
2705.000000	0.005062
2704.000000	0.005059
2703.000000	0.005048
2702.000000	0.005034
2701.000000	0.005023
2700.000000	0.005015
2699.000000	0.005001
2698.000000	0.004980
2697.000000	0.004955
2696.000000	0.004939
2695.000000	0.004938
2694.000000	0.004949
2693.000000	0.004961
2692.000000	0.004960
2691.000000	0.004944
2690.000000	0.004926
2689.000000	0.004920
2688.000000	0.004925
2687.000000	0.004932
2686.000000	0.004928
2685.000000	0.004907
2684.000000	0.004875
2683.000000	0.004843
2682.000000	0.004824
2681.000000	0.004823
2680.000000	0.004835
2679.000000	0.004847
2678.000000	0.004851
2677.000000	0.004850
2676.000000	0.004849
2675.000000	0.004848
2674.000000	0.004844
2673.000000	0.004834
2672.000000	0.004823
2671.000000	0.004818
2670.000000	0.004819
2669.000000	0.004818
2668.000000	0.004812
2667.000000	0.004801
2666.000000	0.004794
2665.000000	0.004792
2664.000000	0.004794
2663.000000	0.004796
2662.000000	0.004802
2661.000000	0.004814
2660.000000	0.004827
2659.000000	0.004832
2658.000000	0.004819
2657.000000	0.004795
2656.000000	0.004773
2655.000000	0.004759
2654.000000	0.004755
2653.000000	0.004753
2652.000000	0.004746
2651.000000	0.004728
2650.000000	0.004698
2649.000000	0.004661
2648.000000	0.004631
2647.000000	0.004616
2646.000000	0.004613
2645.000000	0.004611
2644.000000	0.004604
2643.000000	0.004588
2642.000000	0.004569
2641.000000	0.004547
2640.000000	0.004521
2639.000000	0.004492
2638.000000	0.004465
2637.000000	0.004448
2636.000000	0.004441
2635.000000	0.004435
2634.000000	0.004426
2633.000000	0.004409
2632.000000	0.004381
2631.000000	0.004345
2630.000000	0.004307
2629.000000	0.004278
2628.000000	0.004260
2627.000000	0.004241
2626.000000	0.004216
2625.000000	0.004190
2624.000000	0.004177
2623.000000	0.004186
2622.000000	0.004211
2621.000000	0.004239
2620.000000	0.004251
2619.000000	0.004234
2618.000000	0.004190
2617.000000	0.004140
2616.000000	0.004111
2615.000000	0.004108
2614.000000	0.004111
2613.000000	0.004100
2612.000000	0.004076
2611.000000	0.004051
2610.000000	0.004037
2609.000000	0.004028
2608.000000	0.004020
2607.000000	0.004018
2606.000000	0.004035
2605.000000	0.004071
2604.000000	0.004106
2603.000000	0.004114
2602.000000	0.004084
2601.000000	0.004033
2600.000000	0.003987
2599.000000	0.003959
2598.000000	0.003941
2597.000000	0.003921
2596.000000	0.003899
2595.000000	0.003887
2594.000000	0.003888
2593.000000	0.003887
2592.000000	0.003869
2591.000000	0.003836
2590.000000	0.003810
2589.000000	0.003808
2588.000000	0.003823
2587.000000	0.003837
2586.000000	0.003831
2585.000000	0.003808
2584.000000	0.003781
2583.000000	0.003769
2582.000000	0.003783
2581.000000	0.003819
2580.000000	0.003859
2579.000000	0.003877
2578.000000	0.003862
2577.000000	0.003820
2576.000000	0.003764
2575.000000	0.003709
2574.000000	0.003675
2573.000000	0.003679
2572.000000	0.003720
2571.000000	0.003774
2570.000000	0.003807
2569.000000	0.003806
2568.000000	0.003784
2567.000000	0.003765
2566.000000	0.003760
2565.000000	0.003767
2564.000000	0.003767
2563.000000	0.003749
2562.000000	0.003716
2561.000000	0.003687
2560.000000	0.003674
2559.000000	0.003669
2558.000000	0.003654
2557.000000	0.003628
2556.000000	0.003611
2555.000000	0.003618
2554.000000	0.003647
2553.000000	0.003676
2552.000000	0.003682
2551.000000	0.003655
2550.000000	0.003598
2549.000000	0.003535
2548.000000	0.003487
2547.000000	0.003461
2546.000000	0.003450
2545.000000	0.003449
2544.000000	0.003464
2543.000000	0.003493
2542.000000	0.003519
2541.000000	0.003525
2540.000000	0.003514
2539.000000	0.003507
2538.000000	0.003521
2537.000000	0.003552
2536.000000	0.003585
2535.000000	0.003607
2534.000000	0.003609
2533.000000	0.003588
2532.000000	0.003546
2531.000000	0.003498
2530.000000	0.003455
2529.000000	0.003426
2528.000000	0.003418
2527.000000	0.003435
2526.000000	0.003468
2525.000000	0.003494
2524.000000	0.003490
2523.000000	0.003454
2522.000000	0.003407
2521.000000	0.003374
2520.000000	0.003365
2519.000000	0.003376
2518.000000	0.003397
2517.000000	0.003425
2516.000000	0.003456
2515.000000	0.003486
2514.000000	0.003507
2513.000000	0.003511
2512.000000	0.003498
2511.000000	0.003474
2510.000000	0.003452
2509.000000	0.003442
2508.000000	0.003445
2507.000000	0.003451
2506.000000	0.003449
2505.000000	0.003434
2504.000000	0.003408
2503.000000	0.003374
2502.000000	0.003339
2501.000000	0.003315
2500.000000	0.003312
2499.000000	0.003331
2498.000000	0.003359
2497.000000	0.003376
2496.000000	0.003370
2495.000000	0.003346
2494.000000	0.003315
2493.000000	0.003289
2492.000000	0.003273
2491.000000	0.003270
2490.000000	0.003284
2489.000000	0.003309
2488.000000	0.003333
2487.000000	0.003347
2486.000000	0.003352
2485.000000	0.003357
2484.000000	0.003363
2483.000000	0.003370
2482.000000	0.003379
2481.000000	0.003392
2480.000000	0.003401
2479.000000	0.003398
2478.000000	0.003383
2477.000000	0.003367
2476.000000	0.003358
2475.000000	0.003352
2474.000000	0.003337
2473.000000	0.003313
2472.000000	0.003295
2471.000000	0.003294
2470.000000	0.003303
2469.000000	0.003306
2468.000000	0.003290
2467.000000	0.003259
2466.000000	0.003227
2465.000000	0.003204
2464.000000	0.003192
2463.000000	0.003188
2462.000000	0.003190
2461.000000	0.003200
2460.000000	0.003218
2459.000000	0.003239
2458.000000	0.003257
2457.000000	0.003271
2456.000000	0.003287
2455.000000	0.003309
2454.000000	0.003333
2453.000000	0.003346
2452.000000	0.003334
2451.000000	0.003300
2450.000000	0.003263
2449.000000	0.003250
2448.000000	0.003267
2447.000000	0.003297
2446.000000	0.003307
2445.000000	0.003278
2444.000000	0.003224
2443.000000	0.003173
2442.000000	0.003146
2441.000000	0.003143
2440.000000	0.003154
2439.000000	0.003177
2438.000000	0.003211
2437.000000	0.003245
2436.000000	0.003256
2435.000000	0.003235
2434.000000	0.003195
2433.000000	0.003160
2432.000000	0.003146
2431.000000	0.003153
2430.000000	0.003166
2429.000000	0.003168
2428.000000	0.003156
2427.000000	0.003139
2426.000000	0.003129
2425.000000	0.003121
2424.000000	0.003105
2423.000000	0.003080
2422.000000	0.003062
2421.000000	0.003065
2420.000000	0.003089
2419.000000	0.003122
2418.000000	0.003154
2417.000000	0.003176
2416.000000	0.003185
2415.000000	0.003185
2414.000000	0.003182
2413.000000	0.003171
2412.000000	0.003142
2411.000000	0.003102
2410.000000	0.003069
2409.000000	0.003062
2408.000000	0.003079
2407.000000	0.003102
2406.000000	0.003117
2405.000000	0.003124
2404.000000	0.003128
2403.000000	0.003131
2402.000000	0.003132
2401.000000	0.003122
2400.000000	0.003095
2399.000000	0.003064
2398.000000	0.003055
2397.000000	0.003078
2396.000000	0.003111
2395.000000	0.003125
2394.000000	0.003116
2393.000000	0.003107
2392.000000	0.003108
2391.000000	0.003110
2390.000000	0.003105
2389.000000	0.003100
2388.000000	0.003107
2387.000000	0.003128
2386.000000	0.003149
2385.000000	0.003156
2384.000000	0.003146
2383.000000	0.003130
2382.000000	0.003125
2381.000000	0.003137
2380.000000	0.003154
2379.000000	0.003158
2378.000000	0.003140
2377.000000	0.003108
2376.000000	0.003074
2375.000000	0.003049
2374.000000	0.003041
2373.000000	0.003058
2372.000000	0.003091
2371.000000	0.003120
2370.000000	0.003131
2369.000000	0.003132
2368.000000	0.003139
2367.000000	0.003157
2366.000000	0.003184
2365.000000	0.003209
2364.000000	0.003216
2363.000000	0.003188
2362.000000	0.003141
2361.000000	0.003111
2360.000000	0.003127
2359.000000	0.003174
2358.000000	0.003221
2357.000000	0.003257
2356.000000	0.003288
2355.000000	0.003308
2354.000000	0.003299
2353.000000	0.003260
2352.000000	0.003216
2351.000000	0.003192
2350.000000	0.003198
2349.000000	0.003228
2348.000000	0.003269
2347.000000	0.003300
2346.000000	0.003306
2345.000000	0.003289
2344.000000	0.003273
2343.000000	0.003273
2342.000000	0.003281
2341.000000	0.003284
2340.000000	0.003286
2339.000000	0.003291
2338.000000	0.003293
2337.000000	0.003281
2336.000000	0.003264
2335.000000	0.003268
2334.000000	0.003302
2333.000000	0.003346
2332.000000	0.003371
2331.000000	0.003361
2330.000000	0.003327
2329.000000	0.003292
2328.000000	0.003281
2327.000000	0.003315
2326.000000	0.003386
2325.000000	0.003457
2324.000000	0.003480
2323.000000	0.003437
2322.000000	0.003362
2321.000000	0.003301
2320.000000	0.003265
2319.000000	0.003229
2318.000000	0.003171
2317.000000	0.003104
2316.000000	0.003058
2315.000000	0.003050
2314.000000	0.003077
2313.000000	0.003118
2312.000000	0.003151
2311.000000	0.003164
2310.000000	0.003152
2309.000000	0.003116
2308.000000	0.003060
2307.000000	0.002994
2306.000000	0.002938
2305.000000	0.002908
2304.000000	0.002909
2303.000000	0.002930
2302.000000	0.002963
2301.000000	0.003007
2300.000000	0.003059
2299.000000	0.003109
2298.000000	0.003139
2297.000000	0.003143
2296.000000	0.003130
2295.000000	0.003108
2294.000000	0.003087
2293.000000	0.003069
2292.000000	0.003056
2291.000000	0.003053
2290.000000	0.003065
2289.000000	0.003096
2288.000000	0.003144
2287.000000	0.003194
2286.000000	0.003233
2285.000000	0.003255
2284.000000	0.003256
2283.000000	0.003236
2282.000000	0.003205
2281.000000	0.003180
2280.000000	0.003168
2279.000000	0.003161
2278.000000	0.003148
2277.000000	0.003128
2276.000000	0.003116
2275.000000	0.003123
2274.000000	0.003142
2273.000000	0.003158
2272.000000	0.003158
2271.000000	0.003129
2270.000000	0.003074
2269.000000	0.003009
2268.000000	0.002959
2267.000000	0.002942
2266.000000	0.002950
2265.000000	0.002956
2264.000000	0.002937
2263.000000	0.002887
2262.000000	0.002821
2261.000000	0.002762
2260.000000	0.002732
2259.000000	0.002743
2258.000000	0.002783
2257.000000	0.002819
2256.000000	0.002824
2255.000000	0.002803
2254.000000	0.002782
2253.000000	0.002776
2252.000000	0.002778
2251.000000	0.002781
2250.000000	0.002793
2249.000000	0.002815
2248.000000	0.002831
2247.000000	0.002831
2246.000000	0.002837
2245.000000	0.002865
2244.000000	0.002889
2243.000000	0.002863
2242.000000	0.002786
2241.000000	0.002727
2240.000000	0.002760
2239.000000	0.002891
2238.000000	0.003046
2237.000000	0.003132
2236.000000	0.003107
2235.000000	0.003005
2234.000000	0.002914
2233.000000	0.002909
2232.000000	0.002991
2231.000000	0.003088
2230.000000	0.003122
2229.000000	0.003074
2228.000000	0.002984
2227.000000	0.002899
2226.000000	0.002842
2225.000000	0.002801
2224.000000	0.002761
2223.000000	0.002719
2222.000000	0.002690
2221.000000	0.002694
2220.000000	0.002730
2219.000000	0.002778
2218.000000	0.002816
2217.000000	0.002836
2216.000000	0.002838
2215.000000	0.002823
2214.000000	0.002797
2213.000000	0.002764
2212.000000	0.002724
2211.000000	0.002670
2210.000000	0.002602
2209.000000	0.002531
2208.000000	0.002472
2207.000000	0.002442
2206.000000	0.002455
2205.000000	0.002524
2204.000000	0.002645
2203.000000	0.002785
2202.000000	0.002891
2201.000000	0.002907
2200.000000	0.002814
2199.000000	0.002658
2198.000000	0.002524
2197.000000	0.002468
2196.000000	0.002483
2195.000000	0.002527
2194.000000	0.002583
2193.000000	0.002651
2192.000000	0.002706
2191.000000	0.002699
2190.000000	0.002625
2189.000000	0.002548
2188.000000	0.002537
2187.000000	0.002583
2186.000000	0.002616
2185.000000	0.002589
2184.000000	0.002531
2183.000000	0.002510
2182.000000	0.002552
2181.000000	0.002617
2180.000000	0.002649
2179.000000	0.002640
2178.000000	0.002633
2177.000000	0.002665
2176.000000	0.002718
2175.000000	0.002735
2174.000000	0.002675
2173.000000	0.002554
2172.000000	0.002426
2171.000000	0.002327
2170.000000	0.002264
2169.000000	0.002227
2168.000000	0.002233
2167.000000	0.002320
2166.000000	0.002499
2165.000000	0.002711
2164.000000	0.002866
2163.000000	0.002911
2162.000000	0.002834
2161.000000	0.002610
2160.000000	0.002215
2159.000000	0.001732
2158.000000	0.001358
2157.000000	0.001229
2156.000000	0.001303
2155.000000	0.001475
2154.000000	0.001699
2153.000000	0.001955
2152.000000	0.002172
2151.000000	0.002260
2150.000000	0.002209
2149.000000	0.002107
2148.000000	0.002054
2147.000000	0.002098
2146.000000	0.002224
2145.000000	0.002374
2144.000000	0.002472
2143.000000	0.002470
2142.000000	0.002396
2141.000000	0.002323
2140.000000	0.002307
2139.000000	0.002345
2138.000000	0.002400
2137.000000	0.002440
2136.000000	0.002449
2135.000000	0.002418
2134.000000	0.002352
2133.000000	0.002280
2132.000000	0.002241
2131.000000	0.002261
2130.000000	0.002328
2129.000000	0.002408
2128.000000	0.002481
2127.000000	0.002552
2126.000000	0.002628
2125.000000	0.002688
2124.000000	0.002701
2123.000000	0.002669
2122.000000	0.002624
2121.000000	0.002587
2120.000000	0.002557
2119.000000	0.002549
2118.000000	0.002600
2117.000000	0.002716
2116.000000	0.002834
2115.000000	0.002875
2114.000000	0.002831
2113.000000	0.002769
2112.000000	0.002755
2111.000000	0.002794
2110.000000	0.002843
2109.000000	0.002859
2108.000000	0.002829
2107.000000	0.002776
2106.000000	0.002741
2105.000000	0.002746
2104.000000	0.002775
2103.000000	0.002794
2102.000000	0.002796
2101.000000	0.002797
2100.000000	0.002800
2099.000000	0.002789
2098.000000	0.002756
2097.000000	0.002724
2096.000000	0.002715
2095.000000	0.002720
2094.000000	0.002708
2093.000000	0.002665
2092.000000	0.002617
2091.000000	0.002612
2090.000000	0.002677
2089.000000	0.002783
2088.000000	0.002866
2087.000000	0.002890
2086.000000	0.002882
2085.000000	0.002894
2084.000000	0.002929
2083.000000	0.002939
2082.000000	0.002881
2081.000000	0.002777
2080.000000	0.002689
2079.000000	0.002657
2078.000000	0.002665
2077.000000	0.002654
2076.000000	0.002585
2075.000000	0.002475
2074.000000	0.002382
2073.000000	0.002340
2072.000000	0.002338
2071.000000	0.002357
2070.000000	0.002412
2069.000000	0.002513
2068.000000	0.002615
2067.000000	0.002656
2066.000000	0.002636
2065.000000	0.002621
2064.000000	0.002653
2063.000000	0.002694
2062.000000	0.002675
2061.000000	0.002570
2060.000000	0.002421
2059.000000	0.002300
2058.000000	0.002253
2057.000000	0.002270
2056.000000	0.002293
2055.000000	0.002280
2054.000000	0.002263
2053.000000	0.002327
2052.000000	0.002504
2051.000000	0.002729
2050.000000	0.002888
2049.000000	0.002910
2048.000000	0.002797
2047.000000	0.002611
2046.000000	0.002428
2045.000000	0.002316
2044.000000	0.002304
2043.000000	0.002371
2042.000000	0.002462
2041.000000	0.002516
2040.000000	0.002500
2039.000000	0.002442
2038.000000	0.002419
2037.000000	0.002467
2036.000000	0.002495
2035.000000	0.002341
2034.000000	0.001956
2033.000000	0.001517
2032.000000	0.001282
2031.000000	0.001365
2030.000000	0.001653
2029.000000	0.001918
2028.000000	0.001998
2027.000000	0.001906
2026.000000	0.001807
2025.000000	0.001862
2024.000000	0.002087
2023.000000	0.002353
2022.000000	0.002522
2021.000000	0.002561
2020.000000	0.002531
2019.000000	0.002490
2018.000000	0.002427
2017.000000	0.002291
2016.000000	0.002085
2015.000000	0.001893
2014.000000	0.001788
2013.000000	0.001727
2012.000000	0.001568
2011.000000	0.001248
2010.000000	0.000892
2009.000000	0.000705
2008.000000	0.000772
2007.000000	0.001009
2006.000000	0.001290
2005.000000	0.001549
2004.000000	0.001757
2003.000000	0.001901
2002.000000	0.001994
2001.000000	0.002077
2000.000000	0.002174
1999.000000	0.002267
1998.000000	0.002313
1997.000000	0.002269
1996.000000	0.002113
1995.000000	0.001876
1994.000000	0.001659
1993.000000	0.001582
1992.000000	0.001682
1991.000000	0.001877
1990.000000	0.002047
1989.000000	0.002140
1988.000000	0.002171
1987.000000	0.002178
1986.000000	0.002180
1985.000000	0.002183
1984.000000	0.002218
1983.000000	0.002342
1982.000000	0.002569
1981.000000	0.002798
1980.000000	0.002848
1979.000000	0.002626
1978.000000	0.002245
1977.000000	0.001921
1976.000000	0.001767
1975.000000	0.001753
1974.000000	0.001821
1973.000000	0.001944
1972.000000	0.002074
1971.000000	0.002144
1970.000000	0.002133
1969.000000	0.002075
1968.000000	0.002022
1967.000000	0.002002
1966.000000	0.002024
1965.000000	0.002059
1964.000000	0.002053
1963.000000	0.001975
1962.000000	0.001871
1961.000000	0.001820
1960.000000	0.001859
1959.000000	0.001974
1958.000000	0.002145
1957.000000	0.002353
1956.000000	0.002546
1955.000000	0.002648
1954.000000	0.002625
1953.000000	0.002508
1952.000000	0.002365
1951.000000	0.002250
1950.000000	0.002189
1949.000000	0.002163
1948.000000	0.002123
1947.000000	0.002037
1946.000000	0.001931
1945.000000	0.001872
1944.000000	0.001895
1943.000000	0.001963
1942.000000	0.002004
1941.000000	0.001980
1940.000000	0.001930
1939.000000	0.001939
1938.000000	0.002064
1937.000000	0.002265
1936.000000	0.002429
1935.000000	0.002489
1934.000000	0.002489
1933.000000	0.002511
1932.000000	0.002565
1931.000000	0.002583
1930.000000	0.002523
1929.000000	0.002420
1928.000000	0.002341
1927.000000	0.002321
1926.000000	0.002337
1925.000000	0.002351
1924.000000	0.002331
1923.000000	0.002279
1922.000000	0.002233
1921.000000	0.002243
1920.000000	0.002311
1919.000000	0.002394
1918.000000	0.002439
1917.000000	0.002435
1916.000000	0.002420
1915.000000	0.002428
1914.000000	0.002472
1913.000000	0.002537
1912.000000	0.002601
1911.000000	0.002650
1910.000000	0.002680
1909.000000	0.002686
1908.000000	0.002658
1907.000000	0.002596
1906.000000	0.002523
1905.000000	0.002476
1904.000000	0.002481
1903.000000	0.002528
1902.000000	0.002586
1901.000000	0.002620
1900.000000	0.002613
1899.000000	0.002583
1898.000000	0.002565
1897.000000	0.002585
1896.000000	0.002635
1895.000000	0.002679
1894.000000	0.002685
1893.000000	0.002642
1892.000000	0.002565
1891.000000	0.002488
1890.000000	0.002455
1889.000000	0.002483
1888.000000	0.002551
1887.000000	0.002628
1886.000000	0.002703
1885.000000	0.002770
1884.000000	0.002815
1883.000000	0.002818
1882.000000	0.002780
1881.000000	0.002719
1880.000000	0.002658
1879.000000	0.002614
1878.000000	0.002594
1877.000000	0.002582
1876.000000	0.002554
1875.000000	0.002500
1874.000000	0.002431
1873.000000	0.002370
1872.000000	0.002333
1871.000000	0.002334
1870.000000	0.002383
1869.000000	0.002458
1868.000000	0.002513
1867.000000	0.002534
1866.000000	0.002547
1865.000000	0.002564
1864.000000	0.002576
1863.000000	0.002577
1862.000000	0.002593
1861.000000	0.002646
1860.000000	0.002715
1859.000000	0.002749
1858.000000	0.002722
1857.000000	0.002648
1856.000000	0.002572
1855.000000	0.002537
1854.000000	0.002567
1853.000000	0.002643
1852.000000	0.002707
1851.000000	0.002725
1850.000000	0.002704
1849.000000	0.002658
1848.000000	0.002585
1847.000000	0.002501
1846.000000	0.002467
1845.000000	0.002527
1844.000000	0.002645
1843.000000	0.002723
1842.000000	0.002727
1841.000000	0.002708
1840.000000	0.002708
1839.000000	0.002717
1838.000000	0.002713
1837.000000	0.002708
1836.000000	0.002716
1835.000000	0.002727
1834.000000	0.002712
1833.000000	0.002660
1832.000000	0.002578
1831.000000	0.002493
1830.000000	0.002440
1829.000000	0.002427
1828.000000	0.002443
1827.000000	0.002480
1826.000000	0.002554
1825.000000	0.002655
1824.000000	0.002744
1823.000000	0.002793
1822.000000	0.002817
1821.000000	0.002835
1820.000000	0.002842
1819.000000	0.002830
1818.000000	0.002814
1817.000000	0.002812
1816.000000	0.002813
1815.000000	0.002790
1814.000000	0.002751
1813.000000	0.002723
1812.000000	0.002725
1811.000000	0.002747
1810.000000	0.002773
1809.000000	0.002804
1808.000000	0.002840
1807.000000	0.002870
1806.000000	0.002888
1805.000000	0.002898
1804.000000	0.002904
1803.000000	0.002895
1802.000000	0.002866
1801.000000	0.002818
1800.000000	0.002774
1799.000000	0.002757
1798.000000	0.002767
1797.000000	0.002775
1796.000000	0.002749
1795.000000	0.002693
1794.000000	0.002652
1793.000000	0.002670
1792.000000	0.002742
1791.000000	0.002818
1790.000000	0.002868
1789.000000	0.002905
1788.000000	0.002938
1787.000000	0.002958
1786.000000	0.002954
1785.000000	0.002936
1784.000000	0.002906
1783.000000	0.002872
1782.000000	0.002864
1781.000000	0.002893
1780.000000	0.002937
1779.000000	0.002963
1778.000000	0.002966
1777.000000	0.002958
1776.000000	0.002943
1775.000000	0.002932
1774.000000	0.002941
1773.000000	0.002981
1772.000000	0.003034
1771.000000	0.003075
1770.000000	0.003126
1769.000000	0.003216
1768.000000	0.003302
1767.000000	0.003295
1766.000000	0.003177
1765.000000	0.003015
1764.000000	0.002874
1763.000000	0.002765
1762.000000	0.002674
1761.000000	0.002580
1760.000000	0.002459
1759.000000	0.002303
1758.000000	0.002137
1757.000000	0.001986
1756.000000	0.001844
1755.000000	0.001702
1754.000000	0.001572
1753.000000	0.001466
1752.000000	0.001345
1751.000000	0.001171
1750.000000	0.000973
1749.000000	0.000847
1748.000000	0.000839
1747.000000	0.000917
1746.000000	0.001037
1745.000000	0.001186
1744.000000	0.001363
1743.000000	0.001540
1742.000000	0.001721
1741.000000	0.001971
1740.000000	0.002331
1739.000000	0.002709
1738.000000	0.002999
1737.000000	0.003237
1736.000000	0.003528
1735.000000	0.003885
1734.000000	0.004237
1733.000000	0.004472
1732.000000	0.004535
1731.000000	0.004514
1730.000000	0.004528
1729.000000	0.004609
1728.000000	0.004706
1727.000000	0.004771
1726.000000	0.004806
1725.000000	0.004844
1724.000000	0.004911
1723.000000	0.004961
1722.000000	0.004939
1721.000000	0.004879
1720.000000	0.004886
1719.000000	0.005039
1718.000000	0.005314
1717.000000	0.005587
1716.000000	0.005751
1715.000000	0.005808
1714.000000	0.005825
1713.000000	0.005853
1712.000000	0.005901
1711.000000	0.005956
1710.000000	0.006012
1709.000000	0.006061
1708.000000	0.006098
1707.000000	0.006169
1706.000000	0.006320
1705.000000	0.006525
1704.000000	0.006701
1703.000000	0.006846
1702.000000	0.007040
1701.000000	0.007393
1700.000000	0.007936
1699.000000	0.008476
1698.000000	0.008929
1697.000000	0.009457
1696.000000	0.010074
1695.000000	0.010571
1694.000000	0.010822
1693.000000	0.010957
1692.000000	0.011184
1691.000000	0.011542
1690.000000	0.011950
1689.000000	0.012350
1688.000000	0.012745
1687.000000	0.013165
1686.000000	0.013604
1685.000000	0.014080
1684.000000	0.014592
1683.000000	0.015049
1682.000000	0.015465
1681.000000	0.015941
1680.000000	0.016466
1679.000000	0.016936
1678.000000	0.017337
1677.000000	0.017778
1676.000000	0.018338
1675.000000	0.018955
1674.000000	0.019499
1673.000000	0.019940
1672.000000	0.020360
1671.000000	0.020836
1670.000000	0.021401
1669.000000	0.022048
1668.000000	0.022690
1667.000000	0.023220
1666.000000	0.023637
1665.000000	0.024022
1664.000000	0.024436
1663.000000	0.024862
1662.000000	0.025282
1661.000000	0.025708
1660.000000	0.026143
1659.000000	0.026544
1658.000000	0.026870
1657.000000	0.027158
1656.000000	0.027514
1655.000000	0.027936
1654.000000	0.028276
1653.000000	0.028517
1652.000000	0.028808
1651.000000	0.028947
1650.000000	0.028923
1649.000000	0.028972
1648.000000	0.029124
1647.000000	0.029272
1646.000000	0.029436
1645.000000	0.029679
1644.000000	0.029926
1643.000000	0.030113
1642.000000	0.030255
1641.000000	0.030359
1640.000000	0.030431
1639.000000	0.030503
1638.000000	0.030581
1637.000000	0.030597
1636.000000	0.030475
1635.000000	0.030332
1634.000000	0.030331
1633.000000	0.030446
1632.000000	0.030593
1631.000000	0.030688
1630.000000	0.030651
1629.000000	0.030480
1628.000000	0.030252
1627.000000	0.030039
1626.000000	0.029858
1625.000000	0.029658
1624.000000	0.029376
1623.000000	0.029007
1622.000000	0.028648
1621.000000	0.028379
1620.000000	0.028206
1619.000000	0.028068
1618.000000	0.027825
1617.000000	0.027353
1616.000000	0.026723
1615.000000	0.026106
1614.000000	0.025575
1613.000000	0.025123
1612.000000	0.024682
1611.000000	0.024191
1610.000000	0.023674
1609.000000	0.023186
1608.000000	0.022744
1607.000000	0.022332
1606.000000	0.021951
1605.000000	0.021596
1604.000000	0.021251
1603.000000	0.020918
1602.000000	0.020611
1601.000000	0.020340
1600.000000	0.020098
1599.000000	0.019879
1598.000000	0.019689
1597.000000	0.019530
1596.000000	0.019397
1595.000000	0.019289
1594.000000	0.019210
1593.000000	0.019151
1592.000000	0.019086
1591.000000	0.019001
1590.000000	0.018893
1589.000000	0.018770
1588.000000	0.018651
1587.000000	0.018559
1586.000000	0.018508
1585.000000	0.018490
1584.000000	0.018476
1583.000000	0.018471
1582.000000	0.018490
1581.000000	0.018522
1580.000000	0.018567
1579.000000	0.018689
1578.000000	0.018936
1577.000000	0.019255
1576.000000	0.019514
1575.000000	0.019629
1574.000000	0.019637
1573.000000	0.019642
1572.000000	0.019697
1571.000000	0.019781
1570.000000	0.019914
1569.000000	0.020162
1568.000000	0.020503
1567.000000	0.020863
1566.000000	0.021209
1565.000000	0.021539
1564.000000	0.021843
1563.000000	0.022149
1562.000000	0.022483
1561.000000	0.022758
1560.000000	0.022858
1559.000000	0.022859
1558.000000	0.023002
1557.000000	0.023376
1556.000000	0.023800
1555.000000	0.024206
1554.000000	0.024564
1553.000000	0.024850
1552.000000	0.025081
1551.000000	0.025284
1550.000000	0.025449
1549.000000	0.025584
1548.000000	0.025722
1547.000000	0.025872
1546.000000	0.026002
1545.000000	0.026072
1544.000000	0.026086
1543.000000	0.026101
1542.000000	0.026156
1541.000000	0.026227
1540.000000	0.026269
1539.000000	0.026336
1538.000000	0.026421
1537.000000	0.026440
1536.000000	0.026435
1535.000000	0.026425
1534.000000	0.026361
1533.000000	0.026267
1532.000000	0.026246
1531.000000	0.026299
1530.000000	0.026335
1529.000000	0.026299
1528.000000	0.026203
1527.000000	0.026065
1526.000000	0.025894
1525.000000	0.025708
1524.000000	0.025554
1523.000000	0.025442
1522.000000	0.025314
1521.000000	0.025141
1520.000000	0.024971
1519.000000	0.024834
1518.000000	0.024749
1517.000000	0.024698
1516.000000	0.024650
1515.000000	0.024598
1514.000000	0.024525
1513.000000	0.024375
1512.000000	0.024117
1511.000000	0.023788
1510.000000	0.023479
1509.000000	0.023238
1508.000000	0.023017
1507.000000	0.022730
1506.000000	0.022460
1505.000000	0.022301
1504.000000	0.022081
1503.000000	0.021757
1502.000000	0.021375
1501.000000	0.020920
1500.000000	0.020384
1499.000000	0.019833
1498.000000	0.019304
1497.000000	0.018767
1496.000000	0.018200
1495.000000	0.017620
1494.000000	0.017060
1493.000000	0.016553
1492.000000	0.016106
1491.000000	0.015686
1490.000000	0.015282
1489.000000	0.014930
1488.000000	0.014677
1487.000000	0.014502
1486.000000	0.014354
1485.000000	0.014213
1484.000000	0.014083
1483.000000	0.013981
1482.000000	0.013922
1481.000000	0.013917
1480.000000	0.013956
1479.000000	0.014011
1478.000000	0.014058
1477.000000	0.014093
1476.000000	0.014132
1475.000000	0.014174
1474.000000	0.014199
1473.000000	0.014186
1472.000000	0.014146
1471.000000	0.014115
1470.000000	0.014109
1469.000000	0.014141
1468.000000	0.014212
1467.000000	0.014298
1466.000000	0.014384
1465.000000	0.014486
1464.000000	0.014625
1463.000000	0.014778
1462.000000	0.014891
1461.000000	0.014964
1460.000000	0.015060
1459.000000	0.015242
1458.000000	0.015526
1457.000000	0.015869
1456.000000	0.016186
1455.000000	0.016382
1454.000000	0.016492
1453.000000	0.016618
1452.000000	0.016765
1451.000000	0.016877
1450.000000	0.016935
1449.000000	0.016957
1448.000000	0.016954
1447.000000	0.016943
1446.000000	0.016962
1445.000000	0.017005
1444.000000	0.017037
1443.000000	0.017027
1442.000000	0.016970
1441.000000	0.016885
1440.000000	0.016798
1439.000000	0.016724
1438.000000	0.016631
1437.000000	0.016486
1436.000000	0.016317
1435.000000	0.016175
1434.000000	0.016058
1433.000000	0.015940
1432.000000	0.015781
1431.000000	0.015569
1430.000000	0.015356
1429.000000	0.015207
1428.000000	0.015137
1427.000000	0.015112
1426.000000	0.015102
1425.000000	0.015082
1424.000000	0.015030
1423.000000	0.014961
1422.000000	0.014917
1421.000000	0.014907
1420.000000	0.014902
1419.000000	0.014898
1418.000000	0.014915
1417.000000	0.014957
1416.000000	0.015031
1415.000000	0.015138
1414.000000	0.015270
1413.000000	0.015416
1412.000000	0.015569
1411.000000	0.015714
1410.000000	0.015849
1409.000000	0.015989
1408.000000	0.016141
1407.000000	0.016293
1406.000000	0.016436
1405.000000	0.016563
1404.000000	0.016663
1403.000000	0.016728
1402.000000	0.016756
1401.000000	0.016757
1400.000000	0.016732
1399.000000	0.016687
1398.000000	0.016643
1397.000000	0.016618
1396.000000	0.016601
1395.000000	0.016566
1394.000000	0.016520
1393.000000	0.016484
1392.000000	0.016453
1391.000000	0.016412
1390.000000	0.016364
1389.000000	0.016319
1388.000000	0.016279
1387.000000	0.016233
1386.000000	0.016169
1385.000000	0.016082
1384.000000	0.015973
1383.000000	0.015836
1382.000000	0.015672
1381.000000	0.015500
1380.000000	0.015340
1379.000000	0.015200
1378.000000	0.015085
1377.000000	0.014996
1376.000000	0.014924
1375.000000	0.014852
1374.000000	0.014768
1373.000000	0.014684
1372.000000	0.014615
1371.000000	0.014563
1370.000000	0.014526
1369.000000	0.014500
1368.000000	0.014475
1367.000000	0.014441
1366.000000	0.014390
1365.000000	0.014317
1364.000000	0.014213
1363.000000	0.014072
1362.000000	0.013907
1361.000000	0.013742
1360.000000	0.013588
1359.000000	0.013440
1358.000000	0.013297
1357.000000	0.013163
1356.000000	0.013036
1355.000000	0.012917
1354.000000	0.012820
1353.000000	0.012760
1352.000000	0.012738
1351.000000	0.012735
1350.000000	0.012737
1349.000000	0.012747
1348.000000	0.012771
1347.000000	0.012810
1346.000000	0.012861
1345.000000	0.012926
1344.000000	0.013007
1343.000000	0.013101
1342.000000	0.013205
1341.000000	0.013316
1340.000000	0.013424
1339.000000	0.013508
1338.000000	0.013554
1337.000000	0.013566
1336.000000	0.013552
1335.000000	0.013518
1334.000000	0.013466
1333.000000	0.013391
1332.000000	0.013286
1331.000000	0.013155
1330.000000	0.013009
1329.000000	0.012863
1328.000000	0.012725
1327.000000	0.012609
1326.000000	0.012527
1325.000000	0.012486
1324.000000	0.012474
1323.000000	0.012481
1322.000000	0.012509
1321.000000	0.012564
1320.000000	0.012638
1319.000000	0.012712
1318.000000	0.012775
1317.000000	0.012835
1316.000000	0.012899
1315.000000	0.012959
1314.000000	0.013006
1313.000000	0.013025
1312.000000	0.013004
1311.000000	0.012939
1310.000000	0.012842
1309.000000	0.012734
1308.000000	0.012626
1307.000000	0.012516
1306.000000	0.012399
1305.000000	0.012277
1304.000000	0.012150
1303.000000	0.012013
1302.000000	0.011866
1301.000000	0.011723
1300.000000	0.011609
1299.000000	0.011537
1298.000000	0.011500
1297.000000	0.011478
1296.000000	0.011466
1295.000000	0.011473
1294.000000	0.011509
1293.000000	0.011577
1292.000000	0.011668
1291.000000	0.011779
1290.000000	0.011907
1289.000000	0.012040
1288.000000	0.012163
1287.000000	0.012271
1286.000000	0.012382
1285.000000	0.012516
1284.000000	0.012682
1283.000000	0.012865
1282.000000	0.013054
1281.000000	0.013239
1280.000000	0.013412
1279.000000	0.013554
1278.000000	0.013652
1277.000000	0.013706
1276.000000	0.013730
1275.000000	0.013736
1274.000000	0.013737
1273.000000	0.013741
1272.000000	0.013751
1271.000000	0.013767
1270.000000	0.013788
1269.000000	0.013806
1268.000000	0.013809
1267.000000	0.013789
1266.000000	0.013753
1265.000000	0.013716
1264.000000	0.013690
1263.000000	0.013681
1262.000000	0.013696
1261.000000	0.013742
1260.000000	0.013830
1259.000000	0.013970
1258.000000	0.014168
1257.000000	0.014406
1256.000000	0.014650
1255.000000	0.014868
1254.000000	0.015062
1253.000000	0.015248
1252.000000	0.015427
1251.000000	0.015591
1250.000000	0.015749
1249.000000	0.015921
1248.000000	0.016115
1247.000000	0.016320
1246.000000	0.016532
1245.000000	0.016764
1244.000000	0.017025
1243.000000	0.017304
1242.000000	0.017586
1241.000000	0.017870
1240.000000	0.018152
1239.000000	0.018423
1238.000000	0.018672
1237.000000	0.018897
1236.000000	0.019090
1235.000000	0.019237
1234.000000	0.019329
1233.000000	0.019371
1232.000000	0.019372
1231.000000	0.019332
1230.000000	0.019242
1229.000000	0.019092
1228.000000	0.018877
1227.000000	0.018595
1226.000000	0.018258
1225.000000	0.017883
1224.000000	0.017479
1223.000000	0.017045
1222.000000	0.016581
1221.000000	0.016103
1220.000000	0.015633
1219.000000	0.015194
1218.000000	0.014804
1217.000000	0.014470
1216.000000	0.014187
1215.000000	0.013948
1214.000000	0.013747
1213.000000	0.013582
1212.000000	0.013445
1211.000000	0.013331
1210.000000	0.013241
1209.000000	0.013170
1208.000000	0.013096
1207.000000	0.012989
1206.000000	0.012848
1205.000000	0.012696
1204.000000	0.012553
1203.000000	0.012418
1202.000000	0.012269
1201.000000	0.012093
1200.000000	0.011890
1199.000000	0.011661
1198.000000	0.011406
1197.000000	0.011122
1196.000000	0.010815
1195.000000	0.010500
1194.000000	0.010194
1193.000000	0.009910
1192.000000	0.009654
1191.000000	0.009429
1190.000000	0.009233
1189.000000	0.009055
1188.000000	0.008883
1187.000000	0.008725
1186.000000	0.008619
1185.000000	0.008603
1184.000000	0.008679
1183.000000	0.008811
1182.000000	0.008953
1181.000000	0.009079
1180.000000	0.009190
1179.000000	0.009289
1178.000000	0.009382
1177.000000	0.009466
1176.000000	0.009533
1175.000000	0.009582
1174.000000	0.009623
1173.000000	0.009669
1172.000000	0.009726
1171.000000	0.009778
1170.000000	0.009812
1169.000000	0.009830
1168.000000	0.009851
1167.000000	0.009884
1166.000000	0.009926
1165.000000	0.009958
1164.000000	0.009968
1163.000000	0.009961
1162.000000	0.009950
1161.000000	0.009943
1160.000000	0.009935
1159.000000	0.009907
1158.000000	0.009851
1157.000000	0.009773
1156.000000	0.009688
1155.000000	0.009596
1154.000000	0.009493
1153.000000	0.009373
1152.000000	0.009244
1151.000000	0.009120
1150.000000	0.009004
1149.000000	0.008888
1148.000000	0.008768
1147.000000	0.008649
1146.000000	0.008539
1145.000000	0.008436
1144.000000	0.008333
1143.000000	0.008236
1142.000000	0.008160
1141.000000	0.008109
1140.000000	0.008065
1139.000000	0.008007
1138.000000	0.007940
1137.000000	0.007886
1136.000000	0.007859
1135.000000	0.007847
1134.000000	0.007830
1133.000000	0.007802
1132.000000	0.007767
1131.000000	0.007736
1130.000000	0.007716
1129.000000	0.007711
1128.000000	0.007720
1127.000000	0.007738
1126.000000	0.007755
1125.000000	0.007764
1124.000000	0.007759
1123.000000	0.007742
1122.000000	0.007730
1121.000000	0.007739
1120.000000	0.007775
1119.000000	0.007826
1118.000000	0.007882
1117.000000	0.007944
1116.000000	0.008020
1115.000000	0.008117
1114.000000	0.008232
1113.000000	0.008357
1112.000000	0.008480
1111.000000	0.008587
1110.000000	0.008675
1109.000000	0.008744
1108.000000	0.008800
1107.000000	0.008856
1106.000000	0.008925
1105.000000	0.009012
1104.000000	0.009108
1103.000000	0.009204
1102.000000	0.009300
1101.000000	0.009402
1100.000000	0.009505
1099.000000	0.009597
1098.000000	0.009674
1097.000000	0.009743
1096.000000	0.009814
1095.000000	0.009889
1094.000000	0.009971
1093.000000	0.010072
1092.000000	0.010201
1091.000000	0.010353
1090.000000	0.010516
1089.000000	0.010693
1088.000000	0.010896
1087.000000	0.011143
1086.000000	0.011435
1085.000000	0.011752
1084.000000	0.012053
1083.000000	0.012287
1082.000000	0.012422
1081.000000	0.012445
1080.000000	0.012357
1079.000000	0.012171
1078.000000	0.011925
1077.000000	0.011670
1076.000000	0.011436
1075.000000	0.011221
1074.000000	0.011011
1073.000000	0.010813
1072.000000	0.010649
1071.000000	0.010530
1070.000000	0.010457
1069.000000	0.010429
1068.000000	0.010447
1067.000000	0.010509
1066.000000	0.010602
1065.000000	0.010717
1064.000000	0.010854
1063.000000	0.011005
1062.000000	0.011155
1061.000000	0.011287
1060.000000	0.011400
1059.000000	0.011504
1058.000000	0.011606
1057.000000	0.011703
1056.000000	0.011795
1055.000000	0.011889
1054.000000	0.011983
1053.000000	0.012056
1052.000000	0.012076
1051.000000	0.012036
1050.000000	0.011969
1049.000000	0.011921
1048.000000	0.011914
1047.000000	0.011934
1046.000000	0.011953
1045.000000	0.011945
1044.000000	0.011903
1043.000000	0.011848
1042.000000	0.011819
1041.000000	0.011843
1040.000000	0.011905
1039.000000	0.011970
1038.000000	0.012026
1037.000000	0.012104
1036.000000	0.012237
1035.000000	0.012420
1034.000000	0.012614
1033.000000	0.012779
1032.000000	0.012905
1031.000000	0.013001
1030.000000	0.013077
1029.000000	0.013142
1028.000000	0.013200
1027.000000	0.013254
1026.000000	0.013297
1025.000000	0.013314
1024.000000	0.013294
1023.000000	0.013244
1022.000000	0.013196
1021.000000	0.013183
1020.000000	0.013222
1019.000000	0.013309
1018.000000	0.013423
1017.000000	0.013531
1016.000000	0.013591
1015.000000	0.013564
1014.000000	0.013438
1013.000000	0.013222
1012.000000	0.012932
1011.000000	0.012579
1010.000000	0.012178
1009.000000	0.011757
1008.000000	0.011349
1007.000000	0.010975
1006.000000	0.010640
1005.000000	0.010338
1004.000000	0.010064
1003.000000	0.009805
1002.000000	0.009543
1001.000000	0.009261
1000.000000	0.008966
999.000000	0.008686
998.000000	0.008449
997.000000	0.008252
996.000000	0.008074
995.000000	0.007898
994.000000	0.007721
993.000000	0.007542
992.000000	0.007360
991.000000	0.007177
990.000000	0.006997
989.000000	0.006821
988.000000	0.006651
987.000000	0.006498
986.000000	0.006369
985.000000	0.006253
984.000000	0.006132
983.000000	0.006002
982.000000	0.005872
981.000000	0.005740
980.000000	0.005598
979.000000	0.005453
978.000000	0.005336
977.000000	0.005259
976.000000	0.005193
975.000000	0.005104
974.000000	0.004996
973.000000	0.004899
972.000000	0.004824
971.000000	0.004749
970.000000	0.004653
969.000000	0.004538
968.000000	0.004427
967.000000	0.004343
966.000000	0.004301
965.000000	0.004297
964.000000	0.004303
963.000000	0.004287
962.000000	0.004240
961.000000	0.004187
960.000000	0.004157
959.000000	0.004162
958.000000	0.004198
957.000000	0.004254
956.000000	0.004315
955.000000	0.004359
954.000000	0.004362
953.000000	0.004313
952.000000	0.004225
951.000000	0.004123
950.000000	0.004026
949.000000	0.003938
948.000000	0.003850
947.000000	0.003754
946.000000	0.003645
945.000000	0.003518
944.000000	0.003371
943.000000	0.003229
942.000000	0.003130
941.000000	0.003097
940.000000	0.003114
939.000000	0.003147
938.000000	0.003173
937.000000	0.003186
936.000000	0.003180
935.000000	0.003144
934.000000	0.003087
933.000000	0.003039
932.000000	0.003014
931.000000	0.003004
930.000000	0.002990
929.000000	0.002961
928.000000	0.002911
927.000000	0.002832
926.000000	0.002727
925.000000	0.002609
924.000000	0.002494
923.000000	0.002377
922.000000	0.002248
921.000000	0.002107
920.000000	0.001965
919.000000	0.001840
918.000000	0.001743
917.000000	0.001671
916.000000	0.001610
915.000000	0.001535
914.000000	0.001436
913.000000	0.001327
912.000000	0.001231
911.000000	0.001167
910.000000	0.001139
909.000000	0.001146
908.000000	0.001166
907.000000	0.001168
906.000000	0.001135
905.000000	0.001091
904.000000	0.001074
903.000000	0.001097
902.000000	0.001134
901.000000	0.001157
900.000000	0.001163
899.000000	0.001159
898.000000	0.001145
897.000000	0.001116
896.000000	0.001075
895.000000	0.001040
894.000000	0.001027
893.000000	0.001051
892.000000	0.001110
891.000000	0.001184
890.000000	0.001235
889.000000	0.001234
888.000000	0.001187
887.000000	0.001123
886.000000	0.001069
885.000000	0.001038
884.000000	0.001036
883.000000	0.001065
882.000000	0.001110
881.000000	0.001143
880.000000	0.001146
879.000000	0.001133
878.000000	0.001131
877.000000	0.001144
876.000000	0.001155
875.000000	0.001157
874.000000	0.001164
873.000000	0.001190
872.000000	0.001214
871.000000	0.001198
870.000000	0.001130
869.000000	0.001047
868.000000	0.000998
867.000000	0.001007
866.000000	0.001056
865.000000	0.001113
864.000000	0.001157
863.000000	0.001186
862.000000	0.001205
861.000000	0.001228
860.000000	0.001275
859.000000	0.001369
858.000000	0.001510
857.000000	0.001665
856.000000	0.001792
855.000000	0.001875
854.000000	0.001927
853.000000	0.001968
852.000000	0.002004
851.000000	0.002034
850.000000	0.002060
849.000000	0.002093
848.000000	0.002144
847.000000	0.002227
846.000000	0.002343
845.000000	0.002473
844.000000	0.002591
843.000000	0.002686
842.000000	0.002776
841.000000	0.002897
840.000000	0.003066
839.000000	0.003270
838.000000	0.003476
837.000000	0.003639
836.000000	0.003737
835.000000	0.003784
834.000000	0.003817
833.000000	0.003848
832.000000	0.003859
831.000000	0.003827
830.000000	0.003759
829.000000	0.003669
828.000000	0.003552
827.000000	0.003399
826.000000	0.003226
825.000000	0.003064
824.000000	0.002920
823.000000	0.002778
822.000000	0.002636
821.000000	0.002504
820.000000	0.002375
819.000000	0.002230
818.000000	0.002074
817.000000	0.001926
816.000000	0.001798
815.000000	0.001684
814.000000	0.001593
813.000000	0.001537
812.000000	0.001501
811.000000	0.001444
810.000000	0.001346
809.000000	0.001235
808.000000	0.001155
807.000000	0.001116
806.000000	0.001107
805.000000	0.001108
804.000000	0.001102
803.000000	0.001081
802.000000	0.001053
801.000000	0.001042
800.000000	0.001055
799.000000	0.001079
798.000000	0.001100
797.000000	0.001119
796.000000	0.001130
795.000000	0.001117
794.000000	0.001079
793.000000	0.001047
792.000000	0.001050
791.000000	0.001083
790.000000	0.001122
789.000000	0.001148
788.000000	0.001155
787.000000	0.001141
786.000000	0.001114
785.000000	0.001098
784.000000	0.001112
783.000000	0.001155
782.000000	0.001206
781.000000	0.001251
780.000000	0.001276
779.000000	0.001276
778.000000	0.001266
777.000000	0.001281
776.000000	0.001330
775.000000	0.001379
774.000000	0.001379
773.000000	0.001324
772.000000	0.001255
771.000000	0.001213
770.000000	0.001208
769.000000	0.001227
768.000000	0.001249
767.000000	0.001257
766.000000	0.001251
765.000000	0.001252
764.000000	0.001278
763.000000	0.001320
762.000000	0.001354
761.000000	0.001377
760.000000	0.001414
759.000000	0.001485
758.000000	0.001588
757.000000	0.001702
756.000000	0.001810
755.000000	0.001903
754.000000	0.001986
753.000000	0.002065
752.000000	0.002136
751.000000	0.002190
750.000000	0.002225
749.000000	0.002248
748.000000	0.002262
747.000000	0.002254
746.000000	0.002216
745.000000	0.002164
744.000000	0.002116
743.000000	0.002069
742.000000	0.002009
741.000000	0.001943
740.000000	0.001896
739.000000	0.001892
738.000000	0.001928
737.000000	0.001981
736.000000	0.002029
735.000000	0.002071
734.000000	0.002119
733.000000	0.002180
732.000000	0.002239
731.000000	0.002268
730.000000	0.002266
729.000000	0.002267
728.000000	0.002317
727.000000	0.002429
726.000000	0.002574
725.000000	0.002701
724.000000	0.002780
723.000000	0.002828
722.000000	0.002895
721.000000	0.003007
720.000000	0.003123
719.000000	0.003183
718.000000	0.003181
717.000000	0.003180
716.000000	0.003230
715.000000	0.003317
714.000000	0.003398
713.000000	0.003457
712.000000	0.003513
711.000000	0.003585
710.000000	0.003687
709.000000	0.003823
708.000000	0.003969
707.000000	0.004075
706.000000	0.004106
705.000000	0.004081
704.000000	0.004054
703.000000	0.004062
702.000000	0.004109
701.000000	0.004179
700.000000	0.004237
699.000000	0.004235
698.000000	0.004149
697.000000	0.004017
696.000000	0.003909
695.000000	0.003869
694.000000	0.003889
693.000000	0.003942
692.000000	0.003996
691.000000	0.004015
690.000000	0.003974
689.000000	0.003896
688.000000	0.003844
687.000000	0.003854
686.000000	0.003899
685.000000	0.003926
684.000000	0.003923
683.000000	0.003920
682.000000	0.003947
681.000000	0.004017
680.000000	0.004124
679.000000	0.004255
678.000000	0.004383
677.000000	0.004479
676.000000	0.004532
675.000000	0.004565
674.000000	0.004612
673.000000	0.004685
672.000000	0.004761
671.000000	0.004805
670.000000	0.004791
669.000000	0.004717
668.000000	0.004645
667.000000	0.004667
666.000000	0.004798
665.000000	0.004951
664.000000	0.005031
663.000000	0.005015
662.000000	0.004974
661.000000	0.004981
660.000000	0.005024
659.000000	0.005046
658.000000	0.005033
657.000000	0.005014
656.000000	0.004998
655.000000	0.004977
654.000000	0.004981
653.000000	0.005064
652.000000	0.005221
651.000000	0.005368
650.000000	0.005430
649.000000	0.005409
648.000000	0.005340
647.000000	0.005244
646.000000	0.005146
645.000000	0.005091
644.000000	0.005099
643.000000	0.005142
642.000000	0.005176
641.000000	0.005179
640.000000	0.005142
639.000000	0.005064
638.000000	0.004984
637.000000	0.004961
636.000000	0.005004
635.000000	0.005045
634.000000	0.005024
633.000000	0.004954
632.000000	0.004881
631.000000	0.004824
630.000000	0.004783
629.000000	0.004783
628.000000	0.004841
627.000000	0.004922
626.000000	0.004965
625.000000	0.004946
624.000000	0.004885
623.000000	0.004822
622.000000	0.004798
621.000000	0.004838
620.000000	0.004926
619.000000	0.005008
618.000000	0.005045
617.000000	0.005048
616.000000	0.005038
615.000000	0.005012
614.000000	0.004966
613.000000	0.004920
612.000000	0.004884
611.000000	0.004845
610.000000	0.004798
609.000000	0.004769
608.000000	0.004784
607.000000	0.004832
606.000000	0.004898
605.000000	0.004978
604.000000	0.005051
603.000000	0.005075
602.000000	0.005055
601.000000	0.005054
600.000000	0.005115
599.000000	0.005200
598.000000	0.005255
597.000000	0.005288
596.000000	0.005326
595.000000	0.005352
594.000000	0.005333
593.000000	0.005283
592.000000	0.005237
591.000000	0.005190
590.000000	0.005125
589.000000	0.005064
588.000000	0.005050
587.000000	0.005083
586.000000	0.005135
585.000000	0.005186
584.000000	0.005225
583.000000	0.005225
582.000000	0.005189
581.000000	0.005183
580.000000	0.005273
579.000000	0.005441
578.000000	0.005609
577.000000	0.005723
576.000000	0.005758
575.000000	0.005705
574.000000	0.005602
573.000000	0.005556
572.000000	0.005646
571.000000	0.005820
570.000000	0.005936
569.000000	0.005932
568.000000	0.005883
567.000000	0.005919
566.000000	0.006110
565.000000	0.006419
564.000000	0.006721
563.000000	0.006892
562.000000	0.006929
561.000000	0.006960
560.000000	0.007086
559.000000	0.007243
558.000000	0.007292
557.000000	0.007198
556.000000	0.007042
555.000000	0.006902
554.000000	0.006800
553.000000	0.006743
552.000000	0.006726
551.000000	0.006696
550.000000	0.006589
549.000000	0.006413
548.000000	0.006241
547.000000	0.006128
546.000000	0.006082
545.000000	0.006073
544.000000	0.006046
543.000000	0.005945
542.000000	0.005793
541.000000	0.005702
540.000000	0.005736
539.000000	0.005820
538.000000	0.005838
537.000000	0.005789
536.000000	0.005757
535.000000	0.005761
534.000000	0.005743
533.000000	0.005690
532.000000	0.005683
531.000000	0.005798
530.000000	0.006015
529.000000	0.006237
528.000000	0.006360
527.000000	0.006330
526.000000	0.006198
525.000000	0.006082
524.000000	0.006046
523.000000	0.006042
522.000000	0.006002
521.000000	0.005912
520.000000	0.005755
519.000000	0.005472
518.000000	0.005058
517.000000	0.004635
516.000000	0.004344
515.000000	0.004211
514.000000	0.004187
513.000000	0.004250
512.000000	0.004379
511.000000	0.004481
510.000000	0.004465
509.000000	0.004358
508.000000	0.004267
507.000000	0.004229
506.000000	0.004200
505.000000	0.004143
504.000000	0.004053
503.000000	0.003906
502.000000	0.003691
501.000000	0.003471
500.000000	0.003331
499.000000	0.003278
498.000000	0.003260
497.000000	0.003252
496.000000	0.003247
495.000000	0.003216
494.000000	0.003127
493.000000	0.003009
492.000000	0.002919
491.000000	0.002874
490.000000	0.002877
489.000000	0.002960
488.000000	0.003132
487.000000	0.003315
486.000000	0.003410
485.000000	0.003401
484.000000	0.003304
483.000000	0.003087
482.000000	0.002740
481.000000	0.002398
480.000000	0.002227
479.000000	0.002232
478.000000	0.002279
477.000000	0.002266
476.000000	0.002200
475.000000	0.002136
474.000000	0.002137
473.000000	0.002273
472.000000	0.002515
471.000000	0.002674
470.000000	0.002589
469.000000	0.002321
468.000000	0.002060
467.000000	0.001924
466.000000	0.001894
465.000000	0.001861
464.000000	0.001686
463.000000	0.001275
462.000000	0.000757
461.000000	0.000486
460.000000	0.000685
459.000000	0.001138
458.000000	0.001387
457.000000	0.001271
456.000000	0.001092
455.000000	0.001081
454.000000	0.001146
453.000000	0.001139
452.000000	0.001057
451.000000	0.000959
450.000000	0.000844
