PE IR       SUBTECH     SPECTRUM    ASCII       PEDS        4.00        
   -1
3S-H10-F005_1.ASC
22/02/18
10:40:00.00
22/02/18
11:02:52.00
uco
Sample 005 By uco Date Friday, February 18 2022
450.000000
#HDR
-1
-1
#GR
cm-1
A
1.0
0.0
4000.000000
-1.000000
3551
8
0.035522
0.001231
#DATA
4000.000000	0.001553
3999.000000	0.001552
3998.000000	0.001544
3997.000000	0.001533
3996.000000	0.001523
3995.000000	0.001524
3994.000000	0.001530
3993.000000	0.001532
3992.000000	0.001525
3991.000000	0.001513
3990.000000	0.001508
3989.000000	0.001518
3988.000000	0.001538
3987.000000	0.001559
3986.000000	0.001572
3985.000000	0.001578
3984.000000	0.001580
3983.000000	0.001580
3982.000000	0.001576
3981.000000	0.001567
3980.000000	0.001554
3979.000000	0.001546
3978.000000	0.001547
3977.000000	0.001561
3976.000000	0.001584
3975.000000	0.001609
3974.000000	0.001628
3973.000000	0.001633
3972.000000	0.001623
3971.000000	0.001604
3970.000000	0.001590
3969.000000	0.001585
3968.000000	0.001586
3967.000000	0.001585
3966.000000	0.001580
3965.000000	0.001575
3964.000000	0.001575
3963.000000	0.001582
3962.000000	0.001592
3961.000000	0.001603
3960.000000	0.001613
3959.000000	0.001625
3958.000000	0.001640
3957.000000	0.001655
3956.000000	0.001668
3955.000000	0.001676
3954.000000	0.001682
3953.000000	0.001693
3952.000000	0.001711
3951.000000	0.001728
3950.000000	0.001732
3949.000000	0.001722
3948.000000	0.001706
3947.000000	0.001695
3946.000000	0.001694
3945.000000	0.001693
3944.000000	0.001684
3943.000000	0.001666
3942.000000	0.001647
3941.000000	0.001633
3940.000000	0.001625
3939.000000	0.001621
3938.000000	0.001622
3937.000000	0.001632
3936.000000	0.001652
3935.000000	0.001673
3934.000000	0.001687
3933.000000	0.001693
3932.000000	0.001699
3931.000000	0.001704
3930.000000	0.001705
3929.000000	0.001697
3928.000000	0.001685
3927.000000	0.001676
3926.000000	0.001668
3925.000000	0.001652
3924.000000	0.001630
3923.000000	0.001610
3922.000000	0.001602
3921.000000	0.001601
3920.000000	0.001597
3919.000000	0.001589
3918.000000	0.001584
3917.000000	0.001592
3916.000000	0.001614
3915.000000	0.001642
3914.000000	0.001663
3913.000000	0.001669
3912.000000	0.001663
3911.000000	0.001650
3910.000000	0.001634
3909.000000	0.001618
3908.000000	0.001603
3907.000000	0.001599
3906.000000	0.001611
3905.000000	0.001636
3904.000000	0.001662
3903.000000	0.001679
3902.000000	0.001689
3901.000000	0.001696
3900.000000	0.001701
3899.000000	0.001702
3898.000000	0.001704
3897.000000	0.001707
3896.000000	0.001709
3895.000000	0.001707
3894.000000	0.001699
3893.000000	0.001685
3892.000000	0.001663
3891.000000	0.001638
3890.000000	0.001622
3889.000000	0.001628
3888.000000	0.001653
3887.000000	0.001683
3886.000000	0.001697
3885.000000	0.001691
3884.000000	0.001677
3883.000000	0.001663
3882.000000	0.001647
3881.000000	0.001624
3880.000000	0.001604
3879.000000	0.001607
3878.000000	0.001641
3877.000000	0.001693
3876.000000	0.001737
3875.000000	0.001746
3874.000000	0.001715
3873.000000	0.001667
3872.000000	0.001626
3871.000000	0.001598
3870.000000	0.001573
3869.000000	0.001553
3868.000000	0.001545
3867.000000	0.001545
3866.000000	0.001544
3865.000000	0.001540
3864.000000	0.001542
3863.000000	0.001553
3862.000000	0.001568
3861.000000	0.001577
3860.000000	0.001580
3859.000000	0.001579
3858.000000	0.001578
3857.000000	0.001581
3856.000000	0.001592
3855.000000	0.001612
3854.000000	0.001624
3853.000000	0.001622
3852.000000	0.001625
3851.000000	0.001640
3850.000000	0.001655
3849.000000	0.001658
3848.000000	0.001651
3847.000000	0.001643
3846.000000	0.001637
3845.000000	0.001632
3844.000000	0.001623
3843.000000	0.001607
3842.000000	0.001589
3841.000000	0.001575
3840.000000	0.001569
3839.000000	0.001568
3838.000000	0.001567
3837.000000	0.001565
3836.000000	0.001563
3835.000000	0.001566
3834.000000	0.001578
3833.000000	0.001594
3832.000000	0.001607
3831.000000	0.001618
3830.000000	0.001630
3829.000000	0.001645
3828.000000	0.001655
3827.000000	0.001644
3826.000000	0.001609
3825.000000	0.001565
3824.000000	0.001533
3823.000000	0.001525
3822.000000	0.001530
3821.000000	0.001535
3820.000000	0.001544
3819.000000	0.001567
3818.000000	0.001596
3817.000000	0.001608
3816.000000	0.001595
3815.000000	0.001580
3814.000000	0.001589
3813.000000	0.001619
3812.000000	0.001646
3811.000000	0.001657
3810.000000	0.001654
3809.000000	0.001642
3808.000000	0.001616
3807.000000	0.001571
3806.000000	0.001529
3805.000000	0.001522
3804.000000	0.001560
3803.000000	0.001620
3802.000000	0.001660
3801.000000	0.001663
3800.000000	0.001655
3799.000000	0.001658
3798.000000	0.001667
3797.000000	0.001665
3796.000000	0.001648
3795.000000	0.001628
3794.000000	0.001620
3793.000000	0.001627
3792.000000	0.001641
3791.000000	0.001647
3790.000000	0.001639
3789.000000	0.001621
3788.000000	0.001607
3787.000000	0.001609
3786.000000	0.001626
3785.000000	0.001644
3784.000000	0.001653
3783.000000	0.001652
3782.000000	0.001649
3781.000000	0.001651
3780.000000	0.001661
3779.000000	0.001672
3778.000000	0.001674
3777.000000	0.001657
3776.000000	0.001620
3775.000000	0.001575
3774.000000	0.001542
3773.000000	0.001537
3772.000000	0.001561
3771.000000	0.001594
3770.000000	0.001622
3769.000000	0.001641
3768.000000	0.001657
3767.000000	0.001665
3766.000000	0.001654
3765.000000	0.001623
3764.000000	0.001589
3763.000000	0.001570
3762.000000	0.001566
3761.000000	0.001564
3760.000000	0.001559
3759.000000	0.001555
3758.000000	0.001554
3757.000000	0.001553
3756.000000	0.001548
3755.000000	0.001541
3754.000000	0.001532
3753.000000	0.001527
3752.000000	0.001529
3751.000000	0.001535
3750.000000	0.001535
3749.000000	0.001528
3748.000000	0.001524
3747.000000	0.001537
3746.000000	0.001559
3745.000000	0.001567
3744.000000	0.001555
3743.000000	0.001549
3742.000000	0.001562
3741.000000	0.001576
3740.000000	0.001575
3739.000000	0.001559
3738.000000	0.001542
3737.000000	0.001529
3736.000000	0.001519
3735.000000	0.001515
3734.000000	0.001527
3733.000000	0.001549
3732.000000	0.001568
3731.000000	0.001572
3730.000000	0.001569
3729.000000	0.001571
3728.000000	0.001586
3727.000000	0.001609
3726.000000	0.001630
3725.000000	0.001641
3724.000000	0.001639
3723.000000	0.001625
3722.000000	0.001610
3721.000000	0.001597
3720.000000	0.001587
3719.000000	0.001574
3718.000000	0.001556
3717.000000	0.001538
3716.000000	0.001528
3715.000000	0.001527
3714.000000	0.001530
3713.000000	0.001530
3712.000000	0.001530
3711.000000	0.001534
3710.000000	0.001549
3709.000000	0.001570
3708.000000	0.001584
3707.000000	0.001585
3706.000000	0.001573
3705.000000	0.001562
3704.000000	0.001560
3703.000000	0.001570
3702.000000	0.001580
3701.000000	0.001580
3700.000000	0.001572
3699.000000	0.001565
3698.000000	0.001563
3697.000000	0.001563
3696.000000	0.001562
3695.000000	0.001560
3694.000000	0.001561
3693.000000	0.001571
3692.000000	0.001591
3691.000000	0.001614
3690.000000	0.001621
3689.000000	0.001606
3688.000000	0.001586
3687.000000	0.001582
3686.000000	0.001591
3685.000000	0.001595
3684.000000	0.001585
3683.000000	0.001570
3682.000000	0.001567
3681.000000	0.001584
3680.000000	0.001617
3679.000000	0.001662
3678.000000	0.001717
3677.000000	0.001771
3676.000000	0.001795
3675.000000	0.001777
3674.000000	0.001752
3673.000000	0.001750
3672.000000	0.001774
3671.000000	0.001808
3670.000000	0.001833
3669.000000	0.001843
3668.000000	0.001853
3667.000000	0.001875
3666.000000	0.001907
3665.000000	0.001938
3664.000000	0.001956
3663.000000	0.001956
3662.000000	0.001946
3661.000000	0.001931
3660.000000	0.001916
3659.000000	0.001899
3658.000000	0.001888
3657.000000	0.001887
3656.000000	0.001905
3655.000000	0.001944
3654.000000	0.002002
3653.000000	0.002074
3652.000000	0.002148
3651.000000	0.002209
3650.000000	0.002237
3649.000000	0.002226
3648.000000	0.002193
3647.000000	0.002167
3646.000000	0.002172
3645.000000	0.002214
3644.000000	0.002282
3643.000000	0.002356
3642.000000	0.002419
3641.000000	0.002461
3640.000000	0.002490
3639.000000	0.002511
3638.000000	0.002526
3637.000000	0.002534
3636.000000	0.002538
3635.000000	0.002538
3634.000000	0.002539
3633.000000	0.002549
3632.000000	0.002570
3631.000000	0.002602
3630.000000	0.002636
3629.000000	0.002664
3628.000000	0.002694
3627.000000	0.002740
3626.000000	0.002797
3625.000000	0.002848
3624.000000	0.002885
3623.000000	0.002911
3622.000000	0.002929
3621.000000	0.002944
3620.000000	0.002956
3619.000000	0.002967
3618.000000	0.002987
3617.000000	0.003021
3616.000000	0.003062
3615.000000	0.003097
3614.000000	0.003113
3613.000000	0.003111
3612.000000	0.003098
3611.000000	0.003091
3610.000000	0.003107
3609.000000	0.003155
3608.000000	0.003232
3607.000000	0.003321
3606.000000	0.003409
3605.000000	0.003487
3604.000000	0.003550
3603.000000	0.003594
3602.000000	0.003618
3601.000000	0.003629
3600.000000	0.003643
3599.000000	0.003676
3598.000000	0.003729
3597.000000	0.003790
3596.000000	0.003842
3595.000000	0.003876
3594.000000	0.003894
3593.000000	0.003909
3592.000000	0.003933
3591.000000	0.003969
3590.000000	0.004013
3589.000000	0.004061
3588.000000	0.004112
3587.000000	0.004175
3586.000000	0.004253
3585.000000	0.004331
3584.000000	0.004388
3583.000000	0.004416
3582.000000	0.004425
3581.000000	0.004433
3580.000000	0.004452
3579.000000	0.004484
3578.000000	0.004526
3577.000000	0.004580
3576.000000	0.004646
3575.000000	0.004715
3574.000000	0.004776
3573.000000	0.004822
3572.000000	0.004855
3571.000000	0.004890
3570.000000	0.004936
3569.000000	0.004992
3568.000000	0.005044
3567.000000	0.005083
3566.000000	0.005120
3565.000000	0.005171
3564.000000	0.005236
3563.000000	0.005307
3562.000000	0.005372
3561.000000	0.005428
3560.000000	0.005474
3559.000000	0.005513
3558.000000	0.005554
3557.000000	0.005603
3556.000000	0.005663
3555.000000	0.005730
3554.000000	0.005796
3553.000000	0.005852
3552.000000	0.005891
3551.000000	0.005914
3550.000000	0.005932
3549.000000	0.005958
3548.000000	0.006004
3547.000000	0.006068
3546.000000	0.006137
3545.000000	0.006195
3544.000000	0.006235
3543.000000	0.006259
3542.000000	0.006278
3541.000000	0.006303
3540.000000	0.006343
3539.000000	0.006402
3538.000000	0.006467
3537.000000	0.006526
3536.000000	0.006568
3535.000000	0.006599
3534.000000	0.006634
3533.000000	0.006681
3532.000000	0.006738
3531.000000	0.006793
3530.000000	0.006838
3529.000000	0.006874
3528.000000	0.006917
3527.000000	0.006976
3526.000000	0.007046
3525.000000	0.007112
3524.000000	0.007161
3523.000000	0.007193
3522.000000	0.007220
3521.000000	0.007250
3520.000000	0.007287
3519.000000	0.007332
3518.000000	0.007386
3517.000000	0.007450
3516.000000	0.007516
3515.000000	0.007571
3514.000000	0.007610
3513.000000	0.007636
3512.000000	0.007664
3511.000000	0.007705
3510.000000	0.007758
3509.000000	0.007809
3508.000000	0.007847
3507.000000	0.007872
3506.000000	0.007899
3505.000000	0.007937
3504.000000	0.007985
3503.000000	0.008033
3502.000000	0.008073
3501.000000	0.008105
3500.000000	0.008136
3499.000000	0.008168
3498.000000	0.008198
3497.000000	0.008221
3496.000000	0.008238
3495.000000	0.008256
3494.000000	0.008286
3493.000000	0.008329
3492.000000	0.008380
3491.000000	0.008428
3490.000000	0.008466
3489.000000	0.008493
3488.000000	0.008515
3487.000000	0.008539
3486.000000	0.008571
3485.000000	0.008612
3484.000000	0.008653
3483.000000	0.008683
3482.000000	0.008701
3481.000000	0.008714
3480.000000	0.008735
3479.000000	0.008768
3478.000000	0.008813
3477.000000	0.008866
3476.000000	0.008925
3475.000000	0.008987
3474.000000	0.009045
3473.000000	0.009097
3472.000000	0.009141
3471.000000	0.009183
3470.000000	0.009227
3469.000000	0.009273
3468.000000	0.009316
3467.000000	0.009347
3466.000000	0.009366
3465.000000	0.009375
3464.000000	0.009380
3463.000000	0.009385
3462.000000	0.009388
3461.000000	0.009391
3460.000000	0.009405
3459.000000	0.009443
3458.000000	0.009505
3457.000000	0.009575
3456.000000	0.009631
3455.000000	0.009669
3454.000000	0.009702
3453.000000	0.009740
3452.000000	0.009784
3451.000000	0.009827
3450.000000	0.009863
3449.000000	0.009891
3448.000000	0.009916
3447.000000	0.009945
3446.000000	0.009983
3445.000000	0.010027
3444.000000	0.010064
3443.000000	0.010084
3442.000000	0.010096
3441.000000	0.010116
3440.000000	0.010153
3439.000000	0.010198
3438.000000	0.010241
3437.000000	0.010277
3436.000000	0.010312
3435.000000	0.010349
3434.000000	0.010390
3433.000000	0.010434
3432.000000	0.010476
3431.000000	0.010513
3430.000000	0.010540
3429.000000	0.010561
3428.000000	0.010582
3427.000000	0.010615
3426.000000	0.010661
3425.000000	0.010711
3424.000000	0.010750
3423.000000	0.010771
3422.000000	0.010781
3421.000000	0.010799
3420.000000	0.010838
3419.000000	0.010901
3418.000000	0.010975
3417.000000	0.011044
3416.000000	0.011098
3415.000000	0.011135
3414.000000	0.011160
3413.000000	0.011176
3412.000000	0.011185
3411.000000	0.011195
3410.000000	0.011212
3409.000000	0.011241
3408.000000	0.011278
3407.000000	0.011313
3406.000000	0.011337
3405.000000	0.011344
3404.000000	0.011343
3403.000000	0.011349
3402.000000	0.011382
3401.000000	0.011444
3400.000000	0.011516
3399.000000	0.011576
3398.000000	0.011616
3397.000000	0.011645
3396.000000	0.011675
3395.000000	0.011709
3394.000000	0.011740
3393.000000	0.011764
3392.000000	0.011784
3391.000000	0.011811
3390.000000	0.011851
3389.000000	0.011903
3388.000000	0.011957
3387.000000	0.012007
3386.000000	0.012049
3385.000000	0.012087
3384.000000	0.012124
3383.000000	0.012166
3382.000000	0.012212
3381.000000	0.012256
3380.000000	0.012290
3379.000000	0.012315
3378.000000	0.012336
3377.000000	0.012359
3376.000000	0.012383
3375.000000	0.012411
3374.000000	0.012451
3373.000000	0.012508
3372.000000	0.012578
3371.000000	0.012642
3370.000000	0.012684
3369.000000	0.012706
3368.000000	0.012725
3367.000000	0.012760
3366.000000	0.012819
3365.000000	0.012897
3364.000000	0.012977
3363.000000	0.013050
3362.000000	0.013114
3361.000000	0.013171
3360.000000	0.013221
3359.000000	0.013263
3358.000000	0.013306
3357.000000	0.013354
3356.000000	0.013410
3355.000000	0.013472
3354.000000	0.013535
3353.000000	0.013600
3352.000000	0.013666
3351.000000	0.013733
3350.000000	0.013796
3349.000000	0.013854
3348.000000	0.013905
3347.000000	0.013956
3346.000000	0.014013
3345.000000	0.014082
3344.000000	0.014156
3343.000000	0.014223
3342.000000	0.014276
3341.000000	0.014315
3340.000000	0.014346
3339.000000	0.014381
3338.000000	0.014432
3337.000000	0.014496
3336.000000	0.014560
3335.000000	0.014611
3334.000000	0.014652
3333.000000	0.014700
3332.000000	0.014766
3331.000000	0.014847
3330.000000	0.014925
3329.000000	0.014980
3328.000000	0.015007
3327.000000	0.015014
3326.000000	0.015023
3325.000000	0.015049
3324.000000	0.015097
3323.000000	0.015157
3322.000000	0.015218
3321.000000	0.015273
3320.000000	0.015319
3319.000000	0.015360
3318.000000	0.015403
3317.000000	0.015452
3316.000000	0.015503
3315.000000	0.015552
3314.000000	0.015596
3313.000000	0.015639
3312.000000	0.015679
3311.000000	0.015712
3310.000000	0.015732
3309.000000	0.015743
3308.000000	0.015753
3307.000000	0.015771
3306.000000	0.015799
3305.000000	0.015830
3304.000000	0.015857
3303.000000	0.015877
3302.000000	0.015898
3301.000000	0.015924
3300.000000	0.015948
3299.000000	0.015959
3298.000000	0.015953
3297.000000	0.015939
3296.000000	0.015928
3295.000000	0.015926
3294.000000	0.015934
3293.000000	0.015950
3292.000000	0.015975
3291.000000	0.016003
3290.000000	0.016025
3289.000000	0.016036
3288.000000	0.016036
3287.000000	0.016033
3286.000000	0.016034
3285.000000	0.016045
3284.000000	0.016067
3283.000000	0.016087
3282.000000	0.016095
3281.000000	0.016086
3280.000000	0.016068
3279.000000	0.016048
3278.000000	0.016028
3277.000000	0.016007
3276.000000	0.015983
3275.000000	0.015958
3274.000000	0.015928
3273.000000	0.015892
3272.000000	0.015854
3271.000000	0.015823
3270.000000	0.015803
3269.000000	0.015788
3268.000000	0.015766
3267.000000	0.015729
3266.000000	0.015679
3265.000000	0.015624
3264.000000	0.015574
3263.000000	0.015537
3262.000000	0.015516
3261.000000	0.015506
3260.000000	0.015494
3259.000000	0.015477
3258.000000	0.015451
3257.000000	0.015412
3256.000000	0.015361
3255.000000	0.015308
3254.000000	0.015269
3253.000000	0.015242
3252.000000	0.015213
3251.000000	0.015165
3250.000000	0.015104
3249.000000	0.015047
3248.000000	0.015004
3247.000000	0.014973
3246.000000	0.014947
3245.000000	0.014919
3244.000000	0.014885
3243.000000	0.014836
3242.000000	0.014773
3241.000000	0.014704
3240.000000	0.014644
3239.000000	0.014609
3238.000000	0.014606
3237.000000	0.014626
3236.000000	0.014643
3235.000000	0.014638
3234.000000	0.014607
3233.000000	0.014563
3232.000000	0.014521
3231.000000	0.014486
3230.000000	0.014454
3229.000000	0.014419
3228.000000	0.014381
3227.000000	0.014343
3226.000000	0.014311
3225.000000	0.014288
3224.000000	0.014273
3223.000000	0.014263
3222.000000	0.014251
3221.000000	0.014234
3220.000000	0.014209
3219.000000	0.014173
3218.000000	0.014126
3217.000000	0.014075
3216.000000	0.014026
3215.000000	0.013981
3214.000000	0.013939
3213.000000	0.013899
3212.000000	0.013862
3211.000000	0.013833
3210.000000	0.013815
3209.000000	0.013804
3208.000000	0.013786
3207.000000	0.013751
3206.000000	0.013706
3205.000000	0.013667
3204.000000	0.013641
3203.000000	0.013621
3202.000000	0.013592
3201.000000	0.013546
3200.000000	0.013487
3199.000000	0.013425
3198.000000	0.013375
3197.000000	0.013341
3196.000000	0.013316
3195.000000	0.013288
3194.000000	0.013245
3193.000000	0.013193
3192.000000	0.013145
3191.000000	0.013114
3190.000000	0.013097
3189.000000	0.013083
3188.000000	0.013058
3187.000000	0.013012
3186.000000	0.012946
3185.000000	0.012873
3184.000000	0.012802
3183.000000	0.012741
3182.000000	0.012691
3181.000000	0.012650
3180.000000	0.012616
3179.000000	0.012584
3178.000000	0.012547
3177.000000	0.012500
3176.000000	0.012443
3175.000000	0.012381
3174.000000	0.012324
3173.000000	0.012279
3172.000000	0.012240
3171.000000	0.012193
3170.000000	0.012122
3169.000000	0.012031
3168.000000	0.011945
3167.000000	0.011888
3166.000000	0.011865
3165.000000	0.011859
3164.000000	0.011847
3163.000000	0.011815
3162.000000	0.011764
3161.000000	0.011704
3160.000000	0.011647
3159.000000	0.011601
3158.000000	0.011570
3157.000000	0.011549
3156.000000	0.011525
3155.000000	0.011485
3154.000000	0.011426
3153.000000	0.011359
3152.000000	0.011297
3151.000000	0.011249
3150.000000	0.011210
3149.000000	0.011172
3148.000000	0.011138
3147.000000	0.011108
3146.000000	0.011079
3145.000000	0.011044
3144.000000	0.011003
3143.000000	0.010964
3142.000000	0.010931
3141.000000	0.010897
3140.000000	0.010856
3139.000000	0.010807
3138.000000	0.010756
3137.000000	0.010708
3136.000000	0.010663
3135.000000	0.010622
3134.000000	0.010588
3133.000000	0.010566
3132.000000	0.010552
3131.000000	0.010543
3130.000000	0.010532
3129.000000	0.010515
3128.000000	0.010491
3127.000000	0.010461
3126.000000	0.010430
3125.000000	0.010405
3124.000000	0.010385
3123.000000	0.010361
3122.000000	0.010325
3121.000000	0.010280
3120.000000	0.010244
3119.000000	0.010232
3118.000000	0.010246
3117.000000	0.010270
3116.000000	0.010287
3115.000000	0.010289
3114.000000	0.010280
3113.000000	0.010268
3112.000000	0.010262
3111.000000	0.010268
3110.000000	0.010286
3109.000000	0.010307
3108.000000	0.010324
3107.000000	0.010335
3106.000000	0.010347
3105.000000	0.010360
3104.000000	0.010367
3103.000000	0.010359
3102.000000	0.010341
3101.000000	0.010326
3100.000000	0.010323
3099.000000	0.010332
3098.000000	0.010351
3097.000000	0.010379
3096.000000	0.010412
3095.000000	0.010444
3094.000000	0.010469
3093.000000	0.010483
3092.000000	0.010489
3091.000000	0.010494
3090.000000	0.010506
3089.000000	0.010524
3088.000000	0.010541
3087.000000	0.010546
3086.000000	0.010544
3085.000000	0.010546
3084.000000	0.010566
3083.000000	0.010600
3082.000000	0.010633
3081.000000	0.010649
3080.000000	0.010641
3079.000000	0.010615
3078.000000	0.010588
3077.000000	0.010576
3076.000000	0.010584
3075.000000	0.010604
3074.000000	0.010619
3073.000000	0.010625
3072.000000	0.010623
3071.000000	0.010613
3070.000000	0.010592
3069.000000	0.010563
3068.000000	0.010537
3067.000000	0.010527
3066.000000	0.010536
3065.000000	0.010548
3064.000000	0.010548
3063.000000	0.010526
3062.000000	0.010485
3061.000000	0.010433
3060.000000	0.010384
3059.000000	0.010344
3058.000000	0.010307
3057.000000	0.010261
3056.000000	0.010200
3055.000000	0.010129
3054.000000	0.010063
3053.000000	0.010009
3052.000000	0.009968
3051.000000	0.009934
3050.000000	0.009899
3049.000000	0.009858
3048.000000	0.009811
3047.000000	0.009769
3046.000000	0.009734
3045.000000	0.009700
3044.000000	0.009653
3043.000000	0.009594
3042.000000	0.009539
3041.000000	0.009502
3040.000000	0.009484
3039.000000	0.009465
3038.000000	0.009429
3037.000000	0.009369
3036.000000	0.009297
3035.000000	0.009230
3034.000000	0.009180
3033.000000	0.009152
3032.000000	0.009139
3031.000000	0.009129
3030.000000	0.009112
3029.000000	0.009083
3028.000000	0.009036
3027.000000	0.008967
3026.000000	0.008884
3025.000000	0.008808
3024.000000	0.008759
3023.000000	0.008745
3022.000000	0.008750
3021.000000	0.008746
3020.000000	0.008714
3019.000000	0.008656
3018.000000	0.008589
3017.000000	0.008536
3016.000000	0.008501
3015.000000	0.008477
3014.000000	0.008456
3013.000000	0.008440
3012.000000	0.008432
3011.000000	0.008426
3010.000000	0.008411
3009.000000	0.008386
3008.000000	0.008359
3007.000000	0.008343
3006.000000	0.008342
3005.000000	0.008349
3004.000000	0.008352
3003.000000	0.008346
3002.000000	0.008335
3001.000000	0.008328
3000.000000	0.008330
2999.000000	0.008338
2998.000000	0.008344
2997.000000	0.008345
2996.000000	0.008343
2995.000000	0.008346
2994.000000	0.008362
2993.000000	0.008389
2992.000000	0.008422
2991.000000	0.008456
2990.000000	0.008487
2989.000000	0.008521
2988.000000	0.008567
2987.000000	0.008630
2986.000000	0.008703
2985.000000	0.008770
2984.000000	0.008817
2983.000000	0.008850
2982.000000	0.008887
2981.000000	0.008934
2980.000000	0.008983
2979.000000	0.009023
2978.000000	0.009052
2977.000000	0.009081
2976.000000	0.009114
2975.000000	0.009150
2974.000000	0.009183
2973.000000	0.009214
2972.000000	0.009251
2971.000000	0.009299
2970.000000	0.009354
2969.000000	0.009405
2968.000000	0.009449
2967.000000	0.009489
2966.000000	0.009535
2965.000000	0.009590
2964.000000	0.009647
2963.000000	0.009692
2962.000000	0.009719
2961.000000	0.009733
2960.000000	0.009741
2959.000000	0.009752
2958.000000	0.009769
2957.000000	0.009791
2956.000000	0.009814
2955.000000	0.009830
2954.000000	0.009836
2953.000000	0.009837
2952.000000	0.009838
2951.000000	0.009837
2950.000000	0.009825
2949.000000	0.009793
2948.000000	0.009746
2947.000000	0.009697
2946.000000	0.009646
2945.000000	0.009586
2944.000000	0.009511
2943.000000	0.009438
2942.000000	0.009391
2941.000000	0.009377
2940.000000	0.009376
2939.000000	0.009366
2938.000000	0.009345
2937.000000	0.009323
2936.000000	0.009306
2935.000000	0.009287
2934.000000	0.009260
2933.000000	0.009227
2932.000000	0.009197
2931.000000	0.009178
2930.000000	0.009175
2929.000000	0.009192
2928.000000	0.009231
2927.000000	0.009294
2926.000000	0.009391
2925.000000	0.009535
2924.000000	0.009736
2923.000000	0.009988
2922.000000	0.010271
2921.000000	0.010563
2920.000000	0.010846
2919.000000	0.011113
2918.000000	0.011356
2917.000000	0.011557
2916.000000	0.011692
2915.000000	0.011742
2914.000000	0.011713
2913.000000	0.011632
2912.000000	0.011531
2911.000000	0.011427
2910.000000	0.011325
2909.000000	0.011225
2908.000000	0.011130
2907.000000	0.011046
2906.000000	0.010975
2905.000000	0.010913
2904.000000	0.010855
2903.000000	0.010796
2902.000000	0.010735
2901.000000	0.010674
2900.000000	0.010616
2899.000000	0.010561
2898.000000	0.010505
2897.000000	0.010446
2896.000000	0.010384
2895.000000	0.010326
2894.000000	0.010273
2893.000000	0.010224
2892.000000	0.010178
2891.000000	0.010142
2890.000000	0.010121
2889.000000	0.010114
2888.000000	0.010106
2887.000000	0.010080
2886.000000	0.010032
2885.000000	0.009969
2884.000000	0.009906
2883.000000	0.009857
2882.000000	0.009824
2881.000000	0.009799
2880.000000	0.009770
2879.000000	0.009727
2878.000000	0.009677
2877.000000	0.009630
2876.000000	0.009595
2875.000000	0.009574
2874.000000	0.009562
2873.000000	0.009556
2872.000000	0.009548
2871.000000	0.009532
2870.000000	0.009499
2869.000000	0.009442
2868.000000	0.009358
2867.000000	0.009254
2866.000000	0.009139
2865.000000	0.009022
2864.000000	0.008910
2863.000000	0.008800
2862.000000	0.008697
2861.000000	0.008610
2860.000000	0.008555
2859.000000	0.008540
2858.000000	0.008567
2857.000000	0.008626
2856.000000	0.008716
2855.000000	0.008847
2854.000000	0.009037
2853.000000	0.009292
2852.000000	0.009589
2851.000000	0.009876
2850.000000	0.010097
2849.000000	0.010214
2848.000000	0.010220
2847.000000	0.010137
2846.000000	0.009995
2845.000000	0.009822
2844.000000	0.009638
2843.000000	0.009457
2842.000000	0.009286
2841.000000	0.009128
2840.000000	0.008981
2839.000000	0.008845
2838.000000	0.008716
2837.000000	0.008597
2836.000000	0.008493
2835.000000	0.008411
2834.000000	0.008353
2833.000000	0.008309
2832.000000	0.008262
2831.000000	0.008203
2830.000000	0.008134
2829.000000	0.008069
2828.000000	0.008015
2827.000000	0.007970
2826.000000	0.007923
2825.000000	0.007867
2824.000000	0.007800
2823.000000	0.007726
2822.000000	0.007653
2821.000000	0.007590
2820.000000	0.007541
2819.000000	0.007503
2818.000000	0.007472
2817.000000	0.007441
2816.000000	0.007408
2815.000000	0.007372
2814.000000	0.007330
2813.000000	0.007282
2812.000000	0.007232
2811.000000	0.007188
2810.000000	0.007159
2809.000000	0.007141
2808.000000	0.007119
2807.000000	0.007084
2806.000000	0.007044
2805.000000	0.007013
2804.000000	0.006998
2803.000000	0.006992
2802.000000	0.006979
2801.000000	0.006953
2800.000000	0.006915
2799.000000	0.006877
2798.000000	0.006846
2797.000000	0.006826
2796.000000	0.006810
2795.000000	0.006793
2794.000000	0.006770
2793.000000	0.006747
2792.000000	0.006728
2791.000000	0.006716
2790.000000	0.006711
2789.000000	0.006706
2788.000000	0.006692
2787.000000	0.006661
2786.000000	0.006620
2785.000000	0.006583
2784.000000	0.006558
2783.000000	0.006541
2782.000000	0.006516
2781.000000	0.006477
2780.000000	0.006433
2779.000000	0.006400
2778.000000	0.006388
2777.000000	0.006391
2776.000000	0.006396
2775.000000	0.006393
2774.000000	0.006383
2773.000000	0.006371
2772.000000	0.006355
2771.000000	0.006332
2770.000000	0.006303
2769.000000	0.006277
2768.000000	0.006262
2767.000000	0.006256
2766.000000	0.006251
2765.000000	0.006236
2764.000000	0.006211
2763.000000	0.006184
2762.000000	0.006162
2761.000000	0.006145
2760.000000	0.006129
2759.000000	0.006111
2758.000000	0.006095
2757.000000	0.006082
2756.000000	0.006074
2755.000000	0.006064
2754.000000	0.006048
2753.000000	0.006024
2752.000000	0.005999
2751.000000	0.005982
2750.000000	0.005976
2749.000000	0.005978
2748.000000	0.005976
2747.000000	0.005962
2746.000000	0.005943
2745.000000	0.005927
2744.000000	0.005918
2743.000000	0.005906
2742.000000	0.005883
2741.000000	0.005853
2740.000000	0.005826
2739.000000	0.005807
2738.000000	0.005797
2737.000000	0.005789
2736.000000	0.005783
2735.000000	0.005782
2734.000000	0.005784
2733.000000	0.005787
2732.000000	0.005787
2731.000000	0.005781
2730.000000	0.005774
2729.000000	0.005767
2728.000000	0.005759
2727.000000	0.005747
2726.000000	0.005727
2725.000000	0.005697
2724.000000	0.005657
2723.000000	0.005615
2722.000000	0.005585
2721.000000	0.005571
2720.000000	0.005567
2719.000000	0.005556
2718.000000	0.005533
2717.000000	0.005506
2716.000000	0.005485
2715.000000	0.005473
2714.000000	0.005463
2713.000000	0.005448
2712.000000	0.005433
2711.000000	0.005422
2710.000000	0.005414
2709.000000	0.005406
2708.000000	0.005396
2707.000000	0.005390
2706.000000	0.005394
2705.000000	0.005408
2704.000000	0.005421
2703.000000	0.005422
2702.000000	0.005407
2701.000000	0.005384
2700.000000	0.005358
2699.000000	0.005331
2698.000000	0.005307
2697.000000	0.005288
2696.000000	0.005278
2695.000000	0.005280
2694.000000	0.005296
2693.000000	0.005319
2692.000000	0.005337
2691.000000	0.005339
2690.000000	0.005328
2689.000000	0.005318
2688.000000	0.005317
2687.000000	0.005322
2686.000000	0.005318
2685.000000	0.005300
2684.000000	0.005273
2683.000000	0.005250
2682.000000	0.005237
2681.000000	0.005234
2680.000000	0.005234
2679.000000	0.005230
2678.000000	0.005221
2677.000000	0.005213
2676.000000	0.005215
2675.000000	0.005227
2674.000000	0.005237
2673.000000	0.005235
2672.000000	0.005220
2671.000000	0.005203
2670.000000	0.005189
2669.000000	0.005175
2668.000000	0.005159
2667.000000	0.005148
2666.000000	0.005150
2665.000000	0.005167
2664.000000	0.005183
2663.000000	0.005187
2662.000000	0.005181
2661.000000	0.005179
2660.000000	0.005185
2659.000000	0.005189
2658.000000	0.005182
2657.000000	0.005165
2656.000000	0.005144
2655.000000	0.005127
2654.000000	0.005118
2653.000000	0.005119
2652.000000	0.005120
2651.000000	0.005105
2650.000000	0.005068
2649.000000	0.005017
2648.000000	0.004976
2647.000000	0.004956
2646.000000	0.004954
2645.000000	0.004954
2644.000000	0.004946
2643.000000	0.004924
2642.000000	0.004891
2641.000000	0.004859
2640.000000	0.004837
2639.000000	0.004828
2638.000000	0.004822
2637.000000	0.004807
2636.000000	0.004778
2635.000000	0.004745
2634.000000	0.004716
2633.000000	0.004697
2632.000000	0.004684
2631.000000	0.004672
2630.000000	0.004659
2629.000000	0.004644
2628.000000	0.004626
2627.000000	0.004602
2626.000000	0.004577
2625.000000	0.004559
2624.000000	0.004557
2623.000000	0.004573
2622.000000	0.004595
2621.000000	0.004609
2620.000000	0.004605
2619.000000	0.004585
2618.000000	0.004558
2617.000000	0.004530
2616.000000	0.004502
2615.000000	0.004473
2614.000000	0.004446
2613.000000	0.004425
2612.000000	0.004414
2611.000000	0.004411
2610.000000	0.004410
2609.000000	0.004402
2608.000000	0.004388
2607.000000	0.004380
2606.000000	0.004389
2605.000000	0.004414
2604.000000	0.004431
2603.000000	0.004412
2602.000000	0.004355
2601.000000	0.004286
2600.000000	0.004233
2599.000000	0.004208
2598.000000	0.004203
2597.000000	0.004205
2596.000000	0.004210
2595.000000	0.004214
2594.000000	0.004207
2593.000000	0.004183
2592.000000	0.004148
2591.000000	0.004120
2590.000000	0.004112
2589.000000	0.004122
2588.000000	0.004136
2587.000000	0.004142
2586.000000	0.004138
2585.000000	0.004131
2584.000000	0.004126
2583.000000	0.004129
2582.000000	0.004139
2581.000000	0.004149
2580.000000	0.004140
2579.000000	0.004104
2578.000000	0.004049
2577.000000	0.004000
2576.000000	0.003976
2575.000000	0.003974
2574.000000	0.003982
2573.000000	0.003996
2572.000000	0.004019
2571.000000	0.004049
2570.000000	0.004074
2569.000000	0.004077
2568.000000	0.004056
2567.000000	0.004020
2566.000000	0.003984
2565.000000	0.003955
2564.000000	0.003934
2563.000000	0.003923
2562.000000	0.003931
2561.000000	0.003956
2560.000000	0.003984
2559.000000	0.003992
2558.000000	0.003970
2557.000000	0.003929
2556.000000	0.003893
2555.000000	0.003878
2554.000000	0.003887
2553.000000	0.003907
2552.000000	0.003926
2551.000000	0.003931
2550.000000	0.003917
2549.000000	0.003887
2548.000000	0.003849
2547.000000	0.003814
2546.000000	0.003786
2545.000000	0.003767
2544.000000	0.003757
2543.000000	0.003755
2542.000000	0.003762
2541.000000	0.003773
2540.000000	0.003787
2539.000000	0.003809
2538.000000	0.003839
2537.000000	0.003869
2536.000000	0.003885
2535.000000	0.003878
2534.000000	0.003849
2533.000000	0.003806
2532.000000	0.003760
2531.000000	0.003723
2530.000000	0.003702
2529.000000	0.003693
2528.000000	0.003690
2527.000000	0.003692
2526.000000	0.003702
2525.000000	0.003710
2524.000000	0.003703
2523.000000	0.003679
2522.000000	0.003656
2521.000000	0.003649
2520.000000	0.003656
2519.000000	0.003665
2518.000000	0.003680
2517.000000	0.003706
2516.000000	0.003734
2515.000000	0.003749
2514.000000	0.003749
2513.000000	0.003747
2512.000000	0.003749
2511.000000	0.003743
2510.000000	0.003719
2509.000000	0.003683
2508.000000	0.003651
2507.000000	0.003631
2506.000000	0.003623
2505.000000	0.003624
2504.000000	0.003627
2503.000000	0.003625
2502.000000	0.003615
2501.000000	0.003597
2500.000000	0.003581
2499.000000	0.003574
2498.000000	0.003575
2497.000000	0.003585
2496.000000	0.003601
2495.000000	0.003619
2494.000000	0.003636
2493.000000	0.003648
2492.000000	0.003655
2491.000000	0.003662
2490.000000	0.003675
2489.000000	0.003688
2488.000000	0.003687
2487.000000	0.003668
2486.000000	0.003641
2485.000000	0.003621
2484.000000	0.003615
2483.000000	0.003621
2482.000000	0.003634
2481.000000	0.003645
2480.000000	0.003640
2479.000000	0.003608
2478.000000	0.003563
2477.000000	0.003529
2476.000000	0.003522
2475.000000	0.003530
2474.000000	0.003531
2473.000000	0.003516
2472.000000	0.003497
2471.000000	0.003492
2470.000000	0.003508
2469.000000	0.003531
2468.000000	0.003542
2467.000000	0.003530
2466.000000	0.003503
2465.000000	0.003474
2464.000000	0.003451
2463.000000	0.003443
2462.000000	0.003463
2461.000000	0.003509
2460.000000	0.003557
2459.000000	0.003572
2458.000000	0.003541
2457.000000	0.003486
2456.000000	0.003437
2455.000000	0.003410
2454.000000	0.003409
2453.000000	0.003430
2452.000000	0.003469
2451.000000	0.003518
2450.000000	0.003571
2449.000000	0.003619
2448.000000	0.003651
2447.000000	0.003654
2446.000000	0.003622
2445.000000	0.003564
2444.000000	0.003498
2443.000000	0.003437
2442.000000	0.003393
2441.000000	0.003374
2440.000000	0.003379
2439.000000	0.003393
2438.000000	0.003400
2437.000000	0.003398
2436.000000	0.003393
2435.000000	0.003386
2434.000000	0.003378
2433.000000	0.003368
2432.000000	0.003365
2431.000000	0.003373
2430.000000	0.003390
2429.000000	0.003413
2428.000000	0.003446
2427.000000	0.003482
2426.000000	0.003499
2425.000000	0.003476
2424.000000	0.003421
2423.000000	0.003367
2422.000000	0.003344
2421.000000	0.003348
2420.000000	0.003360
2419.000000	0.003374
2418.000000	0.003397
2417.000000	0.003424
2416.000000	0.003428
2415.000000	0.003397
2414.000000	0.003342
2413.000000	0.003297
2412.000000	0.003287
2411.000000	0.003311
2410.000000	0.003347
2409.000000	0.003372
2408.000000	0.003378
2407.000000	0.003378
2406.000000	0.003385
2405.000000	0.003388
2404.000000	0.003367
2403.000000	0.003321
2402.000000	0.003278
2401.000000	0.003260
2400.000000	0.003263
2399.000000	0.003270
2398.000000	0.003278
2397.000000	0.003287
2396.000000	0.003289
2395.000000	0.003281
2394.000000	0.003279
2393.000000	0.003305
2392.000000	0.003355
2391.000000	0.003399
2390.000000	0.003422
2389.000000	0.003431
2388.000000	0.003438
2387.000000	0.003449
2386.000000	0.003461
2385.000000	0.003471
2384.000000	0.003476
2383.000000	0.003471
2382.000000	0.003462
2381.000000	0.003455
2380.000000	0.003454
2379.000000	0.003457
2378.000000	0.003467
2377.000000	0.003486
2376.000000	0.003501
2375.000000	0.003491
2374.000000	0.003461
2373.000000	0.003439
2372.000000	0.003444
2371.000000	0.003458
2370.000000	0.003461
2369.000000	0.003462
2368.000000	0.003490
2367.000000	0.003548
2366.000000	0.003605
2365.000000	0.003637
2364.000000	0.003641
2363.000000	0.003623
2362.000000	0.003587
2361.000000	0.003542
2360.000000	0.003501
2359.000000	0.003481
2358.000000	0.003501
2357.000000	0.003565
2356.000000	0.003658
2355.000000	0.003734
2354.000000	0.003753
2353.000000	0.003716
2352.000000	0.003669
2351.000000	0.003656
2350.000000	0.003674
2349.000000	0.003703
2348.000000	0.003722
2347.000000	0.003728
2346.000000	0.003732
2345.000000	0.003744
2344.000000	0.003761
2343.000000	0.003767
2342.000000	0.003758
2341.000000	0.003745
2340.000000	0.003739
2339.000000	0.003736
2338.000000	0.003732
2337.000000	0.003734
2336.000000	0.003756
2335.000000	0.003797
2334.000000	0.003836
2333.000000	0.003849
2332.000000	0.003834
2331.000000	0.003807
2330.000000	0.003785
2329.000000	0.003785
2328.000000	0.003813
2327.000000	0.003872
2326.000000	0.003945
2325.000000	0.004002
2324.000000	0.004013
2323.000000	0.003965
2322.000000	0.003883
2321.000000	0.003805
2320.000000	0.003756
2319.000000	0.003723
2318.000000	0.003682
2317.000000	0.003630
2316.000000	0.003591
2315.000000	0.003588
2314.000000	0.003618
2313.000000	0.003656
2312.000000	0.003680
2311.000000	0.003689
2310.000000	0.003690
2309.000000	0.003679
2308.000000	0.003643
2307.000000	0.003581
2306.000000	0.003517
2305.000000	0.003476
2304.000000	0.003466
2303.000000	0.003475
2302.000000	0.003490
2301.000000	0.003507
2300.000000	0.003523
2299.000000	0.003536
2298.000000	0.003538
2297.000000	0.003529
2296.000000	0.003512
2295.000000	0.003497
2294.000000	0.003493
2293.000000	0.003500
2292.000000	0.003503
2291.000000	0.003494
2290.000000	0.003486
2289.000000	0.003499
2288.000000	0.003534
2287.000000	0.003567
2286.000000	0.003577
2285.000000	0.003565
2284.000000	0.003548
2283.000000	0.003537
2282.000000	0.003539
2281.000000	0.003550
2280.000000	0.003557
2279.000000	0.003547
2278.000000	0.003517
2277.000000	0.003475
2276.000000	0.003433
2275.000000	0.003398
2274.000000	0.003384
2273.000000	0.003406
2272.000000	0.003459
2271.000000	0.003510
2270.000000	0.003530
2269.000000	0.003511
2268.000000	0.003465
2267.000000	0.003405
2266.000000	0.003338
2265.000000	0.003275
2264.000000	0.003229
2263.000000	0.003206
2262.000000	0.003205
2261.000000	0.003215
2260.000000	0.003215
2259.000000	0.003186
2258.000000	0.003130
2257.000000	0.003074
2256.000000	0.003041
2255.000000	0.003033
2254.000000	0.003032
2253.000000	0.003023
2252.000000	0.003018
2251.000000	0.003046
2250.000000	0.003122
2249.000000	0.003224
2248.000000	0.003301
2247.000000	0.003313
2246.000000	0.003267
2245.000000	0.003203
2244.000000	0.003145
2243.000000	0.003092
2242.000000	0.003050
2241.000000	0.003038
2240.000000	0.003078
2239.000000	0.003162
2238.000000	0.003263
2237.000000	0.003346
2236.000000	0.003375
2235.000000	0.003327
2234.000000	0.003217
2233.000000	0.003103
2232.000000	0.003048
2231.000000	0.003067
2230.000000	0.003120
2229.000000	0.003153
2228.000000	0.003145
2227.000000	0.003107
2226.000000	0.003061
2225.000000	0.003013
2224.000000	0.002961
2223.000000	0.002912
2222.000000	0.002887
2221.000000	0.002891
2220.000000	0.002916
2219.000000	0.002954
2218.000000	0.003008
2217.000000	0.003065
2216.000000	0.003091
2215.000000	0.003062
2214.000000	0.003002
2213.000000	0.002964
2212.000000	0.002978
2211.000000	0.003032
2210.000000	0.003100
2209.000000	0.003156
2208.000000	0.003179
2207.000000	0.003161
2206.000000	0.003118
2205.000000	0.003078
2204.000000	0.003059
2203.000000	0.003065
2202.000000	0.003082
2201.000000	0.003065
2200.000000	0.002963
2199.000000	0.002787
2198.000000	0.002640
2197.000000	0.002621
2196.000000	0.002708
2195.000000	0.002785
2194.000000	0.002777
2193.000000	0.002717
2192.000000	0.002670
2191.000000	0.002660
2190.000000	0.002680
2189.000000	0.002737
2188.000000	0.002839
2187.000000	0.002957
2186.000000	0.003054
2185.000000	0.003124
2184.000000	0.003183
2183.000000	0.003230
2182.000000	0.003238
2181.000000	0.003187
2180.000000	0.003084
2179.000000	0.002963
2178.000000	0.002864
2177.000000	0.002798
2176.000000	0.002741
2175.000000	0.002671
2174.000000	0.002620
2173.000000	0.002650
2172.000000	0.002782
2171.000000	0.002961
2170.000000	0.003102
2169.000000	0.003139
2168.000000	0.003060
2167.000000	0.002920
2166.000000	0.002845
2165.000000	0.002957
2164.000000	0.003258
2163.000000	0.003583
2162.000000	0.003707
2161.000000	0.003501
2160.000000	0.003017
2159.000000	0.002453
2158.000000	0.002013
2157.000000	0.001786
2156.000000	0.001745
2155.000000	0.001841
2154.000000	0.002042
2153.000000	0.002277
2152.000000	0.002421
2151.000000	0.002373
2150.000000	0.002171
2149.000000	0.001978
2148.000000	0.001949
2147.000000	0.002111
2146.000000	0.002369
2145.000000	0.002586
2144.000000	0.002684
2143.000000	0.002685
2142.000000	0.002667
2141.000000	0.002681
2140.000000	0.002712
2139.000000	0.002728
2138.000000	0.002739
2137.000000	0.002769
2136.000000	0.002798
2135.000000	0.002764
2134.000000	0.002646
2133.000000	0.002499
2132.000000	0.002418
2131.000000	0.002452
2130.000000	0.002564
2129.000000	0.002669
2128.000000	0.002709
2127.000000	0.002709
2126.000000	0.002739
2125.000000	0.002828
2124.000000	0.002921
2123.000000	0.002955
2122.000000	0.002933
2121.000000	0.002916
2120.000000	0.002941
2119.000000	0.002995
2118.000000	0.003059
2117.000000	0.003126
2116.000000	0.003182
2115.000000	0.003192
2114.000000	0.003144
2113.000000	0.003081
2112.000000	0.003061
2111.000000	0.003103
2110.000000	0.003173
2109.000000	0.003229
2108.000000	0.003246
2107.000000	0.003229
2106.000000	0.003196
2105.000000	0.003163
2104.000000	0.003122
2103.000000	0.003054
2102.000000	0.002960
2101.000000	0.002877
2100.000000	0.002844
2099.000000	0.002867
2098.000000	0.002919
2097.000000	0.002971
2096.000000	0.003009
2095.000000	0.003022
2094.000000	0.002990
2093.000000	0.002912
2092.000000	0.002829
2091.000000	0.002804
2090.000000	0.002868
2089.000000	0.002979
2088.000000	0.003058
2087.000000	0.003075
2086.000000	0.003076
2085.000000	0.003118
2084.000000	0.003188
2083.000000	0.003217
2082.000000	0.003167
2081.000000	0.003085
2080.000000	0.003044
2079.000000	0.003061
2078.000000	0.003073
2077.000000	0.003012
2076.000000	0.002883
2075.000000	0.002760
2074.000000	0.002700
2073.000000	0.002690
2072.000000	0.002684
2071.000000	0.002686
2070.000000	0.002735
2069.000000	0.002824
2068.000000	0.002870
2067.000000	0.002807
2066.000000	0.002683
2065.000000	0.002608
2064.000000	0.002638
2063.000000	0.002722
2062.000000	0.002768
2061.000000	0.002733
2060.000000	0.002643
2059.000000	0.002567
2058.000000	0.002561
2057.000000	0.002610
2056.000000	0.002645
2055.000000	0.002635
2054.000000	0.002626
2053.000000	0.002669
2052.000000	0.002746
2051.000000	0.002796
2050.000000	0.002803
2049.000000	0.002798
2048.000000	0.002792
2047.000000	0.002767
2046.000000	0.002732
2045.000000	0.002715
2044.000000	0.002710
2043.000000	0.002676
2042.000000	0.002602
2041.000000	0.002509
2040.000000	0.002398
2039.000000	0.002271
2038.000000	0.002193
2037.000000	0.002247
2036.000000	0.002403
2035.000000	0.002506
2034.000000	0.002458
2033.000000	0.002336
2032.000000	0.002290
2031.000000	0.002362
2030.000000	0.002466
2029.000000	0.002497
2028.000000	0.002419
2027.000000	0.002289
2026.000000	0.002207
2025.000000	0.002235
2024.000000	0.002352
2023.000000	0.002496
2022.000000	0.002614
2021.000000	0.002664
2020.000000	0.002594
2019.000000	0.002397
2018.000000	0.002161
2017.000000	0.002001
2016.000000	0.001956
2015.000000	0.001979
2014.000000	0.002022
2013.000000	0.002041
2012.000000	0.001965
2011.000000	0.001761
2010.000000	0.001519
2009.000000	0.001391
2008.000000	0.001422
2007.000000	0.001508
2006.000000	0.001541
2005.000000	0.001511
2004.000000	0.001472
2003.000000	0.001470
2002.000000	0.001544
2001.000000	0.001706
2000.000000	0.001906
1999.000000	0.002061
1998.000000	0.002135
1997.000000	0.002146
1996.000000	0.002110
1995.000000	0.002028
1994.000000	0.001915
1993.000000	0.001822
1992.000000	0.001791
1991.000000	0.001817
1990.000000	0.001870
1989.000000	0.001920
1988.000000	0.001944
1987.000000	0.001946
1986.000000	0.001978
1985.000000	0.002087
1984.000000	0.002253
1983.000000	0.002413
1982.000000	0.002551
1981.000000	0.002699
1980.000000	0.002839
1979.000000	0.002864
1978.000000	0.002676
1977.000000	0.002313
1976.000000	0.001940
1975.000000	0.001720
1974.000000	0.001708
1973.000000	0.001827
1972.000000	0.001930
1971.000000	0.001928
1970.000000	0.001866
1969.000000	0.001840
1968.000000	0.001881
1967.000000	0.001944
1966.000000	0.002002
1965.000000	0.002053
1964.000000	0.002059
1963.000000	0.001959
1962.000000	0.001765
1961.000000	0.001587
1960.000000	0.001542
1959.000000	0.001664
1958.000000	0.001898
1957.000000	0.002150
1956.000000	0.002324
1955.000000	0.002379
1954.000000	0.002335
1953.000000	0.002238
1952.000000	0.002108
1951.000000	0.001968
1950.000000	0.001873
1949.000000	0.001880
1948.000000	0.001974
1947.000000	0.002083
1946.000000	0.002157
1945.000000	0.002196
1944.000000	0.002186
1943.000000	0.002084
1942.000000	0.001890
1941.000000	0.001683
1940.000000	0.001564
1939.000000	0.001580
1938.000000	0.001721
1937.000000	0.001918
1936.000000	0.002060
1935.000000	0.002074
1934.000000	0.001988
1933.000000	0.001912
1932.000000	0.001923
1931.000000	0.001997
1930.000000	0.002063
1929.000000	0.002084
1928.000000	0.002081
1927.000000	0.002083
1926.000000	0.002094
1925.000000	0.002090
1924.000000	0.002045
1923.000000	0.001962
1922.000000	0.001884
1921.000000	0.001853
1920.000000	0.001866
1919.000000	0.001885
1918.000000	0.001888
1917.000000	0.001886
1916.000000	0.001902
1915.000000	0.001945
1914.000000	0.002005
1913.000000	0.002070
1912.000000	0.002133
1911.000000	0.002191
1910.000000	0.002247
1909.000000	0.002279
1908.000000	0.002258
1907.000000	0.002175
1906.000000	0.002066
1905.000000	0.001988
1904.000000	0.001962
1903.000000	0.001968
1902.000000	0.001984
1901.000000	0.002002
1900.000000	0.002021
1899.000000	0.002044
1898.000000	0.002071
1897.000000	0.002090
1896.000000	0.002084
1895.000000	0.002047
1894.000000	0.001998
1893.000000	0.001957
1892.000000	0.001917
1891.000000	0.001874
1890.000000	0.001845
1889.000000	0.001855
1888.000000	0.001905
1887.000000	0.001977
1886.000000	0.002053
1885.000000	0.002110
1884.000000	0.002123
1883.000000	0.002092
1882.000000	0.002057
1881.000000	0.002046
1880.000000	0.002044
1879.000000	0.002016
1878.000000	0.001951
1877.000000	0.001870
1876.000000	0.001794
1875.000000	0.001737
1874.000000	0.001719
1873.000000	0.001739
1872.000000	0.001761
1871.000000	0.001752
1870.000000	0.001728
1869.000000	0.001732
1868.000000	0.001776
1867.000000	0.001831
1866.000000	0.001879
1865.000000	0.001917
1864.000000	0.001945
1863.000000	0.001960
1862.000000	0.001964
1861.000000	0.001958
1860.000000	0.001930
1859.000000	0.001873
1858.000000	0.001809
1857.000000	0.001773
1856.000000	0.001783
1855.000000	0.001830
1854.000000	0.001894
1853.000000	0.001946
1852.000000	0.001952
1851.000000	0.001907
1850.000000	0.001842
1849.000000	0.001787
1848.000000	0.001743
1847.000000	0.001702
1846.000000	0.001685
1845.000000	0.001729
1844.000000	0.001817
1843.000000	0.001874
1842.000000	0.001877
1841.000000	0.001869
1840.000000	0.001867
1839.000000	0.001851
1838.000000	0.001820
1837.000000	0.001808
1836.000000	0.001833
1835.000000	0.001859
1834.000000	0.001833
1833.000000	0.001732
1832.000000	0.001583
1831.000000	0.001455
1830.000000	0.001399
1829.000000	0.001413
1828.000000	0.001456
1827.000000	0.001504
1826.000000	0.001569
1825.000000	0.001657
1824.000000	0.001741
1823.000000	0.001794
1822.000000	0.001826
1821.000000	0.001861
1820.000000	0.001894
1819.000000	0.001900
1818.000000	0.001877
1817.000000	0.001845
1816.000000	0.001808
1815.000000	0.001747
1814.000000	0.001664
1813.000000	0.001593
1812.000000	0.001577
1811.000000	0.001617
1810.000000	0.001686
1809.000000	0.001754
1808.000000	0.001805
1807.000000	0.001829
1806.000000	0.001832
1805.000000	0.001823
1804.000000	0.001787
1803.000000	0.001710
1802.000000	0.001605
1801.000000	0.001522
1800.000000	0.001510
1799.000000	0.001564
1798.000000	0.001639
1797.000000	0.001680
1796.000000	0.001651
1795.000000	0.001556
1794.000000	0.001447
1793.000000	0.001404
1792.000000	0.001450
1791.000000	0.001523
1790.000000	0.001581
1789.000000	0.001634
1788.000000	0.001690
1787.000000	0.001730
1786.000000	0.001736
1785.000000	0.001706
1784.000000	0.001651
1783.000000	0.001591
1782.000000	0.001559
1781.000000	0.001549
1780.000000	0.001580
1779.000000	0.001567
1778.000000	0.001644
1777.000000	0.001763
1776.000000	0.001789
1775.000000	0.001835
1774.000000	0.001843
1773.000000	0.001847
1772.000000	0.001861
1771.000000	0.001848
1770.000000	0.001868
1769.000000	0.001780
1768.000000	0.001730
1767.000000	0.001784
1766.000000	0.001705
1765.000000	0.001642
1764.000000	0.001573
1763.000000	0.001525
1762.000000	0.001486
1761.000000	0.001471
1760.000000	0.001469
1759.000000	0.001475
1758.000000	0.001501
1757.000000	0.001554
1756.000000	0.001630
1755.000000	0.001724
1754.000000	0.001835
1753.000000	0.001942
1752.000000	0.002007
1751.000000	0.002023
1750.000000	0.002048
1749.000000	0.002162
1748.000000	0.002380
1747.000000	0.002644
1746.000000	0.002895
1745.000000	0.003117
1744.000000	0.003305
1743.000000	0.003447
1742.000000	0.003575
1741.000000	0.003758
1740.000000	0.003999
1739.000000	0.004203
1738.000000	0.004339
1737.000000	0.004470
1736.000000	0.004603
1735.000000	0.004694
1734.000000	0.004721
1733.000000	0.004667
1732.000000	0.004559
1731.000000	0.004469
1730.000000	0.004436
1729.000000	0.004443
1728.000000	0.004450
1727.000000	0.004426
1726.000000	0.004369
1725.000000	0.004310
1724.000000	0.004259
1723.000000	0.004171
1722.000000	0.004029
1721.000000	0.003900
1720.000000	0.003870
1719.000000	0.003958
1718.000000	0.004108
1717.000000	0.004232
1716.000000	0.004298
1715.000000	0.004344
1714.000000	0.004418
1713.000000	0.004521
1712.000000	0.004620
1711.000000	0.004688
1710.000000	0.004727
1709.000000	0.004752
1708.000000	0.004794
1707.000000	0.004905
1706.000000	0.005117
1705.000000	0.005395
1704.000000	0.005659
1703.000000	0.005864
1702.000000	0.006016
1701.000000	0.006334
1700.000000	0.006970
1699.000000	0.007667
1698.000000	0.008294
1697.000000	0.008940
1696.000000	0.009561
1695.000000	0.010019
1694.000000	0.010287
1693.000000	0.010538
1692.000000	0.010900
1691.000000	0.011328
1690.000000	0.011758
1689.000000	0.012196
1688.000000	0.012664
1687.000000	0.013105
1686.000000	0.013444
1685.000000	0.013819
1684.000000	0.014363
1683.000000	0.014954
1682.000000	0.015532
1681.000000	0.016140
1680.000000	0.016727
1679.000000	0.017219
1678.000000	0.017643
1677.000000	0.018119
1676.000000	0.018744
1675.000000	0.019461
1674.000000	0.020101
1673.000000	0.020625
1672.000000	0.021127
1671.000000	0.021696
1670.000000	0.022405
1669.000000	0.023239
1668.000000	0.024062
1667.000000	0.024743
1666.000000	0.025282
1665.000000	0.025768
1664.000000	0.026287
1663.000000	0.026864
1662.000000	0.027476
1661.000000	0.028101
1660.000000	0.028711
1659.000000	0.029232
1658.000000	0.029637
1657.000000	0.030025
1656.000000	0.030477
1655.000000	0.030908
1654.000000	0.031251
1653.000000	0.031609
1652.000000	0.031938
1651.000000	0.032080
1650.000000	0.032191
1649.000000	0.032451
1648.000000	0.032809
1647.000000	0.033132
1646.000000	0.033403
1645.000000	0.033686
1644.000000	0.033978
1643.000000	0.034264
1642.000000	0.034516
1641.000000	0.034683
1640.000000	0.034776
1639.000000	0.034843
1638.000000	0.034890
1637.000000	0.034877
1636.000000	0.034824
1635.000000	0.034845
1634.000000	0.034996
1633.000000	0.035223
1632.000000	0.035433
1631.000000	0.035522
1630.000000	0.035436
1629.000000	0.035225
1628.000000	0.034974
1627.000000	0.034732
1626.000000	0.034483
1625.000000	0.034179
1624.000000	0.033790
1623.000000	0.033331
1622.000000	0.032879
1621.000000	0.032512
1620.000000	0.032235
1619.000000	0.031946
1618.000000	0.031475
1617.000000	0.030745
1616.000000	0.029887
1615.000000	0.029104
1614.000000	0.028473
1613.000000	0.027926
1612.000000	0.027350
1611.000000	0.026703
1610.000000	0.026041
1609.000000	0.025416
1608.000000	0.024826
1607.000000	0.024263
1606.000000	0.023732
1605.000000	0.023220
1604.000000	0.022719
1603.000000	0.022248
1602.000000	0.021834
1601.000000	0.021471
1600.000000	0.021131
1599.000000	0.020811
1598.000000	0.020534
1597.000000	0.020305
1596.000000	0.020105
1595.000000	0.019928
1594.000000	0.019789
1593.000000	0.019687
1592.000000	0.019606
1591.000000	0.019537
1590.000000	0.019476
1589.000000	0.019417
1588.000000	0.019359
1587.000000	0.019330
1586.000000	0.019354
1585.000000	0.019413
1584.000000	0.019477
1583.000000	0.019557
1582.000000	0.019664
1581.000000	0.019786
1580.000000	0.019941
1579.000000	0.020183
1578.000000	0.020516
1577.000000	0.020867
1576.000000	0.021127
1575.000000	0.021254
1574.000000	0.021326
1573.000000	0.021436
1572.000000	0.021571
1571.000000	0.021716
1570.000000	0.021961
1569.000000	0.022355
1568.000000	0.022813
1567.000000	0.023256
1566.000000	0.023686
1565.000000	0.024128
1564.000000	0.024583
1563.000000	0.025050
1562.000000	0.025441
1561.000000	0.025571
1560.000000	0.025531
1559.000000	0.025639
1558.000000	0.026051
1557.000000	0.026676
1556.000000	0.027309
1555.000000	0.027861
1554.000000	0.028286
1553.000000	0.028606
1552.000000	0.028896
1551.000000	0.029174
1550.000000	0.029406
1549.000000	0.029589
1548.000000	0.029758
1547.000000	0.029916
1546.000000	0.030035
1545.000000	0.030088
1544.000000	0.030094
1543.000000	0.030100
1542.000000	0.030149
1541.000000	0.030240
1540.000000	0.030319
1539.000000	0.030383
1538.000000	0.030423
1537.000000	0.030423
1536.000000	0.030400
1535.000000	0.030305
1534.000000	0.030116
1533.000000	0.029936
1532.000000	0.029873
1531.000000	0.029872
1530.000000	0.029824
1529.000000	0.029702
1528.000000	0.029527
1527.000000	0.029290
1526.000000	0.028993
1525.000000	0.028709
1524.000000	0.028512
1523.000000	0.028358
1522.000000	0.028111
1521.000000	0.027738
1520.000000	0.027368
1519.000000	0.027106
1518.000000	0.026950
1517.000000	0.026831
1516.000000	0.026696
1515.000000	0.026562
1514.000000	0.026414
1513.000000	0.026187
1512.000000	0.025846
1511.000000	0.025438
1510.000000	0.025046
1509.000000	0.024668
1508.000000	0.024195
1507.000000	0.023552
1506.000000	0.022971
1505.000000	0.022608
1504.000000	0.022312
1503.000000	0.022007
1502.000000	0.021634
1501.000000	0.021130
1500.000000	0.020535
1499.000000	0.019962
1498.000000	0.019450
1497.000000	0.018960
1496.000000	0.018457
1495.000000	0.017940
1494.000000	0.017438
1493.000000	0.016968
1492.000000	0.016510
1491.000000	0.016026
1490.000000	0.015529
1489.000000	0.015110
1488.000000	0.014849
1487.000000	0.014711
1486.000000	0.014622
1485.000000	0.014545
1484.000000	0.014476
1483.000000	0.014422
1482.000000	0.014387
1481.000000	0.014392
1480.000000	0.014440
1479.000000	0.014512
1478.000000	0.014591
1477.000000	0.014698
1476.000000	0.014847
1475.000000	0.015015
1474.000000	0.015190
1473.000000	0.015407
1472.000000	0.015697
1471.000000	0.016030
1470.000000	0.016369
1469.000000	0.016702
1468.000000	0.017002
1467.000000	0.017244
1466.000000	0.017456
1465.000000	0.017709
1464.000000	0.018021
1463.000000	0.018321
1462.000000	0.018544
1461.000000	0.018715
1460.000000	0.018911
1459.000000	0.019183
1458.000000	0.019557
1457.000000	0.020018
1456.000000	0.020447
1455.000000	0.020736
1454.000000	0.020946
1453.000000	0.021147
1452.000000	0.021294
1451.000000	0.021339
1450.000000	0.021309
1449.000000	0.021255
1448.000000	0.021196
1447.000000	0.021156
1446.000000	0.021152
1445.000000	0.021161
1444.000000	0.021147
1443.000000	0.021082
1442.000000	0.020962
1441.000000	0.020812
1440.000000	0.020667
1439.000000	0.020520
1438.000000	0.020324
1437.000000	0.020060
1436.000000	0.019772
1435.000000	0.019525
1434.000000	0.019331
1433.000000	0.019145
1432.000000	0.018914
1431.000000	0.018644
1430.000000	0.018398
1429.000000	0.018223
1428.000000	0.018104
1427.000000	0.018011
1426.000000	0.017927
1425.000000	0.017842
1424.000000	0.017763
1423.000000	0.017724
1422.000000	0.017734
1421.000000	0.017748
1420.000000	0.017736
1419.000000	0.017725
1418.000000	0.017738
1417.000000	0.017783
1416.000000	0.017855
1415.000000	0.017941
1414.000000	0.018035
1413.000000	0.018140
1412.000000	0.018254
1411.000000	0.018360
1410.000000	0.018451
1409.000000	0.018537
1408.000000	0.018630
1407.000000	0.018730
1406.000000	0.018843
1405.000000	0.018963
1404.000000	0.019070
1403.000000	0.019142
1402.000000	0.019175
1401.000000	0.019183
1400.000000	0.019173
1399.000000	0.019146
1398.000000	0.019111
1397.000000	0.019082
1396.000000	0.019040
1395.000000	0.018966
1394.000000	0.018880
1393.000000	0.018814
1392.000000	0.018770
1391.000000	0.018734
1390.000000	0.018691
1389.000000	0.018637
1388.000000	0.018565
1387.000000	0.018466
1386.000000	0.018351
1385.000000	0.018243
1384.000000	0.018152
1383.000000	0.018066
1382.000000	0.017974
1381.000000	0.017874
1380.000000	0.017761
1379.000000	0.017623
1378.000000	0.017464
1377.000000	0.017304
1376.000000	0.017150
1375.000000	0.016993
1374.000000	0.016829
1373.000000	0.016677
1372.000000	0.016551
1371.000000	0.016438
1370.000000	0.016320
1369.000000	0.016184
1368.000000	0.016027
1367.000000	0.015855
1366.000000	0.015673
1365.000000	0.015484
1364.000000	0.015285
1363.000000	0.015071
1362.000000	0.014854
1361.000000	0.014660
1360.000000	0.014498
1359.000000	0.014362
1358.000000	0.014246
1357.000000	0.014153
1356.000000	0.014082
1355.000000	0.014032
1354.000000	0.014009
1353.000000	0.014025
1352.000000	0.014081
1351.000000	0.014165
1350.000000	0.014258
1349.000000	0.014354
1348.000000	0.014456
1347.000000	0.014570
1346.000000	0.014696
1345.000000	0.014832
1344.000000	0.014977
1343.000000	0.015136
1342.000000	0.015313
1341.000000	0.015497
1340.000000	0.015663
1339.000000	0.015782
1338.000000	0.015847
1337.000000	0.015865
1336.000000	0.015842
1335.000000	0.015781
1334.000000	0.015692
1333.000000	0.015582
1332.000000	0.015450
1331.000000	0.015295
1330.000000	0.015124
1329.000000	0.014951
1328.000000	0.014790
1327.000000	0.014652
1326.000000	0.014546
1325.000000	0.014472
1324.000000	0.014425
1323.000000	0.014402
1322.000000	0.014403
1321.000000	0.014427
1320.000000	0.014463
1319.000000	0.014499
1318.000000	0.014529
1317.000000	0.014555
1316.000000	0.014573
1315.000000	0.014576
1314.000000	0.014559
1313.000000	0.014517
1312.000000	0.014443
1311.000000	0.014332
1310.000000	0.014199
1309.000000	0.014071
1308.000000	0.013964
1307.000000	0.013871
1306.000000	0.013770
1305.000000	0.013649
1304.000000	0.013516
1303.000000	0.013381
1302.000000	0.013256
1301.000000	0.013149
1300.000000	0.013065
1299.000000	0.012999
1298.000000	0.012940
1297.000000	0.012880
1296.000000	0.012832
1295.000000	0.012817
1294.000000	0.012846
1293.000000	0.012913
1292.000000	0.013009
1291.000000	0.013134
1290.000000	0.013285
1289.000000	0.013448
1288.000000	0.013593
1287.000000	0.013712
1286.000000	0.013827
1285.000000	0.013974
1284.000000	0.014162
1283.000000	0.014366
1282.000000	0.014549
1281.000000	0.014691
1280.000000	0.014795
1279.000000	0.014868
1278.000000	0.014911
1277.000000	0.014930
1276.000000	0.014930
1275.000000	0.014923
1274.000000	0.014918
1273.000000	0.014923
1272.000000	0.014943
1271.000000	0.014977
1270.000000	0.015017
1269.000000	0.015051
1268.000000	0.015072
1267.000000	0.015084
1266.000000	0.015097
1265.000000	0.015126
1264.000000	0.015182
1263.000000	0.015264
1262.000000	0.015362
1261.000000	0.015463
1260.000000	0.015566
1259.000000	0.015686
1258.000000	0.015844
1257.000000	0.016038
1256.000000	0.016247
1255.000000	0.016453
1254.000000	0.016655
1253.000000	0.016861
1252.000000	0.017075
1251.000000	0.017294
1250.000000	0.017523
1249.000000	0.017772
1248.000000	0.018038
1247.000000	0.018309
1246.000000	0.018577
1245.000000	0.018848
1244.000000	0.019127
1243.000000	0.019403
1242.000000	0.019668
1241.000000	0.019918
1240.000000	0.020148
1239.000000	0.020348
1238.000000	0.020518
1237.000000	0.020665
1236.000000	0.020791
1235.000000	0.020882
1234.000000	0.020922
1233.000000	0.020909
1232.000000	0.020849
1231.000000	0.020747
1230.000000	0.020605
1229.000000	0.020420
1228.000000	0.020184
1227.000000	0.019892
1226.000000	0.019550
1225.000000	0.019174
1224.000000	0.018775
1223.000000	0.018356
1222.000000	0.017922
1221.000000	0.017486
1220.000000	0.017062
1219.000000	0.016666
1218.000000	0.016307
1217.000000	0.015988
1216.000000	0.015710
1215.000000	0.015479
1214.000000	0.015301
1213.000000	0.015174
1212.000000	0.015084
1211.000000	0.015022
1210.000000	0.014987
1209.000000	0.014982
1208.000000	0.014998
1207.000000	0.015014
1206.000000	0.015018
1205.000000	0.015008
1204.000000	0.014984
1203.000000	0.014935
1202.000000	0.014854
1201.000000	0.014737
1200.000000	0.014587
1199.000000	0.014405
1198.000000	0.014188
1197.000000	0.013940
1196.000000	0.013670
1195.000000	0.013392
1194.000000	0.013119
1193.000000	0.012859
1192.000000	0.012617
1191.000000	0.012392
1190.000000	0.012186
1189.000000	0.011996
1188.000000	0.011819
1187.000000	0.011661
1186.000000	0.011546
1185.000000	0.011499
1184.000000	0.011526
1183.000000	0.011601
1182.000000	0.011683
1181.000000	0.011750
1180.000000	0.011811
1179.000000	0.011883
1178.000000	0.011970
1177.000000	0.012058
1176.000000	0.012132
1175.000000	0.012193
1174.000000	0.012255
1173.000000	0.012327
1172.000000	0.012414
1171.000000	0.012511
1170.000000	0.012619
1169.000000	0.012735
1168.000000	0.012849
1167.000000	0.012946
1166.000000	0.013023
1165.000000	0.013091
1164.000000	0.013162
1163.000000	0.013237
1162.000000	0.013301
1161.000000	0.013337
1160.000000	0.013332
1159.000000	0.013284
1158.000000	0.013199
1157.000000	0.013092
1156.000000	0.012973
1155.000000	0.012848
1154.000000	0.012713
1153.000000	0.012558
1152.000000	0.012384
1151.000000	0.012205
1150.000000	0.012034
1149.000000	0.011874
1148.000000	0.011713
1147.000000	0.011545
1146.000000	0.011373
1145.000000	0.011206
1144.000000	0.011051
1143.000000	0.010913
1142.000000	0.010794
1141.000000	0.010682
1140.000000	0.010554
1139.000000	0.010391
1138.000000	0.010200
1137.000000	0.010008
1136.000000	0.009832
1135.000000	0.009668
1134.000000	0.009511
1133.000000	0.009372
1132.000000	0.009268
1131.000000	0.009203
1130.000000	0.009160
1129.000000	0.009125
1128.000000	0.009106
1127.000000	0.009118
1126.000000	0.009164
1125.000000	0.009223
1124.000000	0.009274
1123.000000	0.009314
1122.000000	0.009354
1121.000000	0.009407
1120.000000	0.009468
1119.000000	0.009526
1118.000000	0.009571
1117.000000	0.009611
1116.000000	0.009668
1115.000000	0.009750
1114.000000	0.009838
1113.000000	0.009897
1112.000000	0.009917
1111.000000	0.009925
1110.000000	0.009952
1109.000000	0.010006
1108.000000	0.010069
1107.000000	0.010136
1106.000000	0.010218
1105.000000	0.010326
1104.000000	0.010452
1103.000000	0.010572
1102.000000	0.010671
1101.000000	0.010746
1100.000000	0.010813
1099.000000	0.010887
1098.000000	0.010975
1097.000000	0.011067
1096.000000	0.011146
1095.000000	0.011217
1094.000000	0.011308
1093.000000	0.011444
1092.000000	0.011623
1091.000000	0.011822
1090.000000	0.012026
1089.000000	0.012240
1088.000000	0.012483
1087.000000	0.012767
1086.000000	0.013087
1085.000000	0.013407
1084.000000	0.013678
1083.000000	0.013864
1082.000000	0.013954
1081.000000	0.013954
1080.000000	0.013860
1079.000000	0.013674
1078.000000	0.013431
1077.000000	0.013180
1076.000000	0.012943
1075.000000	0.012703
1074.000000	0.012450
1073.000000	0.012207
1072.000000	0.012010
1071.000000	0.011874
1070.000000	0.011790
1069.000000	0.011753
1068.000000	0.011761
1067.000000	0.011805
1066.000000	0.011864
1065.000000	0.011920
1064.000000	0.011974
1063.000000	0.012033
1062.000000	0.012092
1061.000000	0.012143
1060.000000	0.012184
1059.000000	0.012222
1058.000000	0.012257
1057.000000	0.012278
1056.000000	0.012275
1055.000000	0.012254
1054.000000	0.012228
1053.000000	0.012201
1052.000000	0.012170
1051.000000	0.012131
1050.000000	0.012087
1049.000000	0.012041
1048.000000	0.011994
1047.000000	0.011952
1046.000000	0.011925
1045.000000	0.011908
1044.000000	0.011890
1043.000000	0.011868
1042.000000	0.011858
1041.000000	0.011881
1040.000000	0.011946
1039.000000	0.012049
1038.000000	0.012189
1037.000000	0.012365
1036.000000	0.012570
1035.000000	0.012781
1034.000000	0.012969
1033.000000	0.013115
1032.000000	0.013216
1031.000000	0.013280
1030.000000	0.013323
1029.000000	0.013355
1028.000000	0.013375
1027.000000	0.013366
1026.000000	0.013310
1025.000000	0.013200
1024.000000	0.013051
1023.000000	0.012891
1022.000000	0.012753
1021.000000	0.012657
1020.000000	0.012604
1019.000000	0.012583
1018.000000	0.012575
1017.000000	0.012560
1016.000000	0.012517
1015.000000	0.012435
1014.000000	0.012311
1013.000000	0.012146
1012.000000	0.011938
1011.000000	0.011692
1010.000000	0.011419
1009.000000	0.011136
1008.000000	0.010852
1007.000000	0.010573
1006.000000	0.010299
1005.000000	0.010028
1004.000000	0.009761
1003.000000	0.009500
1002.000000	0.009245
1001.000000	0.008995
1000.000000	0.008748
999.000000	0.008513
998.000000	0.008302
997.000000	0.008115
996.000000	0.007944
995.000000	0.007782
994.000000	0.007626
993.000000	0.007462
992.000000	0.007274
991.000000	0.007061
990.000000	0.006843
989.000000	0.006643
988.000000	0.006477
987.000000	0.006347
986.000000	0.006241
985.000000	0.006145
984.000000	0.006050
983.000000	0.005968
982.000000	0.005910
981.000000	0.005870
980.000000	0.005829
979.000000	0.005791
978.000000	0.005776
977.000000	0.005791
976.000000	0.005809
975.000000	0.005802
974.000000	0.005769
973.000000	0.005728
972.000000	0.005680
971.000000	0.005611
970.000000	0.005514
969.000000	0.005407
968.000000	0.005310
967.000000	0.005233
966.000000	0.005173
965.000000	0.005120
964.000000	0.005057
963.000000	0.004967
962.000000	0.004850
961.000000	0.004724
960.000000	0.004622
959.000000	0.004564
958.000000	0.004546
957.000000	0.004542
956.000000	0.004526
955.000000	0.004486
954.000000	0.004428
953.000000	0.004367
952.000000	0.004310
951.000000	0.004260
950.000000	0.004214
949.000000	0.004160
948.000000	0.004084
947.000000	0.003984
946.000000	0.003876
945.000000	0.003780
944.000000	0.003702
943.000000	0.003638
942.000000	0.003597
941.000000	0.003589
940.000000	0.003609
939.000000	0.003639
938.000000	0.003661
937.000000	0.003665
936.000000	0.003645
935.000000	0.003589
934.000000	0.003498
933.000000	0.003389
932.000000	0.003291
931.000000	0.003228
930.000000	0.003206
929.000000	0.003208
928.000000	0.003204
927.000000	0.003173
926.000000	0.003118
925.000000	0.003055
924.000000	0.002989
923.000000	0.002907
922.000000	0.002800
921.000000	0.002673
920.000000	0.002545
919.000000	0.002438
918.000000	0.002368
917.000000	0.002335
916.000000	0.002318
915.000000	0.002284
914.000000	0.002207
913.000000	0.002088
912.000000	0.001949
911.000000	0.001819
910.000000	0.001728
909.000000	0.001689
908.000000	0.001686
907.000000	0.001680
906.000000	0.001652
905.000000	0.001614
904.000000	0.001588
903.000000	0.001578
902.000000	0.001570
901.000000	0.001566
900.000000	0.001574
899.000000	0.001589
898.000000	0.001585
897.000000	0.001551
896.000000	0.001501
895.000000	0.001459
894.000000	0.001440
893.000000	0.001452
892.000000	0.001491
891.000000	0.001536
890.000000	0.001550
889.000000	0.001525
888.000000	0.001498
887.000000	0.001513
886.000000	0.001570
885.000000	0.001628
884.000000	0.001668
883.000000	0.001712
882.000000	0.001786
881.000000	0.001886
880.000000	0.001992
879.000000	0.002102
878.000000	0.002226
877.000000	0.002342
876.000000	0.002406
875.000000	0.002390
874.000000	0.002318
873.000000	0.002232
872.000000	0.002146
871.000000	0.002038
870.000000	0.001899
869.000000	0.001748
868.000000	0.001618
867.000000	0.001530
866.000000	0.001486
865.000000	0.001480
864.000000	0.001497
863.000000	0.001512
862.000000	0.001512
861.000000	0.001508
860.000000	0.001528
859.000000	0.001584
858.000000	0.001659
857.000000	0.001728
856.000000	0.001780
855.000000	0.001827
854.000000	0.001881
853.000000	0.001947
852.000000	0.002018
851.000000	0.002078
850.000000	0.002106
849.000000	0.002089
848.000000	0.002040
847.000000	0.001999
846.000000	0.001998
845.000000	0.002038
844.000000	0.002096
843.000000	0.002152
842.000000	0.002200
841.000000	0.002245
840.000000	0.002293
839.000000	0.002346
838.000000	0.002402
837.000000	0.002446
836.000000	0.002464
835.000000	0.002458
834.000000	0.002452
833.000000	0.002465
832.000000	0.002486
831.000000	0.002482
830.000000	0.002439
829.000000	0.002383
828.000000	0.002349
827.000000	0.002346
826.000000	0.002341
825.000000	0.002294
824.000000	0.002205
823.000000	0.002118
822.000000	0.002078
821.000000	0.002085
820.000000	0.002101
819.000000	0.002088
818.000000	0.002040
817.000000	0.001969
816.000000	0.001894
815.000000	0.001838
814.000000	0.001819
813.000000	0.001825
812.000000	0.001814
811.000000	0.001747
810.000000	0.001633
809.000000	0.001517
808.000000	0.001440
807.000000	0.001410
806.000000	0.001420
805.000000	0.001457
804.000000	0.001504
803.000000	0.001548
802.000000	0.001575
801.000000	0.001578
800.000000	0.001547
799.000000	0.001487
798.000000	0.001428
797.000000	0.001410
796.000000	0.001447
795.000000	0.001516
794.000000	0.001591
793.000000	0.001652
792.000000	0.001694
791.000000	0.001725
790.000000	0.001760
789.000000	0.001810
788.000000	0.001853
787.000000	0.001857
786.000000	0.001820
785.000000	0.001779
784.000000	0.001760
783.000000	0.001763
782.000000	0.001777
781.000000	0.001810
780.000000	0.001867
779.000000	0.001925
778.000000	0.001962
777.000000	0.001986
776.000000	0.002015
775.000000	0.002044
774.000000	0.002048
773.000000	0.002021
772.000000	0.001988
771.000000	0.001974
770.000000	0.001975
769.000000	0.001977
768.000000	0.001973
767.000000	0.001973
766.000000	0.001984
765.000000	0.001998
764.000000	0.001997
763.000000	0.001972
762.000000	0.001942
761.000000	0.001941
760.000000	0.001983
759.000000	0.002048
758.000000	0.002107
757.000000	0.002158
756.000000	0.002216
755.000000	0.002286
754.000000	0.002356
753.000000	0.002412
752.000000	0.002453
751.000000	0.002487
750.000000	0.002526
749.000000	0.002587
748.000000	0.002676
747.000000	0.002776
746.000000	0.002844
745.000000	0.002851
744.000000	0.002804
743.000000	0.002736
742.000000	0.002679
741.000000	0.002653
740.000000	0.002668
739.000000	0.002722
738.000000	0.002790
737.000000	0.002839
736.000000	0.002847
735.000000	0.002837
734.000000	0.002858
733.000000	0.002949
732.000000	0.003104
731.000000	0.003278
730.000000	0.003430
729.000000	0.003550
728.000000	0.003655
727.000000	0.003763
726.000000	0.003882
725.000000	0.004006
724.000000	0.004116
723.000000	0.004201
722.000000	0.004262
721.000000	0.004317
720.000000	0.004382
719.000000	0.004454
718.000000	0.004530
717.000000	0.004607
716.000000	0.004679
715.000000	0.004730
714.000000	0.004752
713.000000	0.004765
712.000000	0.004794
711.000000	0.004851
710.000000	0.004929
709.000000	0.005015
708.000000	0.005097
707.000000	0.005159
706.000000	0.005197
705.000000	0.005225
704.000000	0.005267
703.000000	0.005323
702.000000	0.005364
701.000000	0.005369
700.000000	0.005349
699.000000	0.005339
698.000000	0.005366
697.000000	0.005425
696.000000	0.005487
695.000000	0.005520
694.000000	0.005507
693.000000	0.005463
692.000000	0.005425
691.000000	0.005422
690.000000	0.005443
689.000000	0.005445
688.000000	0.005413
687.000000	0.005382
686.000000	0.005404
685.000000	0.005479
684.000000	0.005557
683.000000	0.005596
682.000000	0.005605
681.000000	0.005615
680.000000	0.005640
679.000000	0.005677
678.000000	0.005722
677.000000	0.005778
676.000000	0.005838
675.000000	0.005893
674.000000	0.005943
673.000000	0.006010
672.000000	0.006103
671.000000	0.006208
670.000000	0.006287
669.000000	0.006288
668.000000	0.006169
667.000000	0.006040
666.000000	0.006060
665.000000	0.006197
664.000000	0.006312
663.000000	0.006316
662.000000	0.006238
661.000000	0.006171
660.000000	0.006174
659.000000	0.006233
658.000000	0.006318
657.000000	0.006403
656.000000	0.006457
655.000000	0.006453
654.000000	0.006417
653.000000	0.006411
652.000000	0.006462
651.000000	0.006531
650.000000	0.006574
649.000000	0.006581
648.000000	0.006553
647.000000	0.006500
646.000000	0.006451
645.000000	0.006436
644.000000	0.006446
643.000000	0.006447
642.000000	0.006437
641.000000	0.006441
640.000000	0.006443
639.000000	0.006390
638.000000	0.006275
637.000000	0.006168
636.000000	0.006128
635.000000	0.006139
634.000000	0.006146
633.000000	0.006128
632.000000	0.006091
631.000000	0.006045
630.000000	0.006010
629.000000	0.006011
628.000000	0.006053
627.000000	0.006113
626.000000	0.006168
625.000000	0.006210
624.000000	0.006225
623.000000	0.006201
622.000000	0.006174
621.000000	0.006204
620.000000	0.006295
619.000000	0.006385
618.000000	0.006426
617.000000	0.006432
616.000000	0.006409
615.000000	0.006326
614.000000	0.006183
613.000000	0.006063
612.000000	0.006036
611.000000	0.006065
610.000000	0.006066
609.000000	0.006021
608.000000	0.005983
607.000000	0.005981
606.000000	0.006000
605.000000	0.006024
604.000000	0.006063
603.000000	0.006108
602.000000	0.006137
601.000000	0.006150
600.000000	0.006170
599.000000	0.006200
598.000000	0.006206
597.000000	0.006168
596.000000	0.006107
595.000000	0.006058
594.000000	0.006042
593.000000	0.006046
592.000000	0.006048
591.000000	0.006040
590.000000	0.006047
589.000000	0.006092
588.000000	0.006148
587.000000	0.006159
586.000000	0.006111
585.000000	0.006054
584.000000	0.006037
583.000000	0.006053
582.000000	0.006068
581.000000	0.006079
580.000000	0.006116
579.000000	0.006201
578.000000	0.006321
577.000000	0.006416
576.000000	0.006417
575.000000	0.006310
574.000000	0.006179
573.000000	0.006138
572.000000	0.006217
571.000000	0.006360
570.000000	0.006515
569.000000	0.006675
568.000000	0.006823
567.000000	0.006915
566.000000	0.006952
565.000000	0.007015
564.000000	0.007163
563.000000	0.007362
562.000000	0.007553
561.000000	0.007711
560.000000	0.007818
559.000000	0.007838
558.000000	0.007794
557.000000	0.007795
556.000000	0.007918
555.000000	0.008086
554.000000	0.008144
553.000000	0.008019
552.000000	0.007754
551.000000	0.007440
550.000000	0.007174
549.000000	0.007019
548.000000	0.006964
547.000000	0.006952
546.000000	0.006959
545.000000	0.007000
544.000000	0.007051
543.000000	0.007050
542.000000	0.007010
541.000000	0.007020
540.000000	0.007077
539.000000	0.007053
538.000000	0.006885
537.000000	0.006701
536.000000	0.006641
535.000000	0.006655
534.000000	0.006628
533.000000	0.006603
532.000000	0.006745
531.000000	0.007102
530.000000	0.007536
529.000000	0.007872
528.000000	0.008026
527.000000	0.007985
526.000000	0.007815
525.000000	0.007653
524.000000	0.007579
523.000000	0.007520
522.000000	0.007356
521.000000	0.007087
520.000000	0.006824
519.000000	0.006640
518.000000	0.006517
517.000000	0.006391
516.000000	0.006230
515.000000	0.006050
514.000000	0.005929
513.000000	0.005925
512.000000	0.005965
511.000000	0.005868
510.000000	0.005587
509.000000	0.005328
508.000000	0.005321
507.000000	0.005516
506.000000	0.005642
505.000000	0.005561
504.000000	0.005400
503.000000	0.005332
502.000000	0.005383
501.000000	0.005449
500.000000	0.005429
499.000000	0.005283
498.000000	0.005055
497.000000	0.004854
496.000000	0.004771
495.000000	0.004782
494.000000	0.004785
493.000000	0.004707
492.000000	0.004560
491.000000	0.004391
490.000000	0.004255
489.000000	0.004193
488.000000	0.004201
487.000000	0.004229
486.000000	0.004248
485.000000	0.004277
484.000000	0.004307
483.000000	0.004266
482.000000	0.004112
481.000000	0.003916
480.000000	0.003777
479.000000	0.003717
478.000000	0.003715
477.000000	0.003731
476.000000	0.003676
475.000000	0.003460
474.000000	0.003161
473.000000	0.003054
472.000000	0.003306
471.000000	0.003715
470.000000	0.003933
469.000000	0.003837
468.000000	0.003519
467.000000	0.003123
466.000000	0.002828
465.000000	0.002810
464.000000	0.003050
463.000000	0.003249
462.000000	0.003118
461.000000	0.002732
460.000000	0.002414
459.000000	0.002341
458.000000	0.002459
457.000000	0.002682
456.000000	0.002948
455.000000	0.003104
454.000000	0.002971
453.000000	0.002552
452.000000	0.002021
451.000000	0.001557
450.000000	0.001231
