PE IR       SUBTECH     SPECTRUM    ASCII       PEDS        4.00        
   -1
3S-H10-C003_1.ASC
22/02/16
16:10:59.00
22/02/16
16:48:54.00
uco
Sample 003 By uco Date Wednesday, February 16 2022
450.000000
#HDR
-1
-1
#GR
cm-1
A
1.0
0.0
4000.000000
-1.000000
3551
8
0.146838
-0.001488
#DATA
4000.000000	-0.001092
3999.000000	-0.001083
3998.000000	-0.001073
3997.000000	-0.001053
3996.000000	-0.001030
3995.000000	-0.001012
3994.000000	-0.001003
3993.000000	-0.001004
3992.000000	-0.001010
3991.000000	-0.001015
3990.000000	-0.001016
3989.000000	-0.001011
3988.000000	-0.001002
3987.000000	-0.000991
3986.000000	-0.000981
3985.000000	-0.000972
3984.000000	-0.000966
3983.000000	-0.000963
3982.000000	-0.000966
3981.000000	-0.000972
3980.000000	-0.000980
3979.000000	-0.000989
3978.000000	-0.000995
3977.000000	-0.000993
3976.000000	-0.000984
3975.000000	-0.000973
3974.000000	-0.000965
3973.000000	-0.000961
3972.000000	-0.000957
3971.000000	-0.000951
3970.000000	-0.000947
3969.000000	-0.000950
3968.000000	-0.000956
3967.000000	-0.000959
3966.000000	-0.000953
3965.000000	-0.000937
3964.000000	-0.000915
3963.000000	-0.000895
3962.000000	-0.000884
3961.000000	-0.000886
3960.000000	-0.000900
3959.000000	-0.000918
3958.000000	-0.000932
3957.000000	-0.000935
3956.000000	-0.000929
3955.000000	-0.000920
3954.000000	-0.000917
3953.000000	-0.000920
3952.000000	-0.000929
3951.000000	-0.000943
3950.000000	-0.000958
3949.000000	-0.000971
3948.000000	-0.000976
3947.000000	-0.000972
3946.000000	-0.000965
3945.000000	-0.000962
3944.000000	-0.000962
3943.000000	-0.000957
3942.000000	-0.000935
3941.000000	-0.000898
3940.000000	-0.000856
3939.000000	-0.000827
3938.000000	-0.000819
3937.000000	-0.000827
3936.000000	-0.000841
3935.000000	-0.000858
3934.000000	-0.000880
3933.000000	-0.000911
3932.000000	-0.000948
3931.000000	-0.000986
3930.000000	-0.001016
3929.000000	-0.001035
3928.000000	-0.001042
3927.000000	-0.001039
3926.000000	-0.001028
3925.000000	-0.001009
3924.000000	-0.000976
3923.000000	-0.000930
3922.000000	-0.000889
3921.000000	-0.000873
3920.000000	-0.000887
3919.000000	-0.000914
3918.000000	-0.000936
3917.000000	-0.000948
3916.000000	-0.000952
3915.000000	-0.000945
3914.000000	-0.000929
3913.000000	-0.000910
3912.000000	-0.000893
3911.000000	-0.000882
3910.000000	-0.000874
3909.000000	-0.000865
3908.000000	-0.000853
3907.000000	-0.000842
3906.000000	-0.000845
3905.000000	-0.000871
3904.000000	-0.000915
3903.000000	-0.000953
3902.000000	-0.000971
3901.000000	-0.000976
3900.000000	-0.000979
3899.000000	-0.000974
3898.000000	-0.000953
3897.000000	-0.000920
3896.000000	-0.000886
3895.000000	-0.000860
3894.000000	-0.000840
3893.000000	-0.000833
3892.000000	-0.000845
3891.000000	-0.000865
3890.000000	-0.000872
3889.000000	-0.000857
3888.000000	-0.000847
3887.000000	-0.000873
3886.000000	-0.000935
3885.000000	-0.000987
3884.000000	-0.000983
3883.000000	-0.000926
3882.000000	-0.000866
3881.000000	-0.000843
3880.000000	-0.000855
3879.000000	-0.000871
3878.000000	-0.000876
3877.000000	-0.000881
3876.000000	-0.000895
3875.000000	-0.000908
3874.000000	-0.000896
3873.000000	-0.000847
3872.000000	-0.000785
3871.000000	-0.000755
3870.000000	-0.000772
3869.000000	-0.000798
3868.000000	-0.000794
3867.000000	-0.000775
3866.000000	-0.000785
3865.000000	-0.000828
3864.000000	-0.000864
3863.000000	-0.000859
3862.000000	-0.000824
3861.000000	-0.000787
3860.000000	-0.000761
3859.000000	-0.000740
3858.000000	-0.000710
3857.000000	-0.000664
3856.000000	-0.000613
3855.000000	-0.000594
3854.000000	-0.000632
3853.000000	-0.000706
3852.000000	-0.000763
3851.000000	-0.000789
3850.000000	-0.000805
3849.000000	-0.000822
3848.000000	-0.000831
3847.000000	-0.000828
3846.000000	-0.000825
3845.000000	-0.000838
3844.000000	-0.000871
3843.000000	-0.000915
3842.000000	-0.000950
3841.000000	-0.000964
3840.000000	-0.000959
3839.000000	-0.000944
3838.000000	-0.000920
3837.000000	-0.000884
3836.000000	-0.000843
3835.000000	-0.000810
3834.000000	-0.000789
3833.000000	-0.000781
3832.000000	-0.000779
3831.000000	-0.000779
3830.000000	-0.000785
3829.000000	-0.000812
3828.000000	-0.000863
3827.000000	-0.000924
3826.000000	-0.000968
3825.000000	-0.000965
3824.000000	-0.000914
3823.000000	-0.000850
3822.000000	-0.000816
3821.000000	-0.000825
3820.000000	-0.000846
3819.000000	-0.000848
3818.000000	-0.000844
3817.000000	-0.000858
3816.000000	-0.000883
3815.000000	-0.000895
3814.000000	-0.000886
3813.000000	-0.000882
3812.000000	-0.000900
3811.000000	-0.000917
3810.000000	-0.000903
3809.000000	-0.000870
3808.000000	-0.000855
3807.000000	-0.000878
3806.000000	-0.000907
3805.000000	-0.000899
3804.000000	-0.000859
3803.000000	-0.000829
3802.000000	-0.000844
3801.000000	-0.000893
3800.000000	-0.000933
3799.000000	-0.000942
3798.000000	-0.000940
3797.000000	-0.000937
3796.000000	-0.000923
3795.000000	-0.000895
3794.000000	-0.000869
3793.000000	-0.000869
3792.000000	-0.000894
3791.000000	-0.000923
3790.000000	-0.000935
3789.000000	-0.000933
3788.000000	-0.000926
3787.000000	-0.000924
3786.000000	-0.000927
3785.000000	-0.000934
3784.000000	-0.000941
3783.000000	-0.000946
3782.000000	-0.000955
3781.000000	-0.000973
3780.000000	-0.000991
3779.000000	-0.000987
3778.000000	-0.000955
3777.000000	-0.000914
3776.000000	-0.000895
3775.000000	-0.000910
3774.000000	-0.000939
3773.000000	-0.000957
3772.000000	-0.000956
3771.000000	-0.000943
3770.000000	-0.000925
3769.000000	-0.000902
3768.000000	-0.000878
3767.000000	-0.000871
3766.000000	-0.000898
3765.000000	-0.000946
3764.000000	-0.000985
3763.000000	-0.000996
3762.000000	-0.000991
3761.000000	-0.000993
3760.000000	-0.001007
3759.000000	-0.001015
3758.000000	-0.001008
3757.000000	-0.000994
3756.000000	-0.000981
3755.000000	-0.000975
3754.000000	-0.000985
3753.000000	-0.001017
3752.000000	-0.001057
3751.000000	-0.001076
3750.000000	-0.001070
3749.000000	-0.001054
3748.000000	-0.001030
3747.000000	-0.000990
3746.000000	-0.000948
3745.000000	-0.000933
3744.000000	-0.000945
3743.000000	-0.000965
3742.000000	-0.000991
3741.000000	-0.001042
3740.000000	-0.001102
3739.000000	-0.001130
3738.000000	-0.001111
3737.000000	-0.001075
3736.000000	-0.001060
3735.000000	-0.001061
3734.000000	-0.001042
3733.000000	-0.000992
3732.000000	-0.000942
3731.000000	-0.000919
3730.000000	-0.000926
3729.000000	-0.000957
3728.000000	-0.001016
3727.000000	-0.001094
3726.000000	-0.001159
3725.000000	-0.001178
3724.000000	-0.001149
3723.000000	-0.001097
3722.000000	-0.001049
3721.000000	-0.001021
3720.000000	-0.001011
3719.000000	-0.001010
3718.000000	-0.001013
3717.000000	-0.001014
3716.000000	-0.001002
3715.000000	-0.000971
3714.000000	-0.000925
3713.000000	-0.000876
3712.000000	-0.000831
3711.000000	-0.000794
3710.000000	-0.000763
3709.000000	-0.000743
3708.000000	-0.000745
3707.000000	-0.000767
3706.000000	-0.000788
3705.000000	-0.000793
3704.000000	-0.000778
3703.000000	-0.000756
3702.000000	-0.000738
3701.000000	-0.000731
3700.000000	-0.000731
3699.000000	-0.000731
3698.000000	-0.000725
3697.000000	-0.000713
3696.000000	-0.000692
3695.000000	-0.000668
3694.000000	-0.000655
3693.000000	-0.000666
3692.000000	-0.000692
3691.000000	-0.000704
3690.000000	-0.000679
3689.000000	-0.000620
3688.000000	-0.000557
3687.000000	-0.000518
3686.000000	-0.000505
3685.000000	-0.000505
3684.000000	-0.000498
3683.000000	-0.000464
3682.000000	-0.000397
3681.000000	-0.000301
3680.000000	-0.000189
3679.000000	-0.000063
3678.000000	0.000059
3677.000000	0.000127
3676.000000	0.000104
3675.000000	0.000032
3674.000000	-0.000018
3673.000000	-0.000038
3672.000000	-0.000066
3671.000000	-0.000096
3670.000000	-0.000078
3669.000000	0.000014
3668.000000	0.000143
3667.000000	0.000245
3666.000000	0.000289
3665.000000	0.000294
3664.000000	0.000291
3663.000000	0.000299
3662.000000	0.000313
3661.000000	0.000327
3660.000000	0.000346
3659.000000	0.000381
3658.000000	0.000436
3657.000000	0.000500
3656.000000	0.000563
3655.000000	0.000623
3654.000000	0.000681
3653.000000	0.000729
3652.000000	0.000751
3651.000000	0.000744
3650.000000	0.000743
3649.000000	0.000798
3648.000000	0.000935
3647.000000	0.001121
3646.000000	0.001299
3645.000000	0.001425
3644.000000	0.001486
3643.000000	0.001495
3642.000000	0.001484
3641.000000	0.001484
3640.000000	0.001514
3639.000000	0.001569
3638.000000	0.001633
3637.000000	0.001704
3636.000000	0.001782
3635.000000	0.001861
3634.000000	0.001929
3633.000000	0.001985
3632.000000	0.002044
3631.000000	0.002120
3630.000000	0.002224
3629.000000	0.002350
3628.000000	0.002472
3627.000000	0.002566
3626.000000	0.002616
3625.000000	0.002625
3624.000000	0.002623
3623.000000	0.002637
3622.000000	0.002671
3621.000000	0.002713
3620.000000	0.002761
3619.000000	0.002831
3618.000000	0.002931
3617.000000	0.003046
3616.000000	0.003152
3615.000000	0.003240
3614.000000	0.003318
3613.000000	0.003402
3612.000000	0.003500
3611.000000	0.003605
3610.000000	0.003703
3609.000000	0.003786
3608.000000	0.003862
3607.000000	0.003943
3606.000000	0.004027
3605.000000	0.004106
3604.000000	0.004174
3603.000000	0.004243
3602.000000	0.004323
3601.000000	0.004415
3600.000000	0.004510
3599.000000	0.004604
3598.000000	0.004696
3597.000000	0.004786
3596.000000	0.004881
3595.000000	0.004986
3594.000000	0.005097
3593.000000	0.005200
3592.000000	0.005283
3591.000000	0.005345
3590.000000	0.005401
3589.000000	0.005478
3588.000000	0.005602
3587.000000	0.005777
3586.000000	0.005975
3585.000000	0.006151
3584.000000	0.006276
3583.000000	0.006357
3582.000000	0.006426
3581.000000	0.006506
3580.000000	0.006608
3579.000000	0.006731
3578.000000	0.006867
3577.000000	0.007003
3576.000000	0.007129
3575.000000	0.007242
3574.000000	0.007344
3573.000000	0.007430
3572.000000	0.007498
3571.000000	0.007555
3570.000000	0.007618
3569.000000	0.007703
3568.000000	0.007817
3567.000000	0.007951
3566.000000	0.008094
3565.000000	0.008236
3564.000000	0.008368
3563.000000	0.008487
3562.000000	0.008602
3561.000000	0.008723
3560.000000	0.008858
3559.000000	0.009009
3558.000000	0.009168
3557.000000	0.009314
3556.000000	0.009432
3555.000000	0.009525
3554.000000	0.009617
3553.000000	0.009727
3552.000000	0.009854
3551.000000	0.009977
3550.000000	0.010079
3549.000000	0.010160
3548.000000	0.010237
3547.000000	0.010331
3546.000000	0.010449
3545.000000	0.010586
3544.000000	0.010732
3543.000000	0.010880
3542.000000	0.011025
3541.000000	0.011153
3540.000000	0.011259
3539.000000	0.011348
3538.000000	0.011434
3537.000000	0.011528
3536.000000	0.011634
3535.000000	0.011753
3534.000000	0.011879
3533.000000	0.012006
3532.000000	0.012122
3531.000000	0.012223
3530.000000	0.012312
3529.000000	0.012397
3528.000000	0.012482
3527.000000	0.012568
3526.000000	0.012652
3525.000000	0.012737
3524.000000	0.012831
3523.000000	0.012941
3522.000000	0.013070
3521.000000	0.013204
3520.000000	0.013331
3519.000000	0.013450
3518.000000	0.013567
3517.000000	0.013685
3516.000000	0.013800
3515.000000	0.013904
3514.000000	0.013991
3513.000000	0.014069
3512.000000	0.014149
3511.000000	0.014241
3510.000000	0.014347
3509.000000	0.014459
3508.000000	0.014562
3507.000000	0.014646
3506.000000	0.014708
3505.000000	0.014757
3504.000000	0.014814
3503.000000	0.014899
3502.000000	0.015016
3501.000000	0.015149
3500.000000	0.015279
3499.000000	0.015402
3498.000000	0.015521
3497.000000	0.015635
3496.000000	0.015740
3495.000000	0.015836
3494.000000	0.015927
3493.000000	0.016019
3492.000000	0.016114
3491.000000	0.016212
3490.000000	0.016309
3489.000000	0.016401
3488.000000	0.016487
3487.000000	0.016572
3486.000000	0.016662
3485.000000	0.016757
3484.000000	0.016853
3483.000000	0.016942
3482.000000	0.017023
3481.000000	0.017106
3480.000000	0.017199
3479.000000	0.017307
3478.000000	0.017424
3477.000000	0.017539
3476.000000	0.017644
3475.000000	0.017736
3474.000000	0.017813
3473.000000	0.017877
3472.000000	0.017936
3471.000000	0.018001
3470.000000	0.018080
3469.000000	0.018169
3468.000000	0.018262
3467.000000	0.018352
3466.000000	0.018432
3465.000000	0.018493
3464.000000	0.018534
3463.000000	0.018564
3462.000000	0.018599
3461.000000	0.018650
3460.000000	0.018714
3459.000000	0.018783
3458.000000	0.018850
3457.000000	0.018913
3456.000000	0.018975
3455.000000	0.019041
3454.000000	0.019113
3453.000000	0.019187
3452.000000	0.019254
3451.000000	0.019312
3450.000000	0.019359
3449.000000	0.019402
3448.000000	0.019450
3447.000000	0.019515
3446.000000	0.019596
3445.000000	0.019682
3444.000000	0.019762
3443.000000	0.019837
3442.000000	0.019912
3441.000000	0.019987
3440.000000	0.020056
3439.000000	0.020121
3438.000000	0.020188
3437.000000	0.020264
3436.000000	0.020347
3435.000000	0.020428
3434.000000	0.020500
3433.000000	0.020556
3432.000000	0.020602
3431.000000	0.020650
3430.000000	0.020710
3429.000000	0.020777
3428.000000	0.020847
3427.000000	0.020917
3426.000000	0.020990
3425.000000	0.021062
3424.000000	0.021125
3423.000000	0.021179
3422.000000	0.021234
3421.000000	0.021301
3420.000000	0.021377
3419.000000	0.021453
3418.000000	0.021519
3417.000000	0.021574
3416.000000	0.021625
3415.000000	0.021680
3414.000000	0.021744
3413.000000	0.021816
3412.000000	0.021887
3411.000000	0.021953
3410.000000	0.022011
3409.000000	0.022065
3408.000000	0.022122
3407.000000	0.022186
3406.000000	0.022251
3405.000000	0.022307
3404.000000	0.022349
3403.000000	0.022385
3402.000000	0.022423
3401.000000	0.022464
3400.000000	0.022506
3399.000000	0.022553
3398.000000	0.022611
3397.000000	0.022678
3396.000000	0.022749
3395.000000	0.022822
3394.000000	0.022900
3393.000000	0.022982
3392.000000	0.023065
3391.000000	0.023141
3390.000000	0.023205
3389.000000	0.023258
3388.000000	0.023304
3387.000000	0.023358
3386.000000	0.023430
3385.000000	0.023521
3384.000000	0.023622
3383.000000	0.023721
3382.000000	0.023807
3381.000000	0.023877
3380.000000	0.023945
3379.000000	0.024030
3378.000000	0.024143
3377.000000	0.024274
3376.000000	0.024398
3375.000000	0.024499
3374.000000	0.024572
3373.000000	0.024624
3372.000000	0.024674
3371.000000	0.024741
3370.000000	0.024838
3369.000000	0.024962
3368.000000	0.025100
3367.000000	0.025235
3366.000000	0.025358
3365.000000	0.025458
3364.000000	0.025540
3363.000000	0.025615
3362.000000	0.025704
3361.000000	0.025817
3360.000000	0.025952
3359.000000	0.026100
3358.000000	0.026252
3357.000000	0.026402
3356.000000	0.026547
3355.000000	0.026685
3354.000000	0.026812
3353.000000	0.026920
3352.000000	0.027012
3351.000000	0.027103
3350.000000	0.027213
3349.000000	0.027346
3348.000000	0.027489
3347.000000	0.027628
3346.000000	0.027754
3345.000000	0.027868
3344.000000	0.027979
3343.000000	0.028095
3342.000000	0.028215
3341.000000	0.028333
3340.000000	0.028441
3339.000000	0.028540
3338.000000	0.028643
3337.000000	0.028751
3336.000000	0.028861
3335.000000	0.028962
3334.000000	0.029053
3333.000000	0.029144
3332.000000	0.029247
3331.000000	0.029365
3330.000000	0.029483
3329.000000	0.029577
3328.000000	0.029637
3327.000000	0.029681
3326.000000	0.029742
3325.000000	0.029834
3324.000000	0.029943
3323.000000	0.030047
3322.000000	0.030131
3321.000000	0.030191
3320.000000	0.030234
3319.000000	0.030273
3318.000000	0.030323
3317.000000	0.030385
3316.000000	0.030446
3315.000000	0.030495
3314.000000	0.030524
3313.000000	0.030542
3312.000000	0.030556
3311.000000	0.030573
3310.000000	0.030592
3309.000000	0.030607
3308.000000	0.030615
3307.000000	0.030624
3306.000000	0.030644
3305.000000	0.030683
3304.000000	0.030740
3303.000000	0.030805
3302.000000	0.030863
3301.000000	0.030900
3300.000000	0.030910
3299.000000	0.030899
3298.000000	0.030878
3297.000000	0.030857
3296.000000	0.030838
3295.000000	0.030820
3294.000000	0.030803
3293.000000	0.030782
3292.000000	0.030759
3291.000000	0.030743
3290.000000	0.030744
3289.000000	0.030759
3288.000000	0.030775
3287.000000	0.030776
3286.000000	0.030757
3285.000000	0.030721
3284.000000	0.030673
3283.000000	0.030616
3282.000000	0.030554
3281.000000	0.030490
3280.000000	0.030428
3279.000000	0.030364
3278.000000	0.030289
3277.000000	0.030193
3276.000000	0.030080
3275.000000	0.029964
3274.000000	0.029861
3273.000000	0.029773
3272.000000	0.029696
3271.000000	0.029627
3270.000000	0.029564
3269.000000	0.029506
3268.000000	0.029440
3267.000000	0.029356
3266.000000	0.029248
3265.000000	0.029123
3264.000000	0.028995
3263.000000	0.028880
3262.000000	0.028785
3261.000000	0.028701
3260.000000	0.028605
3259.000000	0.028482
3258.000000	0.028336
3257.000000	0.028183
3256.000000	0.028045
3255.000000	0.027931
3254.000000	0.027831
3253.000000	0.027727
3252.000000	0.027608
3251.000000	0.027484
3250.000000	0.027371
3249.000000	0.027270
3248.000000	0.027171
3247.000000	0.027065
3246.000000	0.026958
3245.000000	0.026863
3244.000000	0.026785
3243.000000	0.026718
3242.000000	0.026652
3241.000000	0.026576
3240.000000	0.026491
3239.000000	0.026403
3238.000000	0.026316
3237.000000	0.026228
3236.000000	0.026133
3235.000000	0.026031
3234.000000	0.025929
3233.000000	0.025837
3232.000000	0.025754
3231.000000	0.025675
3230.000000	0.025593
3229.000000	0.025503
3228.000000	0.025405
3227.000000	0.025301
3226.000000	0.025206
3225.000000	0.025130
3224.000000	0.025075
3223.000000	0.025027
3222.000000	0.024974
3221.000000	0.024904
3220.000000	0.024818
3219.000000	0.024720
3218.000000	0.024620
3217.000000	0.024522
3216.000000	0.024431
3215.000000	0.024349
3214.000000	0.024276
3213.000000	0.024209
3212.000000	0.024142
3211.000000	0.024066
3210.000000	0.023974
3209.000000	0.023865
3208.000000	0.023744
3207.000000	0.023623
3206.000000	0.023511
3205.000000	0.023411
3204.000000	0.023316
3203.000000	0.023221
3202.000000	0.023125
3201.000000	0.023035
3200.000000	0.022952
3199.000000	0.022867
3198.000000	0.022768
3197.000000	0.022653
3196.000000	0.022529
3195.000000	0.022411
3194.000000	0.022303
3193.000000	0.022204
3192.000000	0.022103
3191.000000	0.021994
3190.000000	0.021877
3189.000000	0.021755
3188.000000	0.021634
3187.000000	0.021513
3186.000000	0.021391
3185.000000	0.021265
3184.000000	0.021138
3183.000000	0.021015
3182.000000	0.020895
3181.000000	0.020772
3180.000000	0.020648
3179.000000	0.020534
3178.000000	0.020439
3177.000000	0.020353
3176.000000	0.020257
3175.000000	0.020139
3174.000000	0.020008
3173.000000	0.019878
3172.000000	0.019755
3171.000000	0.019636
3170.000000	0.019517
3169.000000	0.019400
3168.000000	0.019285
3167.000000	0.019169
3166.000000	0.019048
3165.000000	0.018926
3164.000000	0.018810
3163.000000	0.018707
3162.000000	0.018618
3161.000000	0.018531
3160.000000	0.018431
3159.000000	0.018311
3158.000000	0.018177
3157.000000	0.018045
3156.000000	0.017930
3155.000000	0.017832
3154.000000	0.017742
3153.000000	0.017653
3152.000000	0.017563
3151.000000	0.017479
3150.000000	0.017405
3149.000000	0.017343
3148.000000	0.017285
3147.000000	0.017226
3146.000000	0.017167
3145.000000	0.017107
3144.000000	0.017043
3143.000000	0.016966
3142.000000	0.016874
3141.000000	0.016776
3140.000000	0.016683
3139.000000	0.016599
3138.000000	0.016521
3137.000000	0.016447
3136.000000	0.016383
3135.000000	0.016335
3134.000000	0.016300
3133.000000	0.016262
3132.000000	0.016209
3131.000000	0.016137
3130.000000	0.016059
3129.000000	0.015994
3128.000000	0.015957
3127.000000	0.015950
3126.000000	0.015959
3125.000000	0.015956
3124.000000	0.015917
3123.000000	0.015842
3122.000000	0.015753
3121.000000	0.015675
3120.000000	0.015620
3119.000000	0.015590
3118.000000	0.015584
3117.000000	0.015603
3116.000000	0.015642
3115.000000	0.015687
3114.000000	0.015728
3113.000000	0.015761
3112.000000	0.015784
3111.000000	0.015788
3110.000000	0.015773
3109.000000	0.015748
3108.000000	0.015734
3107.000000	0.015744
3106.000000	0.015781
3105.000000	0.015835
3104.000000	0.015891
3103.000000	0.015938
3102.000000	0.015972
3101.000000	0.015999
3100.000000	0.016030
3099.000000	0.016073
3098.000000	0.016129
3097.000000	0.016194
3096.000000	0.016258
3095.000000	0.016308
3094.000000	0.016339
3093.000000	0.016358
3092.000000	0.016378
3091.000000	0.016409
3090.000000	0.016453
3089.000000	0.016504
3088.000000	0.016548
3087.000000	0.016577
3086.000000	0.016590
3085.000000	0.016599
3084.000000	0.016616
3083.000000	0.016637
3082.000000	0.016649
3081.000000	0.016645
3080.000000	0.016633
3079.000000	0.016634
3078.000000	0.016660
3077.000000	0.016710
3076.000000	0.016765
3075.000000	0.016802
3074.000000	0.016812
3073.000000	0.016804
3072.000000	0.016795
3071.000000	0.016793
3070.000000	0.016787
3069.000000	0.016765
3068.000000	0.016727
3067.000000	0.016682
3066.000000	0.016633
3065.000000	0.016577
3064.000000	0.016511
3063.000000	0.016440
3062.000000	0.016368
3061.000000	0.016293
3060.000000	0.016209
3059.000000	0.016115
3058.000000	0.016016
3057.000000	0.015923
3056.000000	0.015842
3055.000000	0.015768
3054.000000	0.015695
3053.000000	0.015622
3052.000000	0.015552
3051.000000	0.015482
3050.000000	0.015406
3049.000000	0.015321
3048.000000	0.015233
3047.000000	0.015147
3046.000000	0.015068
3045.000000	0.014994
3044.000000	0.014924
3043.000000	0.014858
3042.000000	0.014798
3041.000000	0.014746
3040.000000	0.014699
3039.000000	0.014655
3038.000000	0.014606
3037.000000	0.014553
3036.000000	0.014500
3035.000000	0.014455
3034.000000	0.014422
3033.000000	0.014401
3032.000000	0.014389
3031.000000	0.014381
3030.000000	0.014372
3029.000000	0.014364
3028.000000	0.014370
3027.000000	0.014405
3026.000000	0.014479
3025.000000	0.014583
3024.000000	0.014700
3023.000000	0.014816
3022.000000	0.014933
3021.000000	0.015069
3020.000000	0.015240
3019.000000	0.015452
3018.000000	0.015702
3017.000000	0.015985
3016.000000	0.016299
3015.000000	0.016645
3014.000000	0.017024
3013.000000	0.017431
3012.000000	0.017854
3011.000000	0.018278
3010.000000	0.018683
3009.000000	0.019049
3008.000000	0.019357
3007.000000	0.019589
3006.000000	0.019743
3005.000000	0.019827
3004.000000	0.019850
3003.000000	0.019811
3002.000000	0.019705
3001.000000	0.019538
3000.000000	0.019333
2999.000000	0.019119
2998.000000	0.018918
2997.000000	0.018745
2996.000000	0.018610
2995.000000	0.018523
2994.000000	0.018496
2993.000000	0.018536
2992.000000	0.018645
2991.000000	0.018810
2990.000000	0.019018
2989.000000	0.019260
2988.000000	0.019540
2987.000000	0.019863
2986.000000	0.020230
2985.000000	0.020642
2984.000000	0.021105
2983.000000	0.021628
2982.000000	0.022210
2981.000000	0.022841
2980.000000	0.023512
2979.000000	0.024218
2978.000000	0.024967
2977.000000	0.025772
2976.000000	0.026650
2975.000000	0.027617
2974.000000	0.028681
2973.000000	0.029846
2972.000000	0.031112
2971.000000	0.032480
2970.000000	0.033948
2969.000000	0.035519
2968.000000	0.037197
2967.000000	0.038976
2966.000000	0.040832
2965.000000	0.042726
2964.000000	0.044614
2963.000000	0.046466
2962.000000	0.048254
2961.000000	0.049950
2960.000000	0.051527
2959.000000	0.052956
2958.000000	0.054217
2957.000000	0.055286
2956.000000	0.056143
2955.000000	0.056778
2954.000000	0.057205
2953.000000	0.057466
2952.000000	0.057635
2951.000000	0.057808
2950.000000	0.058085
2949.000000	0.058553
2948.000000	0.059278
2947.000000	0.060309
2946.000000	0.061684
2945.000000	0.063433
2944.000000	0.065570
2943.000000	0.068091
2942.000000	0.070979
2941.000000	0.074211
2940.000000	0.077764
2939.000000	0.081618
2938.000000	0.085754
2937.000000	0.090150
2936.000000	0.094782
2935.000000	0.099620
2934.000000	0.104612
2933.000000	0.109690
2932.000000	0.114785
2931.000000	0.119840
2930.000000	0.124799
2929.000000	0.129585
2928.000000	0.134088
2927.000000	0.138171
2926.000000	0.141670
2925.000000	0.144396
2924.000000	0.146166
2923.000000	0.146838
2922.000000	0.146337
2921.000000	0.144662
2920.000000	0.141886
2919.000000	0.138151
2918.000000	0.133648
2917.000000	0.128593
2916.000000	0.123209
2915.000000	0.117704
2914.000000	0.112264
2913.000000	0.107030
2912.000000	0.102108
2911.000000	0.097558
2910.000000	0.093395
2909.000000	0.089597
2908.000000	0.086128
2907.000000	0.082956
2906.000000	0.080051
2905.000000	0.077371
2904.000000	0.074876
2903.000000	0.072531
2902.000000	0.070317
2901.000000	0.068218
2900.000000	0.066221
2899.000000	0.064310
2898.000000	0.062467
2897.000000	0.060676
2896.000000	0.058924
2895.000000	0.057207
2894.000000	0.055528
2893.000000	0.053894
2892.000000	0.052322
2891.000000	0.050823
2890.000000	0.049402
2889.000000	0.048053
2888.000000	0.046776
2887.000000	0.045581
2886.000000	0.044493
2885.000000	0.043540
2884.000000	0.042743
2883.000000	0.042116
2882.000000	0.041671
2881.000000	0.041423
2880.000000	0.041391
2879.000000	0.041594
2878.000000	0.042045
2877.000000	0.042734
2876.000000	0.043620
2875.000000	0.044626
2874.000000	0.045641
2873.000000	0.046553
2872.000000	0.047284
2871.000000	0.047839
2870.000000	0.048314
2869.000000	0.048860
2868.000000	0.049636
2867.000000	0.050782
2866.000000	0.052411
2865.000000	0.054600
2864.000000	0.057389
2863.000000	0.060788
2862.000000	0.064781
2861.000000	0.069319
2860.000000	0.074298
2859.000000	0.079540
2858.000000	0.084809
2857.000000	0.089812
2856.000000	0.094205
2855.000000	0.097609
2854.000000	0.099651
2853.000000	0.100047
2852.000000	0.098682
2851.000000	0.095632
2850.000000	0.091130
2849.000000	0.085517
2848.000000	0.079188
2847.000000	0.072543
2846.000000	0.065941
2845.000000	0.059664
2844.000000	0.053912
2843.000000	0.048801
2842.000000	0.044367
2841.000000	0.040583
2840.000000	0.037377
2839.000000	0.034666
2838.000000	0.032377
2837.000000	0.030444
2836.000000	0.028799
2835.000000	0.027376
2834.000000	0.026115
2833.000000	0.024982
2832.000000	0.023960
2831.000000	0.023030
2830.000000	0.022172
2829.000000	0.021373
2828.000000	0.020630
2827.000000	0.019946
2826.000000	0.019320
2825.000000	0.018746
2824.000000	0.018215
2823.000000	0.017724
2822.000000	0.017272
2821.000000	0.016860
2820.000000	0.016482
2819.000000	0.016123
2818.000000	0.015775
2817.000000	0.015443
2816.000000	0.015133
2815.000000	0.014850
2814.000000	0.014589
2813.000000	0.014344
2812.000000	0.014111
2811.000000	0.013889
2810.000000	0.013675
2809.000000	0.013468
2808.000000	0.013265
2807.000000	0.013066
2806.000000	0.012875
2805.000000	0.012697
2804.000000	0.012539
2803.000000	0.012393
2802.000000	0.012250
2801.000000	0.012105
2800.000000	0.011959
2799.000000	0.011818
2798.000000	0.011685
2797.000000	0.011559
2796.000000	0.011437
2795.000000	0.011317
2794.000000	0.011202
2793.000000	0.011094
2792.000000	0.010992
2791.000000	0.010892
2790.000000	0.010791
2789.000000	0.010691
2788.000000	0.010591
2787.000000	0.010487
2786.000000	0.010378
2785.000000	0.010265
2784.000000	0.010150
2783.000000	0.010034
2782.000000	0.009915
2781.000000	0.009800
2780.000000	0.009698
2779.000000	0.009615
2778.000000	0.009548
2777.000000	0.009490
2776.000000	0.009433
2775.000000	0.009367
2774.000000	0.009292
2773.000000	0.009215
2772.000000	0.009144
2771.000000	0.009077
2770.000000	0.009009
2769.000000	0.008942
2768.000000	0.008880
2767.000000	0.008823
2766.000000	0.008761
2765.000000	0.008686
2764.000000	0.008607
2763.000000	0.008536
2762.000000	0.008479
2761.000000	0.008430
2760.000000	0.008389
2759.000000	0.008360
2758.000000	0.008348
2757.000000	0.008343
2756.000000	0.008330
2755.000000	0.008304
2754.000000	0.008273
2753.000000	0.008246
2752.000000	0.008219
2751.000000	0.008182
2750.000000	0.008136
2749.000000	0.008089
2748.000000	0.008046
2747.000000	0.008007
2746.000000	0.007974
2745.000000	0.007950
2744.000000	0.007933
2743.000000	0.007920
2742.000000	0.007911
2741.000000	0.007907
2740.000000	0.007904
2739.000000	0.007895
2738.000000	0.007874
2737.000000	0.007844
2736.000000	0.007811
2735.000000	0.007780
2734.000000	0.007756
2733.000000	0.007745
2732.000000	0.007741
2731.000000	0.007733
2730.000000	0.007708
2729.000000	0.007668
2728.000000	0.007618
2727.000000	0.007564
2726.000000	0.007510
2725.000000	0.007460
2724.000000	0.007414
2723.000000	0.007368
2722.000000	0.007323
2721.000000	0.007286
2720.000000	0.007259
2719.000000	0.007240
2718.000000	0.007217
2717.000000	0.007186
2716.000000	0.007148
2715.000000	0.007107
2714.000000	0.007067
2713.000000	0.007031
2712.000000	0.006996
2711.000000	0.006957
2710.000000	0.006916
2709.000000	0.006884
2708.000000	0.006866
2707.000000	0.006856
2706.000000	0.006842
2705.000000	0.006820
2704.000000	0.006800
2703.000000	0.006788
2702.000000	0.006783
2701.000000	0.006778
2700.000000	0.006771
2699.000000	0.006764
2698.000000	0.006760
2697.000000	0.006761
2696.000000	0.006765
2695.000000	0.006768
2694.000000	0.006769
2693.000000	0.006778
2692.000000	0.006799
2691.000000	0.006830
2690.000000	0.006860
2689.000000	0.006884
2688.000000	0.006898
2687.000000	0.006903
2686.000000	0.006899
2685.000000	0.006894
2684.000000	0.006894
2683.000000	0.006905
2682.000000	0.006926
2681.000000	0.006950
2680.000000	0.006962
2679.000000	0.006950
2678.000000	0.006913
2677.000000	0.006864
2676.000000	0.006821
2675.000000	0.006793
2674.000000	0.006782
2673.000000	0.006781
2672.000000	0.006780
2671.000000	0.006768
2670.000000	0.006740
2669.000000	0.006697
2668.000000	0.006652
2667.000000	0.006617
2666.000000	0.006598
2665.000000	0.006585
2664.000000	0.006563
2663.000000	0.006523
2662.000000	0.006471
2661.000000	0.006417
2660.000000	0.006367
2659.000000	0.006310
2658.000000	0.006238
2657.000000	0.006157
2656.000000	0.006080
2655.000000	0.006015
2654.000000	0.005959
2653.000000	0.005905
2652.000000	0.005847
2651.000000	0.005783
2650.000000	0.005718
2649.000000	0.005652
2648.000000	0.005586
2647.000000	0.005523
2646.000000	0.005464
2645.000000	0.005414
2644.000000	0.005371
2643.000000	0.005328
2642.000000	0.005282
2641.000000	0.005234
2640.000000	0.005179
2639.000000	0.005111
2638.000000	0.005032
2637.000000	0.004953
2636.000000	0.004885
2635.000000	0.004834
2634.000000	0.004800
2633.000000	0.004776
2632.000000	0.004754
2631.000000	0.004723
2630.000000	0.004682
2629.000000	0.004638
2628.000000	0.004595
2627.000000	0.004550
2626.000000	0.004500
2625.000000	0.004449
2624.000000	0.004395
2623.000000	0.004337
2622.000000	0.004278
2621.000000	0.004223
2620.000000	0.004173
2619.000000	0.004119
2618.000000	0.004057
2617.000000	0.003988
2616.000000	0.003922
2615.000000	0.003864
2614.000000	0.003816
2613.000000	0.003776
2612.000000	0.003734
2611.000000	0.003682
2610.000000	0.003624
2609.000000	0.003578
2608.000000	0.003549
2607.000000	0.003528
2606.000000	0.003502
2605.000000	0.003474
2604.000000	0.003451
2603.000000	0.003436
2602.000000	0.003426
2601.000000	0.003416
2600.000000	0.003400
2599.000000	0.003372
2598.000000	0.003335
2597.000000	0.003301
2596.000000	0.003278
2595.000000	0.003266
2594.000000	0.003260
2593.000000	0.003259
2592.000000	0.003259
2591.000000	0.003249
2590.000000	0.003221
2589.000000	0.003176
2588.000000	0.003121
2587.000000	0.003063
2586.000000	0.003020
2585.000000	0.003005
2584.000000	0.003008
2583.000000	0.002996
2582.000000	0.002945
2581.000000	0.002867
2580.000000	0.002793
2579.000000	0.002744
2578.000000	0.002723
2577.000000	0.002723
2576.000000	0.002734
2575.000000	0.002742
2574.000000	0.002735
2573.000000	0.002704
2572.000000	0.002654
2571.000000	0.002603
2570.000000	0.002579
2569.000000	0.002595
2568.000000	0.002622
2567.000000	0.002616
2566.000000	0.002568
2565.000000	0.002515
2564.000000	0.002498
2563.000000	0.002518
2562.000000	0.002552
2561.000000	0.002584
2560.000000	0.002607
2559.000000	0.002610
2558.000000	0.002586
2557.000000	0.002535
2556.000000	0.002471
2555.000000	0.002406
2554.000000	0.002351
2553.000000	0.002314
2552.000000	0.002293
2551.000000	0.002281
2550.000000	0.002281
2549.000000	0.002302
2548.000000	0.002336
2547.000000	0.002358
2546.000000	0.002354
2545.000000	0.002336
2544.000000	0.002332
2543.000000	0.002350
2542.000000	0.002378
2541.000000	0.002400
2540.000000	0.002401
2539.000000	0.002371
2538.000000	0.002315
2537.000000	0.002255
2536.000000	0.002217
2535.000000	0.002212
2534.000000	0.002240
2533.000000	0.002288
2532.000000	0.002335
2531.000000	0.002357
2530.000000	0.002352
2529.000000	0.002345
2528.000000	0.002361
2527.000000	0.002398
2526.000000	0.002434
2525.000000	0.002446
2524.000000	0.002422
2523.000000	0.002372
2522.000000	0.002319
2521.000000	0.002284
2520.000000	0.002271
2519.000000	0.002265
2518.000000	0.002249
2517.000000	0.002224
2516.000000	0.002195
2515.000000	0.002174
2514.000000	0.002166
2513.000000	0.002166
2512.000000	0.002154
2511.000000	0.002119
2510.000000	0.002071
2509.000000	0.002036
2508.000000	0.002020
2507.000000	0.002015
2506.000000	0.002019
2505.000000	0.002038
2504.000000	0.002063
2503.000000	0.002071
2502.000000	0.002056
2501.000000	0.002038
2500.000000	0.002036
2499.000000	0.002047
2498.000000	0.002059
2497.000000	0.002066
2496.000000	0.002062
2495.000000	0.002041
2494.000000	0.002006
2493.000000	0.001968
2492.000000	0.001928
2491.000000	0.001878
2490.000000	0.001821
2489.000000	0.001782
2488.000000	0.001777
2487.000000	0.001795
2486.000000	0.001813
2485.000000	0.001817
2484.000000	0.001801
2483.000000	0.001767
2482.000000	0.001729
2481.000000	0.001708
2480.000000	0.001716
2479.000000	0.001740
2478.000000	0.001770
2477.000000	0.001800
2476.000000	0.001820
2475.000000	0.001817
2474.000000	0.001788
2473.000000	0.001751
2472.000000	0.001717
2471.000000	0.001686
2470.000000	0.001660
2469.000000	0.001649
2468.000000	0.001658
2467.000000	0.001677
2466.000000	0.001702
2465.000000	0.001733
2464.000000	0.001764
2463.000000	0.001776
2462.000000	0.001763
2461.000000	0.001747
2460.000000	0.001749
2459.000000	0.001765
2458.000000	0.001780
2457.000000	0.001786
2456.000000	0.001779
2455.000000	0.001761
2454.000000	0.001745
2453.000000	0.001745
2452.000000	0.001760
2451.000000	0.001767
2450.000000	0.001752
2449.000000	0.001721
2448.000000	0.001694
2447.000000	0.001680
2446.000000	0.001679
2445.000000	0.001691
2444.000000	0.001718
2443.000000	0.001756
2442.000000	0.001798
2441.000000	0.001830
2440.000000	0.001831
2439.000000	0.001788
2438.000000	0.001725
2437.000000	0.001677
2436.000000	0.001655
2435.000000	0.001643
2434.000000	0.001626
2433.000000	0.001617
2432.000000	0.001625
2431.000000	0.001642
2430.000000	0.001655
2429.000000	0.001668
2428.000000	0.001685
2427.000000	0.001702
2426.000000	0.001712
2425.000000	0.001707
2424.000000	0.001684
2423.000000	0.001653
2422.000000	0.001641
2421.000000	0.001668
2420.000000	0.001722
2419.000000	0.001766
2418.000000	0.001781
2417.000000	0.001774
2416.000000	0.001761
2415.000000	0.001750
2414.000000	0.001755
2413.000000	0.001785
2412.000000	0.001823
2411.000000	0.001843
2410.000000	0.001840
2409.000000	0.001837
2408.000000	0.001846
2407.000000	0.001858
2406.000000	0.001860
2405.000000	0.001852
2404.000000	0.001829
2403.000000	0.001786
2402.000000	0.001745
2401.000000	0.001745
2400.000000	0.001790
2399.000000	0.001843
2398.000000	0.001868
2397.000000	0.001873
2396.000000	0.001886
2395.000000	0.001918
2394.000000	0.001953
2393.000000	0.001977
2392.000000	0.001987
2391.000000	0.001986
2390.000000	0.001984
2389.000000	0.001986
2388.000000	0.001986
2387.000000	0.001982
2386.000000	0.001985
2385.000000	0.002009
2384.000000	0.002049
2383.000000	0.002085
2382.000000	0.002103
2381.000000	0.002109
2380.000000	0.002109
2379.000000	0.002109
2378.000000	0.002122
2377.000000	0.002153
2376.000000	0.002182
2375.000000	0.002183
2374.000000	0.002161
2373.000000	0.002149
2372.000000	0.002155
2371.000000	0.002150
2370.000000	0.002121
2369.000000	0.002095
2368.000000	0.002104
2367.000000	0.002152
2366.000000	0.002227
2365.000000	0.002305
2364.000000	0.002347
2363.000000	0.002338
2362.000000	0.002322
2361.000000	0.002348
2360.000000	0.002419
2359.000000	0.002478
2358.000000	0.002488
2357.000000	0.002465
2356.000000	0.002434
2355.000000	0.002423
2354.000000	0.002434
2353.000000	0.002439
2352.000000	0.002415
2351.000000	0.002381
2350.000000	0.002400
2349.000000	0.002502
2348.000000	0.002657
2347.000000	0.002769
2346.000000	0.002760
2345.000000	0.002656
2344.000000	0.002550
2343.000000	0.002504
2342.000000	0.002500
2341.000000	0.002515
2340.000000	0.002546
2339.000000	0.002592
2338.000000	0.002639
2337.000000	0.002682
2336.000000	0.002708
2335.000000	0.002694
2334.000000	0.002633
2333.000000	0.002561
2332.000000	0.002522
2331.000000	0.002519
2330.000000	0.002545
2329.000000	0.002594
2328.000000	0.002680
2327.000000	0.002790
2326.000000	0.002890
2325.000000	0.002946
2324.000000	0.002926
2323.000000	0.002827
2322.000000	0.002681
2321.000000	0.002558
2320.000000	0.002493
2319.000000	0.002463
2318.000000	0.002438
2317.000000	0.002411
2316.000000	0.002383
2315.000000	0.002336
2314.000000	0.002271
2313.000000	0.002216
2312.000000	0.002198
2311.000000	0.002202
2310.000000	0.002202
2309.000000	0.002192
2308.000000	0.002180
2307.000000	0.002168
2306.000000	0.002154
2305.000000	0.002149
2304.000000	0.002150
2303.000000	0.002137
2302.000000	0.002095
2301.000000	0.002040
2300.000000	0.001995
2299.000000	0.001964
2298.000000	0.001943
2297.000000	0.001934
2296.000000	0.001926
2295.000000	0.001891
2294.000000	0.001826
2293.000000	0.001762
2292.000000	0.001729
2291.000000	0.001717
2290.000000	0.001710
2289.000000	0.001709
2288.000000	0.001719
2287.000000	0.001728
2286.000000	0.001723
2285.000000	0.001706
2284.000000	0.001673
2283.000000	0.001616
2282.000000	0.001550
2281.000000	0.001524
2280.000000	0.001548
2279.000000	0.001582
2278.000000	0.001586
2277.000000	0.001561
2276.000000	0.001520
2275.000000	0.001451
2274.000000	0.001369
2273.000000	0.001326
2272.000000	0.001353
2271.000000	0.001412
2270.000000	0.001453
2269.000000	0.001467
2268.000000	0.001465
2267.000000	0.001445
2266.000000	0.001413
2265.000000	0.001408
2264.000000	0.001446
2263.000000	0.001488
2262.000000	0.001493
2261.000000	0.001470
2260.000000	0.001441
2259.000000	0.001405
2258.000000	0.001357
2257.000000	0.001301
2256.000000	0.001217
2255.000000	0.001078
2254.000000	0.000927
2253.000000	0.000863
2252.000000	0.000925
2251.000000	0.001034
2250.000000	0.001104
2249.000000	0.001142
2248.000000	0.001192
2247.000000	0.001245
2246.000000	0.001263
2245.000000	0.001243
2244.000000	0.001187
2243.000000	0.001085
2242.000000	0.000959
2241.000000	0.000875
2240.000000	0.000862
2239.000000	0.000860
2238.000000	0.000811
2237.000000	0.000736
2236.000000	0.000683
2235.000000	0.000656
2234.000000	0.000648
2233.000000	0.000686
2232.000000	0.000779
2231.000000	0.000877
2230.000000	0.000929
2229.000000	0.000938
2228.000000	0.000925
2227.000000	0.000886
2226.000000	0.000823
2225.000000	0.000761
2224.000000	0.000692
2223.000000	0.000588
2222.000000	0.000489
2221.000000	0.000494
2220.000000	0.000609
2219.000000	0.000716
2218.000000	0.000732
2217.000000	0.000714
2216.000000	0.000735
2215.000000	0.000769
2214.000000	0.000760
2213.000000	0.000727
2212.000000	0.000713
2211.000000	0.000707
2210.000000	0.000691
2209.000000	0.000695
2208.000000	0.000731
2207.000000	0.000748
2206.000000	0.000718
2205.000000	0.000676
2204.000000	0.000646
2203.000000	0.000596
2202.000000	0.000538
2201.000000	0.000562
2200.000000	0.000683
2199.000000	0.000779
2198.000000	0.000760
2197.000000	0.000701
2196.000000	0.000713
2195.000000	0.000767
2194.000000	0.000756
2193.000000	0.000642
2192.000000	0.000475
2191.000000	0.000312
2190.000000	0.000208
2189.000000	0.000199
2188.000000	0.000238
2187.000000	0.000227
2186.000000	0.000174
2185.000000	0.000201
2184.000000	0.000341
2183.000000	0.000436
2182.000000	0.000345
2181.000000	0.000135
2180.000000	-0.000021
2179.000000	-0.000029
2178.000000	0.000102
2177.000000	0.000307
2176.000000	0.000433
2175.000000	0.000324
2174.000000	0.000024
2173.000000	-0.000219
2172.000000	-0.000242
2171.000000	-0.000121
2170.000000	-0.000001
2169.000000	0.000091
2168.000000	0.000163
2167.000000	0.000170
2166.000000	0.000091
2165.000000	-0.000011
2164.000000	-0.000137
2163.000000	-0.000393
2162.000000	-0.000784
2161.000000	-0.001122
2160.000000	-0.001277
2159.000000	-0.001352
2158.000000	-0.001439
2157.000000	-0.001411
2156.000000	-0.001178
2155.000000	-0.000864
2154.000000	-0.000599
2153.000000	-0.000353
2152.000000	-0.000082
2151.000000	0.000145
2150.000000	0.000252
2149.000000	0.000269
2148.000000	0.000271
2147.000000	0.000298
2146.000000	0.000389
2145.000000	0.000571
2144.000000	0.000765
2143.000000	0.000828
2142.000000	0.000750
2141.000000	0.000690
2140.000000	0.000762
2139.000000	0.000898
2138.000000	0.000975
2137.000000	0.000956
2136.000000	0.000870
2135.000000	0.000745
2134.000000	0.000642
2133.000000	0.000640
2132.000000	0.000742
2131.000000	0.000867
2130.000000	0.000967
2129.000000	0.001058
2128.000000	0.001138
2127.000000	0.001155
2126.000000	0.001110
2125.000000	0.001080
2124.000000	0.001114
2123.000000	0.001170
2122.000000	0.001209
2121.000000	0.001265
2120.000000	0.001377
2119.000000	0.001524
2118.000000	0.001654
2117.000000	0.001743
2116.000000	0.001782
2115.000000	0.001769
2114.000000	0.001747
2113.000000	0.001786
2112.000000	0.001889
2111.000000	0.001985
2110.000000	0.002030
2109.000000	0.002047
2108.000000	0.002036
2107.000000	0.001943
2106.000000	0.001777
2105.000000	0.001655
2104.000000	0.001660
2103.000000	0.001737
2102.000000	0.001790
2101.000000	0.001802
2100.000000	0.001798
2099.000000	0.001770
2098.000000	0.001704
2097.000000	0.001641
2096.000000	0.001619
2095.000000	0.001615
2094.000000	0.001597
2093.000000	0.001582
2092.000000	0.001597
2091.000000	0.001624
2090.000000	0.001640
2089.000000	0.001657
2088.000000	0.001684
2087.000000	0.001701
2086.000000	0.001705
2085.000000	0.001721
2084.000000	0.001748
2083.000000	0.001746
2082.000000	0.001709
2081.000000	0.001681
2080.000000	0.001670
2079.000000	0.001634
2078.000000	0.001559
2077.000000	0.001493
2076.000000	0.001454
2075.000000	0.001393
2074.000000	0.001285
2073.000000	0.001180
2072.000000	0.001120
2071.000000	0.001092
2070.000000	0.001087
2069.000000	0.001107
2068.000000	0.001106
2067.000000	0.001024
2066.000000	0.000911
2065.000000	0.000894
2064.000000	0.000992
2063.000000	0.001080
2062.000000	0.001071
2061.000000	0.001001
2060.000000	0.000905
2059.000000	0.000761
2058.000000	0.000604
2057.000000	0.000545
2056.000000	0.000611
2055.000000	0.000708
2054.000000	0.000773
2053.000000	0.000832
2052.000000	0.000854
2051.000000	0.000731
2050.000000	0.000481
2049.000000	0.000303
2048.000000	0.000310
2047.000000	0.000361
2046.000000	0.000316
2045.000000	0.000239
2044.000000	0.000205
2043.000000	0.000140
2042.000000	0.000011
2041.000000	-0.000039
2040.000000	0.000080
2039.000000	0.000205
2038.000000	0.000138
2037.000000	-0.000124
2036.000000	-0.000465
2035.000000	-0.000794
2034.000000	-0.000974
2033.000000	-0.000879
2032.000000	-0.000647
2031.000000	-0.000619
2030.000000	-0.000869
2029.000000	-0.001086
2028.000000	-0.001042
2027.000000	-0.000879
2026.000000	-0.000768
2025.000000	-0.000626
2024.000000	-0.000363
2023.000000	-0.000129
2022.000000	-0.000091
2021.000000	-0.000198
2020.000000	-0.000328
2019.000000	-0.000474
2018.000000	-0.000617
2017.000000	-0.000660
2016.000000	-0.000651
2015.000000	-0.000811
2014.000000	-0.001178
2013.000000	-0.001475
2012.000000	-0.001488
2011.000000	-0.001325
2010.000000	-0.001154
2009.000000	-0.000950
2008.000000	-0.000682
2007.000000	-0.000488
2006.000000	-0.000468
2005.000000	-0.000504
2004.000000	-0.000483
2003.000000	-0.000465
2002.000000	-0.000508
2001.000000	-0.000537
2000.000000	-0.000511
1999.000000	-0.000524
1998.000000	-0.000621
1997.000000	-0.000699
1996.000000	-0.000695
1995.000000	-0.000703
1994.000000	-0.000793
1993.000000	-0.000886
1992.000000	-0.000920
1991.000000	-0.000969
1990.000000	-0.001071
1989.000000	-0.001120
1988.000000	-0.001053
1987.000000	-0.000957
1986.000000	-0.000903
1985.000000	-0.000833
1984.000000	-0.000719
1983.000000	-0.000637
1982.000000	-0.000591
1981.000000	-0.000475
1980.000000	-0.000307
1979.000000	-0.000293
1978.000000	-0.000495
1977.000000	-0.000692
1976.000000	-0.000751
1975.000000	-0.000826
1974.000000	-0.001023
1973.000000	-0.001187
1972.000000	-0.001194
1971.000000	-0.001142
1970.000000	-0.001109
1969.000000	-0.001015
1968.000000	-0.000860
1967.000000	-0.000836
1966.000000	-0.001010
1965.000000	-0.001189
1964.000000	-0.001220
1963.000000	-0.001186
1962.000000	-0.001179
1961.000000	-0.001138
1960.000000	-0.001017
1959.000000	-0.000903
1958.000000	-0.000832
1957.000000	-0.000716
1956.000000	-0.000550
1955.000000	-0.000485
1954.000000	-0.000597
1953.000000	-0.000764
1952.000000	-0.000867
1951.000000	-0.000932
1950.000000	-0.000986
1949.000000	-0.000951
1948.000000	-0.000787
1947.000000	-0.000596
1946.000000	-0.000491
1945.000000	-0.000483
1944.000000	-0.000568
1943.000000	-0.000748
1942.000000	-0.000923
1941.000000	-0.000932
1940.000000	-0.000779
1939.000000	-0.000638
1938.000000	-0.000611
1937.000000	-0.000635
1936.000000	-0.000643
1935.000000	-0.000664
1934.000000	-0.000711
1933.000000	-0.000703
1932.000000	-0.000612
1931.000000	-0.000524
1930.000000	-0.000506
1929.000000	-0.000508
1928.000000	-0.000483
1927.000000	-0.000457
1926.000000	-0.000444
1925.000000	-0.000418
1924.000000	-0.000406
1923.000000	-0.000499
1922.000000	-0.000677
1921.000000	-0.000795
1920.000000	-0.000793
1919.000000	-0.000759
1918.000000	-0.000766
1917.000000	-0.000766
1916.000000	-0.000707
1915.000000	-0.000624
1914.000000	-0.000556
1913.000000	-0.000484
1912.000000	-0.000407
1911.000000	-0.000394
1910.000000	-0.000469
1909.000000	-0.000550
1908.000000	-0.000569
1907.000000	-0.000561
1906.000000	-0.000558
1905.000000	-0.000536
1904.000000	-0.000484
1903.000000	-0.000448
1902.000000	-0.000423
1901.000000	-0.000342
1900.000000	-0.000212
1899.000000	-0.000138
1898.000000	-0.000164
1897.000000	-0.000214
1896.000000	-0.000226
1895.000000	-0.000257
1894.000000	-0.000355
1893.000000	-0.000470
1892.000000	-0.000548
1891.000000	-0.000609
1890.000000	-0.000663
1889.000000	-0.000660
1888.000000	-0.000590
1887.000000	-0.000519
1886.000000	-0.000480
1885.000000	-0.000448
1884.000000	-0.000428
1883.000000	-0.000472
1882.000000	-0.000577
1881.000000	-0.000649
1880.000000	-0.000644
1879.000000	-0.000619
1878.000000	-0.000612
1877.000000	-0.000584
1876.000000	-0.000513
1875.000000	-0.000463
1874.000000	-0.000485
1873.000000	-0.000548
1872.000000	-0.000618
1871.000000	-0.000712
1870.000000	-0.000809
1869.000000	-0.000836
1868.000000	-0.000796
1867.000000	-0.000785
1866.000000	-0.000816
1865.000000	-0.000816
1864.000000	-0.000755
1863.000000	-0.000689
1862.000000	-0.000649
1861.000000	-0.000595
1860.000000	-0.000513
1859.000000	-0.000464
1858.000000	-0.000483
1857.000000	-0.000521
1856.000000	-0.000547
1855.000000	-0.000587
1854.000000	-0.000643
1853.000000	-0.000658
1852.000000	-0.000633
1851.000000	-0.000650
1850.000000	-0.000742
1849.000000	-0.000845
1848.000000	-0.000906
1847.000000	-0.000975
1846.000000	-0.001092
1845.000000	-0.001197
1844.000000	-0.001256
1843.000000	-0.001323
1842.000000	-0.001321
1841.000000	-0.001122
1840.000000	-0.000821
1839.000000	-0.000620
1838.000000	-0.000585
1837.000000	-0.000616
1836.000000	-0.000628
1835.000000	-0.000655
1834.000000	-0.000725
1833.000000	-0.000768
1832.000000	-0.000719
1831.000000	-0.000616
1830.000000	-0.000554
1829.000000	-0.000579
1828.000000	-0.000665
1827.000000	-0.000771
1826.000000	-0.000873
1825.000000	-0.000935
1824.000000	-0.000943
1823.000000	-0.000925
1822.000000	-0.000879
1821.000000	-0.000782
1820.000000	-0.000673
1819.000000	-0.000634
1818.000000	-0.000668
1817.000000	-0.000676
1816.000000	-0.000603
1815.000000	-0.000524
1814.000000	-0.000503
1813.000000	-0.000504
1812.000000	-0.000478
1811.000000	-0.000459
1810.000000	-0.000488
1809.000000	-0.000519
1808.000000	-0.000495
1807.000000	-0.000437
1806.000000	-0.000375
1805.000000	-0.000302
1804.000000	-0.000250
1803.000000	-0.000284
1802.000000	-0.000373
1801.000000	-0.000364
1800.000000	-0.000193
1799.000000	-0.000001
1798.000000	0.000077
1797.000000	0.000086
1796.000000	0.000109
1795.000000	0.000109
1794.000000	0.000034
1793.000000	-0.000049
1792.000000	-0.000082
1791.000000	-0.000112
1790.000000	-0.000106
1789.000000	0.000042
1788.000000	0.000273
1787.000000	0.000417
1786.000000	0.000413
1785.000000	0.000379
1784.000000	0.000448
1783.000000	0.000616
1782.000000	0.000821
1781.000000	0.001034
1780.000000	0.001227
1779.000000	0.001349
1778.000000	0.001424
1777.000000	0.001566
1776.000000	0.001777
1775.000000	0.001907
1774.000000	0.001925
1773.000000	0.002087
1772.000000	0.002560
1771.000000	0.003125
1770.000000	0.003623
1769.000000	0.004180
1768.000000	0.004947
1767.000000	0.005934
1766.000000	0.007106
1765.000000	0.008512
1764.000000	0.010237
1763.000000	0.012361
1762.000000	0.014933
1761.000000	0.017886
1760.000000	0.021159
1759.000000	0.024877
1758.000000	0.029359
1757.000000	0.034829
1756.000000	0.040859
1755.000000	0.046694
1754.000000	0.052215
1753.000000	0.057987
1752.000000	0.064524
1751.000000	0.071590
1750.000000	0.078430
1749.000000	0.084587
1748.000000	0.089732
1747.000000	0.093397
1746.000000	0.095486
1745.000000	0.096254
1744.000000	0.095825
1743.000000	0.094216
1742.000000	0.091553
1741.000000	0.087880
1740.000000	0.083093
1739.000000	0.077597
1738.000000	0.072357
1737.000000	0.067659
1736.000000	0.062694
1735.000000	0.056529
1734.000000	0.049708
1733.000000	0.044068
1732.000000	0.040470
1731.000000	0.038217
1730.000000	0.036266
1729.000000	0.034163
1728.000000	0.032009
1727.000000	0.029978
1726.000000	0.028147
1725.000000	0.026499
1724.000000	0.024975
1723.000000	0.023571
1722.000000	0.022380
1721.000000	0.021410
1720.000000	0.020401
1719.000000	0.019056
1718.000000	0.017447
1717.000000	0.016045
1716.000000	0.015294
1715.000000	0.015238
1714.000000	0.015568
1713.000000	0.015940
1712.000000	0.016204
1711.000000	0.016381
1710.000000	0.016573
1709.000000	0.016869
1708.000000	0.017294
1707.000000	0.017828
1706.000000	0.018454
1705.000000	0.019077
1704.000000	0.019495
1703.000000	0.019642
1702.000000	0.019729
1701.000000	0.020372
1700.000000	0.021446
1699.000000	0.021972
1698.000000	0.022159
1697.000000	0.022723
1696.000000	0.023720
1695.000000	0.024891
1694.000000	0.026164
1693.000000	0.027774
1692.000000	0.029493
1691.000000	0.030898
1690.000000	0.031990
1689.000000	0.032923
1688.000000	0.033587
1687.000000	0.033808
1686.000000	0.033884
1685.000000	0.034791
1684.000000	0.036751
1683.000000	0.038652
1682.000000	0.040191
1681.000000	0.041817
1680.000000	0.043455
1679.000000	0.044885
1678.000000	0.046137
1677.000000	0.047492
1676.000000	0.049232
1675.000000	0.051153
1674.000000	0.052757
1673.000000	0.054113
1672.000000	0.055611
1671.000000	0.057378
1670.000000	0.059387
1669.000000	0.061398
1668.000000	0.063061
1667.000000	0.064367
1666.000000	0.065589
1665.000000	0.066980
1664.000000	0.068702
1663.000000	0.070640
1662.000000	0.072383
1661.000000	0.073763
1660.000000	0.074985
1659.000000	0.076150
1658.000000	0.077191
1657.000000	0.077930
1656.000000	0.078181
1655.000000	0.078018
1654.000000	0.078468
1653.000000	0.079938
1652.000000	0.080782
1651.000000	0.081187
1650.000000	0.082454
1649.000000	0.083977
1648.000000	0.085089
1647.000000	0.085806
1646.000000	0.086111
1645.000000	0.086124
1644.000000	0.086293
1643.000000	0.086767
1642.000000	0.087259
1641.000000	0.087591
1640.000000	0.087781
1639.000000	0.087822
1638.000000	0.087698
1637.000000	0.087654
1636.000000	0.087952
1635.000000	0.088175
1634.000000	0.087873
1633.000000	0.087416
1632.000000	0.087093
1631.000000	0.086703
1630.000000	0.086138
1629.000000	0.085443
1628.000000	0.084577
1627.000000	0.083434
1626.000000	0.082038
1625.000000	0.080512
1624.000000	0.078899
1623.000000	0.077111
1622.000000	0.075135
1621.000000	0.073151
1620.000000	0.071228
1619.000000	0.069133
1618.000000	0.066669
1617.000000	0.064006
1616.000000	0.061548
1615.000000	0.059658
1614.000000	0.058358
1613.000000	0.057200
1612.000000	0.055760
1611.000000	0.054060
1610.000000	0.052341
1609.000000	0.050698
1608.000000	0.049100
1607.000000	0.047574
1606.000000	0.046187
1605.000000	0.044923
1604.000000	0.043737
1603.000000	0.042645
1602.000000	0.041684
1601.000000	0.040829
1600.000000	0.040036
1599.000000	0.039326
1598.000000	0.038738
1597.000000	0.038254
1596.000000	0.037835
1595.000000	0.037497
1594.000000	0.037262
1593.000000	0.037091
1592.000000	0.036944
1591.000000	0.036862
1590.000000	0.036906
1589.000000	0.037057
1588.000000	0.037257
1587.000000	0.037513
1586.000000	0.037859
1585.000000	0.038268
1584.000000	0.038708
1583.000000	0.039213
1582.000000	0.039822
1581.000000	0.040480
1580.000000	0.041052
1579.000000	0.041408
1578.000000	0.041562
1577.000000	0.041791
1576.000000	0.042340
1575.000000	0.043155
1574.000000	0.044233
1573.000000	0.045491
1572.000000	0.046636
1571.000000	0.047702
1570.000000	0.048926
1569.000000	0.050101
1568.000000	0.050939
1567.000000	0.051676
1566.000000	0.052661
1565.000000	0.053835
1564.000000	0.054843
1563.000000	0.055294
1562.000000	0.055125
1561.000000	0.054775
1560.000000	0.055500
1559.000000	0.057753
1558.000000	0.059681
1557.000000	0.060472
1556.000000	0.061197
1555.000000	0.062142
1554.000000	0.063050
1553.000000	0.063867
1552.000000	0.064658
1551.000000	0.065462
1550.000000	0.066214
1549.000000	0.066837
1548.000000	0.067254
1547.000000	0.067468
1546.000000	0.067573
1545.000000	0.067667
1544.000000	0.067755
1543.000000	0.067786
1542.000000	0.067760
1541.000000	0.067750
1540.000000	0.067653
1539.000000	0.067164
1538.000000	0.066579
1537.000000	0.066532
1536.000000	0.066822
1535.000000	0.066859
1534.000000	0.066552
1533.000000	0.065997
1532.000000	0.065229
1531.000000	0.064406
1530.000000	0.063678
1529.000000	0.063025
1528.000000	0.062304
1527.000000	0.061422
1526.000000	0.060497
1525.000000	0.059687
1524.000000	0.058912
1523.000000	0.057924
1522.000000	0.056682
1521.000000	0.055458
1520.000000	0.054588
1519.000000	0.054238
1518.000000	0.054146
1517.000000	0.053823
1516.000000	0.053047
1515.000000	0.051963
1514.000000	0.050823
1513.000000	0.049700
1512.000000	0.048535
1511.000000	0.047286
1510.000000	0.045909
1509.000000	0.044332
1508.000000	0.042572
1507.000000	0.040837
1506.000000	0.039398
1505.000000	0.038340
1504.000000	0.037856
1503.000000	0.037807
1502.000000	0.037584
1501.000000	0.036992
1500.000000	0.036196
1499.000000	0.035223
1498.000000	0.033985
1497.000000	0.032594
1496.000000	0.031335
1495.000000	0.030440
1494.000000	0.029997
1493.000000	0.029828
1492.000000	0.029582
1491.000000	0.029060
1490.000000	0.028384
1489.000000	0.027892
1488.000000	0.027741
1487.000000	0.027757
1486.000000	0.027809
1485.000000	0.027955
1484.000000	0.028236
1483.000000	0.028618
1482.000000	0.029114
1481.000000	0.029777
1480.000000	0.030561
1479.000000	0.031384
1478.000000	0.032317
1477.000000	0.033493
1476.000000	0.034850
1475.000000	0.036325
1474.000000	0.038413
1473.000000	0.041951
1472.000000	0.046849
1471.000000	0.052062
1470.000000	0.057013
1469.000000	0.061625
1468.000000	0.065632
1467.000000	0.068742
1466.000000	0.070979
1465.000000	0.072571
1464.000000	0.073609
1463.000000	0.074185
1462.000000	0.074605
1461.000000	0.075062
1460.000000	0.075450
1459.000000	0.075639
1458.000000	0.075861
1457.000000	0.076277
1456.000000	0.076486
1455.000000	0.076501
1454.000000	0.076645
1453.000000	0.076623
1452.000000	0.076113
1451.000000	0.075270
1450.000000	0.074418
1449.000000	0.073716
1448.000000	0.073127
1447.000000	0.072591
1446.000000	0.072112
1445.000000	0.071700
1444.000000	0.071298
1443.000000	0.070812
1442.000000	0.070221
1441.000000	0.069557
1440.000000	0.068773
1439.000000	0.067746
1438.000000	0.066449
1437.000000	0.065055
1436.000000	0.063765
1435.000000	0.062739
1434.000000	0.062010
1433.000000	0.061338
1432.000000	0.060486
1431.000000	0.059467
1430.000000	0.058411
1429.000000	0.057417
1428.000000	0.056557
1427.000000	0.055872
1426.000000	0.055370
1425.000000	0.055050
1424.000000	0.054917
1423.000000	0.054880
1422.000000	0.054773
1421.000000	0.054557
1420.000000	0.054421
1419.000000	0.054482
1418.000000	0.054615
1417.000000	0.054771
1416.000000	0.054899
1415.000000	0.054798
1414.000000	0.054366
1413.000000	0.053686
1412.000000	0.052912
1411.000000	0.052178
1410.000000	0.051572
1409.000000	0.051137
1408.000000	0.050865
1407.000000	0.050719
1406.000000	0.050657
1405.000000	0.050648
1404.000000	0.050646
1403.000000	0.050594
1402.000000	0.050455
1401.000000	0.050210
1400.000000	0.049851
1399.000000	0.049383
1398.000000	0.048854
1397.000000	0.048343
1396.000000	0.047896
1395.000000	0.047515
1394.000000	0.047209
1393.000000	0.047015
1392.000000	0.046955
1391.000000	0.046951
1390.000000	0.046867
1389.000000	0.046689
1388.000000	0.046573
1387.000000	0.046684
1386.000000	0.047077
1385.000000	0.047693
1384.000000	0.048415
1383.000000	0.049145
1382.000000	0.049859
1381.000000	0.050575
1380.000000	0.051252
1379.000000	0.051728
1378.000000	0.051830
1377.000000	0.051486
1376.000000	0.050731
1375.000000	0.049660
1374.000000	0.048458
1373.000000	0.047353
1372.000000	0.046463
1371.000000	0.045739
1370.000000	0.045068
1369.000000	0.044388
1368.000000	0.043702
1367.000000	0.043010
1366.000000	0.042269
1365.000000	0.041425
1364.000000	0.040473
1363.000000	0.039510
1362.000000	0.038709
1361.000000	0.038181
1360.000000	0.037891
1359.000000	0.037723
1358.000000	0.037596
1357.000000	0.037493
1356.000000	0.037434
1355.000000	0.037432
1354.000000	0.037481
1353.000000	0.037583
1352.000000	0.037733
1351.000000	0.037919
1350.000000	0.038122
1349.000000	0.038332
1348.000000	0.038548
1347.000000	0.038770
1346.000000	0.039005
1345.000000	0.039270
1344.000000	0.039544
1343.000000	0.039759
1342.000000	0.039836
1341.000000	0.039754
1340.000000	0.039579
1339.000000	0.039417
1338.000000	0.039335
1337.000000	0.039313
1336.000000	0.039271
1335.000000	0.039135
1334.000000	0.038883
1333.000000	0.038546
1332.000000	0.038164
1331.000000	0.037760
1330.000000	0.037362
1329.000000	0.037015
1328.000000	0.036763
1327.000000	0.036612
1326.000000	0.036533
1325.000000	0.036502
1324.000000	0.036507
1323.000000	0.036530
1322.000000	0.036559
1321.000000	0.036595
1320.000000	0.036640
1319.000000	0.036670
1318.000000	0.036656
1317.000000	0.036596
1316.000000	0.036505
1315.000000	0.036379
1314.000000	0.036197
1313.000000	0.035971
1312.000000	0.035743
1311.000000	0.035544
1310.000000	0.035371
1309.000000	0.035211
1308.000000	0.035064
1307.000000	0.034925
1306.000000	0.034793
1305.000000	0.034671
1304.000000	0.034559
1303.000000	0.034440
1302.000000	0.034299
1301.000000	0.034139
1300.000000	0.033978
1299.000000	0.033824
1298.000000	0.033681
1297.000000	0.033570
1296.000000	0.033519
1295.000000	0.033540
1294.000000	0.033626
1293.000000	0.033770
1292.000000	0.033973
1291.000000	0.034233
1290.000000	0.034554
1289.000000	0.034951
1288.000000	0.035435
1287.000000	0.035988
1286.000000	0.036583
1285.000000	0.037203
1284.000000	0.037823
1283.000000	0.038393
1282.000000	0.038867
1281.000000	0.039237
1280.000000	0.039518
1279.000000	0.039716
1278.000000	0.039841
1277.000000	0.039918
1276.000000	0.039968
1275.000000	0.039993
1274.000000	0.039998
1273.000000	0.040019
1272.000000	0.040106
1271.000000	0.040282
1270.000000	0.040550
1269.000000	0.040898
1268.000000	0.041293
1267.000000	0.041691
1266.000000	0.042071
1265.000000	0.042454
1264.000000	0.042864
1263.000000	0.043295
1262.000000	0.043745
1261.000000	0.044234
1260.000000	0.044783
1259.000000	0.045375
1258.000000	0.045976
1257.000000	0.046572
1256.000000	0.047157
1255.000000	0.047727
1254.000000	0.048310
1253.000000	0.048967
1252.000000	0.049733
1251.000000	0.050588
1250.000000	0.051503
1249.000000	0.052472
1248.000000	0.053486
1247.000000	0.054502
1246.000000	0.055481
1245.000000	0.056408
1244.000000	0.057269
1243.000000	0.058035
1242.000000	0.058696
1241.000000	0.059272
1240.000000	0.059759
1239.000000	0.060113
1238.000000	0.060308
1237.000000	0.060366
1236.000000	0.060307
1235.000000	0.060121
1234.000000	0.059805
1233.000000	0.059384
1232.000000	0.058873
1231.000000	0.058257
1230.000000	0.057541
1229.000000	0.056755
1228.000000	0.055907
1227.000000	0.054968
1226.000000	0.053928
1225.000000	0.052831
1224.000000	0.051722
1223.000000	0.050621
1222.000000	0.049549
1221.000000	0.048541
1220.000000	0.047619
1219.000000	0.046771
1218.000000	0.046003
1217.000000	0.045358
1216.000000	0.044874
1215.000000	0.044537
1214.000000	0.044320
1213.000000	0.044208
1212.000000	0.044193
1211.000000	0.044260
1210.000000	0.044400
1209.000000	0.044624
1208.000000	0.044922
1207.000000	0.045247
1206.000000	0.045562
1205.000000	0.045876
1204.000000	0.046202
1203.000000	0.046526
1202.000000	0.046828
1201.000000	0.047110
1200.000000	0.047368
1199.000000	0.047582
1198.000000	0.047740
1197.000000	0.047867
1196.000000	0.047984
1195.000000	0.048095
1194.000000	0.048226
1193.000000	0.048424
1192.000000	0.048707
1191.000000	0.049036
1190.000000	0.049376
1189.000000	0.049746
1188.000000	0.050178
1187.000000	0.050679
1186.000000	0.051251
1185.000000	0.051919
1184.000000	0.052703
1183.000000	0.053586
1182.000000	0.054556
1181.000000	0.055628
1180.000000	0.056802
1179.000000	0.058038
1178.000000	0.059305
1177.000000	0.060615
1176.000000	0.061979
1175.000000	0.063371
1174.000000	0.064771
1173.000000	0.066189
1172.000000	0.067616
1171.000000	0.069002
1170.000000	0.070325
1169.000000	0.071611
1168.000000	0.072868
1167.000000	0.074044
1166.000000	0.075095
1165.000000	0.076032
1164.000000	0.076864
1163.000000	0.077546
1162.000000	0.078036
1161.000000	0.078333
1160.000000	0.078432
1159.000000	0.078301
1158.000000	0.077942
1157.000000	0.077410
1156.000000	0.076745
1155.000000	0.075947
1154.000000	0.075044
1153.000000	0.074114
1152.000000	0.073203
1151.000000	0.072290
1150.000000	0.071350
1149.000000	0.070406
1148.000000	0.069469
1147.000000	0.068510
1146.000000	0.067495
1145.000000	0.066410
1144.000000	0.065211
1143.000000	0.063809
1142.000000	0.062148
1141.000000	0.060238
1140.000000	0.058097
1139.000000	0.055740
1138.000000	0.053231
1137.000000	0.050694
1136.000000	0.048234
1135.000000	0.045905
1134.000000	0.043760
1133.000000	0.041887
1132.000000	0.040357
1131.000000	0.039180
1130.000000	0.038349
1129.000000	0.037886
1128.000000	0.037813
1127.000000	0.038100
1126.000000	0.038685
1125.000000	0.039514
1124.000000	0.040522
1123.000000	0.041615
1122.000000	0.042705
1121.000000	0.043739
1120.000000	0.044658
1119.000000	0.045380
1118.000000	0.045855
1117.000000	0.046093
1116.000000	0.046121
1115.000000	0.045943
1114.000000	0.045590
1113.000000	0.045143
1112.000000	0.044675
1111.000000	0.044213
1110.000000	0.043786
1109.000000	0.043456
1108.000000	0.043268
1107.000000	0.043219
1106.000000	0.043310
1105.000000	0.043572
1104.000000	0.044002
1103.000000	0.044514
1102.000000	0.045022
1101.000000	0.045500
1100.000000	0.045948
1099.000000	0.046329
1098.000000	0.046605
1097.000000	0.046780
1096.000000	0.046883
1095.000000	0.046919
1094.000000	0.046895
1093.000000	0.046836
1092.000000	0.046757
1091.000000	0.046652
1090.000000	0.046544
1089.000000	0.046485
1088.000000	0.046494
1087.000000	0.046529
1086.000000	0.046555
1085.000000	0.046573
1084.000000	0.046551
1083.000000	0.046401
1082.000000	0.046059
1081.000000	0.045539
1080.000000	0.044879
1079.000000	0.044079
1078.000000	0.043144
1077.000000	0.042124
1076.000000	0.041072
1075.000000	0.040012
1074.000000	0.038978
1073.000000	0.038034
1072.000000	0.037220
1071.000000	0.036535
1070.000000	0.035984
1069.000000	0.035598
1068.000000	0.035384
1067.000000	0.035297
1066.000000	0.035286
1065.000000	0.035335
1064.000000	0.035413
1063.000000	0.035456
1062.000000	0.035430
1061.000000	0.035365
1060.000000	0.035288
1059.000000	0.035175
1058.000000	0.035003
1057.000000	0.034789
1056.000000	0.034557
1055.000000	0.034299
1054.000000	0.034019
1053.000000	0.033767
1052.000000	0.033575
1051.000000	0.033422
1050.000000	0.033295
1049.000000	0.033221
1048.000000	0.033206
1047.000000	0.033202
1046.000000	0.033176
1045.000000	0.033151
1044.000000	0.033152
1043.000000	0.033167
1042.000000	0.033198
1041.000000	0.033304
1040.000000	0.033523
1039.000000	0.033827
1038.000000	0.034188
1037.000000	0.034627
1036.000000	0.035152
1035.000000	0.035695
1034.000000	0.036170
1033.000000	0.036557
1032.000000	0.036865
1031.000000	0.037070
1030.000000	0.037141
1029.000000	0.037090
1028.000000	0.036943
1027.000000	0.036718
1026.000000	0.036445
1025.000000	0.036178
1024.000000	0.035937
1023.000000	0.035697
1022.000000	0.035457
1021.000000	0.035263
1020.000000	0.035124
1019.000000	0.034976
1018.000000	0.034761
1017.000000	0.034479
1016.000000	0.034118
1015.000000	0.033627
1014.000000	0.032986
1013.000000	0.032260
1012.000000	0.031506
1011.000000	0.030715
1010.000000	0.029875
1009.000000	0.029050
1008.000000	0.028311
1007.000000	0.027650
1006.000000	0.027017
1005.000000	0.026398
1004.000000	0.025805
1003.000000	0.025224
1002.000000	0.024645
1001.000000	0.024085
1000.000000	0.023563
999.000000	0.023059
998.000000	0.022548
997.000000	0.022041
996.000000	0.021551
995.000000	0.021063
994.000000	0.020565
993.000000	0.020080
992.000000	0.019624
991.000000	0.019172
990.000000	0.018705
989.000000	0.018244
988.000000	0.017810
987.000000	0.017392
986.000000	0.016986
985.000000	0.016618
984.000000	0.016287
983.000000	0.015952
982.000000	0.015605
981.000000	0.015310
980.000000	0.015123
979.000000	0.015014
978.000000	0.014920
977.000000	0.014837
976.000000	0.014793
975.000000	0.014784
974.000000	0.014783
973.000000	0.014786
972.000000	0.014792
971.000000	0.014777
970.000000	0.014722
969.000000	0.014633
968.000000	0.014499
967.000000	0.014270
966.000000	0.013906
965.000000	0.013428
964.000000	0.012872
963.000000	0.012246
962.000000	0.011568
961.000000	0.010892
960.000000	0.010254
959.000000	0.009633
958.000000	0.009017
957.000000	0.008444
956.000000	0.007952
955.000000	0.007519
954.000000	0.007108
953.000000	0.006723
952.000000	0.006383
951.000000	0.006074
950.000000	0.005784
949.000000	0.005543
948.000000	0.005377
947.000000	0.005253
946.000000	0.005122
945.000000	0.004988
944.000000	0.004879
943.000000	0.004788
942.000000	0.004693
941.000000	0.004597
940.000000	0.004503
939.000000	0.004383
938.000000	0.004214
937.000000	0.004012
936.000000	0.003790
935.000000	0.003538
934.000000	0.003265
933.000000	0.003024
932.000000	0.002853
931.000000	0.002719
930.000000	0.002582
929.000000	0.002447
928.000000	0.002330
927.000000	0.002205
926.000000	0.002052
925.000000	0.001899
924.000000	0.001785
923.000000	0.001698
922.000000	0.001600
921.000000	0.001486
920.000000	0.001354
919.000000	0.001178
918.000000	0.000952
917.000000	0.000717
916.000000	0.000514
915.000000	0.000327
914.000000	0.000133
913.000000	-0.000051
912.000000	-0.000202
911.000000	-0.000338
910.000000	-0.000480
909.000000	-0.000598
908.000000	-0.000664
907.000000	-0.000696
906.000000	-0.000726
905.000000	-0.000749
904.000000	-0.000753
903.000000	-0.000758
902.000000	-0.000786
901.000000	-0.000824
900.000000	-0.000866
899.000000	-0.000940
898.000000	-0.001043
897.000000	-0.001118
896.000000	-0.001134
895.000000	-0.001138
894.000000	-0.001176
893.000000	-0.001218
892.000000	-0.001212
891.000000	-0.001168
890.000000	-0.001121
889.000000	-0.001067
888.000000	-0.000990
887.000000	-0.000893
886.000000	-0.000748
885.000000	-0.000472
884.000000	-0.000005
883.000000	0.000625
882.000000	0.001399
881.000000	0.002388
880.000000	0.003683
879.000000	0.005246
878.000000	0.006897
877.000000	0.008396
876.000000	0.009486
875.000000	0.009945
874.000000	0.009684
873.000000	0.008802
872.000000	0.007504
871.000000	0.006023
870.000000	0.004612
869.000000	0.003493
868.000000	0.002734
867.000000	0.002228
866.000000	0.001841
865.000000	0.001533
864.000000	0.001310
863.000000	0.001144
862.000000	0.001015
861.000000	0.000951
860.000000	0.000959
859.000000	0.000976
858.000000	0.000963
857.000000	0.000964
856.000000	0.001024
855.000000	0.001109
854.000000	0.001172
853.000000	0.001222
852.000000	0.001273
851.000000	0.001283
850.000000	0.001215
849.000000	0.001094
848.000000	0.000953
847.000000	0.000781
846.000000	0.000586
845.000000	0.000422
844.000000	0.000303
843.000000	0.000164
842.000000	-0.000036
841.000000	-0.000242
840.000000	-0.000404
839.000000	-0.000545
838.000000	-0.000682
837.000000	-0.000765
836.000000	-0.000778
835.000000	-0.000805
834.000000	-0.000909
833.000000	-0.001032
832.000000	-0.001098
831.000000	-0.001133
830.000000	-0.001193
829.000000	-0.001253
828.000000	-0.001262
827.000000	-0.001241
826.000000	-0.001225
825.000000	-0.001181
824.000000	-0.001084
823.000000	-0.000992
822.000000	-0.000964
821.000000	-0.000960
820.000000	-0.000932
819.000000	-0.000901
818.000000	-0.000892
817.000000	-0.000855
816.000000	-0.000761
815.000000	-0.000672
814.000000	-0.000654
813.000000	-0.000683
812.000000	-0.000724
811.000000	-0.000807
810.000000	-0.000950
809.000000	-0.001080
808.000000	-0.001131
807.000000	-0.001143
806.000000	-0.001172
805.000000	-0.001196
804.000000	-0.001179
803.000000	-0.001156
802.000000	-0.001161
801.000000	-0.001145
800.000000	-0.001064
799.000000	-0.000975
798.000000	-0.000944
797.000000	-0.000936
796.000000	-0.000888
795.000000	-0.000808
794.000000	-0.000727
793.000000	-0.000616
792.000000	-0.000446
791.000000	-0.000265
790.000000	-0.000132
789.000000	-0.000037
788.000000	0.000054
787.000000	0.000134
786.000000	0.000208
785.000000	0.000326
784.000000	0.000510
783.000000	0.000706
782.000000	0.000866
781.000000	0.001007
780.000000	0.001142
779.000000	0.001239
778.000000	0.001309
777.000000	0.001428
776.000000	0.001620
775.000000	0.001807
774.000000	0.001945
773.000000	0.002091
772.000000	0.002290
771.000000	0.002490
770.000000	0.002653
769.000000	0.002835
768.000000	0.003074
767.000000	0.003306
766.000000	0.003471
765.000000	0.003603
764.000000	0.003736
763.000000	0.003823
762.000000	0.003838
761.000000	0.003852
760.000000	0.003927
759.000000	0.004025
758.000000	0.004112
757.000000	0.004241
756.000000	0.004436
755.000000	0.004622
754.000000	0.004742
753.000000	0.004857
752.000000	0.005029
751.000000	0.005217
750.000000	0.005380
749.000000	0.005571
748.000000	0.005836
747.000000	0.006126
746.000000	0.006401
745.000000	0.006721
744.000000	0.007129
743.000000	0.007561
742.000000	0.007956
741.000000	0.008373
740.000000	0.008875
739.000000	0.009422
738.000000	0.009966
737.000000	0.010549
736.000000	0.011203
735.000000	0.011860
734.000000	0.012481
733.000000	0.013159
732.000000	0.013999
731.000000	0.014969
730.000000	0.015994
729.000000	0.017085
728.000000	0.018283
727.000000	0.019560
726.000000	0.020873
725.000000	0.022211
724.000000	0.023484
723.000000	0.024491
722.000000	0.025076
721.000000	0.025250
720.000000	0.025076
719.000000	0.024586
718.000000	0.023882
717.000000	0.023194
716.000000	0.022698
715.000000	0.022370
714.000000	0.022106
713.000000	0.021874
712.000000	0.021656
711.000000	0.021364
710.000000	0.020956
709.000000	0.020530
708.000000	0.020188
707.000000	0.019908
706.000000	0.019653
705.000000	0.019485
704.000000	0.019440
703.000000	0.019419
702.000000	0.019329
701.000000	0.019213
700.000000	0.019135
699.000000	0.019054
698.000000	0.018917
697.000000	0.018782
696.000000	0.018694
695.000000	0.018588
694.000000	0.018422
693.000000	0.018283
692.000000	0.018248
691.000000	0.018247
690.000000	0.018187
689.000000	0.018102
688.000000	0.018041
687.000000	0.017957
686.000000	0.017830
685.000000	0.017774
684.000000	0.017866
683.000000	0.017990
682.000000	0.018002
681.000000	0.017923
680.000000	0.017850
679.000000	0.017784
678.000000	0.017702
677.000000	0.017678
676.000000	0.017756
675.000000	0.017851
674.000000	0.017897
673.000000	0.017949
672.000000	0.018018
671.000000	0.017970
670.000000	0.017735
669.000000	0.017491
668.000000	0.017540
667.000000	0.017819
666.000000	0.017931
665.000000	0.017925
664.000000	0.017988
663.000000	0.018047
662.000000	0.017957
661.000000	0.017767
660.000000	0.017643
659.000000	0.017603
658.000000	0.017571
657.000000	0.017577
656.000000	0.017654
655.000000	0.017688
654.000000	0.017569
653.000000	0.017383
652.000000	0.017262
651.000000	0.017197
650.000000	0.017149
649.000000	0.017175
648.000000	0.017282
647.000000	0.017305
646.000000	0.017136
645.000000	0.016894
644.000000	0.016721
643.000000	0.016594
642.000000	0.016465
641.000000	0.016422
640.000000	0.016526
639.000000	0.016646
638.000000	0.016649
637.000000	0.016603
636.000000	0.016604
635.000000	0.016571
634.000000	0.016419
633.000000	0.016253
632.000000	0.016211
631.000000	0.016252
630.000000	0.016283
629.000000	0.016346
628.000000	0.016495
627.000000	0.016637
626.000000	0.016694
625.000000	0.016756
624.000000	0.016895
623.000000	0.016990
622.000000	0.016920
621.000000	0.016787
620.000000	0.016737
619.000000	0.016745
618.000000	0.016737
617.000000	0.016780
616.000000	0.016945
615.000000	0.017119
614.000000	0.017173
613.000000	0.017161
612.000000	0.017165
611.000000	0.017113
610.000000	0.016950
609.000000	0.016809
608.000000	0.016818
607.000000	0.016877
606.000000	0.016851
605.000000	0.016798
604.000000	0.016834
603.000000	0.016925
602.000000	0.017008
601.000000	0.017136
600.000000	0.017311
599.000000	0.017388
598.000000	0.017323
597.000000	0.017323
596.000000	0.017522
595.000000	0.017735
594.000000	0.017740
593.000000	0.017629
592.000000	0.017626
591.000000	0.017750
590.000000	0.017911
589.000000	0.018121
588.000000	0.018368
587.000000	0.018452
586.000000	0.018243
585.000000	0.017924
584.000000	0.017747
583.000000	0.017712
582.000000	0.017735
581.000000	0.017898
580.000000	0.018248
579.000000	0.018552
578.000000	0.018555
577.000000	0.018335
576.000000	0.018150
575.000000	0.018093
574.000000	0.018121
573.000000	0.018240
572.000000	0.018408
571.000000	0.018450
570.000000	0.018316
569.000000	0.018230
568.000000	0.018333
567.000000	0.018442
566.000000	0.018387
565.000000	0.018315
564.000000	0.018390
563.000000	0.018474
562.000000	0.018401
561.000000	0.018289
560.000000	0.018296
559.000000	0.018302
558.000000	0.018154
557.000000	0.017964
556.000000	0.017874
555.000000	0.017755
554.000000	0.017473
553.000000	0.017177
552.000000	0.017053
551.000000	0.017033
550.000000	0.017002
549.000000	0.017046
548.000000	0.017184
547.000000	0.017188
546.000000	0.016952
545.000000	0.016742
544.000000	0.016751
543.000000	0.016748
542.000000	0.016493
541.000000	0.016168
540.000000	0.016040
539.000000	0.016035
538.000000	0.016002
537.000000	0.016088
536.000000	0.016441
535.000000	0.016825
534.000000	0.016946
533.000000	0.016915
532.000000	0.016987
531.000000	0.017089
530.000000	0.016995
529.000000	0.016743
528.000000	0.016504
527.000000	0.016272
526.000000	0.016000
525.000000	0.015828
524.000000	0.015810
523.000000	0.015702
522.000000	0.015329
521.000000	0.014861
520.000000	0.014458
519.000000	0.013956
518.000000	0.013231
517.000000	0.012568
516.000000	0.012248
515.000000	0.012121
514.000000	0.011967
513.000000	0.011868
512.000000	0.011894
511.000000	0.011795
510.000000	0.011381
509.000000	0.010877
508.000000	0.010519
507.000000	0.010133
506.000000	0.009507
505.000000	0.008842
504.000000	0.008407
503.000000	0.008106
502.000000	0.007762
501.000000	0.007496
500.000000	0.007427
499.000000	0.007336
498.000000	0.007055
497.000000	0.006817
496.000000	0.006829
495.000000	0.006853
494.000000	0.006614
493.000000	0.006281
492.000000	0.006120
491.000000	0.005985
490.000000	0.005660
489.000000	0.005335
488.000000	0.005261
487.000000	0.005246
486.000000	0.004991
485.000000	0.004640
484.000000	0.004516
483.000000	0.004542
482.000000	0.004445
481.000000	0.004260
480.000000	0.004124
479.000000	0.003879
478.000000	0.003379
477.000000	0.002914
476.000000	0.002811
475.000000	0.002891
474.000000	0.002834
473.000000	0.002782
472.000000	0.003003
471.000000	0.003238
470.000000	0.003134
469.000000	0.002950
468.000000	0.003144
467.000000	0.003605
466.000000	0.003872
465.000000	0.003862
464.000000	0.003766
463.000000	0.003481
462.000000	0.002773
461.000000	0.001799
460.000000	0.000913
459.000000	0.000215
458.000000	-0.000273
457.000000	-0.000346
456.000000	-0.000087
455.000000	-0.000064
454.000000	-0.000554
453.000000	-0.001090
452.000000	-0.001141
451.000000	-0.000909
450.000000	-0.000858
