PE IR       SUBTECH     SPECTRUM    ASCII       PEDS        4.00        
   -1
3S-H10-C006_1.ASC
22/02/16
16:14:33.00
22/02/16
16:48:54.00
uco
Sample 006 By uco Date Wednesday, February 16 2022
450.000000
#HDR
-1
-1
#GR
cm-1
A
1.0
0.0
4000.000000
-1.000000
3551
8
0.129661
-0.000986
#DATA
4000.000000	-0.000533
3999.000000	-0.000530
3998.000000	-0.000526
3997.000000	-0.000513
3996.000000	-0.000492
3995.000000	-0.000455
3994.000000	-0.000436
3993.000000	-0.000431
3992.000000	-0.000438
3991.000000	-0.000449
3990.000000	-0.000455
3989.000000	-0.000454
3988.000000	-0.000447
3987.000000	-0.000435
3986.000000	-0.000418
3985.000000	-0.000396
3984.000000	-0.000375
3983.000000	-0.000365
3982.000000	-0.000370
3981.000000	-0.000387
3980.000000	-0.000406
3979.000000	-0.000419
3978.000000	-0.000424
3977.000000	-0.000424
3976.000000	-0.000421
3975.000000	-0.000414
3974.000000	-0.000400
3973.000000	-0.000377
3972.000000	-0.000351
3971.000000	-0.000328
3970.000000	-0.000315
3969.000000	-0.000311
3968.000000	-0.000312
3967.000000	-0.000315
3966.000000	-0.000319
3965.000000	-0.000322
3964.000000	-0.000323
3963.000000	-0.000317
3962.000000	-0.000304
3961.000000	-0.000290
3960.000000	-0.000281
3959.000000	-0.000280
3958.000000	-0.000285
3957.000000	-0.000290
3956.000000	-0.000289
3955.000000	-0.000281
3954.000000	-0.000267
3953.000000	-0.000251
3952.000000	-0.000238
3951.000000	-0.000231
3950.000000	-0.000232
3949.000000	-0.000238
3948.000000	-0.000246
3947.000000	-0.000255
3946.000000	-0.000263
3945.000000	-0.000268
3944.000000	-0.000264
3943.000000	-0.000247
3942.000000	-0.000224
3941.000000	-0.000208
3940.000000	-0.000203
3939.000000	-0.000207
3938.000000	-0.000213
3937.000000	-0.000219
3936.000000	-0.000229
3935.000000	-0.000245
3934.000000	-0.000261
3933.000000	-0.000268
3932.000000	-0.000267
3931.000000	-0.000266
3930.000000	-0.000274
3929.000000	-0.000288
3928.000000	-0.000301
3927.000000	-0.000305
3926.000000	-0.000295
3925.000000	-0.000268
3924.000000	-0.000232
3923.000000	-0.000202
3922.000000	-0.000190
3921.000000	-0.000195
3920.000000	-0.000206
3919.000000	-0.000217
3918.000000	-0.000226
3917.000000	-0.000231
3916.000000	-0.000233
3915.000000	-0.000232
3914.000000	-0.000233
3913.000000	-0.000235
3912.000000	-0.000237
3911.000000	-0.000234
3910.000000	-0.000225
3909.000000	-0.000206
3908.000000	-0.000179
3907.000000	-0.000153
3906.000000	-0.000139
3905.000000	-0.000142
3904.000000	-0.000153
3903.000000	-0.000166
3902.000000	-0.000184
3901.000000	-0.000213
3900.000000	-0.000243
3899.000000	-0.000262
3898.000000	-0.000262
3897.000000	-0.000247
3896.000000	-0.000223
3895.000000	-0.000192
3894.000000	-0.000166
3893.000000	-0.000158
3892.000000	-0.000170
3891.000000	-0.000184
3890.000000	-0.000190
3889.000000	-0.000201
3888.000000	-0.000237
3887.000000	-0.000294
3886.000000	-0.000337
3885.000000	-0.000332
3884.000000	-0.000289
3883.000000	-0.000241
3882.000000	-0.000207
3881.000000	-0.000186
3880.000000	-0.000172
3879.000000	-0.000164
3878.000000	-0.000170
3877.000000	-0.000196
3876.000000	-0.000229
3875.000000	-0.000245
3874.000000	-0.000222
3873.000000	-0.000177
3872.000000	-0.000149
3871.000000	-0.000154
3870.000000	-0.000168
3869.000000	-0.000164
3868.000000	-0.000147
3867.000000	-0.000141
3866.000000	-0.000141
3865.000000	-0.000129
3864.000000	-0.000105
3863.000000	-0.000092
3862.000000	-0.000100
3861.000000	-0.000114
3860.000000	-0.000111
3859.000000	-0.000084
3858.000000	-0.000042
3857.000000	-0.000009
3856.000000	-0.000013
3855.000000	-0.000069
3854.000000	-0.000153
3853.000000	-0.000211
3852.000000	-0.000233
3851.000000	-0.000248
3850.000000	-0.000264
3849.000000	-0.000269
3848.000000	-0.000251
3847.000000	-0.000217
3846.000000	-0.000180
3845.000000	-0.000154
3844.000000	-0.000146
3843.000000	-0.000150
3842.000000	-0.000163
3841.000000	-0.000182
3840.000000	-0.000206
3839.000000	-0.000221
3838.000000	-0.000219
3837.000000	-0.000204
3836.000000	-0.000188
3835.000000	-0.000182
3834.000000	-0.000181
3833.000000	-0.000177
3832.000000	-0.000160
3831.000000	-0.000137
3830.000000	-0.000126
3829.000000	-0.000143
3828.000000	-0.000180
3827.000000	-0.000212
3826.000000	-0.000216
3825.000000	-0.000195
3824.000000	-0.000174
3823.000000	-0.000169
3822.000000	-0.000172
3821.000000	-0.000162
3820.000000	-0.000142
3819.000000	-0.000140
3818.000000	-0.000171
3817.000000	-0.000216
3816.000000	-0.000242
3815.000000	-0.000244
3814.000000	-0.000251
3813.000000	-0.000280
3812.000000	-0.000309
3811.000000	-0.000308
3810.000000	-0.000276
3809.000000	-0.000244
3808.000000	-0.000237
3807.000000	-0.000244
3806.000000	-0.000243
3805.000000	-0.000232
3804.000000	-0.000229
3803.000000	-0.000230
3802.000000	-0.000217
3801.000000	-0.000186
3800.000000	-0.000164
3799.000000	-0.000175
3798.000000	-0.000211
3797.000000	-0.000244
3796.000000	-0.000259
3795.000000	-0.000267
3794.000000	-0.000287
3793.000000	-0.000322
3792.000000	-0.000350
3791.000000	-0.000352
3790.000000	-0.000330
3789.000000	-0.000298
3788.000000	-0.000274
3787.000000	-0.000261
3786.000000	-0.000258
3785.000000	-0.000257
3784.000000	-0.000251
3783.000000	-0.000241
3782.000000	-0.000236
3781.000000	-0.000245
3780.000000	-0.000263
3779.000000	-0.000282
3778.000000	-0.000299
3777.000000	-0.000317
3776.000000	-0.000338
3775.000000	-0.000355
3774.000000	-0.000362
3773.000000	-0.000362
3772.000000	-0.000363
3771.000000	-0.000363
3770.000000	-0.000353
3769.000000	-0.000337
3768.000000	-0.000328
3767.000000	-0.000333
3766.000000	-0.000346
3765.000000	-0.000357
3764.000000	-0.000369
3763.000000	-0.000396
3762.000000	-0.000444
3761.000000	-0.000498
3760.000000	-0.000526
3759.000000	-0.000511
3758.000000	-0.000460
3757.000000	-0.000399
3756.000000	-0.000354
3755.000000	-0.000348
3754.000000	-0.000381
3753.000000	-0.000430
3752.000000	-0.000458
3751.000000	-0.000453
3750.000000	-0.000427
3749.000000	-0.000398
3748.000000	-0.000371
3747.000000	-0.000363
3746.000000	-0.000382
3745.000000	-0.000404
3744.000000	-0.000394
3743.000000	-0.000370
3742.000000	-0.000375
3741.000000	-0.000413
3740.000000	-0.000448
3739.000000	-0.000450
3738.000000	-0.000426
3737.000000	-0.000403
3736.000000	-0.000406
3735.000000	-0.000439
3734.000000	-0.000492
3733.000000	-0.000538
3732.000000	-0.000554
3731.000000	-0.000543
3730.000000	-0.000531
3729.000000	-0.000541
3728.000000	-0.000565
3727.000000	-0.000576
3726.000000	-0.000552
3725.000000	-0.000505
3724.000000	-0.000459
3723.000000	-0.000423
3722.000000	-0.000400
3721.000000	-0.000396
3720.000000	-0.000414
3719.000000	-0.000444
3718.000000	-0.000470
3717.000000	-0.000482
3716.000000	-0.000488
3715.000000	-0.000500
3714.000000	-0.000518
3713.000000	-0.000517
3712.000000	-0.000475
3711.000000	-0.000404
3710.000000	-0.000350
3709.000000	-0.000346
3708.000000	-0.000390
3707.000000	-0.000447
3706.000000	-0.000487
3705.000000	-0.000496
3704.000000	-0.000475
3703.000000	-0.000440
3702.000000	-0.000412
3701.000000	-0.000410
3700.000000	-0.000437
3699.000000	-0.000474
3698.000000	-0.000502
3697.000000	-0.000500
3696.000000	-0.000466
3695.000000	-0.000414
3694.000000	-0.000370
3693.000000	-0.000350
3692.000000	-0.000348
3691.000000	-0.000342
3690.000000	-0.000312
3689.000000	-0.000261
3688.000000	-0.000216
3687.000000	-0.000199
3686.000000	-0.000207
3685.000000	-0.000221
3684.000000	-0.000215
3683.000000	-0.000178
3682.000000	-0.000119
3681.000000	-0.000051
3680.000000	0.000028
3679.000000	0.000116
3678.000000	0.000188
3677.000000	0.000209
3676.000000	0.000181
3675.000000	0.000142
3674.000000	0.000109
3673.000000	0.000063
3672.000000	0.000001
3671.000000	-0.000045
3670.000000	-0.000035
3669.000000	0.000023
3668.000000	0.000083
3667.000000	0.000121
3666.000000	0.000143
3665.000000	0.000159
3664.000000	0.000176
3663.000000	0.000196
3662.000000	0.000219
3661.000000	0.000243
3660.000000	0.000263
3659.000000	0.000271
3658.000000	0.000273
3657.000000	0.000286
3656.000000	0.000331
3655.000000	0.000399
3654.000000	0.000457
3653.000000	0.000477
3652.000000	0.000462
3651.000000	0.000448
3650.000000	0.000477
3649.000000	0.000561
3648.000000	0.000671
3647.000000	0.000781
3646.000000	0.000871
3645.000000	0.000926
3644.000000	0.000942
3643.000000	0.000933
3642.000000	0.000921
3641.000000	0.000920
3640.000000	0.000932
3639.000000	0.000953
3638.000000	0.000977
3637.000000	0.001000
3636.000000	0.001021
3635.000000	0.001047
3634.000000	0.001088
3633.000000	0.001133
3632.000000	0.001161
3631.000000	0.001165
3630.000000	0.001175
3629.000000	0.001232
3628.000000	0.001326
3627.000000	0.001408
3626.000000	0.001454
3625.000000	0.001474
3624.000000	0.001487
3623.000000	0.001501
3622.000000	0.001517
3621.000000	0.001534
3620.000000	0.001562
3619.000000	0.001608
3618.000000	0.001664
3617.000000	0.001718
3616.000000	0.001766
3615.000000	0.001816
3614.000000	0.001876
3613.000000	0.001942
3612.000000	0.002000
3611.000000	0.002043
3610.000000	0.002088
3609.000000	0.002154
3608.000000	0.002237
3607.000000	0.002308
3606.000000	0.002345
3605.000000	0.002355
3604.000000	0.002364
3603.000000	0.002395
3602.000000	0.002448
3601.000000	0.002507
3600.000000	0.002551
3599.000000	0.002578
3598.000000	0.002594
3597.000000	0.002618
3596.000000	0.002662
3595.000000	0.002729
3594.000000	0.002811
3593.000000	0.002882
3592.000000	0.002920
3591.000000	0.002925
3590.000000	0.002920
3589.000000	0.002946
3588.000000	0.003033
3587.000000	0.003165
3586.000000	0.003289
3585.000000	0.003370
3584.000000	0.003417
3583.000000	0.003459
3582.000000	0.003521
3581.000000	0.003605
3580.000000	0.003700
3579.000000	0.003789
3578.000000	0.003861
3577.000000	0.003915
3576.000000	0.003957
3575.000000	0.003997
3574.000000	0.004038
3573.000000	0.004079
3572.000000	0.004113
3571.000000	0.004137
3570.000000	0.004156
3569.000000	0.004190
3568.000000	0.004264
3567.000000	0.004383
3566.000000	0.004513
3565.000000	0.004613
3564.000000	0.004670
3563.000000	0.004701
3562.000000	0.004731
3561.000000	0.004776
3560.000000	0.004842
3559.000000	0.004922
3558.000000	0.005001
3557.000000	0.005067
3556.000000	0.005119
3555.000000	0.005169
3554.000000	0.005232
3553.000000	0.005315
3552.000000	0.005409
3551.000000	0.005492
3550.000000	0.005545
3549.000000	0.005568
3548.000000	0.005581
3547.000000	0.005609
3546.000000	0.005660
3545.000000	0.005727
3544.000000	0.005794
3543.000000	0.005855
3542.000000	0.005908
3541.000000	0.005955
3540.000000	0.005999
3539.000000	0.006045
3538.000000	0.006098
3537.000000	0.006163
3536.000000	0.006239
3535.000000	0.006316
3534.000000	0.006384
3533.000000	0.006436
3532.000000	0.006478
3531.000000	0.006520
3530.000000	0.006565
3529.000000	0.006610
3528.000000	0.006652
3527.000000	0.006696
3526.000000	0.006743
3525.000000	0.006795
3524.000000	0.006849
3523.000000	0.006905
3522.000000	0.006961
3521.000000	0.007014
3520.000000	0.007066
3519.000000	0.007122
3518.000000	0.007182
3517.000000	0.007240
3516.000000	0.007286
3515.000000	0.007320
3514.000000	0.007350
3513.000000	0.007383
3512.000000	0.007429
3511.000000	0.007491
3510.000000	0.007559
3509.000000	0.007620
3508.000000	0.007667
3507.000000	0.007704
3506.000000	0.007742
3505.000000	0.007783
3504.000000	0.007824
3503.000000	0.007864
3502.000000	0.007902
3501.000000	0.007939
3500.000000	0.007980
3499.000000	0.008034
3498.000000	0.008106
3497.000000	0.008186
3496.000000	0.008258
3495.000000	0.008312
3494.000000	0.008350
3493.000000	0.008380
3492.000000	0.008408
3491.000000	0.008433
3490.000000	0.008457
3489.000000	0.008485
3488.000000	0.008526
3487.000000	0.008584
3486.000000	0.008655
3485.000000	0.008728
3484.000000	0.008796
3483.000000	0.008856
3482.000000	0.008905
3481.000000	0.008944
3480.000000	0.008978
3479.000000	0.009014
3478.000000	0.009057
3477.000000	0.009102
3476.000000	0.009142
3475.000000	0.009179
3474.000000	0.009213
3473.000000	0.009241
3472.000000	0.009264
3471.000000	0.009286
3470.000000	0.009314
3469.000000	0.009345
3468.000000	0.009377
3467.000000	0.009409
3466.000000	0.009438
3465.000000	0.009458
3464.000000	0.009462
3463.000000	0.009459
3462.000000	0.009459
3461.000000	0.009464
3460.000000	0.009473
3459.000000	0.009489
3458.000000	0.009519
3457.000000	0.009561
3456.000000	0.009606
3455.000000	0.009642
3454.000000	0.009670
3453.000000	0.009697
3452.000000	0.009729
3451.000000	0.009764
3450.000000	0.009791
3449.000000	0.009805
3448.000000	0.009813
3447.000000	0.009827
3446.000000	0.009851
3445.000000	0.009878
3444.000000	0.009900
3443.000000	0.009919
3442.000000	0.009942
3441.000000	0.009969
3440.000000	0.009997
3439.000000	0.010027
3438.000000	0.010059
3437.000000	0.010092
3436.000000	0.010121
3435.000000	0.010142
3434.000000	0.010153
3433.000000	0.010155
3432.000000	0.010155
3431.000000	0.010164
3430.000000	0.010185
3429.000000	0.010209
3428.000000	0.010224
3427.000000	0.010227
3426.000000	0.010232
3425.000000	0.010247
3424.000000	0.010271
3423.000000	0.010295
3422.000000	0.010310
3421.000000	0.010319
3420.000000	0.010326
3419.000000	0.010339
3418.000000	0.010358
3417.000000	0.010381
3416.000000	0.010408
3415.000000	0.010435
3414.000000	0.010461
3413.000000	0.010482
3412.000000	0.010498
3411.000000	0.010510
3410.000000	0.010520
3409.000000	0.010530
3408.000000	0.010544
3407.000000	0.010566
3406.000000	0.010590
3405.000000	0.010605
3404.000000	0.010612
3403.000000	0.010614
3402.000000	0.010613
3401.000000	0.010602
3400.000000	0.010581
3399.000000	0.010559
3398.000000	0.010546
3397.000000	0.010549
3396.000000	0.010567
3395.000000	0.010602
3394.000000	0.010654
3393.000000	0.010716
3392.000000	0.010769
3391.000000	0.010799
3390.000000	0.010803
3389.000000	0.010790
3388.000000	0.010778
3387.000000	0.010787
3386.000000	0.010825
3385.000000	0.010880
3384.000000	0.010932
3383.000000	0.010966
3382.000000	0.010981
3381.000000	0.010987
3380.000000	0.010998
3379.000000	0.011028
3378.000000	0.011079
3377.000000	0.011143
3376.000000	0.011208
3375.000000	0.011265
3374.000000	0.011306
3373.000000	0.011331
3372.000000	0.011346
3371.000000	0.011370
3370.000000	0.011416
3369.000000	0.011483
3368.000000	0.011558
3367.000000	0.011626
3366.000000	0.011679
3365.000000	0.011719
3364.000000	0.011749
3363.000000	0.011777
3362.000000	0.011810
3361.000000	0.011854
3360.000000	0.011908
3359.000000	0.011968
3358.000000	0.012027
3357.000000	0.012081
3356.000000	0.012136
3355.000000	0.012197
3354.000000	0.012261
3353.000000	0.012321
3352.000000	0.012373
3351.000000	0.012423
3350.000000	0.012478
3349.000000	0.012538
3348.000000	0.012605
3347.000000	0.012676
3346.000000	0.012747
3345.000000	0.012809
3344.000000	0.012856
3343.000000	0.012896
3342.000000	0.012941
3341.000000	0.012995
3340.000000	0.013051
3339.000000	0.013106
3338.000000	0.013164
3337.000000	0.013230
3336.000000	0.013298
3335.000000	0.013355
3334.000000	0.013392
3333.000000	0.013414
3332.000000	0.013440
3331.000000	0.013484
3330.000000	0.013539
3329.000000	0.013583
3328.000000	0.013603
3327.000000	0.013605
3326.000000	0.013610
3325.000000	0.013630
3324.000000	0.013664
3323.000000	0.013699
3322.000000	0.013724
3321.000000	0.013738
3320.000000	0.013746
3319.000000	0.013757
3318.000000	0.013768
3317.000000	0.013773
3316.000000	0.013765
3315.000000	0.013754
3314.000000	0.013753
3313.000000	0.013765
3312.000000	0.013781
3311.000000	0.013789
3310.000000	0.013780
3309.000000	0.013755
3308.000000	0.013722
3307.000000	0.013697
3306.000000	0.013694
3305.000000	0.013719
3304.000000	0.013767
3303.000000	0.013827
3302.000000	0.013878
3301.000000	0.013901
3300.000000	0.013889
3299.000000	0.013856
3298.000000	0.013827
3297.000000	0.013814
3296.000000	0.013814
3295.000000	0.013809
3294.000000	0.013783
3293.000000	0.013734
3292.000000	0.013671
3291.000000	0.013618
3290.000000	0.013590
3289.000000	0.013591
3288.000000	0.013603
3287.000000	0.013606
3286.000000	0.013591
3285.000000	0.013561
3284.000000	0.013528
3283.000000	0.013499
3282.000000	0.013473
3281.000000	0.013441
3280.000000	0.013397
3279.000000	0.013338
3278.000000	0.013272
3277.000000	0.013207
3276.000000	0.013147
3275.000000	0.013090
3274.000000	0.013031
3273.000000	0.012973
3272.000000	0.012922
3271.000000	0.012886
3270.000000	0.012864
3269.000000	0.012846
3268.000000	0.012822
3267.000000	0.012790
3266.000000	0.012752
3265.000000	0.012710
3264.000000	0.012667
3263.000000	0.012626
3262.000000	0.012591
3261.000000	0.012559
3260.000000	0.012517
3259.000000	0.012453
3258.000000	0.012370
3257.000000	0.012285
3256.000000	0.012216
3255.000000	0.012167
3254.000000	0.012125
3253.000000	0.012076
3252.000000	0.012015
3251.000000	0.011950
3250.000000	0.011888
3249.000000	0.011829
3248.000000	0.011772
3247.000000	0.011721
3246.000000	0.011684
3245.000000	0.011665
3244.000000	0.011658
3243.000000	0.011647
3242.000000	0.011621
3241.000000	0.011578
3240.000000	0.011530
3239.000000	0.011490
3238.000000	0.011461
3237.000000	0.011432
3236.000000	0.011392
3235.000000	0.011339
3234.000000	0.011282
3233.000000	0.011232
3232.000000	0.011193
3231.000000	0.011161
3230.000000	0.011127
3229.000000	0.011079
3228.000000	0.011015
3227.000000	0.010943
3226.000000	0.010878
3225.000000	0.010835
3224.000000	0.010817
3223.000000	0.010814
3222.000000	0.010811
3221.000000	0.010792
3220.000000	0.010749
3219.000000	0.010685
3218.000000	0.010607
3217.000000	0.010527
3216.000000	0.010456
3215.000000	0.010410
3214.000000	0.010392
3213.000000	0.010395
3212.000000	0.010398
3211.000000	0.010380
3210.000000	0.010331
3209.000000	0.010260
3208.000000	0.010189
3207.000000	0.010135
3206.000000	0.010097
3205.000000	0.010064
3204.000000	0.010026
3203.000000	0.009985
3202.000000	0.009945
3201.000000	0.009904
3200.000000	0.009856
3199.000000	0.009798
3198.000000	0.009741
3197.000000	0.009692
3196.000000	0.009653
3195.000000	0.009617
3194.000000	0.009577
3193.000000	0.009533
3192.000000	0.009487
3191.000000	0.009438
3190.000000	0.009384
3189.000000	0.009331
3188.000000	0.009283
3187.000000	0.009240
3186.000000	0.009194
3185.000000	0.009142
3184.000000	0.009089
3183.000000	0.009043
3182.000000	0.009001
3181.000000	0.008954
3180.000000	0.008901
3179.000000	0.008851
3178.000000	0.008810
3177.000000	0.008771
3176.000000	0.008725
3175.000000	0.008668
3174.000000	0.008605
3173.000000	0.008542
3172.000000	0.008482
3171.000000	0.008425
3170.000000	0.008374
3169.000000	0.008331
3168.000000	0.008294
3167.000000	0.008258
3166.000000	0.008220
3165.000000	0.008182
3164.000000	0.008149
3163.000000	0.008120
3162.000000	0.008089
3161.000000	0.008044
3160.000000	0.007980
3159.000000	0.007906
3158.000000	0.007834
3157.000000	0.007776
3156.000000	0.007730
3155.000000	0.007688
3154.000000	0.007642
3153.000000	0.007594
3152.000000	0.007555
3151.000000	0.007530
3150.000000	0.007515
3149.000000	0.007501
3148.000000	0.007480
3147.000000	0.007454
3146.000000	0.007430
3145.000000	0.007411
3144.000000	0.007398
3143.000000	0.007386
3142.000000	0.007371
3141.000000	0.007349
3140.000000	0.007318
3139.000000	0.007277
3138.000000	0.007230
3137.000000	0.007188
3136.000000	0.007165
3135.000000	0.007164
3134.000000	0.007173
3133.000000	0.007173
3132.000000	0.007153
3131.000000	0.007118
3130.000000	0.007081
3129.000000	0.007060
3128.000000	0.007066
3127.000000	0.007100
3126.000000	0.007149
3125.000000	0.007184
3124.000000	0.007181
3123.000000	0.007134
3122.000000	0.007061
3121.000000	0.006996
3120.000000	0.006962
3119.000000	0.006961
3118.000000	0.006985
3117.000000	0.007019
3116.000000	0.007054
3115.000000	0.007084
3114.000000	0.007106
3113.000000	0.007127
3112.000000	0.007153
3111.000000	0.007186
3110.000000	0.007216
3109.000000	0.007235
3108.000000	0.007243
3107.000000	0.007257
3106.000000	0.007290
3105.000000	0.007339
3104.000000	0.007392
3103.000000	0.007435
3102.000000	0.007472
3101.000000	0.007512
3100.000000	0.007558
3099.000000	0.007602
3098.000000	0.007633
3097.000000	0.007649
3096.000000	0.007659
3095.000000	0.007673
3094.000000	0.007698
3093.000000	0.007730
3092.000000	0.007765
3091.000000	0.007800
3090.000000	0.007834
3089.000000	0.007868
3088.000000	0.007898
3087.000000	0.007923
3086.000000	0.007943
3085.000000	0.007963
3084.000000	0.007988
3083.000000	0.008014
3082.000000	0.008031
3081.000000	0.008035
3080.000000	0.008034
3079.000000	0.008043
3078.000000	0.008075
3077.000000	0.008129
3076.000000	0.008191
3075.000000	0.008246
3074.000000	0.008283
3073.000000	0.008304
3072.000000	0.008316
3071.000000	0.008322
3070.000000	0.008319
3069.000000	0.008305
3068.000000	0.008284
3067.000000	0.008263
3066.000000	0.008246
3065.000000	0.008229
3064.000000	0.008208
3063.000000	0.008183
3062.000000	0.008151
3061.000000	0.008109
3060.000000	0.008058
3059.000000	0.008005
3058.000000	0.007964
3057.000000	0.007944
3056.000000	0.007939
3055.000000	0.007929
3054.000000	0.007897
3053.000000	0.007846
3052.000000	0.007792
3051.000000	0.007752
3050.000000	0.007733
3049.000000	0.007729
3048.000000	0.007727
3047.000000	0.007717
3046.000000	0.007694
3045.000000	0.007656
3044.000000	0.007614
3043.000000	0.007580
3042.000000	0.007562
3041.000000	0.007560
3040.000000	0.007565
3039.000000	0.007565
3038.000000	0.007558
3037.000000	0.007547
3036.000000	0.007541
3035.000000	0.007546
3034.000000	0.007567
3033.000000	0.007605
3032.000000	0.007659
3031.000000	0.007722
3030.000000	0.007788
3029.000000	0.007849
3028.000000	0.007908
3027.000000	0.007972
3026.000000	0.008053
3025.000000	0.008160
3024.000000	0.008289
3023.000000	0.008427
3022.000000	0.008564
3021.000000	0.008710
3020.000000	0.008888
3019.000000	0.009116
3018.000000	0.009396
3017.000000	0.009717
3016.000000	0.010067
3015.000000	0.010439
3014.000000	0.010831
3013.000000	0.011237
3012.000000	0.011653
3011.000000	0.012066
3010.000000	0.012458
3009.000000	0.012812
3008.000000	0.013111
3007.000000	0.013345
3006.000000	0.013512
3005.000000	0.013613
3004.000000	0.013652
3003.000000	0.013632
3002.000000	0.013555
3001.000000	0.013427
3000.000000	0.013256
2999.000000	0.013061
2998.000000	0.012857
2997.000000	0.012661
2996.000000	0.012490
2995.000000	0.012364
2994.000000	0.012297
2993.000000	0.012294
2992.000000	0.012350
2991.000000	0.012455
2990.000000	0.012599
2989.000000	0.012782
2988.000000	0.013007
2987.000000	0.013277
2986.000000	0.013592
2985.000000	0.013953
2984.000000	0.014359
2983.000000	0.014808
2982.000000	0.015296
2981.000000	0.015821
2980.000000	0.016392
2979.000000	0.017018
2978.000000	0.017704
2977.000000	0.018450
2976.000000	0.019258
2975.000000	0.020132
2974.000000	0.021081
2973.000000	0.022112
2972.000000	0.023233
2971.000000	0.024456
2970.000000	0.025791
2969.000000	0.027239
2968.000000	0.028791
2967.000000	0.030431
2966.000000	0.032137
2965.000000	0.033880
2964.000000	0.035627
2963.000000	0.037342
2962.000000	0.038996
2961.000000	0.040558
2960.000000	0.042004
2959.000000	0.043318
2958.000000	0.044484
2957.000000	0.045484
2956.000000	0.046293
2955.000000	0.046898
2954.000000	0.047308
2953.000000	0.047556
2952.000000	0.047707
2951.000000	0.047849
2950.000000	0.048077
2949.000000	0.048479
2948.000000	0.049126
2947.000000	0.050080
2946.000000	0.051379
2945.000000	0.053030
2944.000000	0.055016
2943.000000	0.057316
2942.000000	0.059924
2941.000000	0.062844
2940.000000	0.066075
2939.000000	0.069599
2938.000000	0.073385
2937.000000	0.077401
2936.000000	0.081618
2935.000000	0.086013
2934.000000	0.090560
2933.000000	0.095214
2932.000000	0.099911
2931.000000	0.104583
2930.000000	0.109158
2929.000000	0.113557
2928.000000	0.117684
2927.000000	0.121429
2926.000000	0.124661
2925.000000	0.127217
2924.000000	0.128931
2923.000000	0.129661
2922.000000	0.129331
2921.000000	0.127935
2920.000000	0.125536
2919.000000	0.122266
2918.000000	0.118298
2917.000000	0.113827
2916.000000	0.109045
2915.000000	0.104139
2914.000000	0.099280
2913.000000	0.094605
2912.000000	0.090210
2911.000000	0.086138
2910.000000	0.082398
2909.000000	0.078976
2908.000000	0.075847
2907.000000	0.072986
2906.000000	0.070354
2905.000000	0.067913
2904.000000	0.065626
2903.000000	0.063466
2902.000000	0.061415
2901.000000	0.059466
2900.000000	0.057615
2899.000000	0.055856
2898.000000	0.054172
2897.000000	0.052539
2896.000000	0.050939
2895.000000	0.049358
2894.000000	0.047799
2893.000000	0.046269
2892.000000	0.044786
2891.000000	0.043364
2890.000000	0.042012
2889.000000	0.040729
2888.000000	0.039510
2887.000000	0.038363
2886.000000	0.037308
2885.000000	0.036378
2884.000000	0.035598
2883.000000	0.034982
2882.000000	0.034539
2881.000000	0.034285
2880.000000	0.034244
2879.000000	0.034437
2878.000000	0.034869
2877.000000	0.035526
2876.000000	0.036373
2875.000000	0.037343
2874.000000	0.038340
2873.000000	0.039252
2872.000000	0.040005
2871.000000	0.040599
2870.000000	0.041120
2869.000000	0.041703
2868.000000	0.042493
2867.000000	0.043625
2866.000000	0.045211
2865.000000	0.047324
2864.000000	0.049996
2863.000000	0.053220
2862.000000	0.056978
2861.000000	0.061234
2860.000000	0.065905
2859.000000	0.070837
2858.000000	0.075811
2857.000000	0.080559
2856.000000	0.084759
2855.000000	0.088056
2854.000000	0.090091
2853.000000	0.090587
2852.000000	0.089431
2851.000000	0.086695
2850.000000	0.082605
2849.000000	0.077482
2848.000000	0.071692
2847.000000	0.065594
2846.000000	0.059509
2845.000000	0.053694
2844.000000	0.048336
2843.000000	0.043553
2842.000000	0.039386
2841.000000	0.035814
2840.000000	0.032780
2839.000000	0.030214
2838.000000	0.028048
2837.000000	0.026217
2836.000000	0.024654
2835.000000	0.023302
2834.000000	0.022111
2833.000000	0.021051
2832.000000	0.020096
2831.000000	0.019222
2830.000000	0.018411
2829.000000	0.017656
2828.000000	0.016959
2827.000000	0.016321
2826.000000	0.015738
2825.000000	0.015202
2824.000000	0.014710
2823.000000	0.014260
2822.000000	0.013847
2821.000000	0.013465
2820.000000	0.013104
2819.000000	0.012761
2818.000000	0.012436
2817.000000	0.012137
2816.000000	0.011864
2815.000000	0.011612
2814.000000	0.011374
2813.000000	0.011146
2812.000000	0.010926
2811.000000	0.010711
2810.000000	0.010501
2809.000000	0.010300
2808.000000	0.010118
2807.000000	0.009952
2806.000000	0.009796
2805.000000	0.009641
2804.000000	0.009484
2803.000000	0.009330
2802.000000	0.009185
2801.000000	0.009057
2800.000000	0.008947
2799.000000	0.008850
2798.000000	0.008754
2797.000000	0.008653
2796.000000	0.008545
2795.000000	0.008435
2794.000000	0.008328
2793.000000	0.008228
2792.000000	0.008138
2791.000000	0.008055
2790.000000	0.007973
2789.000000	0.007890
2788.000000	0.007811
2787.000000	0.007735
2786.000000	0.007660
2785.000000	0.007577
2784.000000	0.007486
2783.000000	0.007390
2782.000000	0.007296
2781.000000	0.007210
2780.000000	0.007135
2779.000000	0.007073
2778.000000	0.007024
2777.000000	0.006986
2776.000000	0.006947
2775.000000	0.006898
2774.000000	0.006838
2773.000000	0.006775
2772.000000	0.006718
2771.000000	0.006665
2770.000000	0.006615
2769.000000	0.006567
2768.000000	0.006517
2767.000000	0.006461
2766.000000	0.006398
2765.000000	0.006336
2764.000000	0.006284
2763.000000	0.006246
2762.000000	0.006214
2761.000000	0.006184
2760.000000	0.006158
2759.000000	0.006145
2758.000000	0.006142
2757.000000	0.006138
2756.000000	0.006122
2755.000000	0.006097
2754.000000	0.006079
2753.000000	0.006073
2752.000000	0.006067
2751.000000	0.006046
2750.000000	0.006016
2749.000000	0.005990
2748.000000	0.005972
2747.000000	0.005956
2746.000000	0.005934
2745.000000	0.005912
2744.000000	0.005898
2743.000000	0.005890
2742.000000	0.005888
2741.000000	0.005891
2740.000000	0.005897
2739.000000	0.005900
2738.000000	0.005894
2737.000000	0.005882
2736.000000	0.005871
2735.000000	0.005860
2734.000000	0.005853
2733.000000	0.005855
2732.000000	0.005866
2731.000000	0.005874
2730.000000	0.005863
2729.000000	0.005830
2728.000000	0.005784
2727.000000	0.005736
2726.000000	0.005691
2725.000000	0.005655
2724.000000	0.005627
2723.000000	0.005605
2722.000000	0.005586
2721.000000	0.005568
2720.000000	0.005551
2719.000000	0.005533
2718.000000	0.005514
2717.000000	0.005491
2716.000000	0.005466
2715.000000	0.005439
2714.000000	0.005415
2713.000000	0.005399
2712.000000	0.005389
2711.000000	0.005375
2710.000000	0.005351
2709.000000	0.005325
2708.000000	0.005301
2707.000000	0.005279
2706.000000	0.005256
2705.000000	0.005237
2704.000000	0.005233
2703.000000	0.005245
2702.000000	0.005265
2701.000000	0.005284
2700.000000	0.005296
2699.000000	0.005295
2698.000000	0.005284
2697.000000	0.005274
2696.000000	0.005278
2695.000000	0.005294
2694.000000	0.005316
2693.000000	0.005337
2692.000000	0.005357
2691.000000	0.005376
2690.000000	0.005394
2689.000000	0.005413
2688.000000	0.005434
2687.000000	0.005455
2686.000000	0.005471
2685.000000	0.005484
2684.000000	0.005497
2683.000000	0.005513
2682.000000	0.005526
2681.000000	0.005535
2680.000000	0.005536
2679.000000	0.005526
2678.000000	0.005499
2677.000000	0.005461
2676.000000	0.005428
2675.000000	0.005415
2674.000000	0.005423
2673.000000	0.005440
2672.000000	0.005451
2671.000000	0.005448
2670.000000	0.005434
2669.000000	0.005414
2668.000000	0.005390
2667.000000	0.005362
2666.000000	0.005333
2665.000000	0.005305
2664.000000	0.005276
2663.000000	0.005239
2662.000000	0.005192
2661.000000	0.005141
2660.000000	0.005094
2659.000000	0.005047
2658.000000	0.004991
2657.000000	0.004924
2656.000000	0.004851
2655.000000	0.004784
2654.000000	0.004723
2653.000000	0.004663
2652.000000	0.004597
2651.000000	0.004528
2650.000000	0.004461
2649.000000	0.004398
2648.000000	0.004335
2647.000000	0.004272
2646.000000	0.004213
2645.000000	0.004167
2644.000000	0.004129
2643.000000	0.004084
2642.000000	0.004024
2641.000000	0.003953
2640.000000	0.003880
2639.000000	0.003808
2638.000000	0.003740
2637.000000	0.003681
2636.000000	0.003633
2635.000000	0.003589
2634.000000	0.003541
2633.000000	0.003490
2632.000000	0.003443
2631.000000	0.003400
2630.000000	0.003356
2629.000000	0.003313
2628.000000	0.003277
2627.000000	0.003249
2626.000000	0.003228
2625.000000	0.003207
2624.000000	0.003176
2623.000000	0.003125
2622.000000	0.003055
2621.000000	0.002983
2620.000000	0.002933
2619.000000	0.002907
2618.000000	0.002892
2617.000000	0.002868
2616.000000	0.002826
2615.000000	0.002768
2614.000000	0.002709
2613.000000	0.002660
2612.000000	0.002620
2611.000000	0.002579
2610.000000	0.002531
2609.000000	0.002483
2608.000000	0.002442
2607.000000	0.002410
2606.000000	0.002388
2605.000000	0.002375
2604.000000	0.002368
2603.000000	0.002358
2602.000000	0.002349
2601.000000	0.002352
2600.000000	0.002366
2599.000000	0.002368
2598.000000	0.002340
2597.000000	0.002290
2596.000000	0.002244
2595.000000	0.002213
2594.000000	0.002190
2593.000000	0.002165
2592.000000	0.002139
2591.000000	0.002116
2590.000000	0.002095
2589.000000	0.002071
2588.000000	0.002034
2587.000000	0.001984
2586.000000	0.001936
2585.000000	0.001916
2584.000000	0.001929
2583.000000	0.001951
2582.000000	0.001949
2581.000000	0.001912
2580.000000	0.001859
2579.000000	0.001809
2578.000000	0.001777
2577.000000	0.001768
2576.000000	0.001774
2575.000000	0.001774
2574.000000	0.001748
2573.000000	0.001696
2572.000000	0.001641
2571.000000	0.001603
2570.000000	0.001592
2569.000000	0.001604
2568.000000	0.001622
2567.000000	0.001625
2566.000000	0.001604
2565.000000	0.001577
2564.000000	0.001565
2563.000000	0.001577
2562.000000	0.001604
2561.000000	0.001631
2560.000000	0.001648
2559.000000	0.001648
2558.000000	0.001631
2557.000000	0.001600
2556.000000	0.001553
2555.000000	0.001491
2554.000000	0.001425
2553.000000	0.001375
2552.000000	0.001356
2551.000000	0.001366
2550.000000	0.001398
2549.000000	0.001438
2548.000000	0.001463
2547.000000	0.001453
2546.000000	0.001418
2545.000000	0.001395
2544.000000	0.001413
2543.000000	0.001457
2542.000000	0.001495
2541.000000	0.001508
2540.000000	0.001500
2539.000000	0.001483
2538.000000	0.001471
2537.000000	0.001474
2536.000000	0.001490
2535.000000	0.001506
2534.000000	0.001508
2533.000000	0.001500
2532.000000	0.001490
2531.000000	0.001484
2530.000000	0.001488
2529.000000	0.001508
2528.000000	0.001544
2527.000000	0.001586
2526.000000	0.001623
2525.000000	0.001649
2524.000000	0.001655
2523.000000	0.001634
2522.000000	0.001594
2521.000000	0.001560
2520.000000	0.001547
2519.000000	0.001544
2518.000000	0.001533
2517.000000	0.001510
2516.000000	0.001475
2515.000000	0.001423
2514.000000	0.001361
2513.000000	0.001311
2512.000000	0.001291
2511.000000	0.001298
2510.000000	0.001313
2509.000000	0.001324
2508.000000	0.001328
2507.000000	0.001335
2506.000000	0.001357
2505.000000	0.001393
2504.000000	0.001422
2503.000000	0.001424
2502.000000	0.001405
2501.000000	0.001399
2500.000000	0.001416
2499.000000	0.001428
2498.000000	0.001417
2497.000000	0.001401
2496.000000	0.001404
2495.000000	0.001416
2494.000000	0.001407
2493.000000	0.001366
2492.000000	0.001308
2491.000000	0.001253
2490.000000	0.001218
2489.000000	0.001214
2488.000000	0.001237
2487.000000	0.001259
2486.000000	0.001258
2485.000000	0.001229
2484.000000	0.001186
2483.000000	0.001135
2482.000000	0.001087
2481.000000	0.001065
2480.000000	0.001087
2479.000000	0.001145
2478.000000	0.001214
2477.000000	0.001271
2476.000000	0.001304
2475.000000	0.001296
2474.000000	0.001245
2473.000000	0.001176
2472.000000	0.001130
2471.000000	0.001125
2470.000000	0.001153
2469.000000	0.001189
2468.000000	0.001212
2467.000000	0.001211
2466.000000	0.001197
2465.000000	0.001191
2464.000000	0.001201
2463.000000	0.001213
2462.000000	0.001206
2461.000000	0.001186
2460.000000	0.001177
2459.000000	0.001199
2458.000000	0.001252
2457.000000	0.001315
2456.000000	0.001354
2455.000000	0.001338
2454.000000	0.001278
2453.000000	0.001213
2452.000000	0.001179
2451.000000	0.001182
2450.000000	0.001210
2449.000000	0.001249
2448.000000	0.001283
2447.000000	0.001292
2446.000000	0.001272
2445.000000	0.001242
2444.000000	0.001226
2443.000000	0.001225
2442.000000	0.001228
2441.000000	0.001229
2440.000000	0.001234
2439.000000	0.001248
2438.000000	0.001276
2437.000000	0.001314
2436.000000	0.001342
2435.000000	0.001339
2434.000000	0.001306
2433.000000	0.001273
2432.000000	0.001263
2431.000000	0.001268
2430.000000	0.001269
2429.000000	0.001264
2428.000000	0.001257
2427.000000	0.001248
2426.000000	0.001238
2425.000000	0.001238
2424.000000	0.001255
2423.000000	0.001284
2422.000000	0.001315
2421.000000	0.001345
2420.000000	0.001371
2419.000000	0.001383
2418.000000	0.001384
2417.000000	0.001393
2416.000000	0.001421
2415.000000	0.001458
2414.000000	0.001489
2413.000000	0.001513
2412.000000	0.001531
2411.000000	0.001534
2410.000000	0.001523
2409.000000	0.001507
2408.000000	0.001495
2407.000000	0.001477
2406.000000	0.001450
2405.000000	0.001434
2404.000000	0.001447
2403.000000	0.001479
2402.000000	0.001507
2401.000000	0.001521
2400.000000	0.001525
2399.000000	0.001525
2398.000000	0.001528
2397.000000	0.001544
2396.000000	0.001574
2395.000000	0.001606
2394.000000	0.001628
2393.000000	0.001642
2392.000000	0.001659
2391.000000	0.001681
2390.000000	0.001706
2389.000000	0.001731
2388.000000	0.001748
2387.000000	0.001747
2386.000000	0.001733
2385.000000	0.001730
2384.000000	0.001756
2383.000000	0.001796
2382.000000	0.001821
2381.000000	0.001821
2380.000000	0.001810
2379.000000	0.001811
2378.000000	0.001831
2377.000000	0.001864
2376.000000	0.001891
2375.000000	0.001894
2374.000000	0.001874
2373.000000	0.001847
2372.000000	0.001825
2371.000000	0.001801
2370.000000	0.001775
2369.000000	0.001758
2368.000000	0.001762
2367.000000	0.001790
2366.000000	0.001841
2365.000000	0.001914
2364.000000	0.001992
2363.000000	0.002061
2362.000000	0.002123
2361.000000	0.002182
2360.000000	0.002225
2359.000000	0.002226
2358.000000	0.002182
2357.000000	0.002126
2356.000000	0.002097
2355.000000	0.002124
2354.000000	0.002180
2353.000000	0.002214
2352.000000	0.002203
2351.000000	0.002174
2350.000000	0.002183
2349.000000	0.002255
2348.000000	0.002371
2347.000000	0.002456
2346.000000	0.002450
2345.000000	0.002380
2344.000000	0.002316
2343.000000	0.002297
2342.000000	0.002303
2341.000000	0.002317
2340.000000	0.002340
2339.000000	0.002366
2338.000000	0.002386
2337.000000	0.002395
2336.000000	0.002398
2335.000000	0.002388
2334.000000	0.002362
2333.000000	0.002330
2332.000000	0.002326
2331.000000	0.002356
2330.000000	0.002413
2329.000000	0.002472
2328.000000	0.002530
2327.000000	0.002578
2326.000000	0.002613
2325.000000	0.002629
2324.000000	0.002611
2323.000000	0.002547
2322.000000	0.002452
2321.000000	0.002366
2320.000000	0.002316
2319.000000	0.002287
2318.000000	0.002259
2317.000000	0.002223
2316.000000	0.002178
2315.000000	0.002107
2314.000000	0.002017
2313.000000	0.001936
2312.000000	0.001892
2311.000000	0.001871
2310.000000	0.001851
2309.000000	0.001827
2308.000000	0.001817
2307.000000	0.001817
2306.000000	0.001824
2305.000000	0.001836
2304.000000	0.001847
2303.000000	0.001839
2302.000000	0.001801
2301.000000	0.001747
2300.000000	0.001699
2299.000000	0.001659
2298.000000	0.001625
2297.000000	0.001599
2296.000000	0.001590
2295.000000	0.001589
2294.000000	0.001588
2293.000000	0.001591
2292.000000	0.001600
2291.000000	0.001601
2290.000000	0.001587
2289.000000	0.001566
2288.000000	0.001539
2287.000000	0.001499
2286.000000	0.001453
2285.000000	0.001426
2284.000000	0.001427
2283.000000	0.001436
2282.000000	0.001434
2281.000000	0.001425
2280.000000	0.001417
2279.000000	0.001395
2278.000000	0.001363
2277.000000	0.001343
2276.000000	0.001344
2275.000000	0.001336
2274.000000	0.001307
2273.000000	0.001287
2272.000000	0.001302
2271.000000	0.001324
2270.000000	0.001312
2269.000000	0.001279
2268.000000	0.001261
2267.000000	0.001270
2266.000000	0.001295
2265.000000	0.001337
2264.000000	0.001395
2263.000000	0.001452
2262.000000	0.001489
2261.000000	0.001499
2260.000000	0.001475
2259.000000	0.001403
2258.000000	0.001304
2257.000000	0.001222
2256.000000	0.001171
2255.000000	0.001116
2254.000000	0.001041
2253.000000	0.000978
2252.000000	0.000945
2251.000000	0.000921
2250.000000	0.000898
2249.000000	0.000916
2248.000000	0.000990
2247.000000	0.001056
2246.000000	0.001046
2245.000000	0.000964
2244.000000	0.000857
2243.000000	0.000757
2242.000000	0.000697
2241.000000	0.000713
2240.000000	0.000787
2239.000000	0.000833
2238.000000	0.000789
2237.000000	0.000688
2236.000000	0.000586
2235.000000	0.000501
2234.000000	0.000453
2233.000000	0.000498
2232.000000	0.000659
2231.000000	0.000851
2230.000000	0.000958
2229.000000	0.000941
2228.000000	0.000834
2227.000000	0.000681
2226.000000	0.000546
2225.000000	0.000499
2224.000000	0.000554
2223.000000	0.000634
2222.000000	0.000671
2221.000000	0.000681
2220.000000	0.000702
2219.000000	0.000726
2218.000000	0.000747
2217.000000	0.000796
2216.000000	0.000869
2215.000000	0.000886
2214.000000	0.000804
2213.000000	0.000705
2212.000000	0.000689
2211.000000	0.000716
2210.000000	0.000669
2209.000000	0.000517
2208.000000	0.000352
2207.000000	0.000284
2206.000000	0.000350
2205.000000	0.000506
2204.000000	0.000650
2203.000000	0.000705
2202.000000	0.000698
2201.000000	0.000728
2200.000000	0.000812
2199.000000	0.000856
2198.000000	0.000810
2197.000000	0.000758
2196.000000	0.000792
2195.000000	0.000875
2194.000000	0.000898
2193.000000	0.000818
2192.000000	0.000680
2191.000000	0.000544
2190.000000	0.000468
2189.000000	0.000479
2188.000000	0.000520
2187.000000	0.000500
2186.000000	0.000438
2185.000000	0.000455
2184.000000	0.000584
2183.000000	0.000686
2182.000000	0.000637
2181.000000	0.000479
2180.000000	0.000311
2179.000000	0.000151
2178.000000	0.000005
2177.000000	-0.000058
2176.000000	-0.000006
2175.000000	0.000086
2174.000000	0.000149
2173.000000	0.000220
2172.000000	0.000334
2171.000000	0.000433
2170.000000	0.000482
2169.000000	0.000546
2168.000000	0.000666
2167.000000	0.000752
2166.000000	0.000710
2165.000000	0.000570
2164.000000	0.000398
2163.000000	0.000186
2162.000000	-0.000071
2161.000000	-0.000298
2160.000000	-0.000469
2159.000000	-0.000673
2158.000000	-0.000906
2157.000000	-0.000986
2156.000000	-0.000819
2155.000000	-0.000532
2154.000000	-0.000249
2153.000000	0.000041
2152.000000	0.000352
2151.000000	0.000586
2150.000000	0.000661
2149.000000	0.000624
2148.000000	0.000566
2147.000000	0.000522
2146.000000	0.000512
2145.000000	0.000579
2144.000000	0.000697
2143.000000	0.000761
2142.000000	0.000734
2141.000000	0.000708
2140.000000	0.000758
2139.000000	0.000829
2138.000000	0.000825
2137.000000	0.000740
2136.000000	0.000627
2135.000000	0.000528
2134.000000	0.000489
2133.000000	0.000561
2132.000000	0.000736
2131.000000	0.000925
2130.000000	0.001070
2129.000000	0.001184
2128.000000	0.001281
2127.000000	0.001339
2126.000000	0.001354
2125.000000	0.001375
2124.000000	0.001435
2123.000000	0.001500
2122.000000	0.001530
2121.000000	0.001533
2120.000000	0.001528
2119.000000	0.001509
2118.000000	0.001480
2117.000000	0.001477
2116.000000	0.001516
2115.000000	0.001567
2114.000000	0.001618
2113.000000	0.001691
2112.000000	0.001775
2111.000000	0.001808
2110.000000	0.001777
2109.000000	0.001755
2108.000000	0.001790
2107.000000	0.001827
2106.000000	0.001808
2105.000000	0.001766
2104.000000	0.001767
2103.000000	0.001800
2102.000000	0.001809
2101.000000	0.001777
2100.000000	0.001720
2099.000000	0.001646
2098.000000	0.001565
2097.000000	0.001516
2096.000000	0.001505
2095.000000	0.001487
2094.000000	0.001443
2093.000000	0.001433
2092.000000	0.001502
2091.000000	0.001603
2090.000000	0.001655
2089.000000	0.001638
2088.000000	0.001585
2087.000000	0.001531
2086.000000	0.001512
2085.000000	0.001550
2084.000000	0.001618
2083.000000	0.001645
2082.000000	0.001612
2081.000000	0.001590
2080.000000	0.001639
2079.000000	0.001724
2078.000000	0.001773
2077.000000	0.001761
2076.000000	0.001689
2075.000000	0.001542
2074.000000	0.001340
2073.000000	0.001157
2072.000000	0.001057
2071.000000	0.001041
2070.000000	0.001086
2069.000000	0.001167
2068.000000	0.001216
2067.000000	0.001168
2066.000000	0.001072
2065.000000	0.001061
2064.000000	0.001161
2063.000000	0.001252
2062.000000	0.001252
2061.000000	0.001222
2060.000000	0.001221
2059.000000	0.001200
2058.000000	0.001109
2057.000000	0.001007
2056.000000	0.000960
2055.000000	0.000941
2054.000000	0.000918
2053.000000	0.000939
2052.000000	0.001017
2051.000000	0.001054
2050.000000	0.000974
2049.000000	0.000844
2048.000000	0.000753
2047.000000	0.000681
2046.000000	0.000600
2045.000000	0.000591
2044.000000	0.000678
2043.000000	0.000717
2042.000000	0.000598
2041.000000	0.000430
2040.000000	0.000380
2039.000000	0.000422
2038.000000	0.000423
2037.000000	0.000343
2036.000000	0.000209
2035.000000	0.000035
2034.000000	-0.000113
2033.000000	-0.000101
2032.000000	0.000054
2031.000000	0.000139
2030.000000	0.000046
2029.000000	-0.000081
2028.000000	-0.000113
2027.000000	-0.000136
2026.000000	-0.000219
2025.000000	-0.000231
2024.000000	-0.000083
2023.000000	0.000055
2022.000000	-0.000011
2021.000000	-0.000226
2020.000000	-0.000412
2019.000000	-0.000509
2018.000000	-0.000526
2017.000000	-0.000446
2016.000000	-0.000346
2015.000000	-0.000412
2014.000000	-0.000664
2013.000000	-0.000854
2012.000000	-0.000786
2011.000000	-0.000564
2010.000000	-0.000370
2009.000000	-0.000213
2008.000000	-0.000055
2007.000000	0.000017
2006.000000	-0.000047
2005.000000	-0.000105
2004.000000	-0.000040
2003.000000	0.000065
2002.000000	0.000095
2001.000000	0.000091
2000.000000	0.000119
1999.000000	0.000128
1998.000000	0.000063
1997.000000	-0.000001
1996.000000	0.000004
1995.000000	0.000001
1994.000000	-0.000084
1993.000000	-0.000180
1992.000000	-0.000201
1991.000000	-0.000207
1990.000000	-0.000284
1989.000000	-0.000371
1988.000000	-0.000381
1987.000000	-0.000363
1986.000000	-0.000399
1985.000000	-0.000453
1984.000000	-0.000452
1983.000000	-0.000425
1982.000000	-0.000411
1981.000000	-0.000351
1980.000000	-0.000206
1979.000000	-0.000087
1978.000000	-0.000117
1977.000000	-0.000255
1976.000000	-0.000403
1975.000000	-0.000561
1974.000000	-0.000710
1973.000000	-0.000735
1972.000000	-0.000610
1971.000000	-0.000484
1970.000000	-0.000462
1969.000000	-0.000469
1968.000000	-0.000431
1967.000000	-0.000415
1966.000000	-0.000469
1965.000000	-0.000501
1964.000000	-0.000430
1963.000000	-0.000311
1962.000000	-0.000190
1961.000000	-0.000038
1960.000000	0.000113
1959.000000	0.000121
1958.000000	-0.000049
1957.000000	-0.000234
1956.000000	-0.000299
1955.000000	-0.000288
1954.000000	-0.000282
1953.000000	-0.000264
1952.000000	-0.000218
1951.000000	-0.000218
1950.000000	-0.000304
1949.000000	-0.000394
1948.000000	-0.000415
1947.000000	-0.000417
1946.000000	-0.000466
1945.000000	-0.000535
1944.000000	-0.000580
1943.000000	-0.000607
1942.000000	-0.000593
1941.000000	-0.000472
1940.000000	-0.000262
1939.000000	-0.000097
1938.000000	-0.000066
1937.000000	-0.000124
1936.000000	-0.000188
1935.000000	-0.000235
1934.000000	-0.000249
1933.000000	-0.000188
1932.000000	-0.000078
1931.000000	-0.000027
1930.000000	-0.000074
1929.000000	-0.000129
1928.000000	-0.000128
1927.000000	-0.000118
1926.000000	-0.000153
1925.000000	-0.000193
1924.000000	-0.000197
1923.000000	-0.000200
1922.000000	-0.000229
1921.000000	-0.000236
1920.000000	-0.000201
1919.000000	-0.000183
1918.000000	-0.000222
1917.000000	-0.000243
1916.000000	-0.000186
1915.000000	-0.000107
1914.000000	-0.000086
1913.000000	-0.000114
1912.000000	-0.000149
1911.000000	-0.000202
1910.000000	-0.000288
1909.000000	-0.000360
1908.000000	-0.000372
1907.000000	-0.000345
1906.000000	-0.000319
1905.000000	-0.000291
1904.000000	-0.000256
1903.000000	-0.000243
1902.000000	-0.000239
1901.000000	-0.000190
1900.000000	-0.000101
1899.000000	-0.000057
1898.000000	-0.000101
1897.000000	-0.000168
1896.000000	-0.000192
1895.000000	-0.000206
1894.000000	-0.000250
1893.000000	-0.000293
1892.000000	-0.000288
1891.000000	-0.000254
1890.000000	-0.000218
1889.000000	-0.000170
1888.000000	-0.000108
1887.000000	-0.000069
1886.000000	-0.000060
1885.000000	-0.000037
1884.000000	0.000001
1883.000000	-0.000010
1882.000000	-0.000092
1881.000000	-0.000179
1880.000000	-0.000214
1879.000000	-0.000225
1878.000000	-0.000249
1877.000000	-0.000265
1876.000000	-0.000249
1875.000000	-0.000236
1874.000000	-0.000262
1873.000000	-0.000304
1872.000000	-0.000340
1871.000000	-0.000390
1870.000000	-0.000462
1869.000000	-0.000495
1868.000000	-0.000449
1867.000000	-0.000375
1866.000000	-0.000329
1865.000000	-0.000301
1864.000000	-0.000277
1863.000000	-0.000275
1862.000000	-0.000284
1861.000000	-0.000253
1860.000000	-0.000172
1859.000000	-0.000109
1858.000000	-0.000106
1857.000000	-0.000119
1856.000000	-0.000114
1855.000000	-0.000119
1854.000000	-0.000158
1853.000000	-0.000199
1852.000000	-0.000227
1851.000000	-0.000267
1850.000000	-0.000324
1849.000000	-0.000362
1848.000000	-0.000382
1847.000000	-0.000449
1846.000000	-0.000576
1845.000000	-0.000687
1844.000000	-0.000724
1843.000000	-0.000711
1842.000000	-0.000632
1841.000000	-0.000451
1840.000000	-0.000231
1839.000000	-0.000097
1838.000000	-0.000098
1837.000000	-0.000143
1836.000000	-0.000144
1835.000000	-0.000138
1834.000000	-0.000181
1833.000000	-0.000245
1832.000000	-0.000276
1831.000000	-0.000282
1830.000000	-0.000308
1829.000000	-0.000339
1828.000000	-0.000343
1827.000000	-0.000342
1826.000000	-0.000368
1825.000000	-0.000392
1824.000000	-0.000369
1823.000000	-0.000319
1822.000000	-0.000274
1821.000000	-0.000230
1820.000000	-0.000187
1819.000000	-0.000176
1818.000000	-0.000202
1817.000000	-0.000191
1816.000000	-0.000105
1815.000000	-0.000018
1814.000000	0.000007
1813.000000	-0.000008
1812.000000	-0.000005
1811.000000	0.000003
1810.000000	-0.000011
1809.000000	-0.000001
1808.000000	0.000079
1807.000000	0.000184
1806.000000	0.000249
1805.000000	0.000265
1804.000000	0.000244
1803.000000	0.000181
1802.000000	0.000114
1801.000000	0.000130
1800.000000	0.000265
1799.000000	0.000422
1798.000000	0.000516
1797.000000	0.000574
1796.000000	0.000635
1795.000000	0.000659
1794.000000	0.000607
1793.000000	0.000517
1792.000000	0.000467
1791.000000	0.000475
1790.000000	0.000549
1789.000000	0.000692
1788.000000	0.000845
1787.000000	0.000916
1786.000000	0.000894
1785.000000	0.000896
1784.000000	0.001006
1783.000000	0.001171
1782.000000	0.001318
1781.000000	0.001455
1780.000000	0.001621
1779.000000	0.001783
1778.000000	0.001905
1777.000000	0.002023
1776.000000	0.002158
1775.000000	0.002293
1774.000000	0.002469
1773.000000	0.002800
1772.000000	0.003285
1771.000000	0.003753
1770.000000	0.004157
1769.000000	0.004679
1768.000000	0.005485
1767.000000	0.006519
1766.000000	0.007641
1765.000000	0.008875
1764.000000	0.010391
1763.000000	0.012350
1762.000000	0.014805
1761.000000	0.017672
1760.000000	0.020866
1759.000000	0.024454
1758.000000	0.028733
1757.000000	0.033933
1756.000000	0.039673
1755.000000	0.045257
1754.000000	0.050577
1753.000000	0.056193
1752.000000	0.062603
1751.000000	0.069524
1750.000000	0.076145
1749.000000	0.081986
1748.000000	0.086813
1747.000000	0.090353
1746.000000	0.092568
1745.000000	0.093603
1744.000000	0.093491
1743.000000	0.092236
1742.000000	0.089949
1741.000000	0.086606
1740.000000	0.082070
1739.000000	0.076801
1738.000000	0.071818
1737.000000	0.067424
1736.000000	0.062886
1735.000000	0.057268
1734.000000	0.050903
1733.000000	0.045616
1732.000000	0.042118
1731.000000	0.039577
1730.000000	0.037206
1729.000000	0.034845
1728.000000	0.032610
1727.000000	0.030577
1726.000000	0.028732
1725.000000	0.027009
1724.000000	0.025367
1723.000000	0.023844
1722.000000	0.022541
1721.000000	0.021445
1720.000000	0.020361
1719.000000	0.019088
1718.000000	0.017676
1717.000000	0.016482
1716.000000	0.015759
1715.000000	0.015396
1714.000000	0.015188
1713.000000	0.015025
1712.000000	0.014862
1711.000000	0.014688
1710.000000	0.014550
1709.000000	0.014504
1708.000000	0.014539
1707.000000	0.014605
1706.000000	0.014679
1705.000000	0.014749
1704.000000	0.014752
1703.000000	0.014670
1702.000000	0.014673
1701.000000	0.014983
1700.000000	0.015330
1699.000000	0.015351
1698.000000	0.015333
1697.000000	0.015588
1696.000000	0.016128
1695.000000	0.016731
1694.000000	0.017322
1693.000000	0.017985
1692.000000	0.018607
1691.000000	0.019068
1690.000000	0.019410
1689.000000	0.019696
1688.000000	0.019863
1687.000000	0.019859
1686.000000	0.019892
1685.000000	0.020349
1684.000000	0.021208
1683.000000	0.022038
1682.000000	0.022797
1681.000000	0.023621
1680.000000	0.024449
1679.000000	0.025177
1678.000000	0.025821
1677.000000	0.026531
1676.000000	0.027421
1675.000000	0.028339
1674.000000	0.029093
1673.000000	0.029773
1672.000000	0.030535
1671.000000	0.031406
1670.000000	0.032369
1669.000000	0.033341
1668.000000	0.034203
1667.000000	0.034938
1666.000000	0.035634
1665.000000	0.036398
1664.000000	0.037284
1663.000000	0.038187
1662.000000	0.038965
1661.000000	0.039633
1660.000000	0.040276
1659.000000	0.040889
1658.000000	0.041397
1657.000000	0.041711
1656.000000	0.041768
1655.000000	0.041710
1654.000000	0.041926
1653.000000	0.042472
1652.000000	0.042852
1651.000000	0.043248
1650.000000	0.043866
1649.000000	0.044390
1648.000000	0.044682
1647.000000	0.044829
1646.000000	0.044927
1645.000000	0.045093
1644.000000	0.045417
1643.000000	0.045801
1642.000000	0.046116
1641.000000	0.046352
1640.000000	0.046535
1639.000000	0.046635
1638.000000	0.046664
1637.000000	0.046786
1636.000000	0.047092
1635.000000	0.047366
1634.000000	0.047436
1633.000000	0.047464
1632.000000	0.047510
1631.000000	0.047490
1630.000000	0.047386
1629.000000	0.047206
1628.000000	0.046907
1627.000000	0.046441
1626.000000	0.045850
1625.000000	0.045199
1624.000000	0.044465
1623.000000	0.043571
1622.000000	0.042568
1621.000000	0.041592
1620.000000	0.040651
1619.000000	0.039623
1618.000000	0.038425
1617.000000	0.037082
1616.000000	0.035751
1615.000000	0.034663
1614.000000	0.033856
1613.000000	0.033115
1612.000000	0.032253
1611.000000	0.031262
1610.000000	0.030246
1609.000000	0.029264
1608.000000	0.028313
1607.000000	0.027405
1606.000000	0.026581
1605.000000	0.025832
1604.000000	0.025122
1603.000000	0.024453
1602.000000	0.023860
1601.000000	0.023345
1600.000000	0.022877
1599.000000	0.022445
1598.000000	0.022068
1597.000000	0.021743
1596.000000	0.021456
1595.000000	0.021219
1594.000000	0.021060
1593.000000	0.020966
1592.000000	0.020894
1591.000000	0.020843
1590.000000	0.020851
1589.000000	0.020928
1588.000000	0.021051
1587.000000	0.021211
1586.000000	0.021418
1585.000000	0.021664
1584.000000	0.021925
1583.000000	0.022227
1582.000000	0.022606
1581.000000	0.023018
1580.000000	0.023345
1579.000000	0.023522
1578.000000	0.023638
1577.000000	0.023883
1576.000000	0.024318
1575.000000	0.024845
1574.000000	0.025439
1573.000000	0.026044
1572.000000	0.026581
1571.000000	0.027115
1570.000000	0.027729
1569.000000	0.028339
1568.000000	0.028846
1567.000000	0.029347
1566.000000	0.029954
1565.000000	0.030628
1564.000000	0.031172
1563.000000	0.031412
1562.000000	0.031369
1561.000000	0.031351
1560.000000	0.031806
1559.000000	0.032745
1558.000000	0.033604
1557.000000	0.034152
1556.000000	0.034671
1555.000000	0.035204
1554.000000	0.035709
1553.000000	0.036161
1552.000000	0.036550
1551.000000	0.036884
1550.000000	0.037196
1549.000000	0.037510
1548.000000	0.037758
1547.000000	0.037873
1546.000000	0.037873
1545.000000	0.037841
1544.000000	0.037839
1543.000000	0.037862
1542.000000	0.037865
1541.000000	0.037840
1540.000000	0.037740
1539.000000	0.037499
1538.000000	0.037284
1537.000000	0.037281
1536.000000	0.037313
1535.000000	0.037151
1534.000000	0.036767
1533.000000	0.036261
1532.000000	0.035772
1531.000000	0.035353
1530.000000	0.034961
1529.000000	0.034531
1528.000000	0.034009
1527.000000	0.033418
1526.000000	0.032878
1525.000000	0.032459
1524.000000	0.032051
1523.000000	0.031466
1522.000000	0.030671
1521.000000	0.029916
1520.000000	0.029470
1519.000000	0.029306
1518.000000	0.029164
1517.000000	0.028857
1516.000000	0.028413
1515.000000	0.027937
1514.000000	0.027474
1513.000000	0.026976
1512.000000	0.026383
1511.000000	0.025661
1510.000000	0.024829
1509.000000	0.023933
1508.000000	0.023054
1507.000000	0.022310
1506.000000	0.021834
1505.000000	0.021607
1504.000000	0.021591
1503.000000	0.021597
1502.000000	0.021428
1501.000000	0.021113
1500.000000	0.020722
1499.000000	0.020218
1498.000000	0.019587
1497.000000	0.018971
1496.000000	0.018516
1495.000000	0.018227
1494.000000	0.018063
1493.000000	0.017943
1492.000000	0.017737
1491.000000	0.017364
1490.000000	0.016944
1489.000000	0.016758
1488.000000	0.016869
1487.000000	0.017084
1486.000000	0.017313
1485.000000	0.017619
1484.000000	0.017997
1483.000000	0.018392
1482.000000	0.018813
1481.000000	0.019335
1480.000000	0.019945
1479.000000	0.020575
1478.000000	0.021275
1477.000000	0.022163
1476.000000	0.023241
1475.000000	0.024520
1474.000000	0.026420
1473.000000	0.029576
1472.000000	0.033904
1471.000000	0.038534
1470.000000	0.042930
1469.000000	0.046975
1468.000000	0.050466
1467.000000	0.053154
1466.000000	0.055005
1465.000000	0.056184
1464.000000	0.056859
1463.000000	0.057213
1462.000000	0.057456
1461.000000	0.057686
1460.000000	0.057831
1459.000000	0.057860
1458.000000	0.057924
1457.000000	0.058111
1456.000000	0.058184
1455.000000	0.058078
1454.000000	0.057851
1453.000000	0.057383
1452.000000	0.056639
1451.000000	0.055772
1450.000000	0.054964
1449.000000	0.054277
1448.000000	0.053692
1447.000000	0.053202
1446.000000	0.052837
1445.000000	0.052565
1444.000000	0.052289
1443.000000	0.051930
1442.000000	0.051483
1441.000000	0.050974
1440.000000	0.050364
1439.000000	0.049585
1438.000000	0.048617
1437.000000	0.047552
1436.000000	0.046580
1435.000000	0.045860
1434.000000	0.045328
1433.000000	0.044771
1432.000000	0.044055
1431.000000	0.043199
1430.000000	0.042303
1429.000000	0.041474
1428.000000	0.040777
1427.000000	0.040215
1426.000000	0.039764
1425.000000	0.039429
1424.000000	0.039255
1423.000000	0.039222
1422.000000	0.039214
1421.000000	0.039170
1420.000000	0.039134
1419.000000	0.039144
1418.000000	0.039195
1417.000000	0.039268
1416.000000	0.039255
1415.000000	0.039012
1414.000000	0.038494
1413.000000	0.037777
1412.000000	0.036990
1411.000000	0.036254
1410.000000	0.035638
1409.000000	0.035155
1408.000000	0.034793
1407.000000	0.034524
1406.000000	0.034343
1405.000000	0.034251
1404.000000	0.034230
1403.000000	0.034216
1402.000000	0.034129
1401.000000	0.033917
1400.000000	0.033572
1399.000000	0.033150
1398.000000	0.032737
1397.000000	0.032393
1396.000000	0.032127
1395.000000	0.031937
1394.000000	0.031840
1393.000000	0.031846
1392.000000	0.031933
1391.000000	0.032026
1390.000000	0.032047
1389.000000	0.032019
1388.000000	0.032073
1387.000000	0.032351
1386.000000	0.032881
1385.000000	0.033583
1384.000000	0.034361
1383.000000	0.035165
1382.000000	0.035987
1381.000000	0.036824
1380.000000	0.037618
1379.000000	0.038219
1378.000000	0.038463
1377.000000	0.038278
1376.000000	0.037691
1375.000000	0.036814
1374.000000	0.035854
1373.000000	0.035038
1372.000000	0.034437
1371.000000	0.033960
1370.000000	0.033499
1369.000000	0.033020
1368.000000	0.032536
1367.000000	0.032034
1366.000000	0.031464
1365.000000	0.030785
1364.000000	0.030020
1363.000000	0.029279
1362.000000	0.028710
1361.000000	0.028371
1360.000000	0.028186
1359.000000	0.028047
1358.000000	0.027903
1357.000000	0.027769
1356.000000	0.027674
1355.000000	0.027623
1354.000000	0.027609
1353.000000	0.027632
1352.000000	0.027691
1351.000000	0.027767
1350.000000	0.027855
1349.000000	0.027957
1348.000000	0.028071
1347.000000	0.028182
1346.000000	0.028286
1345.000000	0.028403
1344.000000	0.028537
1343.000000	0.028638
1342.000000	0.028633
1341.000000	0.028501
1340.000000	0.028304
1339.000000	0.028145
1338.000000	0.028070
1337.000000	0.028044
1336.000000	0.027994
1335.000000	0.027867
1334.000000	0.027661
1333.000000	0.027401
1332.000000	0.027110
1331.000000	0.026805
1330.000000	0.026517
1329.000000	0.026290
1328.000000	0.026150
1327.000000	0.026086
1326.000000	0.026080
1325.000000	0.026123
1324.000000	0.026203
1323.000000	0.026297
1322.000000	0.026385
1321.000000	0.026465
1320.000000	0.026535
1319.000000	0.026582
1318.000000	0.026596
1317.000000	0.026587
1316.000000	0.026562
1315.000000	0.026505
1314.000000	0.026408
1313.000000	0.026292
1312.000000	0.026176
1311.000000	0.026058
1310.000000	0.025926
1309.000000	0.025795
1308.000000	0.025686
1307.000000	0.025604
1306.000000	0.025544
1305.000000	0.025504
1304.000000	0.025467
1303.000000	0.025405
1302.000000	0.025303
1301.000000	0.025184
1300.000000	0.025073
1299.000000	0.024971
1298.000000	0.024870
1297.000000	0.024784
1296.000000	0.024744
1295.000000	0.024764
1294.000000	0.024839
1293.000000	0.024968
1292.000000	0.025142
1291.000000	0.025350
1290.000000	0.025594
1289.000000	0.025899
1288.000000	0.026282
1287.000000	0.026729
1286.000000	0.027217
1285.000000	0.027732
1284.000000	0.028257
1283.000000	0.028748
1282.000000	0.029161
1281.000000	0.029484
1280.000000	0.029724
1279.000000	0.029882
1278.000000	0.029973
1277.000000	0.030033
1276.000000	0.030086
1275.000000	0.030123
1274.000000	0.030137
1273.000000	0.030154
1272.000000	0.030215
1271.000000	0.030343
1270.000000	0.030537
1269.000000	0.030788
1268.000000	0.031072
1267.000000	0.031354
1266.000000	0.031621
1265.000000	0.031895
1264.000000	0.032194
1263.000000	0.032511
1262.000000	0.032848
1261.000000	0.033226
1260.000000	0.033658
1259.000000	0.034113
1258.000000	0.034562
1257.000000	0.034995
1256.000000	0.035411
1255.000000	0.035808
1254.000000	0.036220
1253.000000	0.036710
1252.000000	0.037306
1251.000000	0.037976
1250.000000	0.038688
1249.000000	0.039448
1248.000000	0.040258
1247.000000	0.041084
1246.000000	0.041884
1245.000000	0.042643
1244.000000	0.043343
1243.000000	0.043955
1242.000000	0.044474
1241.000000	0.044932
1240.000000	0.045339
1239.000000	0.045661
1238.000000	0.045871
1237.000000	0.045981
1236.000000	0.045998
1235.000000	0.045899
1234.000000	0.045680
1233.000000	0.045376
1232.000000	0.045013
1231.000000	0.044583
1230.000000	0.044089
1229.000000	0.043558
1228.000000	0.042994
1227.000000	0.042361
1226.000000	0.041649
1225.000000	0.040903
1224.000000	0.040168
1223.000000	0.039444
1222.000000	0.038726
1221.000000	0.038041
1220.000000	0.037414
1219.000000	0.036841
1218.000000	0.036327
1217.000000	0.035910
1216.000000	0.035619
1215.000000	0.035438
1214.000000	0.035340
1213.000000	0.035323
1212.000000	0.035384
1211.000000	0.035507
1210.000000	0.035678
1209.000000	0.035907
1208.000000	0.036190
1207.000000	0.036491
1206.000000	0.036793
1205.000000	0.037117
1204.000000	0.037473
1203.000000	0.037828
1202.000000	0.038158
1201.000000	0.038484
1200.000000	0.038827
1199.000000	0.039162
1198.000000	0.039463
1197.000000	0.039747
1196.000000	0.040049
1195.000000	0.040371
1194.000000	0.040710
1193.000000	0.041084
1192.000000	0.041498
1191.000000	0.041926
1190.000000	0.042348
1189.000000	0.042800
1188.000000	0.043328
1187.000000	0.043947
1186.000000	0.044649
1185.000000	0.045432
1184.000000	0.046287
1183.000000	0.047191
1182.000000	0.048147
1181.000000	0.049191
1180.000000	0.050332
1179.000000	0.051525
1178.000000	0.052731
1177.000000	0.053962
1176.000000	0.055223
1175.000000	0.056485
1174.000000	0.057725
1173.000000	0.058957
1172.000000	0.060180
1171.000000	0.061352
1170.000000	0.062448
1169.000000	0.063490
1168.000000	0.064479
1167.000000	0.065362
1166.000000	0.066100
1165.000000	0.066718
1164.000000	0.067242
1163.000000	0.067643
1162.000000	0.067886
1161.000000	0.067965
1160.000000	0.067869
1159.000000	0.067576
1158.000000	0.067105
1157.000000	0.066522
1156.000000	0.065858
1155.000000	0.065094
1154.000000	0.064247
1153.000000	0.063390
1152.000000	0.062571
1151.000000	0.061770
1150.000000	0.060966
1149.000000	0.060188
1148.000000	0.059444
1147.000000	0.058691
1146.000000	0.057889
1145.000000	0.057031
1144.000000	0.056074
1143.000000	0.054914
1142.000000	0.053477
1141.000000	0.051787
1140.000000	0.049901
1139.000000	0.047844
1138.000000	0.045643
1137.000000	0.043371
1136.000000	0.041119
1135.000000	0.038953
1134.000000	0.036940
1133.000000	0.035160
1132.000000	0.033679
1131.000000	0.032517
1130.000000	0.031687
1129.000000	0.031217
1128.000000	0.031117
1127.000000	0.031340
1126.000000	0.031821
1125.000000	0.032519
1124.000000	0.033391
1123.000000	0.034360
1122.000000	0.035335
1121.000000	0.036250
1120.000000	0.037048
1119.000000	0.037671
1118.000000	0.038095
1117.000000	0.038333
1116.000000	0.038393
1115.000000	0.038251
1114.000000	0.037914
1113.000000	0.037452
1112.000000	0.036934
1111.000000	0.036392
1110.000000	0.035865
1109.000000	0.035424
1108.000000	0.035126
1107.000000	0.034973
1106.000000	0.034965
1105.000000	0.035130
1104.000000	0.035463
1103.000000	0.035886
1102.000000	0.036308
1101.000000	0.036695
1100.000000	0.037042
1099.000000	0.037321
1098.000000	0.037507
1097.000000	0.037607
1096.000000	0.037627
1095.000000	0.037540
1094.000000	0.037335
1093.000000	0.037053
1092.000000	0.036738
1091.000000	0.036390
1090.000000	0.036009
1089.000000	0.035622
1088.000000	0.035255
1087.000000	0.034900
1086.000000	0.034551
1085.000000	0.034222
1084.000000	0.033897
1083.000000	0.033512
1082.000000	0.033015
1081.000000	0.032417
1080.000000	0.031742
1079.000000	0.030994
1078.000000	0.030193
1077.000000	0.029396
1076.000000	0.028643
1075.000000	0.027931
1074.000000	0.027262
1073.000000	0.026680
1072.000000	0.026221
1071.000000	0.025875
1070.000000	0.025615
1069.000000	0.025438
1068.000000	0.025335
1067.000000	0.025270
1066.000000	0.025225
1065.000000	0.025210
1064.000000	0.025211
1063.000000	0.025170
1062.000000	0.025049
1061.000000	0.024876
1060.000000	0.024686
1059.000000	0.024465
1058.000000	0.024194
1057.000000	0.023890
1056.000000	0.023569
1055.000000	0.023213
1054.000000	0.022815
1053.000000	0.022414
1052.000000	0.022051
1051.000000	0.021723
1050.000000	0.021420
1049.000000	0.021164
1048.000000	0.020962
1047.000000	0.020778
1046.000000	0.020577
1045.000000	0.020370
1044.000000	0.020187
1043.000000	0.020041
1042.000000	0.019958
1041.000000	0.019981
1040.000000	0.020114
1039.000000	0.020303
1038.000000	0.020508
1037.000000	0.020752
1036.000000	0.021056
1035.000000	0.021376
1034.000000	0.021645
1033.000000	0.021840
1032.000000	0.021960
1031.000000	0.021985
1030.000000	0.021905
1029.000000	0.021746
1028.000000	0.021530
1027.000000	0.021250
1026.000000	0.020908
1025.000000	0.020556
1024.000000	0.020247
1023.000000	0.019984
1022.000000	0.019753
1021.000000	0.019557
1020.000000	0.019389
1019.000000	0.019218
1018.000000	0.019033
1017.000000	0.018852
1016.000000	0.018661
1015.000000	0.018389
1014.000000	0.017997
1013.000000	0.017530
1012.000000	0.017050
1011.000000	0.016568
1010.000000	0.016079
1009.000000	0.015609
1008.000000	0.015176
1007.000000	0.014756
1006.000000	0.014327
1005.000000	0.013915
1004.000000	0.013548
1003.000000	0.013205
1002.000000	0.012855
1001.000000	0.012513
1000.000000	0.012199
999.000000	0.011897
998.000000	0.011585
997.000000	0.011273
996.000000	0.010976
995.000000	0.010688
994.000000	0.010405
993.000000	0.010163
992.000000	0.009990
991.000000	0.009865
990.000000	0.009754
989.000000	0.009654
988.000000	0.009578
987.000000	0.009520
986.000000	0.009474
985.000000	0.009451
984.000000	0.009450
983.000000	0.009444
982.000000	0.009435
981.000000	0.009469
980.000000	0.009573
979.000000	0.009715
978.000000	0.009872
977.000000	0.010066
976.000000	0.010316
975.000000	0.010582
974.000000	0.010809
973.000000	0.011000
972.000000	0.011187
971.000000	0.011375
970.000000	0.011554
969.000000	0.011711
968.000000	0.011806
967.000000	0.011771
966.000000	0.011585
965.000000	0.011296
964.000000	0.010951
963.000000	0.010539
962.000000	0.010043
961.000000	0.009502
960.000000	0.008967
959.000000	0.008448
958.000000	0.007942
957.000000	0.007466
956.000000	0.007036
955.000000	0.006636
954.000000	0.006260
953.000000	0.005927
952.000000	0.005639
951.000000	0.005366
950.000000	0.005104
949.000000	0.004896
948.000000	0.004756
947.000000	0.004631
946.000000	0.004471
945.000000	0.004299
944.000000	0.004153
943.000000	0.004015
942.000000	0.003856
941.000000	0.003687
940.000000	0.003522
939.000000	0.003330
938.000000	0.003090
937.000000	0.002839
936.000000	0.002619
935.000000	0.002421
934.000000	0.002223
933.000000	0.002039
932.000000	0.001884
931.000000	0.001726
930.000000	0.001543
929.000000	0.001368
928.000000	0.001235
927.000000	0.001124
926.000000	0.001003
925.000000	0.000898
924.000000	0.000851
923.000000	0.000843
922.000000	0.000824
921.000000	0.000778
920.000000	0.000707
919.000000	0.000604
918.000000	0.000466
917.000000	0.000325
916.000000	0.000206
915.000000	0.000092
914.000000	-0.000035
913.000000	-0.000142
912.000000	-0.000204
911.000000	-0.000251
910.000000	-0.000323
909.000000	-0.000400
908.000000	-0.000440
907.000000	-0.000434
906.000000	-0.000397
905.000000	-0.000322
904.000000	-0.000219
903.000000	-0.000143
902.000000	-0.000143
901.000000	-0.000205
900.000000	-0.000290
899.000000	-0.000385
898.000000	-0.000486
897.000000	-0.000568
896.000000	-0.000613
895.000000	-0.000643
894.000000	-0.000671
893.000000	-0.000663
892.000000	-0.000592
891.000000	-0.000486
890.000000	-0.000395
889.000000	-0.000329
888.000000	-0.000271
887.000000	-0.000199
886.000000	-0.000068
885.000000	0.000193
884.000000	0.000608
883.000000	0.001151
882.000000	0.001833
881.000000	0.002746
880.000000	0.003969
879.000000	0.005452
878.000000	0.007032
877.000000	0.008487
876.000000	0.009560
875.000000	0.010015
874.000000	0.009773
873.000000	0.008950
872.000000	0.007751
871.000000	0.006384
870.000000	0.005068
869.000000	0.004001
868.000000	0.003247
867.000000	0.002711
866.000000	0.002281
865.000000	0.001938
864.000000	0.001684
863.000000	0.001486
862.000000	0.001321
861.000000	0.001224
860.000000	0.001204
859.000000	0.001207
858.000000	0.001188
857.000000	0.001172
856.000000	0.001185
855.000000	0.001205
854.000000	0.001227
853.000000	0.001291
852.000000	0.001387
851.000000	0.001426
850.000000	0.001353
849.000000	0.001221
848.000000	0.001091
847.000000	0.000945
846.000000	0.000768
845.000000	0.000610
844.000000	0.000512
843.000000	0.000427
842.000000	0.000305
841.000000	0.000167
840.000000	0.000041
839.000000	-0.000087
838.000000	-0.000209
837.000000	-0.000264
836.000000	-0.000242
835.000000	-0.000238
834.000000	-0.000320
833.000000	-0.000435
832.000000	-0.000507
831.000000	-0.000552
830.000000	-0.000607
829.000000	-0.000640
828.000000	-0.000619
827.000000	-0.000594
826.000000	-0.000610
825.000000	-0.000611
824.000000	-0.000542
823.000000	-0.000452
822.000000	-0.000419
821.000000	-0.000434
820.000000	-0.000449
819.000000	-0.000467
818.000000	-0.000489
817.000000	-0.000460
816.000000	-0.000348
815.000000	-0.000218
814.000000	-0.000149
813.000000	-0.000139
812.000000	-0.000158
811.000000	-0.000214
810.000000	-0.000312
809.000000	-0.000408
808.000000	-0.000476
807.000000	-0.000544
806.000000	-0.000612
805.000000	-0.000627
804.000000	-0.000591
803.000000	-0.000591
802.000000	-0.000663
801.000000	-0.000707
800.000000	-0.000641
799.000000	-0.000530
798.000000	-0.000475
797.000000	-0.000470
796.000000	-0.000451
795.000000	-0.000424
794.000000	-0.000424
793.000000	-0.000437
792.000000	-0.000430
791.000000	-0.000408
790.000000	-0.000366
789.000000	-0.000268
788.000000	-0.000124
787.000000	-0.000018
786.000000	0.000014
785.000000	0.000042
784.000000	0.000130
783.000000	0.000242
782.000000	0.000325
781.000000	0.000393
780.000000	0.000464
779.000000	0.000503
778.000000	0.000508
777.000000	0.000554
776.000000	0.000677
775.000000	0.000793
774.000000	0.000819
773.000000	0.000799
772.000000	0.000824
771.000000	0.000909
770.000000	0.001027
769.000000	0.001176
768.000000	0.001343
767.000000	0.001477
766.000000	0.001563
765.000000	0.001653
764.000000	0.001763
763.000000	0.001823
762.000000	0.001795
761.000000	0.001752
760.000000	0.001771
759.000000	0.001842
758.000000	0.001951
757.000000	0.002124
756.000000	0.002350
755.000000	0.002537
754.000000	0.002633
753.000000	0.002706
752.000000	0.002830
751.000000	0.002989
750.000000	0.003165
749.000000	0.003402
748.000000	0.003704
747.000000	0.003988
746.000000	0.004214
745.000000	0.004464
744.000000	0.004802
743.000000	0.005167
742.000000	0.005498
741.000000	0.005842
740.000000	0.006267
739.000000	0.006744
738.000000	0.007237
737.000000	0.007785
736.000000	0.008402
735.000000	0.009000
734.000000	0.009523
733.000000	0.010063
732.000000	0.010741
731.000000	0.011549
730.000000	0.012421
729.000000	0.013367
728.000000	0.014426
727.000000	0.015574
726.000000	0.016756
725.000000	0.017936
724.000000	0.019026
723.000000	0.019855
722.000000	0.020301
721.000000	0.020377
720.000000	0.020145
719.000000	0.019638
718.000000	0.018941
717.000000	0.018238
716.000000	0.017679
715.000000	0.017272
714.000000	0.016954
713.000000	0.016680
712.000000	0.016375
711.000000	0.015941
710.000000	0.015390
709.000000	0.014874
708.000000	0.014492
707.000000	0.014180
706.000000	0.013876
705.000000	0.013640
704.000000	0.013507
703.000000	0.013381
702.000000	0.013179
701.000000	0.012981
700.000000	0.012888
699.000000	0.012864
698.000000	0.012832
697.000000	0.012815
696.000000	0.012845
695.000000	0.012847
694.000000	0.012742
693.000000	0.012566
692.000000	0.012400
691.000000	0.012236
690.000000	0.012059
689.000000	0.011932
688.000000	0.011885
687.000000	0.011832
686.000000	0.011705
685.000000	0.011570
684.000000	0.011507
683.000000	0.011463
682.000000	0.011366
681.000000	0.011254
680.000000	0.011189
679.000000	0.011143
678.000000	0.011078
677.000000	0.011062
676.000000	0.011130
675.000000	0.011185
674.000000	0.011133
673.000000	0.011016
672.000000	0.010898
671.000000	0.010742
670.000000	0.010505
669.000000	0.010309
668.000000	0.010435
667.000000	0.010801
666.000000	0.010933
665.000000	0.010926
664.000000	0.010980
663.000000	0.011043
662.000000	0.010991
661.000000	0.010845
660.000000	0.010686
659.000000	0.010518
658.000000	0.010356
657.000000	0.010316
656.000000	0.010428
655.000000	0.010544
654.000000	0.010545
653.000000	0.010498
652.000000	0.010465
651.000000	0.010387
650.000000	0.010238
649.000000	0.010124
648.000000	0.010081
647.000000	0.009996
646.000000	0.009847
645.000000	0.009782
644.000000	0.009841
643.000000	0.009852
642.000000	0.009720
641.000000	0.009611
640.000000	0.009677
639.000000	0.009801
638.000000	0.009810
637.000000	0.009732
636.000000	0.009654
635.000000	0.009538
634.000000	0.009366
633.000000	0.009285
632.000000	0.009396
631.000000	0.009571
630.000000	0.009644
629.000000	0.009636
628.000000	0.009639
627.000000	0.009635
626.000000	0.009616
625.000000	0.009679
624.000000	0.009847
623.000000	0.009962
622.000000	0.009916
621.000000	0.009815
620.000000	0.009759
619.000000	0.009664
618.000000	0.009483
617.000000	0.009381
616.000000	0.009498
615.000000	0.009698
614.000000	0.009784
613.000000	0.009777
612.000000	0.009791
611.000000	0.009813
610.000000	0.009808
609.000000	0.009859
608.000000	0.010012
607.000000	0.010135
606.000000	0.010117
605.000000	0.010039
604.000000	0.009999
603.000000	0.009957
602.000000	0.009916
601.000000	0.010017
600.000000	0.010276
599.000000	0.010452
598.000000	0.010380
597.000000	0.010223
596.000000	0.010186
595.000000	0.010220
594.000000	0.010210
593.000000	0.010242
592.000000	0.010434
591.000000	0.010686
590.000000	0.010845
589.000000	0.010925
588.000000	0.010960
587.000000	0.010850
586.000000	0.010590
585.000000	0.010400
584.000000	0.010416
583.000000	0.010476
582.000000	0.010433
581.000000	0.010418
580.000000	0.010554
579.000000	0.010652
578.000000	0.010502
577.000000	0.010225
576.000000	0.010069
575.000000	0.010049
574.000000	0.010070
573.000000	0.010183
572.000000	0.010434
571.000000	0.010680
570.000000	0.010799
569.000000	0.010900
568.000000	0.011071
567.000000	0.011161
566.000000	0.011066
565.000000	0.010966
564.000000	0.011021
563.000000	0.011113
562.000000	0.011136
561.000000	0.011238
560.000000	0.011496
559.000000	0.011647
558.000000	0.011473
557.000000	0.011178
556.000000	0.011061
555.000000	0.011083
554.000000	0.011054
553.000000	0.011007
552.000000	0.011038
551.000000	0.011039
550.000000	0.010908
549.000000	0.010783
548.000000	0.010764
547.000000	0.010672
546.000000	0.010394
545.000000	0.010170
544.000000	0.010215
543.000000	0.010332
542.000000	0.010258
541.000000	0.010082
540.000000	0.010018
539.000000	0.010024
538.000000	0.010003
537.000000	0.010094
536.000000	0.010414
535.000000	0.010736
534.000000	0.010806
533.000000	0.010739
532.000000	0.010761
531.000000	0.010814
530.000000	0.010733
529.000000	0.010578
528.000000	0.010477
527.000000	0.010357
526.000000	0.010163
525.000000	0.010072
524.000000	0.010144
523.000000	0.010110
522.000000	0.009790
521.000000	0.009405
520.000000	0.009184
519.000000	0.008960
518.000000	0.008500
517.000000	0.007983
516.000000	0.007709
515.000000	0.007625
514.000000	0.007542
513.000000	0.007485
512.000000	0.007506
511.000000	0.007433
510.000000	0.007152
509.000000	0.006856
508.000000	0.006718
507.000000	0.006576
506.000000	0.006266
505.000000	0.005943
504.000000	0.005763
503.000000	0.005580
502.000000	0.005283
501.000000	0.005074
500.000000	0.005056
499.000000	0.004942
498.000000	0.004554
497.000000	0.004194
496.000000	0.004165
495.000000	0.004277
494.000000	0.004211
493.000000	0.004059
492.000000	0.004062
491.000000	0.004134
490.000000	0.004081
489.000000	0.003982
488.000000	0.003939
487.000000	0.003754
486.000000	0.003287
485.000000	0.002837
484.000000	0.002733
483.000000	0.002802
482.000000	0.002725
481.000000	0.002583
480.000000	0.002585
479.000000	0.002598
478.000000	0.002433
477.000000	0.002284
476.000000	0.002397
475.000000	0.002596
474.000000	0.002602
473.000000	0.002546
472.000000	0.002684
471.000000	0.002835
470.000000	0.002750
469.000000	0.002644
468.000000	0.002808
467.000000	0.003083
466.000000	0.003149
465.000000	0.003069
464.000000	0.003012
463.000000	0.002822
462.000000	0.002333
461.000000	0.001800
460.000000	0.001489
459.000000	0.001240
458.000000	0.000871
457.000000	0.000659
456.000000	0.000765
455.000000	0.000748
454.000000	0.000278
453.000000	-0.000305
452.000000	-0.000261
451.000000	-0.000353
450.000000	-0.000545
