PE IR       SUBTECH     SPECTRUM    ASCII       PEDS        4.00        
   -1
3S-H10-C011_1.ASC
22/02/16
16:22:06.00
22/02/16
16:48:54.00
uco
Sample 011 By uco Date Wednesday, February 16 2022
450.000000
#HDR
-1
-1
#GR
cm-1
A
1.0
0.0
4000.000000
-1.000000
3551
8
0.148429
-0.001891
#DATA
4000.000000	-0.001557
3999.000000	-0.001544
3998.000000	-0.001533
3997.000000	-0.001521
3996.000000	-0.001506
3995.000000	-0.001489
3994.000000	-0.001473
3993.000000	-0.001463
3992.000000	-0.001464
3991.000000	-0.001473
3990.000000	-0.001483
3989.000000	-0.001489
3988.000000	-0.001490
3987.000000	-0.001490
3986.000000	-0.001488
3985.000000	-0.001481
3984.000000	-0.001470
3983.000000	-0.001461
3982.000000	-0.001461
3981.000000	-0.001471
3980.000000	-0.001481
3979.000000	-0.001479
3978.000000	-0.001462
3977.000000	-0.001437
3976.000000	-0.001420
3975.000000	-0.001421
3974.000000	-0.001436
3973.000000	-0.001455
3972.000000	-0.001463
3971.000000	-0.001457
3970.000000	-0.001440
3969.000000	-0.001424
3968.000000	-0.001416
3967.000000	-0.001416
3966.000000	-0.001417
3965.000000	-0.001411
3964.000000	-0.001393
3963.000000	-0.001370
3962.000000	-0.001353
3961.000000	-0.001350
3960.000000	-0.001360
3959.000000	-0.001375
3958.000000	-0.001380
3957.000000	-0.001369
3956.000000	-0.001344
3955.000000	-0.001314
3954.000000	-0.001287
3953.000000	-0.001270
3952.000000	-0.001269
3951.000000	-0.001286
3950.000000	-0.001319
3949.000000	-0.001352
3948.000000	-0.001370
3947.000000	-0.001365
3946.000000	-0.001346
3945.000000	-0.001332
3944.000000	-0.001330
3943.000000	-0.001332
3942.000000	-0.001323
3941.000000	-0.001306
3940.000000	-0.001292
3939.000000	-0.001289
3938.000000	-0.001293
3937.000000	-0.001293
3936.000000	-0.001287
3935.000000	-0.001276
3934.000000	-0.001270
3933.000000	-0.001272
3932.000000	-0.001285
3931.000000	-0.001306
3930.000000	-0.001325
3929.000000	-0.001333
3928.000000	-0.001328
3927.000000	-0.001318
3926.000000	-0.001309
3925.000000	-0.001299
3924.000000	-0.001282
3923.000000	-0.001264
3922.000000	-0.001257
3921.000000	-0.001261
3920.000000	-0.001265
3919.000000	-0.001264
3918.000000	-0.001265
3917.000000	-0.001274
3916.000000	-0.001285
3915.000000	-0.001287
3914.000000	-0.001282
3913.000000	-0.001275
3912.000000	-0.001270
3911.000000	-0.001264
3910.000000	-0.001251
3909.000000	-0.001228
3908.000000	-0.001196
3907.000000	-0.001169
3906.000000	-0.001161
3905.000000	-0.001177
3904.000000	-0.001201
3903.000000	-0.001213
3902.000000	-0.001219
3901.000000	-0.001235
3900.000000	-0.001262
3899.000000	-0.001282
3898.000000	-0.001285
3897.000000	-0.001272
3896.000000	-0.001247
3895.000000	-0.001213
3894.000000	-0.001178
3893.000000	-0.001162
3892.000000	-0.001173
3891.000000	-0.001187
3890.000000	-0.001178
3889.000000	-0.001158
3888.000000	-0.001164
3887.000000	-0.001211
3886.000000	-0.001266
3885.000000	-0.001274
3884.000000	-0.001230
3883.000000	-0.001185
3882.000000	-0.001179
3881.000000	-0.001208
3880.000000	-0.001235
3879.000000	-0.001236
3878.000000	-0.001223
3877.000000	-0.001227
3876.000000	-0.001254
3875.000000	-0.001275
3874.000000	-0.001254
3873.000000	-0.001200
3872.000000	-0.001169
3871.000000	-0.001193
3870.000000	-0.001229
3869.000000	-0.001217
3868.000000	-0.001172
3867.000000	-0.001157
3866.000000	-0.001197
3865.000000	-0.001248
3864.000000	-0.001264
3863.000000	-0.001247
3862.000000	-0.001225
3861.000000	-0.001207
3860.000000	-0.001181
3859.000000	-0.001131
3858.000000	-0.001055
3857.000000	-0.000968
3856.000000	-0.000916
3855.000000	-0.000954
3854.000000	-0.001082
3853.000000	-0.001200
3852.000000	-0.001245
3851.000000	-0.001253
3850.000000	-0.001262
3849.000000	-0.001266
3848.000000	-0.001251
3847.000000	-0.001223
3846.000000	-0.001199
3845.000000	-0.001186
3844.000000	-0.001184
3843.000000	-0.001183
3842.000000	-0.001178
3841.000000	-0.001177
3840.000000	-0.001188
3839.000000	-0.001199
3838.000000	-0.001195
3837.000000	-0.001179
3836.000000	-0.001168
3835.000000	-0.001172
3834.000000	-0.001189
3833.000000	-0.001206
3832.000000	-0.001210
3831.000000	-0.001200
3830.000000	-0.001195
3829.000000	-0.001219
3828.000000	-0.001273
3827.000000	-0.001323
3826.000000	-0.001321
3825.000000	-0.001253
3824.000000	-0.001164
3823.000000	-0.001113
3822.000000	-0.001123
3821.000000	-0.001151
3820.000000	-0.001146
3819.000000	-0.001130
3818.000000	-0.001155
3817.000000	-0.001226
3816.000000	-0.001291
3815.000000	-0.001307
3814.000000	-0.001298
3813.000000	-0.001309
3812.000000	-0.001331
3811.000000	-0.001323
3810.000000	-0.001279
3809.000000	-0.001244
3808.000000	-0.001256
3807.000000	-0.001292
3806.000000	-0.001296
3805.000000	-0.001263
3804.000000	-0.001243
3803.000000	-0.001268
3802.000000	-0.001310
3801.000000	-0.001314
3800.000000	-0.001276
3799.000000	-0.001250
3798.000000	-0.001265
3797.000000	-0.001298
3796.000000	-0.001313
3795.000000	-0.001307
3794.000000	-0.001306
3793.000000	-0.001328
3792.000000	-0.001361
3791.000000	-0.001382
3790.000000	-0.001383
3789.000000	-0.001375
3788.000000	-0.001368
3787.000000	-0.001363
3786.000000	-0.001359
3785.000000	-0.001352
3784.000000	-0.001339
3783.000000	-0.001323
3782.000000	-0.001319
3781.000000	-0.001336
3780.000000	-0.001364
3779.000000	-0.001384
3778.000000	-0.001389
3777.000000	-0.001395
3776.000000	-0.001415
3775.000000	-0.001434
3774.000000	-0.001430
3773.000000	-0.001400
3772.000000	-0.001369
3771.000000	-0.001353
3770.000000	-0.001338
3769.000000	-0.001308
3768.000000	-0.001281
3767.000000	-0.001286
3766.000000	-0.001332
3765.000000	-0.001390
3764.000000	-0.001429
3763.000000	-0.001448
3762.000000	-0.001466
3761.000000	-0.001493
3760.000000	-0.001519
3759.000000	-0.001531
3758.000000	-0.001529
3757.000000	-0.001515
3756.000000	-0.001489
3755.000000	-0.001464
3754.000000	-0.001448
3753.000000	-0.001439
3752.000000	-0.001426
3751.000000	-0.001411
3750.000000	-0.001404
3749.000000	-0.001391
3748.000000	-0.001363
3747.000000	-0.001339
3746.000000	-0.001351
3745.000000	-0.001382
3744.000000	-0.001380
3743.000000	-0.001348
3742.000000	-0.001354
3741.000000	-0.001414
3740.000000	-0.001475
3739.000000	-0.001496
3738.000000	-0.001489
3737.000000	-0.001493
3736.000000	-0.001520
3735.000000	-0.001549
3734.000000	-0.001571
3733.000000	-0.001590
3732.000000	-0.001594
3731.000000	-0.001572
3730.000000	-0.001535
3729.000000	-0.001514
3728.000000	-0.001527
3727.000000	-0.001558
3726.000000	-0.001574
3725.000000	-0.001567
3724.000000	-0.001545
3723.000000	-0.001514
3722.000000	-0.001477
3721.000000	-0.001445
3720.000000	-0.001434
3719.000000	-0.001442
3718.000000	-0.001456
3717.000000	-0.001461
3716.000000	-0.001458
3715.000000	-0.001459
3714.000000	-0.001471
3713.000000	-0.001475
3712.000000	-0.001447
3711.000000	-0.001387
3710.000000	-0.001326
3709.000000	-0.001300
3708.000000	-0.001317
3707.000000	-0.001357
3706.000000	-0.001390
3705.000000	-0.001404
3704.000000	-0.001401
3703.000000	-0.001390
3702.000000	-0.001381
3701.000000	-0.001378
3700.000000	-0.001380
3699.000000	-0.001383
3698.000000	-0.001385
3697.000000	-0.001370
3696.000000	-0.001328
3695.000000	-0.001269
3694.000000	-0.001220
3693.000000	-0.001198
3692.000000	-0.001204
3691.000000	-0.001220
3690.000000	-0.001223
3689.000000	-0.001199
3688.000000	-0.001156
3687.000000	-0.001115
3686.000000	-0.001095
3685.000000	-0.001094
3684.000000	-0.001089
3683.000000	-0.001065
3682.000000	-0.001021
3681.000000	-0.000965
3680.000000	-0.000885
3679.000000	-0.000772
3678.000000	-0.000665
3677.000000	-0.000631
3676.000000	-0.000677
3675.000000	-0.000720
3674.000000	-0.000719
3673.000000	-0.000725
3672.000000	-0.000778
3671.000000	-0.000844
3670.000000	-0.000846
3669.000000	-0.000767
3668.000000	-0.000670
3667.000000	-0.000610
3666.000000	-0.000586
3665.000000	-0.000573
3664.000000	-0.000557
3663.000000	-0.000538
3662.000000	-0.000521
3661.000000	-0.000499
3660.000000	-0.000463
3659.000000	-0.000412
3658.000000	-0.000360
3657.000000	-0.000312
3656.000000	-0.000260
3655.000000	-0.000203
3654.000000	-0.000161
3653.000000	-0.000160
3652.000000	-0.000196
3651.000000	-0.000227
3650.000000	-0.000199
3649.000000	-0.000098
3648.000000	0.000035
3647.000000	0.000160
3646.000000	0.000261
3645.000000	0.000330
3644.000000	0.000362
3643.000000	0.000369
3642.000000	0.000373
3641.000000	0.000393
3640.000000	0.000428
3639.000000	0.000470
3638.000000	0.000517
3637.000000	0.000571
3636.000000	0.000631
3635.000000	0.000696
3634.000000	0.000771
3633.000000	0.000854
3632.000000	0.000928
3631.000000	0.000976
3630.000000	0.001010
3629.000000	0.001066
3628.000000	0.001155
3627.000000	0.001235
3626.000000	0.001274
3625.000000	0.001287
3624.000000	0.001299
3623.000000	0.001318
3622.000000	0.001333
3621.000000	0.001338
3620.000000	0.001355
3619.000000	0.001409
3618.000000	0.001494
3617.000000	0.001577
3616.000000	0.001640
3615.000000	0.001689
3614.000000	0.001750
3613.000000	0.001840
3612.000000	0.001951
3611.000000	0.002059
3610.000000	0.002150
3609.000000	0.002231
3608.000000	0.002311
3607.000000	0.002386
3606.000000	0.002443
3605.000000	0.002479
3604.000000	0.002509
3603.000000	0.002550
3602.000000	0.002611
3601.000000	0.002688
3600.000000	0.002770
3599.000000	0.002845
3598.000000	0.002906
3597.000000	0.002956
3596.000000	0.003009
3595.000000	0.003076
3594.000000	0.003158
3593.000000	0.003242
3592.000000	0.003311
3591.000000	0.003361
3590.000000	0.003401
3589.000000	0.003455
3588.000000	0.003550
3587.000000	0.003688
3586.000000	0.003835
3585.000000	0.003954
3584.000000	0.004039
3583.000000	0.004108
3582.000000	0.004180
3581.000000	0.004259
3580.000000	0.004346
3579.000000	0.004439
3578.000000	0.004536
3577.000000	0.004634
3576.000000	0.004730
3575.000000	0.004821
3574.000000	0.004905
3573.000000	0.004983
3572.000000	0.005058
3571.000000	0.005129
3570.000000	0.005195
3569.000000	0.005258
3568.000000	0.005332
3567.000000	0.005433
3566.000000	0.005552
3565.000000	0.005661
3564.000000	0.005745
3563.000000	0.005812
3562.000000	0.005879
3561.000000	0.005955
3560.000000	0.006045
3559.000000	0.006147
3558.000000	0.006256
3557.000000	0.006361
3556.000000	0.006450
3555.000000	0.006525
3554.000000	0.006595
3553.000000	0.006676
3552.000000	0.006766
3551.000000	0.006852
3550.000000	0.006921
3549.000000	0.006974
3548.000000	0.007034
3547.000000	0.007120
3546.000000	0.007228
3545.000000	0.007336
3544.000000	0.007425
3543.000000	0.007497
3542.000000	0.007566
3541.000000	0.007640
3540.000000	0.007719
3539.000000	0.007797
3538.000000	0.007876
3537.000000	0.007961
3536.000000	0.008056
3535.000000	0.008155
3534.000000	0.008241
3533.000000	0.008307
3532.000000	0.008358
3531.000000	0.008413
3530.000000	0.008484
3529.000000	0.008567
3528.000000	0.008649
3527.000000	0.008726
3526.000000	0.008794
3525.000000	0.008856
3524.000000	0.008913
3523.000000	0.008975
3522.000000	0.009049
3521.000000	0.009137
3520.000000	0.009239
3519.000000	0.009349
3518.000000	0.009457
3517.000000	0.009552
3516.000000	0.009627
3515.000000	0.009684
3514.000000	0.009735
3513.000000	0.009787
3512.000000	0.009849
3511.000000	0.009922
3510.000000	0.010002
3509.000000	0.010078
3508.000000	0.010139
3507.000000	0.010183
3506.000000	0.010213
3505.000000	0.010240
3504.000000	0.010277
3503.000000	0.010338
3502.000000	0.010424
3501.000000	0.010522
3500.000000	0.010620
3499.000000	0.010711
3498.000000	0.010794
3497.000000	0.010868
3496.000000	0.010929
3495.000000	0.010981
3494.000000	0.011030
3493.000000	0.011084
3492.000000	0.011145
3491.000000	0.011208
3490.000000	0.011269
3489.000000	0.011323
3488.000000	0.011380
3487.000000	0.011450
3486.000000	0.011537
3485.000000	0.011627
3484.000000	0.011700
3483.000000	0.011746
3482.000000	0.011778
3481.000000	0.011818
3480.000000	0.011885
3479.000000	0.011977
3478.000000	0.012077
3477.000000	0.012167
3476.000000	0.012238
3475.000000	0.012294
3474.000000	0.012337
3473.000000	0.012370
3472.000000	0.012399
3471.000000	0.012433
3470.000000	0.012476
3469.000000	0.012520
3468.000000	0.012558
3467.000000	0.012589
3466.000000	0.012618
3465.000000	0.012649
3464.000000	0.012682
3463.000000	0.012717
3462.000000	0.012755
3461.000000	0.012800
3460.000000	0.012854
3459.000000	0.012919
3458.000000	0.012989
3457.000000	0.013055
3456.000000	0.013109
3455.000000	0.013155
3454.000000	0.013201
3453.000000	0.013249
3452.000000	0.013293
3451.000000	0.013324
3450.000000	0.013338
3449.000000	0.013340
3448.000000	0.013347
3447.000000	0.013373
3446.000000	0.013420
3445.000000	0.013474
3444.000000	0.013520
3443.000000	0.013560
3442.000000	0.013602
3441.000000	0.013647
3440.000000	0.013686
3439.000000	0.013714
3438.000000	0.013739
3437.000000	0.013773
3436.000000	0.013821
3435.000000	0.013874
3434.000000	0.013921
3433.000000	0.013958
3432.000000	0.013991
3431.000000	0.014026
3430.000000	0.014064
3429.000000	0.014095
3428.000000	0.014119
3427.000000	0.014143
3426.000000	0.014176
3425.000000	0.014212
3424.000000	0.014241
3423.000000	0.014258
3422.000000	0.014275
3421.000000	0.014303
3420.000000	0.014343
3419.000000	0.014389
3418.000000	0.014432
3417.000000	0.014468
3416.000000	0.014498
3415.000000	0.014527
3414.000000	0.014555
3413.000000	0.014584
3412.000000	0.014610
3411.000000	0.014627
3410.000000	0.014634
3409.000000	0.014637
3408.000000	0.014651
3407.000000	0.014684
3406.000000	0.014732
3405.000000	0.014781
3404.000000	0.014817
3403.000000	0.014840
3402.000000	0.014856
3401.000000	0.014867
3400.000000	0.014873
3399.000000	0.014876
3398.000000	0.014884
3397.000000	0.014906
3396.000000	0.014943
3395.000000	0.014993
3394.000000	0.015045
3393.000000	0.015095
3392.000000	0.015138
3391.000000	0.015178
3390.000000	0.015212
3389.000000	0.015240
3388.000000	0.015261
3387.000000	0.015278
3386.000000	0.015297
3385.000000	0.015321
3384.000000	0.015353
3383.000000	0.015390
3382.000000	0.015430
3381.000000	0.015475
3380.000000	0.015529
3379.000000	0.015597
3378.000000	0.015683
3377.000000	0.015782
3376.000000	0.015882
3375.000000	0.015969
3374.000000	0.016029
3373.000000	0.016062
3372.000000	0.016084
3371.000000	0.016119
3370.000000	0.016179
3369.000000	0.016253
3368.000000	0.016326
3367.000000	0.016392
3366.000000	0.016459
3365.000000	0.016528
3364.000000	0.016599
3363.000000	0.016668
3362.000000	0.016737
3361.000000	0.016811
3360.000000	0.016891
3359.000000	0.016973
3358.000000	0.017055
3357.000000	0.017140
3356.000000	0.017235
3355.000000	0.017343
3354.000000	0.017456
3353.000000	0.017558
3352.000000	0.017638
3351.000000	0.017701
3350.000000	0.017763
3349.000000	0.017841
3348.000000	0.017944
3347.000000	0.018066
3346.000000	0.018192
3345.000000	0.018301
3344.000000	0.018388
3343.000000	0.018463
3342.000000	0.018543
3341.000000	0.018634
3340.000000	0.018727
3339.000000	0.018810
3338.000000	0.018879
3337.000000	0.018943
3336.000000	0.019014
3335.000000	0.019093
3334.000000	0.019174
3333.000000	0.019251
3332.000000	0.019327
3331.000000	0.019402
3330.000000	0.019470
3329.000000	0.019521
3328.000000	0.019555
3327.000000	0.019587
3326.000000	0.019628
3325.000000	0.019682
3324.000000	0.019742
3323.000000	0.019805
3322.000000	0.019866
3321.000000	0.019922
3320.000000	0.019964
3319.000000	0.019989
3318.000000	0.020000
3317.000000	0.020004
3316.000000	0.020011
3315.000000	0.020028
3314.000000	0.020056
3313.000000	0.020088
3312.000000	0.020111
3311.000000	0.020116
3310.000000	0.020101
3309.000000	0.020073
3308.000000	0.020047
3307.000000	0.020038
3306.000000	0.020050
3305.000000	0.020078
3304.000000	0.020117
3303.000000	0.020163
3302.000000	0.020211
3301.000000	0.020248
3300.000000	0.020258
3299.000000	0.020239
3298.000000	0.020203
3297.000000	0.020165
3296.000000	0.020135
3295.000000	0.020116
3294.000000	0.020102
3293.000000	0.020084
3292.000000	0.020057
3291.000000	0.020026
3290.000000	0.020006
3289.000000	0.020005
3288.000000	0.020015
3287.000000	0.020021
3286.000000	0.020012
3285.000000	0.019987
3284.000000	0.019952
3283.000000	0.019910
3282.000000	0.019859
3281.000000	0.019801
3280.000000	0.019739
3279.000000	0.019680
3278.000000	0.019623
3277.000000	0.019563
3276.000000	0.019498
3275.000000	0.019429
3274.000000	0.019356
3273.000000	0.019281
3272.000000	0.019210
3271.000000	0.019153
3270.000000	0.019114
3269.000000	0.019082
3268.000000	0.019040
3267.000000	0.018976
3266.000000	0.018893
3265.000000	0.018801
3264.000000	0.018713
3263.000000	0.018637
3262.000000	0.018575
3261.000000	0.018520
3260.000000	0.018461
3259.000000	0.018385
3258.000000	0.018292
3257.000000	0.018190
3256.000000	0.018099
3255.000000	0.018030
3254.000000	0.017980
3253.000000	0.017931
3252.000000	0.017866
3251.000000	0.017781
3250.000000	0.017687
3249.000000	0.017596
3248.000000	0.017512
3247.000000	0.017435
3246.000000	0.017365
3245.000000	0.017306
3244.000000	0.017260
3243.000000	0.017222
3242.000000	0.017183
3241.000000	0.017137
3240.000000	0.017086
3239.000000	0.017031
3238.000000	0.016967
3237.000000	0.016887
3236.000000	0.016793
3235.000000	0.016701
3234.000000	0.016624
3233.000000	0.016565
3232.000000	0.016513
3231.000000	0.016464
3230.000000	0.016416
3229.000000	0.016368
3228.000000	0.016313
3227.000000	0.016248
3226.000000	0.016175
3225.000000	0.016104
3224.000000	0.016048
3223.000000	0.016011
3222.000000	0.015981
3221.000000	0.015943
3220.000000	0.015885
3219.000000	0.015816
3218.000000	0.015746
3217.000000	0.015682
3216.000000	0.015625
3215.000000	0.015573
3214.000000	0.015531
3213.000000	0.015495
3212.000000	0.015454
3211.000000	0.015397
3210.000000	0.015324
3209.000000	0.015245
3208.000000	0.015165
3207.000000	0.015086
3206.000000	0.015006
3205.000000	0.014928
3204.000000	0.014858
3203.000000	0.014800
3202.000000	0.014752
3201.000000	0.014707
3200.000000	0.014660
3199.000000	0.014607
3198.000000	0.014548
3197.000000	0.014483
3196.000000	0.014413
3195.000000	0.014341
3194.000000	0.014270
3193.000000	0.014198
3192.000000	0.014124
3191.000000	0.014043
3190.000000	0.013953
3189.000000	0.013854
3188.000000	0.013753
3187.000000	0.013659
3186.000000	0.013578
3185.000000	0.013507
3184.000000	0.013444
3183.000000	0.013385
3182.000000	0.013325
3181.000000	0.013256
3180.000000	0.013173
3179.000000	0.013085
3178.000000	0.013000
3177.000000	0.012923
3176.000000	0.012849
3175.000000	0.012775
3174.000000	0.012702
3173.000000	0.012635
3172.000000	0.012569
3171.000000	0.012499
3170.000000	0.012422
3169.000000	0.012343
3168.000000	0.012269
3167.000000	0.012200
3166.000000	0.012130
3165.000000	0.012055
3164.000000	0.011976
3163.000000	0.011906
3162.000000	0.011851
3161.000000	0.011805
3160.000000	0.011750
3159.000000	0.011674
3158.000000	0.011583
3157.000000	0.011494
3156.000000	0.011419
3155.000000	0.011354
3154.000000	0.011292
3153.000000	0.011227
3152.000000	0.011164
3151.000000	0.011112
3150.000000	0.011069
3149.000000	0.011030
3148.000000	0.010988
3147.000000	0.010945
3146.000000	0.010910
3145.000000	0.010880
3144.000000	0.010844
3143.000000	0.010792
3142.000000	0.010727
3141.000000	0.010663
3140.000000	0.010612
3139.000000	0.010567
3138.000000	0.010519
3137.000000	0.010467
3136.000000	0.010419
3135.000000	0.010391
3134.000000	0.010382
3133.000000	0.010377
3132.000000	0.010354
3131.000000	0.010310
3130.000000	0.010258
3129.000000	0.010220
3128.000000	0.010208
3127.000000	0.010217
3126.000000	0.010234
3125.000000	0.010242
3124.000000	0.010228
3123.000000	0.010189
3122.000000	0.010141
3121.000000	0.010103
3120.000000	0.010089
3119.000000	0.010093
3118.000000	0.010101
3117.000000	0.010107
3116.000000	0.010116
3115.000000	0.010134
3114.000000	0.010165
3113.000000	0.010204
3112.000000	0.010242
3111.000000	0.010271
3110.000000	0.010290
3109.000000	0.010303
3108.000000	0.010319
3107.000000	0.010346
3106.000000	0.010387
3105.000000	0.010438
3104.000000	0.010489
3103.000000	0.010530
3102.000000	0.010555
3101.000000	0.010574
3100.000000	0.010599
3099.000000	0.010640
3098.000000	0.010700
3097.000000	0.010775
3096.000000	0.010855
3095.000000	0.010927
3094.000000	0.010981
3093.000000	0.011016
3092.000000	0.011039
3091.000000	0.011062
3090.000000	0.011092
3089.000000	0.011135
3088.000000	0.011187
3087.000000	0.011238
3086.000000	0.011280
3085.000000	0.011314
3084.000000	0.011346
3083.000000	0.011377
3082.000000	0.011400
3081.000000	0.011407
3080.000000	0.011404
3079.000000	0.011404
3078.000000	0.011416
3077.000000	0.011444
3076.000000	0.011487
3075.000000	0.011536
3074.000000	0.011580
3073.000000	0.011615
3072.000000	0.011637
3071.000000	0.011648
3070.000000	0.011645
3069.000000	0.011625
3068.000000	0.011593
3067.000000	0.011555
3066.000000	0.011516
3065.000000	0.011478
3064.000000	0.011437
3063.000000	0.011393
3062.000000	0.011344
3061.000000	0.011289
3060.000000	0.011231
3059.000000	0.011175
3058.000000	0.011127
3057.000000	0.011091
3056.000000	0.011064
3055.000000	0.011032
3054.000000	0.010980
3053.000000	0.010903
3052.000000	0.010811
3051.000000	0.010721
3050.000000	0.010644
3049.000000	0.010586
3048.000000	0.010548
3047.000000	0.010523
3046.000000	0.010502
3045.000000	0.010471
3044.000000	0.010429
3043.000000	0.010384
3042.000000	0.010347
3041.000000	0.010324
3040.000000	0.010312
3039.000000	0.010304
3038.000000	0.010294
3037.000000	0.010277
3036.000000	0.010255
3035.000000	0.010235
3034.000000	0.010225
3033.000000	0.010233
3032.000000	0.010258
3031.000000	0.010294
3030.000000	0.010334
3029.000000	0.010372
3028.000000	0.010410
3027.000000	0.010461
3026.000000	0.010541
3025.000000	0.010659
3024.000000	0.010804
3023.000000	0.010956
3022.000000	0.011106
3021.000000	0.011268
3020.000000	0.011461
3019.000000	0.011700
3018.000000	0.011985
3017.000000	0.012311
3016.000000	0.012669
3015.000000	0.013053
3014.000000	0.013463
3013.000000	0.013895
3012.000000	0.014342
3011.000000	0.014790
3010.000000	0.015219
3009.000000	0.015609
3008.000000	0.015937
3007.000000	0.016190
3006.000000	0.016365
3005.000000	0.016472
3004.000000	0.016519
3003.000000	0.016509
3002.000000	0.016439
3001.000000	0.016310
3000.000000	0.016135
2999.000000	0.015934
2998.000000	0.015730
2997.000000	0.015546
2996.000000	0.015399
2995.000000	0.015303
2994.000000	0.015270
2993.000000	0.015307
2992.000000	0.015413
2991.000000	0.015579
2990.000000	0.015795
2989.000000	0.016057
2988.000000	0.016368
2987.000000	0.016724
2986.000000	0.017122
2985.000000	0.017558
2984.000000	0.018037
2983.000000	0.018561
2982.000000	0.019134
2981.000000	0.019760
2980.000000	0.020441
2979.000000	0.021177
2978.000000	0.021970
2977.000000	0.022823
2976.000000	0.023751
2975.000000	0.024765
2974.000000	0.025874
2973.000000	0.027082
2972.000000	0.028394
2971.000000	0.029812
2970.000000	0.031341
2969.000000	0.032986
2968.000000	0.034745
2967.000000	0.036604
2966.000000	0.038532
2965.000000	0.040491
2964.000000	0.042444
2963.000000	0.044356
2962.000000	0.046199
2961.000000	0.047946
2960.000000	0.049569
2959.000000	0.051042
2958.000000	0.052342
2957.000000	0.053443
2956.000000	0.054329
2955.000000	0.054991
2954.000000	0.055440
2953.000000	0.055716
2952.000000	0.055898
2951.000000	0.056088
2950.000000	0.056388
2949.000000	0.056879
2948.000000	0.057624
2947.000000	0.058683
2946.000000	0.060113
2945.000000	0.061943
2944.000000	0.064170
2943.000000	0.066772
2942.000000	0.069731
2941.000000	0.073041
2940.000000	0.076692
2939.000000	0.080666
2938.000000	0.084942
2937.000000	0.089488
2936.000000	0.094267
2935.000000	0.099234
2934.000000	0.104344
2933.000000	0.109556
2932.000000	0.114820
2931.000000	0.120077
2930.000000	0.125248
2929.000000	0.130239
2928.000000	0.134934
2927.000000	0.139195
2926.000000	0.142862
2925.000000	0.145745
2924.000000	0.147652
2923.000000	0.148429
2922.000000	0.147992
2921.000000	0.146343
2920.000000	0.143558
2919.000000	0.139777
2918.000000	0.135188
2917.000000	0.130013
2916.000000	0.124488
2915.000000	0.118838
2914.000000	0.113259
2913.000000	0.107899
2912.000000	0.102863
2911.000000	0.098201
2910.000000	0.093918
2909.000000	0.089998
2908.000000	0.086420
2907.000000	0.083157
2906.000000	0.080169
2905.000000	0.077407
2904.000000	0.074831
2903.000000	0.072410
2902.000000	0.070121
2901.000000	0.067941
2900.000000	0.065857
2899.000000	0.063860
2898.000000	0.061941
2897.000000	0.060082
2896.000000	0.058262
2895.000000	0.056467
2894.000000	0.054694
2893.000000	0.052954
2892.000000	0.051270
2891.000000	0.049663
2890.000000	0.048139
2889.000000	0.046698
2888.000000	0.045343
2887.000000	0.044086
2886.000000	0.042943
2885.000000	0.041934
2884.000000	0.041078
2883.000000	0.040393
2882.000000	0.039900
2881.000000	0.039624
2880.000000	0.039593
2879.000000	0.039828
2878.000000	0.040330
2877.000000	0.041081
2876.000000	0.042039
2875.000000	0.043129
2874.000000	0.044240
2873.000000	0.045250
2872.000000	0.046084
2871.000000	0.046755
2870.000000	0.047356
2869.000000	0.048029
2868.000000	0.048918
2867.000000	0.050163
2866.000000	0.051892
2865.000000	0.054202
2864.000000	0.057149
2863.000000	0.060747
2862.000000	0.064975
2861.000000	0.069771
2860.000000	0.075021
2859.000000	0.080546
2858.000000	0.086108
2857.000000	0.091409
2856.000000	0.096084
2855.000000	0.099733
2854.000000	0.101963
2853.000000	0.102470
2852.000000	0.101123
2851.000000	0.097990
2850.000000	0.093312
2849.000000	0.087450
2848.000000	0.080828
2847.000000	0.073866
2846.000000	0.066935
2845.000000	0.060324
2844.000000	0.054240
2843.000000	0.048807
2842.000000	0.044065
2841.000000	0.039999
2840.000000	0.036552
2839.000000	0.033650
2838.000000	0.031210
2837.000000	0.029150
2836.000000	0.027393
2835.000000	0.025874
2834.000000	0.024536
2833.000000	0.023338
2832.000000	0.022250
2831.000000	0.021254
2830.000000	0.020340
2829.000000	0.019500
2828.000000	0.018724
2827.000000	0.018006
2826.000000	0.017341
2825.000000	0.016731
2824.000000	0.016174
2823.000000	0.015667
2822.000000	0.015201
2821.000000	0.014766
2820.000000	0.014353
2819.000000	0.013959
2818.000000	0.013593
2817.000000	0.013271
2816.000000	0.012991
2815.000000	0.012734
2814.000000	0.012476
2813.000000	0.012213
2812.000000	0.011958
2811.000000	0.011723
2810.000000	0.011506
2809.000000	0.011293
2808.000000	0.011079
2807.000000	0.010867
2806.000000	0.010663
2805.000000	0.010473
2804.000000	0.010297
2803.000000	0.010136
2802.000000	0.009994
2801.000000	0.009869
2800.000000	0.009755
2799.000000	0.009638
2798.000000	0.009517
2797.000000	0.009397
2796.000000	0.009281
2795.000000	0.009165
2794.000000	0.009041
2793.000000	0.008908
2792.000000	0.008773
2791.000000	0.008644
2790.000000	0.008528
2789.000000	0.008423
2788.000000	0.008326
2787.000000	0.008232
2786.000000	0.008141
2785.000000	0.008055
2784.000000	0.007975
2783.000000	0.007893
2782.000000	0.007800
2781.000000	0.007694
2780.000000	0.007584
2779.000000	0.007482
2778.000000	0.007397
2777.000000	0.007333
2776.000000	0.007282
2775.000000	0.007228
2774.000000	0.007163
2773.000000	0.007086
2772.000000	0.007007
2771.000000	0.006934
2770.000000	0.006871
2769.000000	0.006820
2768.000000	0.006777
2767.000000	0.006732
2766.000000	0.006679
2765.000000	0.006619
2764.000000	0.006559
2763.000000	0.006502
2762.000000	0.006444
2761.000000	0.006383
2760.000000	0.006326
2759.000000	0.006284
2758.000000	0.006262
2757.000000	0.006255
2756.000000	0.006250
2755.000000	0.006240
2754.000000	0.006226
2753.000000	0.006211
2752.000000	0.006191
2751.000000	0.006161
2750.000000	0.006124
2749.000000	0.006087
2748.000000	0.006053
2747.000000	0.006022
2746.000000	0.005995
2745.000000	0.005980
2744.000000	0.005977
2743.000000	0.005976
2742.000000	0.005971
2741.000000	0.005966
2740.000000	0.005965
2739.000000	0.005961
2738.000000	0.005942
2737.000000	0.005907
2736.000000	0.005866
2735.000000	0.005836
2734.000000	0.005826
2733.000000	0.005835
2732.000000	0.005852
2731.000000	0.005859
2730.000000	0.005850
2729.000000	0.005825
2728.000000	0.005791
2727.000000	0.005746
2726.000000	0.005693
2725.000000	0.005640
2724.000000	0.005594
2723.000000	0.005557
2722.000000	0.005526
2721.000000	0.005496
2720.000000	0.005466
2719.000000	0.005436
2718.000000	0.005406
2717.000000	0.005375
2716.000000	0.005341
2715.000000	0.005304
2714.000000	0.005269
2713.000000	0.005242
2712.000000	0.005223
2711.000000	0.005206
2710.000000	0.005190
2709.000000	0.005180
2708.000000	0.005177
2707.000000	0.005171
2706.000000	0.005152
2705.000000	0.005125
2704.000000	0.005101
2703.000000	0.005087
2702.000000	0.005080
2701.000000	0.005077
2700.000000	0.005075
2699.000000	0.005070
2698.000000	0.005062
2697.000000	0.005052
2696.000000	0.005044
2695.000000	0.005044
2694.000000	0.005059
2693.000000	0.005091
2692.000000	0.005135
2691.000000	0.005179
2690.000000	0.005212
2689.000000	0.005237
2688.000000	0.005258
2687.000000	0.005277
2686.000000	0.005291
2685.000000	0.005301
2684.000000	0.005309
2683.000000	0.005316
2682.000000	0.005322
2681.000000	0.005326
2680.000000	0.005329
2679.000000	0.005323
2678.000000	0.005305
2677.000000	0.005276
2676.000000	0.005245
2675.000000	0.005220
2674.000000	0.005205
2673.000000	0.005197
2672.000000	0.005189
2671.000000	0.005176
2670.000000	0.005158
2669.000000	0.005142
2668.000000	0.005130
2667.000000	0.005115
2666.000000	0.005092
2665.000000	0.005060
2664.000000	0.005019
2663.000000	0.004967
2662.000000	0.004902
2661.000000	0.004828
2660.000000	0.004751
2659.000000	0.004671
2658.000000	0.004589
2657.000000	0.004510
2656.000000	0.004443
2655.000000	0.004385
2654.000000	0.004328
2653.000000	0.004262
2652.000000	0.004188
2651.000000	0.004112
2650.000000	0.004042
2649.000000	0.003982
2648.000000	0.003927
2647.000000	0.003868
2646.000000	0.003803
2645.000000	0.003741
2644.000000	0.003690
2643.000000	0.003646
2642.000000	0.003599
2641.000000	0.003543
2640.000000	0.003478
2639.000000	0.003408
2638.000000	0.003337
2637.000000	0.003271
2636.000000	0.003213
2635.000000	0.003156
2634.000000	0.003093
2633.000000	0.003025
2632.000000	0.002963
2631.000000	0.002911
2630.000000	0.002864
2629.000000	0.002814
2628.000000	0.002756
2627.000000	0.002691
2626.000000	0.002624
2625.000000	0.002561
2624.000000	0.002503
2623.000000	0.002446
2622.000000	0.002394
2621.000000	0.002359
2620.000000	0.002342
2619.000000	0.002327
2618.000000	0.002295
2617.000000	0.002243
2616.000000	0.002185
2615.000000	0.002134
2614.000000	0.002096
2613.000000	0.002070
2612.000000	0.002047
2611.000000	0.002013
2610.000000	0.001965
2609.000000	0.001913
2608.000000	0.001871
2607.000000	0.001842
2606.000000	0.001819
2605.000000	0.001792
2604.000000	0.001758
2603.000000	0.001723
2602.000000	0.001694
2601.000000	0.001680
2600.000000	0.001677
2599.000000	0.001670
2598.000000	0.001645
2597.000000	0.001604
2596.000000	0.001552
2595.000000	0.001500
2594.000000	0.001454
2593.000000	0.001420
2592.000000	0.001400
2591.000000	0.001389
2590.000000	0.001386
2589.000000	0.001390
2588.000000	0.001393
2587.000000	0.001383
2586.000000	0.001361
2585.000000	0.001336
2584.000000	0.001313
2583.000000	0.001277
2582.000000	0.001218
2581.000000	0.001150
2580.000000	0.001096
2579.000000	0.001070
2578.000000	0.001069
2577.000000	0.001083
2576.000000	0.001098
2575.000000	0.001097
2574.000000	0.001077
2573.000000	0.001045
2572.000000	0.001014
2571.000000	0.000990
2570.000000	0.000981
2569.000000	0.000989
2568.000000	0.000998
2567.000000	0.000981
2566.000000	0.000931
2565.000000	0.000874
2564.000000	0.000838
2563.000000	0.000824
2562.000000	0.000815
2561.000000	0.000805
2560.000000	0.000796
2559.000000	0.000789
2558.000000	0.000781
2557.000000	0.000769
2556.000000	0.000752
2555.000000	0.000726
2554.000000	0.000688
2553.000000	0.000648
2552.000000	0.000623
2551.000000	0.000625
2550.000000	0.000654
2549.000000	0.000698
2548.000000	0.000728
2547.000000	0.000719
2546.000000	0.000679
2545.000000	0.000648
2544.000000	0.000655
2543.000000	0.000691
2542.000000	0.000727
2541.000000	0.000745
2540.000000	0.000741
2539.000000	0.000716
2538.000000	0.000683
2537.000000	0.000664
2536.000000	0.000673
2535.000000	0.000703
2534.000000	0.000731
2533.000000	0.000752
2532.000000	0.000769
2531.000000	0.000785
2530.000000	0.000794
2529.000000	0.000795
2528.000000	0.000792
2527.000000	0.000789
2526.000000	0.000787
2525.000000	0.000782
2524.000000	0.000770
2523.000000	0.000748
2522.000000	0.000727
2521.000000	0.000719
2520.000000	0.000718
2519.000000	0.000705
2518.000000	0.000667
2517.000000	0.000612
2516.000000	0.000560
2515.000000	0.000522
2514.000000	0.000504
2513.000000	0.000506
2512.000000	0.000521
2511.000000	0.000537
2510.000000	0.000546
2509.000000	0.000547
2508.000000	0.000536
2507.000000	0.000511
2506.000000	0.000489
2505.000000	0.000488
2504.000000	0.000504
2503.000000	0.000516
2502.000000	0.000516
2501.000000	0.000516
2500.000000	0.000524
2499.000000	0.000526
2498.000000	0.000507
2497.000000	0.000481
2496.000000	0.000469
2495.000000	0.000473
2494.000000	0.000476
2493.000000	0.000459
2492.000000	0.000413
2491.000000	0.000342
2490.000000	0.000272
2489.000000	0.000238
2488.000000	0.000250
2487.000000	0.000288
2486.000000	0.000320
2485.000000	0.000331
2484.000000	0.000317
2483.000000	0.000280
2482.000000	0.000230
2481.000000	0.000187
2480.000000	0.000167
2479.000000	0.000174
2478.000000	0.000200
2477.000000	0.000238
2476.000000	0.000272
2475.000000	0.000286
2474.000000	0.000275
2473.000000	0.000253
2472.000000	0.000236
2471.000000	0.000233
2470.000000	0.000239
2469.000000	0.000245
2468.000000	0.000238
2467.000000	0.000217
2466.000000	0.000200
2465.000000	0.000207
2464.000000	0.000233
2463.000000	0.000252
2462.000000	0.000258
2461.000000	0.000268
2460.000000	0.000297
2459.000000	0.000332
2458.000000	0.000357
2457.000000	0.000368
2456.000000	0.000366
2455.000000	0.000352
2454.000000	0.000333
2453.000000	0.000313
2452.000000	0.000287
2451.000000	0.000249
2450.000000	0.000218
2449.000000	0.000223
2448.000000	0.000265
2447.000000	0.000309
2446.000000	0.000332
2445.000000	0.000343
2444.000000	0.000360
2443.000000	0.000384
2442.000000	0.000406
2441.000000	0.000417
2440.000000	0.000402
2439.000000	0.000353
2438.000000	0.000290
2437.000000	0.000248
2436.000000	0.000234
2435.000000	0.000219
2434.000000	0.000192
2433.000000	0.000178
2432.000000	0.000196
2431.000000	0.000225
2430.000000	0.000234
2429.000000	0.000222
2428.000000	0.000214
2427.000000	0.000221
2426.000000	0.000237
2425.000000	0.000255
2424.000000	0.000274
2423.000000	0.000296
2422.000000	0.000328
2421.000000	0.000373
2420.000000	0.000419
2419.000000	0.000443
2418.000000	0.000439
2417.000000	0.000423
2416.000000	0.000415
2415.000000	0.000418
2414.000000	0.000429
2413.000000	0.000445
2412.000000	0.000452
2411.000000	0.000434
2410.000000	0.000396
2409.000000	0.000363
2408.000000	0.000353
2407.000000	0.000359
2406.000000	0.000377
2405.000000	0.000414
2404.000000	0.000465
2403.000000	0.000508
2402.000000	0.000526
2401.000000	0.000530
2400.000000	0.000531
2399.000000	0.000530
2398.000000	0.000533
2397.000000	0.000553
2396.000000	0.000599
2395.000000	0.000649
2394.000000	0.000679
2393.000000	0.000683
2392.000000	0.000671
2391.000000	0.000658
2390.000000	0.000659
2389.000000	0.000686
2388.000000	0.000739
2387.000000	0.000797
2386.000000	0.000845
2385.000000	0.000886
2384.000000	0.000923
2383.000000	0.000952
2382.000000	0.000969
2381.000000	0.000975
2380.000000	0.000969
2379.000000	0.000955
2378.000000	0.000946
2377.000000	0.000963
2376.000000	0.001001
2375.000000	0.001031
2374.000000	0.001036
2373.000000	0.001021
2372.000000	0.000989
2371.000000	0.000937
2370.000000	0.000882
2369.000000	0.000860
2368.000000	0.000889
2367.000000	0.000955
2366.000000	0.001039
2365.000000	0.001126
2364.000000	0.001184
2363.000000	0.001199
2362.000000	0.001203
2361.000000	0.001240
2360.000000	0.001318
2359.000000	0.001381
2358.000000	0.001375
2357.000000	0.001310
2356.000000	0.001241
2355.000000	0.001237
2354.000000	0.001297
2353.000000	0.001357
2352.000000	0.001357
2351.000000	0.001315
2350.000000	0.001306
2349.000000	0.001381
2348.000000	0.001523
2347.000000	0.001637
2346.000000	0.001645
2345.000000	0.001571
2344.000000	0.001499
2343.000000	0.001492
2342.000000	0.001520
2341.000000	0.001547
2340.000000	0.001563
2339.000000	0.001567
2338.000000	0.001568
2337.000000	0.001580
2336.000000	0.001608
2335.000000	0.001622
2334.000000	0.001593
2333.000000	0.001535
2332.000000	0.001504
2331.000000	0.001518
2330.000000	0.001575
2329.000000	0.001642
2328.000000	0.001725
2327.000000	0.001809
2326.000000	0.001882
2325.000000	0.001920
2324.000000	0.001907
2323.000000	0.001834
2322.000000	0.001724
2321.000000	0.001629
2320.000000	0.001583
2319.000000	0.001570
2318.000000	0.001567
2317.000000	0.001558
2316.000000	0.001543
2315.000000	0.001499
2314.000000	0.001435
2313.000000	0.001373
2312.000000	0.001343
2311.000000	0.001323
2310.000000	0.001299
2309.000000	0.001270
2308.000000	0.001249
2307.000000	0.001214
2306.000000	0.001155
2305.000000	0.001095
2304.000000	0.001071
2303.000000	0.001078
2302.000000	0.001087
2301.000000	0.001070
2300.000000	0.001027
2299.000000	0.000963
2298.000000	0.000898
2297.000000	0.000847
2296.000000	0.000818
2295.000000	0.000789
2294.000000	0.000748
2293.000000	0.000705
2292.000000	0.000677
2291.000000	0.000662
2290.000000	0.000653
2289.000000	0.000652
2288.000000	0.000643
2287.000000	0.000597
2286.000000	0.000513
2285.000000	0.000434
2284.000000	0.000388
2283.000000	0.000359
2282.000000	0.000320
2281.000000	0.000280
2280.000000	0.000260
2279.000000	0.000259
2278.000000	0.000270
2277.000000	0.000303
2276.000000	0.000350
2275.000000	0.000370
2274.000000	0.000340
2273.000000	0.000287
2272.000000	0.000240
2271.000000	0.000194
2270.000000	0.000148
2269.000000	0.000138
2268.000000	0.000185
2267.000000	0.000246
2266.000000	0.000274
2265.000000	0.000277
2264.000000	0.000283
2263.000000	0.000281
2262.000000	0.000246
2261.000000	0.000199
2260.000000	0.000180
2259.000000	0.000193
2258.000000	0.000214
2257.000000	0.000227
2256.000000	0.000219
2255.000000	0.000167
2254.000000	0.000078
2253.000000	-0.000006
2252.000000	-0.000056
2251.000000	-0.000098
2250.000000	-0.000156
2249.000000	-0.000208
2248.000000	-0.000230
2247.000000	-0.000240
2246.000000	-0.000254
2245.000000	-0.000257
2244.000000	-0.000248
2243.000000	-0.000272
2242.000000	-0.000353
2241.000000	-0.000439
2240.000000	-0.000479
2239.000000	-0.000485
2238.000000	-0.000500
2237.000000	-0.000523
2236.000000	-0.000530
2235.000000	-0.000525
2234.000000	-0.000511
2233.000000	-0.000455
2232.000000	-0.000339
2231.000000	-0.000207
2230.000000	-0.000123
2229.000000	-0.000109
2228.000000	-0.000148
2227.000000	-0.000219
2226.000000	-0.000288
2225.000000	-0.000320
2224.000000	-0.000335
2223.000000	-0.000394
2222.000000	-0.000492
2221.000000	-0.000544
2220.000000	-0.000499
2219.000000	-0.000413
2218.000000	-0.000344
2217.000000	-0.000280
2216.000000	-0.000209
2215.000000	-0.000191
2214.000000	-0.000280
2213.000000	-0.000433
2212.000000	-0.000561
2211.000000	-0.000629
2210.000000	-0.000655
2209.000000	-0.000670
2208.000000	-0.000705
2207.000000	-0.000766
2206.000000	-0.000804
2205.000000	-0.000758
2204.000000	-0.000667
2203.000000	-0.000639
2202.000000	-0.000689
2201.000000	-0.000709
2200.000000	-0.000626
2199.000000	-0.000508
2198.000000	-0.000444
2197.000000	-0.000427
2196.000000	-0.000419
2195.000000	-0.000437
2194.000000	-0.000515
2193.000000	-0.000656
2192.000000	-0.000840
2191.000000	-0.001023
2190.000000	-0.001099
2189.000000	-0.000998
2188.000000	-0.000832
2187.000000	-0.000795
2186.000000	-0.000887
2185.000000	-0.000898
2184.000000	-0.000728
2183.000000	-0.000545
2182.000000	-0.000519
2181.000000	-0.000598
2180.000000	-0.000660
2179.000000	-0.000705
2178.000000	-0.000755
2177.000000	-0.000753
2176.000000	-0.000689
2175.000000	-0.000700
2174.000000	-0.000881
2173.000000	-0.001119
2172.000000	-0.001238
2171.000000	-0.001207
2170.000000	-0.001082
2169.000000	-0.000893
2168.000000	-0.000698
2167.000000	-0.000618
2166.000000	-0.000701
2165.000000	-0.000847
2164.000000	-0.000968
2163.000000	-0.001113
2162.000000	-0.001312
2161.000000	-0.001457
2160.000000	-0.001499
2159.000000	-0.001581
2158.000000	-0.001773
2157.000000	-0.001891
2156.000000	-0.001784
2155.000000	-0.001556
2154.000000	-0.001350
2153.000000	-0.001148
2152.000000	-0.000896
2151.000000	-0.000649
2150.000000	-0.000492
2149.000000	-0.000429
2148.000000	-0.000422
2147.000000	-0.000463
2146.000000	-0.000528
2145.000000	-0.000569
2144.000000	-0.000599
2143.000000	-0.000683
2142.000000	-0.000793
2141.000000	-0.000798
2140.000000	-0.000650
2139.000000	-0.000468
2138.000000	-0.000381
2137.000000	-0.000395
2136.000000	-0.000458
2135.000000	-0.000528
2134.000000	-0.000534
2133.000000	-0.000394
2132.000000	-0.000144
2131.000000	0.000065
2130.000000	0.000141
2129.000000	0.000144
2128.000000	0.000160
2127.000000	0.000191
2126.000000	0.000215
2125.000000	0.000258
2124.000000	0.000340
2123.000000	0.000422
2122.000000	0.000473
2121.000000	0.000529
2120.000000	0.000627
2119.000000	0.000743
2118.000000	0.000829
2117.000000	0.000873
2116.000000	0.000876
2115.000000	0.000834
2114.000000	0.000779
2113.000000	0.000768
2112.000000	0.000808
2111.000000	0.000837
2110.000000	0.000835
2109.000000	0.000863
2108.000000	0.000952
2107.000000	0.001025
2106.000000	0.001011
2105.000000	0.000953
2104.000000	0.000925
2103.000000	0.000920
2102.000000	0.000889
2101.000000	0.000832
2100.000000	0.000772
2099.000000	0.000700
2098.000000	0.000605
2097.000000	0.000526
2096.000000	0.000502
2095.000000	0.000511
2094.000000	0.000522
2093.000000	0.000548
2092.000000	0.000605
2091.000000	0.000660
2090.000000	0.000684
2089.000000	0.000697
2088.000000	0.000717
2087.000000	0.000717
2086.000000	0.000682
2085.000000	0.000653
2084.000000	0.000669
2083.000000	0.000709
2082.000000	0.000728
2081.000000	0.000717
2080.000000	0.000681
2079.000000	0.000624
2078.000000	0.000573
2077.000000	0.000576
2076.000000	0.000618
2075.000000	0.000611
2074.000000	0.000503
2073.000000	0.000335
2072.000000	0.000178
2071.000000	0.000069
2070.000000	0.000042
2069.000000	0.000109
2068.000000	0.000203
2067.000000	0.000214
2066.000000	0.000140
2065.000000	0.000095
2064.000000	0.000133
2063.000000	0.000177
2062.000000	0.000165
2061.000000	0.000141
2060.000000	0.000149
2059.000000	0.000156
2058.000000	0.000133
2057.000000	0.000106
2056.000000	0.000064
2055.000000	-0.000050
2054.000000	-0.000205
2053.000000	-0.000268
2052.000000	-0.000199
2051.000000	-0.000117
2050.000000	-0.000106
2049.000000	-0.000096
2048.000000	-0.000034
2047.000000	-0.000014
2046.000000	-0.000103
2045.000000	-0.000200
2044.000000	-0.000239
2043.000000	-0.000324
2042.000000	-0.000524
2041.000000	-0.000707
2040.000000	-0.000741
2039.000000	-0.000708
2038.000000	-0.000745
2037.000000	-0.000836
2036.000000	-0.000917
2035.000000	-0.001018
2034.000000	-0.001136
2033.000000	-0.001148
2032.000000	-0.001028
2031.000000	-0.000938
2030.000000	-0.000967
2029.000000	-0.000993
2028.000000	-0.000939
2027.000000	-0.000939
2026.000000	-0.001075
2025.000000	-0.001189
2024.000000	-0.001140
2023.000000	-0.001021
2022.000000	-0.000987
2021.000000	-0.001039
2020.000000	-0.001141
2019.000000	-0.001330
2018.000000	-0.001574
2017.000000	-0.001711
2016.000000	-0.001688
2015.000000	-0.001650
2014.000000	-0.001673
2013.000000	-0.001639
2012.000000	-0.001488
2011.000000	-0.001357
2010.000000	-0.001339
2009.000000	-0.001330
2008.000000	-0.001253
2007.000000	-0.001195
2006.000000	-0.001188
2005.000000	-0.001104
2004.000000	-0.000908
2003.000000	-0.000762
2002.000000	-0.000762
2001.000000	-0.000791
2000.000000	-0.000767
1999.000000	-0.000792
1998.000000	-0.000949
1997.000000	-0.001142
1996.000000	-0.001263
1995.000000	-0.001349
1994.000000	-0.001441
1993.000000	-0.001452
1992.000000	-0.001342
1991.000000	-0.001248
1990.000000	-0.001284
1989.000000	-0.001369
1988.000000	-0.001385
1987.000000	-0.001335
1986.000000	-0.001256
1985.000000	-0.001129
1984.000000	-0.000999
1983.000000	-0.000996
1982.000000	-0.001123
1981.000000	-0.001205
1980.000000	-0.001172
1979.000000	-0.001196
1978.000000	-0.001391
1977.000000	-0.001588
1976.000000	-0.001625
1975.000000	-0.001609
1974.000000	-0.001668
1973.000000	-0.001720
1972.000000	-0.001665
1971.000000	-0.001557
1970.000000	-0.001436
1969.000000	-0.001241
1968.000000	-0.001017
1967.000000	-0.000972
1966.000000	-0.001176
1965.000000	-0.001424
1964.000000	-0.001528
1963.000000	-0.001517
1962.000000	-0.001448
1961.000000	-0.001278
1960.000000	-0.001039
1959.000000	-0.000902
1958.000000	-0.000935
1957.000000	-0.000990
1956.000000	-0.000965
1955.000000	-0.000945
1954.000000	-0.001023
1953.000000	-0.001135
1952.000000	-0.001197
1951.000000	-0.001237
1950.000000	-0.001272
1949.000000	-0.001223
1948.000000	-0.001076
1947.000000	-0.000977
1946.000000	-0.001044
1945.000000	-0.001220
1944.000000	-0.001389
1943.000000	-0.001503
1942.000000	-0.001534
1941.000000	-0.001434
1940.000000	-0.001255
1939.000000	-0.001145
1938.000000	-0.001175
1937.000000	-0.001254
1936.000000	-0.001284
1935.000000	-0.001283
1934.000000	-0.001287
1933.000000	-0.001266
1932.000000	-0.001193
1931.000000	-0.001120
1930.000000	-0.001078
1929.000000	-0.001030
1928.000000	-0.000980
1927.000000	-0.000989
1926.000000	-0.001066
1925.000000	-0.001114
1924.000000	-0.001091
1923.000000	-0.001090
1922.000000	-0.001178
1921.000000	-0.001285
1920.000000	-0.001329
1919.000000	-0.001317
1918.000000	-0.001281
1917.000000	-0.001199
1916.000000	-0.001075
1915.000000	-0.000987
1914.000000	-0.000985
1913.000000	-0.001020
1912.000000	-0.001034
1911.000000	-0.001053
1910.000000	-0.001112
1909.000000	-0.001177
1908.000000	-0.001212
1907.000000	-0.001228
1906.000000	-0.001229
1905.000000	-0.001179
1904.000000	-0.001084
1903.000000	-0.001020
1902.000000	-0.001010
1901.000000	-0.000990
1900.000000	-0.000930
1899.000000	-0.000888
1898.000000	-0.000903
1897.000000	-0.000933
1896.000000	-0.000953
1895.000000	-0.001012
1894.000000	-0.001126
1893.000000	-0.001218
1892.000000	-0.001232
1891.000000	-0.001207
1890.000000	-0.001191
1889.000000	-0.001177
1888.000000	-0.001158
1887.000000	-0.001165
1886.000000	-0.001189
1885.000000	-0.001177
1884.000000	-0.001131
1883.000000	-0.001119
1882.000000	-0.001156
1881.000000	-0.001172
1880.000000	-0.001143
1879.000000	-0.001126
1878.000000	-0.001152
1877.000000	-0.001170
1876.000000	-0.001147
1875.000000	-0.001137
1874.000000	-0.001194
1873.000000	-0.001283
1872.000000	-0.001354
1871.000000	-0.001412
1870.000000	-0.001458
1869.000000	-0.001458
1868.000000	-0.001413
1867.000000	-0.001375
1866.000000	-0.001356
1865.000000	-0.001320
1864.000000	-0.001278
1863.000000	-0.001278
1862.000000	-0.001303
1861.000000	-0.001264
1860.000000	-0.001151
1859.000000	-0.001060
1858.000000	-0.001047
1857.000000	-0.001056
1856.000000	-0.001044
1855.000000	-0.001047
1854.000000	-0.001085
1853.000000	-0.001101
1852.000000	-0.001089
1851.000000	-0.001105
1850.000000	-0.001178
1849.000000	-0.001272
1848.000000	-0.001368
1847.000000	-0.001506
1846.000000	-0.001664
1845.000000	-0.001743
1844.000000	-0.001738
1843.000000	-0.001737
1842.000000	-0.001689
1841.000000	-0.001494
1840.000000	-0.001219
1839.000000	-0.001033
1838.000000	-0.001019
1837.000000	-0.001085
1836.000000	-0.001123
1835.000000	-0.001149
1834.000000	-0.001198
1833.000000	-0.001218
1832.000000	-0.001155
1831.000000	-0.001060
1830.000000	-0.001050
1829.000000	-0.001138
1828.000000	-0.001228
1827.000000	-0.001266
1826.000000	-0.001273
1825.000000	-0.001263
1824.000000	-0.001238
1823.000000	-0.001211
1822.000000	-0.001172
1821.000000	-0.001109
1820.000000	-0.001047
1819.000000	-0.001049
1818.000000	-0.001114
1817.000000	-0.001144
1816.000000	-0.001085
1815.000000	-0.001014
1814.000000	-0.000988
1813.000000	-0.000964
1812.000000	-0.000886
1811.000000	-0.000803
1810.000000	-0.000783
1809.000000	-0.000778
1808.000000	-0.000725
1807.000000	-0.000656
1806.000000	-0.000628
1805.000000	-0.000632
1804.000000	-0.000646
1803.000000	-0.000681
1802.000000	-0.000694
1801.000000	-0.000602
1800.000000	-0.000400
1799.000000	-0.000228
1798.000000	-0.000177
1797.000000	-0.000178
1796.000000	-0.000154
1795.000000	-0.000138
1794.000000	-0.000161
1793.000000	-0.000188
1792.000000	-0.000189
1791.000000	-0.000190
1790.000000	-0.000153
1789.000000	-0.000020
1788.000000	0.000153
1787.000000	0.000249
1786.000000	0.000248
1785.000000	0.000266
1784.000000	0.000396
1783.000000	0.000583
1782.000000	0.000766
1781.000000	0.000941
1780.000000	0.001126
1779.000000	0.001289
1778.000000	0.001425
1777.000000	0.001586
1776.000000	0.001751
1775.000000	0.001859
1774.000000	0.001993
1773.000000	0.002353
1772.000000	0.002920
1771.000000	0.003443
1770.000000	0.003875
1769.000000	0.004454
1768.000000	0.005369
1767.000000	0.006539
1766.000000	0.007804
1765.000000	0.009205
1764.000000	0.010945
1763.000000	0.013196
1762.000000	0.015981
1761.000000	0.019158
1760.000000	0.022655
1759.000000	0.026607
1758.000000	0.031371
1757.000000	0.037172
1756.000000	0.043512
1755.000000	0.049586
1754.000000	0.055319
1753.000000	0.061398
1752.000000	0.068427
1751.000000	0.076095
1750.000000	0.083463
1749.000000	0.089974
1748.000000	0.095341
1747.000000	0.099228
1746.000000	0.101620
1745.000000	0.102727
1744.000000	0.102581
1743.000000	0.101137
1742.000000	0.098513
1741.000000	0.094772
1740.000000	0.089821
1739.000000	0.084076
1738.000000	0.078536
1737.000000	0.073531
1736.000000	0.068370
1735.000000	0.062205
1734.000000	0.055406
1733.000000	0.049772
1732.000000	0.046086
1731.000000	0.043503
1730.000000	0.041090
1729.000000	0.038609
1728.000000	0.036189
1727.000000	0.033947
1726.000000	0.031901
1725.000000	0.029993
1724.000000	0.028179
1723.000000	0.026482
1722.000000	0.024998
1721.000000	0.023718
1720.000000	0.022433
1719.000000	0.020948
1718.000000	0.019332
1717.000000	0.017992
1716.000000	0.017261
1715.000000	0.017035
1714.000000	0.017006
1713.000000	0.016987
1712.000000	0.016930
1711.000000	0.016839
1710.000000	0.016763
1709.000000	0.016772
1708.000000	0.016902
1707.000000	0.017147
1706.000000	0.017454
1705.000000	0.017695
1704.000000	0.017722
1703.000000	0.017557
1702.000000	0.017532
1701.000000	0.018069
1700.000000	0.018717
1699.000000	0.018812
1698.000000	0.018800
1697.000000	0.019193
1696.000000	0.020011
1695.000000	0.020933
1694.000000	0.021866
1693.000000	0.022949
1692.000000	0.023992
1691.000000	0.024787
1690.000000	0.025397
1689.000000	0.025895
1688.000000	0.026158
1687.000000	0.026124
1686.000000	0.026166
1685.000000	0.026959
1684.000000	0.028396
1683.000000	0.029680
1682.000000	0.030800
1681.000000	0.032030
1680.000000	0.033262
1679.000000	0.034324
1678.000000	0.035242
1677.000000	0.036260
1676.000000	0.037574
1675.000000	0.038958
1674.000000	0.040101
1673.000000	0.041138
1672.000000	0.042315
1671.000000	0.043660
1670.000000	0.045114
1669.000000	0.046522
1668.000000	0.047731
1667.000000	0.048773
1666.000000	0.049787
1665.000000	0.050919
1664.000000	0.052262
1663.000000	0.053663
1662.000000	0.054865
1661.000000	0.055861
1660.000000	0.056799
1659.000000	0.057693
1658.000000	0.058440
1657.000000	0.058892
1656.000000	0.058932
1655.000000	0.058785
1654.000000	0.059107
1653.000000	0.059914
1652.000000	0.060401
1651.000000	0.061047
1650.000000	0.062203
1649.000000	0.063248
1648.000000	0.063904
1647.000000	0.064233
1646.000000	0.064295
1645.000000	0.064345
1644.000000	0.064684
1643.000000	0.065220
1642.000000	0.065707
1641.000000	0.066077
1640.000000	0.066351
1639.000000	0.066493
1638.000000	0.066517
1637.000000	0.066660
1636.000000	0.067038
1635.000000	0.067316
1634.000000	0.067309
1633.000000	0.067318
1632.000000	0.067406
1631.000000	0.067400
1630.000000	0.067259
1629.000000	0.067006
1628.000000	0.066564
1627.000000	0.065854
1626.000000	0.064956
1625.000000	0.063988
1624.000000	0.062928
1623.000000	0.061636
1622.000000	0.060155
1621.000000	0.058693
1620.000000	0.057271
1619.000000	0.055704
1618.000000	0.053880
1617.000000	0.051887
1616.000000	0.049981
1615.000000	0.048494
1614.000000	0.047439
1613.000000	0.046449
1612.000000	0.045235
1611.000000	0.043819
1610.000000	0.042378
1609.000000	0.040999
1608.000000	0.039673
1607.000000	0.038414
1606.000000	0.037272
1605.000000	0.036232
1604.000000	0.035236
1603.000000	0.034289
1602.000000	0.033436
1601.000000	0.032682
1600.000000	0.031996
1599.000000	0.031381
1598.000000	0.030868
1597.000000	0.030437
1596.000000	0.030049
1595.000000	0.029710
1594.000000	0.029460
1593.000000	0.029292
1592.000000	0.029170
1591.000000	0.029105
1590.000000	0.029137
1589.000000	0.029255
1588.000000	0.029413
1587.000000	0.029616
1586.000000	0.029900
1585.000000	0.030260
1584.000000	0.030647
1583.000000	0.031080
1582.000000	0.031603
1581.000000	0.032164
1580.000000	0.032604
1579.000000	0.032828
1578.000000	0.032960
1577.000000	0.033293
1576.000000	0.033917
1575.000000	0.034682
1574.000000	0.035576
1573.000000	0.036517
1572.000000	0.037364
1571.000000	0.038221
1570.000000	0.039194
1569.000000	0.040098
1568.000000	0.040790
1567.000000	0.041480
1566.000000	0.042357
1565.000000	0.043322
1564.000000	0.044053
1563.000000	0.044297
1562.000000	0.044111
1561.000000	0.044033
1560.000000	0.044863
1559.000000	0.046478
1558.000000	0.047685
1557.000000	0.048357
1556.000000	0.049122
1555.000000	0.049962
1554.000000	0.050728
1553.000000	0.051400
1552.000000	0.052017
1551.000000	0.052586
1550.000000	0.053082
1549.000000	0.053490
1548.000000	0.053766
1547.000000	0.053900
1546.000000	0.053941
1545.000000	0.053955
1544.000000	0.053969
1543.000000	0.053984
1542.000000	0.053991
1541.000000	0.053992
1540.000000	0.053831
1539.000000	0.053370
1538.000000	0.052993
1537.000000	0.053053
1536.000000	0.053227
1535.000000	0.053123
1534.000000	0.052681
1533.000000	0.051988
1532.000000	0.051245
1531.000000	0.050616
1530.000000	0.050089
1529.000000	0.049551
1528.000000	0.048886
1527.000000	0.048088
1526.000000	0.047308
1525.000000	0.046655
1524.000000	0.046030
1523.000000	0.045224
1522.000000	0.044198
1521.000000	0.043195
1520.000000	0.042556
1519.000000	0.042350
1518.000000	0.042245
1517.000000	0.041882
1516.000000	0.041209
1515.000000	0.040411
1514.000000	0.039656
1513.000000	0.038924
1512.000000	0.038123
1511.000000	0.037174
1510.000000	0.036063
1509.000000	0.034828
1508.000000	0.033571
1507.000000	0.032390
1506.000000	0.031411
1505.000000	0.030801
1504.000000	0.030700
1503.000000	0.030782
1502.000000	0.030624
1501.000000	0.030199
1500.000000	0.029619
1499.000000	0.028865
1498.000000	0.027924
1497.000000	0.026978
1496.000000	0.026241
1495.000000	0.025776
1494.000000	0.025560
1493.000000	0.025455
1492.000000	0.025259
1491.000000	0.024849
1490.000000	0.024337
1489.000000	0.024050
1488.000000	0.024110
1487.000000	0.024308
1486.000000	0.024522
1485.000000	0.024827
1484.000000	0.025242
1483.000000	0.025729
1482.000000	0.026303
1481.000000	0.027023
1480.000000	0.027842
1479.000000	0.028684
1478.000000	0.029626
1477.000000	0.030797
1476.000000	0.032154
1475.000000	0.033693
1474.000000	0.035966
1473.000000	0.039761
1472.000000	0.044926
1471.000000	0.050388
1470.000000	0.055550
1469.000000	0.060294
1468.000000	0.064382
1467.000000	0.067540
1466.000000	0.069771
1465.000000	0.071268
1464.000000	0.072154
1463.000000	0.072614
1462.000000	0.072937
1461.000000	0.073257
1460.000000	0.073470
1459.000000	0.073548
1458.000000	0.073756
1457.000000	0.074201
1456.000000	0.074465
1455.000000	0.074485
1454.000000	0.074404
1453.000000	0.074020
1452.000000	0.073246
1451.000000	0.072285
1450.000000	0.071387
1449.000000	0.070654
1448.000000	0.070052
1447.000000	0.069526
1446.000000	0.069089
1445.000000	0.068723
1444.000000	0.068344
1443.000000	0.067876
1442.000000	0.067310
1441.000000	0.066655
1440.000000	0.065851
1439.000000	0.064817
1438.000000	0.063564
1437.000000	0.062213
1436.000000	0.060952
1435.000000	0.059993
1434.000000	0.059310
1433.000000	0.058630
1432.000000	0.057753
1431.000000	0.056701
1430.000000	0.055599
1429.000000	0.054576
1428.000000	0.053727
1427.000000	0.053074
1426.000000	0.052598
1425.000000	0.052270
1424.000000	0.052074
1423.000000	0.051949
1422.000000	0.051794
1421.000000	0.051615
1420.000000	0.051532
1419.000000	0.051561
1418.000000	0.051606
1417.000000	0.051646
1416.000000	0.051593
1415.000000	0.051275
1414.000000	0.050636
1413.000000	0.049764
1412.000000	0.048814
1411.000000	0.047930
1410.000000	0.047195
1409.000000	0.046628
1408.000000	0.046220
1407.000000	0.045941
1406.000000	0.045775
1405.000000	0.045693
1404.000000	0.045643
1403.000000	0.045563
1402.000000	0.045397
1401.000000	0.045115
1400.000000	0.044712
1399.000000	0.044220
1398.000000	0.043710
1397.000000	0.043251
1396.000000	0.042875
1395.000000	0.042591
1394.000000	0.042420
1393.000000	0.042365
1392.000000	0.042402
1391.000000	0.042439
1390.000000	0.042386
1389.000000	0.042287
1388.000000	0.042304
1387.000000	0.042583
1386.000000	0.043145
1385.000000	0.043907
1384.000000	0.044758
1383.000000	0.045630
1382.000000	0.046504
1381.000000	0.047387
1380.000000	0.048220
1379.000000	0.048826
1378.000000	0.049011
1377.000000	0.048701
1376.000000	0.047941
1375.000000	0.046853
1374.000000	0.045654
1373.000000	0.044587
1372.000000	0.043755
1371.000000	0.043075
1370.000000	0.042427
1369.000000	0.041760
1368.000000	0.041082
1367.000000	0.040394
1366.000000	0.039648
1365.000000	0.038794
1364.000000	0.037841
1363.000000	0.036891
1362.000000	0.036106
1361.000000	0.035575
1360.000000	0.035251
1359.000000	0.035029
1358.000000	0.034844
1357.000000	0.034689
1356.000000	0.034582
1355.000000	0.034529
1354.000000	0.034537
1353.000000	0.034613
1352.000000	0.034748
1351.000000	0.034904
1350.000000	0.035053
1349.000000	0.035202
1348.000000	0.035376
1347.000000	0.035583
1346.000000	0.035816
1345.000000	0.036060
1344.000000	0.036286
1343.000000	0.036434
1342.000000	0.036447
1341.000000	0.036329
1340.000000	0.036161
1339.000000	0.036043
1338.000000	0.036008
1337.000000	0.036005
1336.000000	0.035949
1335.000000	0.035785
1334.000000	0.035510
1333.000000	0.035161
1332.000000	0.034773
1331.000000	0.034370
1330.000000	0.033985
1329.000000	0.033666
1328.000000	0.033449
1327.000000	0.033326
1326.000000	0.033273
1325.000000	0.033273
1324.000000	0.033320
1323.000000	0.033394
1322.000000	0.033468
1321.000000	0.033529
1320.000000	0.033577
1319.000000	0.033603
1318.000000	0.033599
1317.000000	0.033565
1316.000000	0.033499
1315.000000	0.033386
1314.000000	0.033226
1313.000000	0.033053
1312.000000	0.032897
1311.000000	0.032756
1310.000000	0.032607
1309.000000	0.032451
1308.000000	0.032308
1307.000000	0.032186
1306.000000	0.032082
1305.000000	0.031995
1304.000000	0.031922
1303.000000	0.031846
1302.000000	0.031748
1301.000000	0.031625
1300.000000	0.031483
1299.000000	0.031323
1298.000000	0.031159
1297.000000	0.031028
1296.000000	0.030972
1295.000000	0.031003
1294.000000	0.031114
1293.000000	0.031296
1292.000000	0.031541
1291.000000	0.031831
1290.000000	0.032163
1289.000000	0.032568
1288.000000	0.033070
1287.000000	0.033655
1286.000000	0.034281
1285.000000	0.034913
1284.000000	0.035526
1283.000000	0.036083
1282.000000	0.036559
1281.000000	0.036954
1280.000000	0.037270
1279.000000	0.037491
1278.000000	0.037614
1277.000000	0.037672
1276.000000	0.037710
1275.000000	0.037740
1274.000000	0.037762
1273.000000	0.037801
1272.000000	0.037897
1271.000000	0.038076
1270.000000	0.038340
1269.000000	0.038676
1268.000000	0.039055
1267.000000	0.039436
1266.000000	0.039797
1265.000000	0.040153
1264.000000	0.040528
1263.000000	0.040930
1262.000000	0.041366
1261.000000	0.041855
1260.000000	0.042398
1259.000000	0.042966
1258.000000	0.043535
1257.000000	0.044102
1256.000000	0.044661
1255.000000	0.045199
1254.000000	0.045741
1253.000000	0.046357
1252.000000	0.047103
1251.000000	0.047962
1250.000000	0.048892
1249.000000	0.049871
1248.000000	0.050878
1247.000000	0.051874
1246.000000	0.052826
1245.000000	0.053728
1244.000000	0.054572
1243.000000	0.055326
1242.000000	0.055976
1241.000000	0.056540
1240.000000	0.057020
1239.000000	0.057375
1238.000000	0.057581
1237.000000	0.057657
1236.000000	0.057619
1235.000000	0.057456
1234.000000	0.057160
1233.000000	0.056762
1232.000000	0.056284
1231.000000	0.055717
1230.000000	0.055059
1229.000000	0.054331
1228.000000	0.053539
1227.000000	0.052665
1226.000000	0.051710
1225.000000	0.050723
1224.000000	0.049741
1223.000000	0.048765
1222.000000	0.047793
1221.000000	0.046860
1220.000000	0.046003
1219.000000	0.045235
1218.000000	0.044571
1217.000000	0.044040
1216.000000	0.043654
1215.000000	0.043392
1214.000000	0.043233
1213.000000	0.043182
1212.000000	0.043247
1211.000000	0.043405
1210.000000	0.043627
1209.000000	0.043901
1208.000000	0.044218
1207.000000	0.044555
1206.000000	0.044902
1205.000000	0.045268
1204.000000	0.045655
1203.000000	0.046042
1202.000000	0.046416
1201.000000	0.046787
1200.000000	0.047149
1199.000000	0.047474
1198.000000	0.047755
1197.000000	0.048024
1196.000000	0.048307
1195.000000	0.048598
1194.000000	0.048900
1193.000000	0.049240
1192.000000	0.049621
1191.000000	0.050011
1190.000000	0.050400
1189.000000	0.050833
1188.000000	0.051363
1187.000000	0.051999
1186.000000	0.052736
1185.000000	0.053586
1184.000000	0.054548
1183.000000	0.055592
1182.000000	0.056708
1181.000000	0.057922
1180.000000	0.059241
1179.000000	0.060620
1178.000000	0.062012
1177.000000	0.063420
1176.000000	0.064845
1175.000000	0.066260
1174.000000	0.067647
1173.000000	0.069019
1172.000000	0.070371
1171.000000	0.071660
1170.000000	0.072863
1169.000000	0.074007
1168.000000	0.075096
1167.000000	0.076085
1166.000000	0.076948
1165.000000	0.077701
1164.000000	0.078344
1163.000000	0.078816
1162.000000	0.079080
1161.000000	0.079151
1160.000000	0.079035
1159.000000	0.078702
1158.000000	0.078155
1157.000000	0.077452
1156.000000	0.076636
1155.000000	0.075698
1154.000000	0.074657
1153.000000	0.073588
1152.000000	0.072548
1151.000000	0.071536
1150.000000	0.070545
1149.000000	0.069598
1148.000000	0.068687
1147.000000	0.067745
1146.000000	0.066723
1145.000000	0.065612
1144.000000	0.064380
1143.000000	0.062943
1142.000000	0.061238
1141.000000	0.059268
1140.000000	0.057054
1139.000000	0.054612
1138.000000	0.051996
1137.000000	0.049327
1136.000000	0.046720
1135.000000	0.044247
1134.000000	0.041972
1133.000000	0.039990
1132.000000	0.038371
1131.000000	0.037130
1130.000000	0.036265
1129.000000	0.035791
1128.000000	0.035716
1127.000000	0.035995
1126.000000	0.036552
1125.000000	0.037341
1124.000000	0.038317
1123.000000	0.039410
1122.000000	0.040532
1121.000000	0.041609
1120.000000	0.042563
1119.000000	0.043312
1118.000000	0.043807
1117.000000	0.044047
1116.000000	0.044042
1115.000000	0.043793
1114.000000	0.043354
1113.000000	0.042827
1112.000000	0.042287
1111.000000	0.041745
1110.000000	0.041217
1109.000000	0.040779
1108.000000	0.040498
1107.000000	0.040388
1106.000000	0.040440
1105.000000	0.040671
1104.000000	0.041079
1103.000000	0.041592
1102.000000	0.042126
1101.000000	0.042641
1100.000000	0.043117
1099.000000	0.043508
1098.000000	0.043777
1097.000000	0.043927
1096.000000	0.043969
1095.000000	0.043895
1094.000000	0.043711
1093.000000	0.043464
1092.000000	0.043193
1091.000000	0.042899
1090.000000	0.042585
1089.000000	0.042292
1088.000000	0.042046
1087.000000	0.041819
1086.000000	0.041576
1085.000000	0.041309
1084.000000	0.041000
1083.000000	0.040595
1082.000000	0.040055
1081.000000	0.039386
1080.000000	0.038603
1079.000000	0.037707
1078.000000	0.036725
1077.000000	0.035720
1076.000000	0.034733
1075.000000	0.033763
1074.000000	0.032839
1073.000000	0.032043
1072.000000	0.031425
1071.000000	0.030954
1070.000000	0.030575
1069.000000	0.030285
1068.000000	0.030096
1067.000000	0.029991
1066.000000	0.029934
1065.000000	0.029910
1064.000000	0.029899
1063.000000	0.029856
1062.000000	0.029742
1061.000000	0.029567
1060.000000	0.029345
1059.000000	0.029065
1058.000000	0.028724
1057.000000	0.028351
1056.000000	0.027968
1055.000000	0.027565
1054.000000	0.027138
1053.000000	0.026726
1052.000000	0.026363
1051.000000	0.026041
1050.000000	0.025744
1049.000000	0.025485
1048.000000	0.025271
1047.000000	0.025078
1046.000000	0.024892
1045.000000	0.024730
1044.000000	0.024609
1043.000000	0.024519
1042.000000	0.024472
1041.000000	0.024507
1040.000000	0.024639
1039.000000	0.024838
1038.000000	0.025092
1037.000000	0.025428
1036.000000	0.025840
1035.000000	0.026254
1034.000000	0.026592
1033.000000	0.026844
1032.000000	0.027017
1031.000000	0.027085
1030.000000	0.027025
1029.000000	0.026858
1028.000000	0.026608
1027.000000	0.026267
1026.000000	0.025849
1025.000000	0.025417
1024.000000	0.025021
1023.000000	0.024653
1022.000000	0.024298
1021.000000	0.023973
1020.000000	0.023689
1019.000000	0.023421
1018.000000	0.023152
1017.000000	0.022894
1016.000000	0.022627
1015.000000	0.022280
1014.000000	0.021814
1013.000000	0.021276
1012.000000	0.020729
1011.000000	0.020173
1010.000000	0.019592
1009.000000	0.019011
1008.000000	0.018460
1007.000000	0.017931
1006.000000	0.017413
1005.000000	0.016931
1004.000000	0.016502
1003.000000	0.016089
1002.000000	0.015651
1001.000000	0.015195
1000.000000	0.014756
999.000000	0.014342
998.000000	0.013938
997.000000	0.013551
996.000000	0.013187
995.000000	0.012839
994.000000	0.012504
993.000000	0.012208
992.000000	0.011960
991.000000	0.011740
990.000000	0.011541
989.000000	0.011388
988.000000	0.011278
987.000000	0.011170
986.000000	0.011041
985.000000	0.010930
984.000000	0.010868
983.000000	0.010841
982.000000	0.010834
981.000000	0.010888
980.000000	0.011031
979.000000	0.011227
978.000000	0.011429
977.000000	0.011639
976.000000	0.011877
975.000000	0.012126
974.000000	0.012363
973.000000	0.012600
972.000000	0.012848
971.000000	0.013071
970.000000	0.013225
969.000000	0.013301
968.000000	0.013298
967.000000	0.013179
966.000000	0.012919
965.000000	0.012541
964.000000	0.012079
963.000000	0.011530
962.000000	0.010900
961.000000	0.010238
960.000000	0.009594
959.000000	0.008971
958.000000	0.008364
957.000000	0.007799
956.000000	0.007295
955.000000	0.006824
954.000000	0.006369
953.000000	0.005957
952.000000	0.005613
951.000000	0.005312
950.000000	0.005024
949.000000	0.004771
948.000000	0.004579
947.000000	0.004426
946.000000	0.004278
945.000000	0.004142
944.000000	0.004034
943.000000	0.003935
942.000000	0.003815
941.000000	0.003678
940.000000	0.003523
939.000000	0.003322
938.000000	0.003061
937.000000	0.002771
936.000000	0.002482
935.000000	0.002191
934.000000	0.001903
933.000000	0.001659
932.000000	0.001476
931.000000	0.001310
930.000000	0.001129
929.000000	0.000961
928.000000	0.000829
927.000000	0.000697
926.000000	0.000538
925.000000	0.000393
924.000000	0.000315
923.000000	0.000277
922.000000	0.000223
921.000000	0.000142
920.000000	0.000055
919.000000	-0.000051
918.000000	-0.000202
917.000000	-0.000378
916.000000	-0.000548
915.000000	-0.000714
914.000000	-0.000892
913.000000	-0.001056
912.000000	-0.001177
911.000000	-0.001267
910.000000	-0.001349
909.000000	-0.001403
908.000000	-0.001408
907.000000	-0.001386
906.000000	-0.001373
905.000000	-0.001366
904.000000	-0.001355
903.000000	-0.001354
902.000000	-0.001379
901.000000	-0.001410
900.000000	-0.001439
899.000000	-0.001498
898.000000	-0.001594
897.000000	-0.001669
896.000000	-0.001678
895.000000	-0.001654
894.000000	-0.001644
893.000000	-0.001633
892.000000	-0.001585
891.000000	-0.001519
890.000000	-0.001469
889.000000	-0.001416
888.000000	-0.001314
887.000000	-0.001142
886.000000	-0.000887
885.000000	-0.000505
884.000000	0.000038
883.000000	0.000737
882.000000	0.001624
881.000000	0.002806
880.000000	0.004369
879.000000	0.006236
878.000000	0.008191
877.000000	0.009958
876.000000	0.011247
875.000000	0.011779
874.000000	0.011415
873.000000	0.010260
872.000000	0.008596
871.000000	0.006757
870.000000	0.005054
869.000000	0.003708
868.000000	0.002762
867.000000	0.002107
866.000000	0.001620
865.000000	0.001267
864.000000	0.001035
863.000000	0.000858
862.000000	0.000687
861.000000	0.000558
860.000000	0.000515
859.000000	0.000531
858.000000	0.000555
857.000000	0.000585
856.000000	0.000634
855.000000	0.000675
854.000000	0.000688
853.000000	0.000698
852.000000	0.000728
851.000000	0.000745
850.000000	0.000719
849.000000	0.000664
848.000000	0.000578
847.000000	0.000421
846.000000	0.000200
845.000000	-0.000004
844.000000	-0.000146
843.000000	-0.000284
842.000000	-0.000481
841.000000	-0.000711
840.000000	-0.000919
839.000000	-0.001098
838.000000	-0.001237
837.000000	-0.001299
836.000000	-0.001296
835.000000	-0.001327
834.000000	-0.001449
833.000000	-0.001588
832.000000	-0.001657
831.000000	-0.001671
830.000000	-0.001683
829.000000	-0.001682
828.000000	-0.001643
827.000000	-0.001603
826.000000	-0.001599
825.000000	-0.001592
824.000000	-0.001552
823.000000	-0.001528
822.000000	-0.001559
821.000000	-0.001588
820.000000	-0.001548
819.000000	-0.001461
818.000000	-0.001373
817.000000	-0.001270
816.000000	-0.001145
815.000000	-0.001068
814.000000	-0.001097
813.000000	-0.001182
812.000000	-0.001244
811.000000	-0.001277
810.000000	-0.001310
809.000000	-0.001335
808.000000	-0.001360
807.000000	-0.001431
806.000000	-0.001552
805.000000	-0.001642
804.000000	-0.001652
803.000000	-0.001639
802.000000	-0.001659
801.000000	-0.001670
800.000000	-0.001627
799.000000	-0.001581
798.000000	-0.001588
797.000000	-0.001603
796.000000	-0.001557
795.000000	-0.001468
794.000000	-0.001396
793.000000	-0.001341
792.000000	-0.001282
791.000000	-0.001222
790.000000	-0.001147
789.000000	-0.001008
788.000000	-0.000821
787.000000	-0.000685
786.000000	-0.000645
785.000000	-0.000612
784.000000	-0.000503
783.000000	-0.000359
782.000000	-0.000253
781.000000	-0.000170
780.000000	-0.000071
779.000000	0.000029
778.000000	0.000111
777.000000	0.000220
776.000000	0.000378
775.000000	0.000515
774.000000	0.000571
773.000000	0.000588
772.000000	0.000638
771.000000	0.000726
770.000000	0.000852
769.000000	0.001059
768.000000	0.001347
767.000000	0.001626
766.000000	0.001822
765.000000	0.001967
764.000000	0.002095
763.000000	0.002161
762.000000	0.002144
761.000000	0.002131
760.000000	0.002201
759.000000	0.002316
758.000000	0.002413
757.000000	0.002521
756.000000	0.002684
755.000000	0.002861
754.000000	0.003008
753.000000	0.003174
752.000000	0.003405
751.000000	0.003653
750.000000	0.003863
749.000000	0.004088
748.000000	0.004396
747.000000	0.004756
746.000000	0.005108
745.000000	0.005471
744.000000	0.005887
743.000000	0.006326
742.000000	0.006750
741.000000	0.007191
740.000000	0.007683
739.000000	0.008195
738.000000	0.008711
737.000000	0.009290
736.000000	0.009960
735.000000	0.010643
734.000000	0.011282
733.000000	0.011965
732.000000	0.012810
731.000000	0.013814
730.000000	0.014917
729.000000	0.016116
728.000000	0.017436
727.000000	0.018827
726.000000	0.020218
725.000000	0.021570
724.000000	0.022809
723.000000	0.023778
722.000000	0.024347
721.000000	0.024505
720.000000	0.024285
719.000000	0.023716
718.000000	0.022917
717.000000	0.022123
716.000000	0.021518
715.000000	0.021100
714.000000	0.020756
713.000000	0.020405
712.000000	0.019980
711.000000	0.019415
710.000000	0.018742
709.000000	0.018134
708.000000	0.017723
707.000000	0.017456
706.000000	0.017226
705.000000	0.017028
704.000000	0.016884
703.000000	0.016738
702.000000	0.016549
701.000000	0.016390
700.000000	0.016340
699.000000	0.016338
698.000000	0.016275
697.000000	0.016142
696.000000	0.015987
695.000000	0.015827
694.000000	0.015679
693.000000	0.015601
692.000000	0.015601
691.000000	0.015572
690.000000	0.015440
689.000000	0.015279
688.000000	0.015187
687.000000	0.015138
686.000000	0.015066
685.000000	0.014989
684.000000	0.014950
683.000000	0.014914
682.000000	0.014847
681.000000	0.014791
680.000000	0.014776
679.000000	0.014737
678.000000	0.014626
677.000000	0.014536
676.000000	0.014547
675.000000	0.014609
674.000000	0.014646
673.000000	0.014672
672.000000	0.014691
671.000000	0.014621
670.000000	0.014413
669.000000	0.014172
668.000000	0.014182
667.000000	0.014517
666.000000	0.014695
665.000000	0.014729
664.000000	0.014817
663.000000	0.014892
662.000000	0.014832
661.000000	0.014701
660.000000	0.014629
659.000000	0.014608
658.000000	0.014568
657.000000	0.014540
656.000000	0.014528
655.000000	0.014443
654.000000	0.014281
653.000000	0.014186
652.000000	0.014205
651.000000	0.014210
650.000000	0.014146
649.000000	0.014147
648.000000	0.014254
647.000000	0.014276
646.000000	0.014117
645.000000	0.013949
644.000000	0.013923
643.000000	0.013932
642.000000	0.013844
641.000000	0.013747
640.000000	0.013771
639.000000	0.013845
638.000000	0.013845
637.000000	0.013808
636.000000	0.013802
635.000000	0.013760
634.000000	0.013623
633.000000	0.013481
632.000000	0.013418
631.000000	0.013370
630.000000	0.013293
629.000000	0.013296
628.000000	0.013440
627.000000	0.013588
626.000000	0.013629
625.000000	0.013664
624.000000	0.013797
623.000000	0.013931
622.000000	0.013934
621.000000	0.013850
620.000000	0.013765
619.000000	0.013653
618.000000	0.013515
617.000000	0.013494
616.000000	0.013664
615.000000	0.013869
614.000000	0.013947
613.000000	0.013938
612.000000	0.013919
611.000000	0.013847
610.000000	0.013724
609.000000	0.013704
608.000000	0.013866
607.000000	0.014038
606.000000	0.014057
605.000000	0.013998
604.000000	0.013966
603.000000	0.013912
602.000000	0.013810
601.000000	0.013793
600.000000	0.013922
599.000000	0.014035
598.000000	0.014023
597.000000	0.014030
596.000000	0.014162
595.000000	0.014273
594.000000	0.014234
593.000000	0.014189
592.000000	0.014302
591.000000	0.014459
590.000000	0.014501
589.000000	0.014501
588.000000	0.014575
587.000000	0.014634
586.000000	0.014579
585.000000	0.014508
584.000000	0.014503
583.000000	0.014427
582.000000	0.014205
581.000000	0.014055
580.000000	0.014171
579.000000	0.014386
578.000000	0.014442
577.000000	0.014374
576.000000	0.014369
575.000000	0.014443
574.000000	0.014531
573.000000	0.014672
572.000000	0.014856
571.000000	0.014912
570.000000	0.014786
569.000000	0.014716
568.000000	0.014860
567.000000	0.015026
566.000000	0.015025
565.000000	0.014995
564.000000	0.015110
563.000000	0.015256
562.000000	0.015298
561.000000	0.015355
560.000000	0.015509
559.000000	0.015541
558.000000	0.015282
557.000000	0.014958
556.000000	0.014850
555.000000	0.014863
554.000000	0.014768
553.000000	0.014602
552.000000	0.014519
551.000000	0.014490
550.000000	0.014465
549.000000	0.014545
548.000000	0.014703
547.000000	0.014639
546.000000	0.014226
545.000000	0.013786
544.000000	0.013596
543.000000	0.013475
542.000000	0.013192
541.000000	0.012937
540.000000	0.012989
539.000000	0.013256
538.000000	0.013527
537.000000	0.013872
536.000000	0.014391
535.000000	0.014816
534.000000	0.014857
533.000000	0.014694
532.000000	0.014685
531.000000	0.014819
530.000000	0.014852
529.000000	0.014763
528.000000	0.014686
527.000000	0.014576
526.000000	0.014327
525.000000	0.014072
524.000000	0.013956
523.000000	0.013841
522.000000	0.013550
521.000000	0.013158
520.000000	0.012757
519.000000	0.012209
518.000000	0.011451
517.000000	0.010768
516.000000	0.010398
515.000000	0.010159
514.000000	0.009832
513.000000	0.009532
512.000000	0.009410
511.000000	0.009311
510.000000	0.009070
509.000000	0.008828
508.000000	0.008738
507.000000	0.008613
506.000000	0.008253
505.000000	0.007804
504.000000	0.007460
503.000000	0.007135
502.000000	0.006755
501.000000	0.006539
500.000000	0.006594
499.000000	0.006619
498.000000	0.006360
497.000000	0.006012
496.000000	0.005827
495.000000	0.005671
494.000000	0.005336
493.000000	0.004968
492.000000	0.004786
491.000000	0.004683
490.000000	0.004501
489.000000	0.004375
488.000000	0.004396
487.000000	0.004304
486.000000	0.003907
485.000000	0.003492
484.000000	0.003397
483.000000	0.003459
482.000000	0.003378
481.000000	0.003248
480.000000	0.003262
479.000000	0.003254
478.000000	0.003021
477.000000	0.002767
476.000000	0.002739
475.000000	0.002725
474.000000	0.002435
473.000000	0.002066
472.000000	0.001978
471.000000	0.002049
470.000000	0.001992
469.000000	0.001930
468.000000	0.002080
467.000000	0.002291
466.000000	0.002358
465.000000	0.002432
464.000000	0.002602
463.000000	0.002499
462.000000	0.001852
461.000000	0.001025
460.000000	0.000447
459.000000	-0.000003
458.000000	-0.000530
457.000000	-0.000797
456.000000	-0.000542
455.000000	-0.000258
454.000000	-0.000429
453.000000	-0.000831
452.000000	-0.001051
451.000000	-0.001230
450.000000	-0.001631
