PE IR       SUBTECH     SPECTRUM    ASCII       PEDS        4.00        
   -1
3S-H10-F016_1.ASC
22/02/18
10:57:19.00
22/02/18
11:02:52.00
uco
Sample 016 By uco Date Friday, February 18 2022
450.000000
#HDR
-1
-1
#GR
cm-1
A
1.0
0.0
4000.000000
-1.000000
3551
8
0.042682
0.002779
#DATA
4000.000000	0.003267
3999.000000	0.003274
3998.000000	0.003276
3997.000000	0.003278
3996.000000	0.003281
3995.000000	0.003268
3994.000000	0.003273
3993.000000	0.003275
3992.000000	0.003272
3991.000000	0.003269
3990.000000	0.003270
3989.000000	0.003280
3988.000000	0.003295
3987.000000	0.003306
3986.000000	0.003312
3985.000000	0.003315
3984.000000	0.003323
3983.000000	0.003336
3982.000000	0.003345
3981.000000	0.003340
3980.000000	0.003321
3979.000000	0.003300
3978.000000	0.003294
3977.000000	0.003309
3976.000000	0.003341
3975.000000	0.003378
3974.000000	0.003406
3973.000000	0.003415
3972.000000	0.003403
3971.000000	0.003381
3970.000000	0.003360
3969.000000	0.003350
3968.000000	0.003349
3967.000000	0.003348
3966.000000	0.003341
3965.000000	0.003326
3964.000000	0.003310
3963.000000	0.003297
3962.000000	0.003288
3961.000000	0.003281
3960.000000	0.003278
3959.000000	0.003285
3958.000000	0.003304
3957.000000	0.003333
3956.000000	0.003362
3955.000000	0.003382
3954.000000	0.003394
3953.000000	0.003404
3952.000000	0.003418
3951.000000	0.003433
3950.000000	0.003440
3949.000000	0.003436
3948.000000	0.003426
3947.000000	0.003416
3946.000000	0.003412
3945.000000	0.003408
3944.000000	0.003398
3943.000000	0.003382
3942.000000	0.003364
3941.000000	0.003352
3940.000000	0.003350
3939.000000	0.003355
3938.000000	0.003364
3937.000000	0.003374
3936.000000	0.003384
3935.000000	0.003394
3934.000000	0.003403
3933.000000	0.003408
3932.000000	0.003408
3931.000000	0.003402
3930.000000	0.003395
3929.000000	0.003393
3928.000000	0.003397
3927.000000	0.003404
3926.000000	0.003408
3925.000000	0.003410
3924.000000	0.003414
3923.000000	0.003428
3922.000000	0.003450
3921.000000	0.003468
3920.000000	0.003472
3919.000000	0.003460
3918.000000	0.003442
3917.000000	0.003429
3916.000000	0.003422
3915.000000	0.003413
3914.000000	0.003396
3913.000000	0.003366
3912.000000	0.003332
3911.000000	0.003301
3910.000000	0.003281
3909.000000	0.003276
3908.000000	0.003287
3907.000000	0.003313
3906.000000	0.003352
3905.000000	0.003403
3904.000000	0.003455
3903.000000	0.003496
3902.000000	0.003517
3901.000000	0.003520
3900.000000	0.003511
3899.000000	0.003497
3898.000000	0.003482
3897.000000	0.003470
3896.000000	0.003461
3895.000000	0.003452
3894.000000	0.003439
3893.000000	0.003424
3892.000000	0.003413
3891.000000	0.003410
3890.000000	0.003414
3889.000000	0.003422
3888.000000	0.003428
3887.000000	0.003430
3886.000000	0.003430
3885.000000	0.003429
3884.000000	0.003423
3883.000000	0.003409
3882.000000	0.003389
3881.000000	0.003370
3880.000000	0.003358
3879.000000	0.003356
3878.000000	0.003365
3877.000000	0.003384
3876.000000	0.003409
3875.000000	0.003434
3874.000000	0.003449
3873.000000	0.003449
3872.000000	0.003436
3871.000000	0.003421
3870.000000	0.003413
3869.000000	0.003403
3868.000000	0.003381
3867.000000	0.003346
3866.000000	0.003309
3865.000000	0.003286
3864.000000	0.003289
3863.000000	0.003310
3862.000000	0.003330
3861.000000	0.003343
3860.000000	0.003356
3859.000000	0.003385
3858.000000	0.003433
3857.000000	0.003485
3856.000000	0.003518
3855.000000	0.003526
3854.000000	0.003537
3853.000000	0.003558
3852.000000	0.003566
3851.000000	0.003552
3850.000000	0.003522
3849.000000	0.003484
3848.000000	0.003448
3847.000000	0.003421
3846.000000	0.003403
3845.000000	0.003388
3844.000000	0.003371
3843.000000	0.003355
3842.000000	0.003349
3841.000000	0.003356
3840.000000	0.003370
3839.000000	0.003383
3838.000000	0.003392
3837.000000	0.003399
3836.000000	0.003402
3835.000000	0.003398
3834.000000	0.003388
3833.000000	0.003374
3832.000000	0.003363
3831.000000	0.003358
3830.000000	0.003359
3829.000000	0.003365
3828.000000	0.003377
3827.000000	0.003393
3826.000000	0.003408
3825.000000	0.003412
3824.000000	0.003401
3823.000000	0.003380
3822.000000	0.003370
3821.000000	0.003383
3820.000000	0.003409
3819.000000	0.003432
3818.000000	0.003444
3817.000000	0.003450
3816.000000	0.003453
3815.000000	0.003452
3814.000000	0.003449
3813.000000	0.003447
3812.000000	0.003451
3811.000000	0.003461
3810.000000	0.003464
3809.000000	0.003447
3808.000000	0.003410
3807.000000	0.003369
3806.000000	0.003344
3805.000000	0.003339
3804.000000	0.003345
3803.000000	0.003350
3802.000000	0.003352
3801.000000	0.003352
3800.000000	0.003357
3799.000000	0.003369
3798.000000	0.003391
3797.000000	0.003412
3796.000000	0.003421
3795.000000	0.003413
3794.000000	0.003391
3793.000000	0.003366
3792.000000	0.003340
3791.000000	0.003311
3790.000000	0.003278
3789.000000	0.003245
3788.000000	0.003224
3787.000000	0.003227
3786.000000	0.003251
3785.000000	0.003281
3784.000000	0.003299
3783.000000	0.003302
3782.000000	0.003301
3781.000000	0.003312
3780.000000	0.003344
3779.000000	0.003387
3778.000000	0.003416
3777.000000	0.003416
3776.000000	0.003387
3775.000000	0.003344
3774.000000	0.003301
3773.000000	0.003272
3772.000000	0.003262
3771.000000	0.003271
3770.000000	0.003295
3769.000000	0.003326
3768.000000	0.003361
3767.000000	0.003395
3766.000000	0.003417
3765.000000	0.003416
3764.000000	0.003390
3763.000000	0.003346
3762.000000	0.003299
3761.000000	0.003261
3760.000000	0.003243
3759.000000	0.003241
3758.000000	0.003248
3757.000000	0.003259
3756.000000	0.003276
3755.000000	0.003298
3754.000000	0.003325
3753.000000	0.003359
3752.000000	0.003398
3751.000000	0.003432
3750.000000	0.003450
3749.000000	0.003457
3748.000000	0.003466
3747.000000	0.003473
3746.000000	0.003469
3745.000000	0.003449
3744.000000	0.003419
3743.000000	0.003388
3742.000000	0.003366
3741.000000	0.003355
3740.000000	0.003347
3739.000000	0.003334
3738.000000	0.003315
3737.000000	0.003296
3736.000000	0.003290
3735.000000	0.003298
3734.000000	0.003310
3733.000000	0.003316
3732.000000	0.003309
3731.000000	0.003294
3730.000000	0.003279
3729.000000	0.003276
3728.000000	0.003292
3727.000000	0.003332
3726.000000	0.003383
3725.000000	0.003426
3724.000000	0.003445
3723.000000	0.003437
3722.000000	0.003413
3721.000000	0.003383
3720.000000	0.003356
3719.000000	0.003332
3718.000000	0.003311
3717.000000	0.003294
3716.000000	0.003285
3715.000000	0.003280
3714.000000	0.003274
3713.000000	0.003263
3712.000000	0.003252
3711.000000	0.003247
3710.000000	0.003248
3709.000000	0.003258
3708.000000	0.003276
3707.000000	0.003297
3706.000000	0.003314
3705.000000	0.003321
3704.000000	0.003320
3703.000000	0.003317
3702.000000	0.003319
3701.000000	0.003324
3700.000000	0.003325
3699.000000	0.003320
3698.000000	0.003315
3697.000000	0.003320
3696.000000	0.003338
3695.000000	0.003362
3694.000000	0.003382
3693.000000	0.003394
3692.000000	0.003401
3691.000000	0.003412
3690.000000	0.003434
3689.000000	0.003457
3688.000000	0.003468
3687.000000	0.003465
3686.000000	0.003453
3685.000000	0.003434
3684.000000	0.003408
3683.000000	0.003374
3682.000000	0.003336
3681.000000	0.003306
3680.000000	0.003299
3679.000000	0.003320
3678.000000	0.003362
3677.000000	0.003421
3676.000000	0.003485
3675.000000	0.003530
3674.000000	0.003549
3673.000000	0.003559
3672.000000	0.003580
3671.000000	0.003618
3670.000000	0.003663
3669.000000	0.003689
3668.000000	0.003693
3667.000000	0.003691
3666.000000	0.003693
3665.000000	0.003699
3664.000000	0.003704
3663.000000	0.003707
3662.000000	0.003713
3661.000000	0.003724
3660.000000	0.003733
3659.000000	0.003732
3658.000000	0.003728
3657.000000	0.003738
3656.000000	0.003776
3655.000000	0.003837
3654.000000	0.003906
3653.000000	0.003972
3652.000000	0.004028
3651.000000	0.004074
3650.000000	0.004109
3649.000000	0.004126
3648.000000	0.004125
3647.000000	0.004127
3646.000000	0.004150
3645.000000	0.004193
3644.000000	0.004243
3643.000000	0.004287
3642.000000	0.004316
3641.000000	0.004327
3640.000000	0.004323
3639.000000	0.004313
3638.000000	0.004311
3637.000000	0.004332
3636.000000	0.004378
3635.000000	0.004437
3634.000000	0.004490
3633.000000	0.004530
3632.000000	0.004560
3631.000000	0.004593
3630.000000	0.004642
3629.000000	0.004699
3628.000000	0.004730
3627.000000	0.004730
3626.000000	0.004723
3625.000000	0.004733
3624.000000	0.004770
3623.000000	0.004825
3622.000000	0.004880
3621.000000	0.004923
3620.000000	0.004950
3619.000000	0.004973
3618.000000	0.005000
3617.000000	0.005035
3616.000000	0.005072
3615.000000	0.005103
3614.000000	0.005125
3613.000000	0.005141
3612.000000	0.005156
3611.000000	0.005174
3610.000000	0.005198
3609.000000	0.005231
3608.000000	0.005275
3607.000000	0.005324
3606.000000	0.005371
3605.000000	0.005415
3604.000000	0.005461
3603.000000	0.005511
3602.000000	0.005567
3601.000000	0.005621
3600.000000	0.005671
3599.000000	0.005716
3598.000000	0.005763
3597.000000	0.005815
3596.000000	0.005871
3595.000000	0.005920
3594.000000	0.005957
3593.000000	0.005985
3592.000000	0.006011
3591.000000	0.006039
3590.000000	0.006068
3589.000000	0.006104
3588.000000	0.006159
3587.000000	0.006234
3586.000000	0.006311
3585.000000	0.006367
3584.000000	0.006391
3583.000000	0.006388
3582.000000	0.006379
3581.000000	0.006392
3580.000000	0.006441
3579.000000	0.006523
3578.000000	0.006619
3577.000000	0.006708
3576.000000	0.006780
3575.000000	0.006836
3574.000000	0.006883
3573.000000	0.006931
3572.000000	0.006985
3571.000000	0.007047
3570.000000	0.007113
3569.000000	0.007184
3568.000000	0.007256
3567.000000	0.007323
3566.000000	0.007375
3565.000000	0.007417
3564.000000	0.007463
3563.000000	0.007521
3562.000000	0.007589
3561.000000	0.007653
3560.000000	0.007705
3559.000000	0.007748
3558.000000	0.007794
3557.000000	0.007853
3556.000000	0.007925
3555.000000	0.008001
3554.000000	0.008074
3553.000000	0.008137
3552.000000	0.008189
3551.000000	0.008230
3550.000000	0.008263
3549.000000	0.008297
3548.000000	0.008338
3547.000000	0.008386
3546.000000	0.008435
3545.000000	0.008474
3544.000000	0.008505
3543.000000	0.008530
3542.000000	0.008554
3541.000000	0.008585
3540.000000	0.008631
3539.000000	0.008698
3538.000000	0.008778
3537.000000	0.008854
3536.000000	0.008910
3535.000000	0.008948
3534.000000	0.008980
3533.000000	0.009014
3532.000000	0.009049
3531.000000	0.009083
3530.000000	0.009123
3529.000000	0.009178
3528.000000	0.009253
3527.000000	0.009337
3526.000000	0.009416
3525.000000	0.009487
3524.000000	0.009550
3523.000000	0.009604
3522.000000	0.009649
3521.000000	0.009686
3520.000000	0.009725
3519.000000	0.009775
3518.000000	0.009838
3517.000000	0.009906
3516.000000	0.009965
3515.000000	0.010002
3514.000000	0.010020
3513.000000	0.010035
3512.000000	0.010070
3511.000000	0.010134
3510.000000	0.010215
3509.000000	0.010287
3508.000000	0.010334
3507.000000	0.010360
3506.000000	0.010383
3505.000000	0.010423
3504.000000	0.010483
3503.000000	0.010552
3502.000000	0.010614
3501.000000	0.010661
3500.000000	0.010698
3499.000000	0.010734
3498.000000	0.010774
3497.000000	0.010817
3496.000000	0.010858
3495.000000	0.010899
3494.000000	0.010944
3493.000000	0.010990
3492.000000	0.011033
3491.000000	0.011069
3490.000000	0.011102
3489.000000	0.011137
3488.000000	0.011176
3487.000000	0.011219
3486.000000	0.011262
3485.000000	0.011303
3484.000000	0.011344
3483.000000	0.011384
3482.000000	0.011428
3481.000000	0.011474
3480.000000	0.011522
3479.000000	0.011569
3478.000000	0.011616
3477.000000	0.011661
3476.000000	0.011706
3475.000000	0.011755
3474.000000	0.011805
3473.000000	0.011851
3472.000000	0.011886
3471.000000	0.011916
3470.000000	0.011949
3469.000000	0.011991
3468.000000	0.012036
3467.000000	0.012071
3466.000000	0.012093
3465.000000	0.012109
3464.000000	0.012131
3463.000000	0.012165
3462.000000	0.012206
3461.000000	0.012246
3460.000000	0.012285
3459.000000	0.012327
3458.000000	0.012377
3457.000000	0.012424
3456.000000	0.012459
3455.000000	0.012481
3454.000000	0.012508
3453.000000	0.012553
3452.000000	0.012613
3451.000000	0.012671
3450.000000	0.012715
3449.000000	0.012750
3448.000000	0.012790
3447.000000	0.012841
3446.000000	0.012901
3445.000000	0.012957
3444.000000	0.013000
3443.000000	0.013028
3442.000000	0.013051
3441.000000	0.013084
3440.000000	0.013133
3439.000000	0.013192
3438.000000	0.013252
3437.000000	0.013305
3436.000000	0.013354
3435.000000	0.013400
3434.000000	0.013443
3433.000000	0.013484
3432.000000	0.013521
3431.000000	0.013556
3430.000000	0.013586
3429.000000	0.013615
3428.000000	0.013646
3427.000000	0.013685
3426.000000	0.013728
3425.000000	0.013770
3424.000000	0.013808
3423.000000	0.013845
3422.000000	0.013884
3421.000000	0.013925
3420.000000	0.013969
3419.000000	0.014017
3418.000000	0.014076
3417.000000	0.014143
3416.000000	0.014211
3415.000000	0.014270
3414.000000	0.014314
3413.000000	0.014346
3412.000000	0.014372
3411.000000	0.014398
3410.000000	0.014426
3409.000000	0.014456
3408.000000	0.014493
3407.000000	0.014537
3406.000000	0.014580
3405.000000	0.014613
3404.000000	0.014630
3403.000000	0.014639
3402.000000	0.014662
3401.000000	0.014716
3400.000000	0.014803
3399.000000	0.014899
3398.000000	0.014974
3397.000000	0.015013
3396.000000	0.015024
3395.000000	0.015028
3394.000000	0.015040
3393.000000	0.015063
3392.000000	0.015097
3391.000000	0.015142
3390.000000	0.015200
3389.000000	0.015264
3388.000000	0.015328
3387.000000	0.015385
3386.000000	0.015434
3385.000000	0.015481
3384.000000	0.015531
3383.000000	0.015585
3382.000000	0.015640
3381.000000	0.015687
3380.000000	0.015724
3379.000000	0.015756
3378.000000	0.015788
3377.000000	0.015824
3376.000000	0.015863
3375.000000	0.015909
3374.000000	0.015968
3373.000000	0.016043
3372.000000	0.016122
3371.000000	0.016191
3370.000000	0.016239
3369.000000	0.016271
3368.000000	0.016301
3367.000000	0.016343
3366.000000	0.016406
3365.000000	0.016483
3364.000000	0.016563
3363.000000	0.016642
3362.000000	0.016720
3361.000000	0.016795
3360.000000	0.016860
3359.000000	0.016911
3358.000000	0.016952
3357.000000	0.016998
3356.000000	0.017055
3355.000000	0.017118
3354.000000	0.017180
3353.000000	0.017243
3352.000000	0.017319
3351.000000	0.017416
3350.000000	0.017527
3349.000000	0.017630
3348.000000	0.017709
3347.000000	0.017768
3346.000000	0.017823
3345.000000	0.017884
3344.000000	0.017947
3343.000000	0.018005
3342.000000	0.018057
3341.000000	0.018106
3340.000000	0.018155
3339.000000	0.018207
3338.000000	0.018267
3337.000000	0.018341
3336.000000	0.018424
3335.000000	0.018502
3334.000000	0.018569
3333.000000	0.018626
3332.000000	0.018683
3331.000000	0.018744
3330.000000	0.018806
3329.000000	0.018857
3328.000000	0.018890
3327.000000	0.018909
3326.000000	0.018932
3325.000000	0.018975
3324.000000	0.019042
3323.000000	0.019117
3322.000000	0.019185
3321.000000	0.019233
3320.000000	0.019262
3319.000000	0.019280
3318.000000	0.019299
3317.000000	0.019324
3316.000000	0.019357
3315.000000	0.019397
3314.000000	0.019444
3313.000000	0.019502
3312.000000	0.019565
3311.000000	0.019621
3310.000000	0.019655
3309.000000	0.019666
3308.000000	0.019667
3307.000000	0.019680
3306.000000	0.019716
3305.000000	0.019767
3304.000000	0.019815
3303.000000	0.019849
3302.000000	0.019876
3301.000000	0.019904
3300.000000	0.019931
3299.000000	0.019949
3298.000000	0.019952
3297.000000	0.019948
3296.000000	0.019945
3295.000000	0.019949
3294.000000	0.019957
3293.000000	0.019967
3292.000000	0.019978
3291.000000	0.019992
3290.000000	0.020010
3289.000000	0.020028
3288.000000	0.020041
3287.000000	0.020046
3286.000000	0.020046
3285.000000	0.020046
3284.000000	0.020051
3283.000000	0.020061
3282.000000	0.020074
3281.000000	0.020081
3280.000000	0.020076
3279.000000	0.020055
3278.000000	0.020027
3277.000000	0.020002
3276.000000	0.019990
3275.000000	0.019987
3274.000000	0.019985
3273.000000	0.019969
3272.000000	0.019937
3271.000000	0.019893
3270.000000	0.019851
3269.000000	0.019818
3268.000000	0.019793
3267.000000	0.019771
3266.000000	0.019748
3265.000000	0.019714
3264.000000	0.019664
3263.000000	0.019596
3262.000000	0.019521
3261.000000	0.019453
3260.000000	0.019403
3259.000000	0.019371
3258.000000	0.019347
3257.000000	0.019316
3256.000000	0.019270
3255.000000	0.019215
3254.000000	0.019163
3253.000000	0.019120
3252.000000	0.019077
3251.000000	0.019029
3250.000000	0.018979
3249.000000	0.018934
3248.000000	0.018899
3247.000000	0.018872
3246.000000	0.018844
3245.000000	0.018807
3244.000000	0.018754
3243.000000	0.018685
3242.000000	0.018612
3241.000000	0.018544
3240.000000	0.018487
3239.000000	0.018439
3238.000000	0.018404
3237.000000	0.018383
3236.000000	0.018370
3235.000000	0.018355
3234.000000	0.018328
3233.000000	0.018288
3232.000000	0.018246
3231.000000	0.018209
3230.000000	0.018180
3229.000000	0.018153
3228.000000	0.018127
3227.000000	0.018107
3226.000000	0.018097
3225.000000	0.018097
3224.000000	0.018093
3223.000000	0.018076
3222.000000	0.018039
3221.000000	0.017984
3220.000000	0.017914
3219.000000	0.017842
3218.000000	0.017782
3217.000000	0.017746
3216.000000	0.017725
3215.000000	0.017701
3214.000000	0.017661
3213.000000	0.017611
3212.000000	0.017561
3211.000000	0.017518
3210.000000	0.017483
3209.000000	0.017451
3208.000000	0.017417
3207.000000	0.017379
3206.000000	0.017341
3205.000000	0.017312
3204.000000	0.017294
3203.000000	0.017277
3202.000000	0.017248
3201.000000	0.017198
3200.000000	0.017132
3199.000000	0.017064
3198.000000	0.017009
3197.000000	0.016969
3196.000000	0.016936
3195.000000	0.016892
3194.000000	0.016831
3193.000000	0.016761
3192.000000	0.016699
3191.000000	0.016656
3190.000000	0.016634
3189.000000	0.016622
3188.000000	0.016605
3187.000000	0.016572
3186.000000	0.016520
3185.000000	0.016458
3184.000000	0.016392
3183.000000	0.016328
3182.000000	0.016264
3181.000000	0.016201
3180.000000	0.016137
3179.000000	0.016071
3178.000000	0.016005
3177.000000	0.015944
3176.000000	0.015885
3175.000000	0.015821
3174.000000	0.015748
3173.000000	0.015670
3172.000000	0.015601
3171.000000	0.015541
3170.000000	0.015479
3169.000000	0.015400
3168.000000	0.015309
3167.000000	0.015225
3166.000000	0.015171
3165.000000	0.015155
3164.000000	0.015160
3163.000000	0.015161
3162.000000	0.015139
3161.000000	0.015090
3160.000000	0.015021
3159.000000	0.014942
3158.000000	0.014864
3157.000000	0.014800
3156.000000	0.014756
3155.000000	0.014721
3154.000000	0.014676
3153.000000	0.014610
3152.000000	0.014525
3151.000000	0.014442
3150.000000	0.014377
3149.000000	0.014341
3148.000000	0.014324
3147.000000	0.014309
3146.000000	0.014283
3145.000000	0.014246
3144.000000	0.014208
3143.000000	0.014176
3142.000000	0.014142
3141.000000	0.014094
3140.000000	0.014032
3139.000000	0.013968
3138.000000	0.013915
3137.000000	0.013875
3136.000000	0.013841
3135.000000	0.013806
3134.000000	0.013772
3133.000000	0.013741
3132.000000	0.013713
3131.000000	0.013687
3130.000000	0.013661
3129.000000	0.013637
3128.000000	0.013615
3127.000000	0.013594
3126.000000	0.013567
3125.000000	0.013535
3124.000000	0.013502
3123.000000	0.013475
3122.000000	0.013453
3121.000000	0.013428
3120.000000	0.013399
3119.000000	0.013376
3118.000000	0.013373
3117.000000	0.013393
3116.000000	0.013425
3115.000000	0.013452
3114.000000	0.013459
3113.000000	0.013444
3112.000000	0.013418
3111.000000	0.013395
3110.000000	0.013384
3109.000000	0.013385
3108.000000	0.013394
3107.000000	0.013412
3106.000000	0.013435
3105.000000	0.013451
3104.000000	0.013446
3103.000000	0.013421
3102.000000	0.013397
3101.000000	0.013394
3100.000000	0.013418
3099.000000	0.013455
3098.000000	0.013488
3097.000000	0.013512
3096.000000	0.013528
3095.000000	0.013539
3094.000000	0.013543
3093.000000	0.013539
3092.000000	0.013532
3091.000000	0.013530
3090.000000	0.013535
3089.000000	0.013541
3088.000000	0.013543
3087.000000	0.013541
3086.000000	0.013546
3085.000000	0.013566
3084.000000	0.013598
3083.000000	0.013635
3082.000000	0.013664
3081.000000	0.013681
3080.000000	0.013683
3079.000000	0.013674
3078.000000	0.013660
3077.000000	0.013652
3076.000000	0.013658
3075.000000	0.013678
3074.000000	0.013701
3073.000000	0.013715
3072.000000	0.013713
3071.000000	0.013692
3070.000000	0.013655
3069.000000	0.013612
3068.000000	0.013574
3067.000000	0.013547
3066.000000	0.013534
3065.000000	0.013528
3064.000000	0.013517
3063.000000	0.013495
3062.000000	0.013457
3061.000000	0.013409
3060.000000	0.013363
3059.000000	0.013326
3058.000000	0.013298
3057.000000	0.013266
3056.000000	0.013221
3055.000000	0.013162
3054.000000	0.013098
3053.000000	0.013039
3052.000000	0.012987
3051.000000	0.012937
3050.000000	0.012883
3049.000000	0.012823
3048.000000	0.012763
3047.000000	0.012710
3046.000000	0.012661
3045.000000	0.012607
3044.000000	0.012545
3043.000000	0.012481
3042.000000	0.012433
3041.000000	0.012408
3040.000000	0.012396
3039.000000	0.012379
3038.000000	0.012341
3037.000000	0.012282
3036.000000	0.012211
3035.000000	0.012139
3034.000000	0.012074
3033.000000	0.012017
3032.000000	0.011967
3031.000000	0.011920
3030.000000	0.011877
3029.000000	0.011836
3028.000000	0.011796
3027.000000	0.011751
3026.000000	0.011702
3025.000000	0.011650
3024.000000	0.011602
3023.000000	0.011559
3022.000000	0.011520
3021.000000	0.011480
3020.000000	0.011438
3019.000000	0.011396
3018.000000	0.011357
3017.000000	0.011323
3016.000000	0.011294
3015.000000	0.011266
3014.000000	0.011239
3013.000000	0.011218
3012.000000	0.011200
3011.000000	0.011178
3010.000000	0.011150
3009.000000	0.011122
3008.000000	0.011101
3007.000000	0.011086
3006.000000	0.011073
3005.000000	0.011055
3004.000000	0.011038
3003.000000	0.011025
3002.000000	0.011018
3001.000000	0.011015
3000.000000	0.011015
2999.000000	0.011014
2998.000000	0.011011
2997.000000	0.011008
2996.000000	0.011009
2995.000000	0.011019
2994.000000	0.011038
2993.000000	0.011063
2992.000000	0.011088
2991.000000	0.011110
2990.000000	0.011134
2989.000000	0.011165
2988.000000	0.011213
2987.000000	0.011280
2986.000000	0.011358
2985.000000	0.011438
2984.000000	0.011509
2983.000000	0.011569
2982.000000	0.011622
2981.000000	0.011672
2980.000000	0.011720
2979.000000	0.011768
2978.000000	0.011818
2977.000000	0.011875
2976.000000	0.011941
2975.000000	0.012012
2974.000000	0.012079
2973.000000	0.012134
2972.000000	0.012175
2971.000000	0.012211
2970.000000	0.012251
2969.000000	0.012302
2968.000000	0.012365
2967.000000	0.012431
2966.000000	0.012492
2965.000000	0.012538
2964.000000	0.012564
2963.000000	0.012570
2962.000000	0.012562
2961.000000	0.012553
2960.000000	0.012552
2959.000000	0.012558
2958.000000	0.012565
2957.000000	0.012568
2956.000000	0.012567
2955.000000	0.012564
2954.000000	0.012558
2953.000000	0.012553
2952.000000	0.012548
2951.000000	0.012539
2950.000000	0.012521
2949.000000	0.012491
2948.000000	0.012449
2947.000000	0.012390
2946.000000	0.012310
2945.000000	0.012210
2944.000000	0.012110
2943.000000	0.012036
2942.000000	0.011990
2941.000000	0.011953
2940.000000	0.011901
2939.000000	0.011834
2938.000000	0.011765
2937.000000	0.011705
2936.000000	0.011643
2935.000000	0.011568
2934.000000	0.011474
2933.000000	0.011373
2932.000000	0.011279
2931.000000	0.011200
2930.000000	0.011146
2929.000000	0.011124
2928.000000	0.011139
2927.000000	0.011188
2926.000000	0.011269
2925.000000	0.011390
2924.000000	0.011569
2923.000000	0.011821
2922.000000	0.012143
2921.000000	0.012509
2920.000000	0.012889
2919.000000	0.013263
2918.000000	0.013614
2917.000000	0.013917
2916.000000	0.014141
2915.000000	0.014267
2914.000000	0.014301
2913.000000	0.014278
2912.000000	0.014234
2911.000000	0.014189
2910.000000	0.014146
2909.000000	0.014099
2908.000000	0.014047
2907.000000	0.013996
2906.000000	0.013952
2905.000000	0.013920
2904.000000	0.013897
2903.000000	0.013875
2902.000000	0.013845
2901.000000	0.013804
2900.000000	0.013755
2899.000000	0.013702
2898.000000	0.013648
2897.000000	0.013597
2896.000000	0.013554
2895.000000	0.013521
2894.000000	0.013493
2893.000000	0.013463
2892.000000	0.013428
2891.000000	0.013394
2890.000000	0.013365
2889.000000	0.013339
2888.000000	0.013312
2887.000000	0.013278
2886.000000	0.013235
2885.000000	0.013182
2884.000000	0.013125
2883.000000	0.013073
2882.000000	0.013028
2881.000000	0.012985
2880.000000	0.012937
2879.000000	0.012884
2878.000000	0.012835
2877.000000	0.012796
2876.000000	0.012766
2875.000000	0.012741
2874.000000	0.012722
2873.000000	0.012709
2872.000000	0.012694
2871.000000	0.012666
2870.000000	0.012617
2869.000000	0.012543
2868.000000	0.012443
2867.000000	0.012313
2866.000000	0.012154
2865.000000	0.011971
2864.000000	0.011773
2863.000000	0.011570
2862.000000	0.011376
2861.000000	0.011202
2860.000000	0.011059
2859.000000	0.010958
2858.000000	0.010908
2857.000000	0.010919
2856.000000	0.011000
2855.000000	0.011155
2854.000000	0.011386
2853.000000	0.011684
2852.000000	0.012023
2851.000000	0.012358
2850.000000	0.012634
2849.000000	0.012819
2848.000000	0.012913
2847.000000	0.012938
2846.000000	0.012913
2845.000000	0.012844
2844.000000	0.012737
2843.000000	0.012607
2842.000000	0.012467
2841.000000	0.012329
2840.000000	0.012197
2839.000000	0.012074
2838.000000	0.011960
2837.000000	0.011853
2836.000000	0.011748
2835.000000	0.011646
2834.000000	0.011554
2833.000000	0.011476
2832.000000	0.011404
2831.000000	0.011328
2830.000000	0.011245
2829.000000	0.011161
2828.000000	0.011087
2827.000000	0.011023
2826.000000	0.010964
2825.000000	0.010902
2824.000000	0.010832
2823.000000	0.010762
2822.000000	0.010698
2821.000000	0.010639
2820.000000	0.010581
2819.000000	0.010522
2818.000000	0.010465
2817.000000	0.010416
2816.000000	0.010374
2815.000000	0.010335
2814.000000	0.010294
2813.000000	0.010250
2812.000000	0.010200
2811.000000	0.010147
2810.000000	0.010092
2809.000000	0.010041
2808.000000	0.009994
2807.000000	0.009951
2806.000000	0.009913
2805.000000	0.009885
2804.000000	0.009868
2803.000000	0.009858
2802.000000	0.009847
2801.000000	0.009830
2800.000000	0.009807
2799.000000	0.009777
2798.000000	0.009742
2797.000000	0.009701
2796.000000	0.009653
2795.000000	0.009604
2794.000000	0.009558
2793.000000	0.009523
2792.000000	0.009498
2791.000000	0.009483
2790.000000	0.009474
2789.000000	0.009465
2788.000000	0.009452
2787.000000	0.009431
2786.000000	0.009402
2785.000000	0.009373
2784.000000	0.009351
2783.000000	0.009337
2782.000000	0.009320
2781.000000	0.009290
2780.000000	0.009247
2779.000000	0.009202
2778.000000	0.009170
2777.000000	0.009152
2776.000000	0.009139
2775.000000	0.009119
2774.000000	0.009092
2773.000000	0.009067
2772.000000	0.009049
2771.000000	0.009034
2770.000000	0.009013
2769.000000	0.008988
2768.000000	0.008966
2767.000000	0.008953
2766.000000	0.008949
2765.000000	0.008951
2764.000000	0.008955
2763.000000	0.008951
2762.000000	0.008934
2761.000000	0.008902
2760.000000	0.008865
2759.000000	0.008834
2758.000000	0.008818
2757.000000	0.008811
2756.000000	0.008804
2755.000000	0.008789
2754.000000	0.008763
2753.000000	0.008730
2752.000000	0.008697
2751.000000	0.008671
2750.000000	0.008657
2749.000000	0.008649
2748.000000	0.008641
2747.000000	0.008626
2746.000000	0.008606
2745.000000	0.008586
2744.000000	0.008567
2743.000000	0.008546
2742.000000	0.008520
2741.000000	0.008493
2740.000000	0.008477
2739.000000	0.008472
2738.000000	0.008472
2737.000000	0.008467
2736.000000	0.008456
2735.000000	0.008439
2734.000000	0.008421
2733.000000	0.008407
2732.000000	0.008401
2731.000000	0.008405
2730.000000	0.008409
2729.000000	0.008404
2728.000000	0.008384
2727.000000	0.008355
2726.000000	0.008325
2725.000000	0.008298
2724.000000	0.008274
2723.000000	0.008254
2722.000000	0.008239
2721.000000	0.008228
2720.000000	0.008216
2719.000000	0.008201
2718.000000	0.008180
2717.000000	0.008156
2716.000000	0.008129
2715.000000	0.008101
2714.000000	0.008075
2713.000000	0.008052
2712.000000	0.008033
2711.000000	0.008017
2710.000000	0.007999
2709.000000	0.007979
2708.000000	0.007961
2707.000000	0.007952
2706.000000	0.007952
2705.000000	0.007954
2704.000000	0.007947
2703.000000	0.007929
2702.000000	0.007905
2701.000000	0.007885
2700.000000	0.007877
2699.000000	0.007876
2698.000000	0.007873
2697.000000	0.007862
2696.000000	0.007841
2695.000000	0.007819
2694.000000	0.007803
2693.000000	0.007790
2692.000000	0.007775
2691.000000	0.007756
2690.000000	0.007741
2689.000000	0.007743
2688.000000	0.007759
2687.000000	0.007772
2686.000000	0.007770
2685.000000	0.007752
2684.000000	0.007728
2683.000000	0.007710
2682.000000	0.007703
2681.000000	0.007706
2680.000000	0.007716
2679.000000	0.007726
2678.000000	0.007728
2677.000000	0.007720
2676.000000	0.007710
2675.000000	0.007701
2674.000000	0.007690
2673.000000	0.007673
2672.000000	0.007653
2671.000000	0.007635
2670.000000	0.007622
2669.000000	0.007611
2668.000000	0.007603
2667.000000	0.007603
2666.000000	0.007612
2665.000000	0.007624
2664.000000	0.007629
2663.000000	0.007625
2662.000000	0.007621
2661.000000	0.007622
2660.000000	0.007626
2659.000000	0.007627
2658.000000	0.007616
2657.000000	0.007597
2656.000000	0.007577
2655.000000	0.007562
2654.000000	0.007554
2653.000000	0.007547
2652.000000	0.007534
2651.000000	0.007511
2650.000000	0.007480
2649.000000	0.007442
2648.000000	0.007404
2647.000000	0.007371
2646.000000	0.007345
2645.000000	0.007324
2644.000000	0.007297
2643.000000	0.007258
2642.000000	0.007211
2641.000000	0.007172
2640.000000	0.007152
2639.000000	0.007150
2638.000000	0.007155
2637.000000	0.007152
2636.000000	0.007139
2635.000000	0.007118
2634.000000	0.007097
2633.000000	0.007075
2632.000000	0.007048
2631.000000	0.007014
2630.000000	0.006980
2629.000000	0.006954
2628.000000	0.006934
2627.000000	0.006908
2626.000000	0.006868
2625.000000	0.006828
2624.000000	0.006811
2623.000000	0.006826
2622.000000	0.006860
2621.000000	0.006885
2620.000000	0.006883
2619.000000	0.006851
2618.000000	0.006799
2617.000000	0.006747
2616.000000	0.006719
2615.000000	0.006721
2614.000000	0.006737
2613.000000	0.006741
2612.000000	0.006716
2611.000000	0.006676
2610.000000	0.006639
2609.000000	0.006618
2608.000000	0.006612
2607.000000	0.006616
2606.000000	0.006627
2605.000000	0.006635
2604.000000	0.006629
2603.000000	0.006604
2602.000000	0.006567
2601.000000	0.006535
2600.000000	0.006517
2599.000000	0.006507
2598.000000	0.006495
2597.000000	0.006471
2596.000000	0.006438
2595.000000	0.006408
2594.000000	0.006386
2593.000000	0.006368
2592.000000	0.006342
2591.000000	0.006312
2590.000000	0.006292
2589.000000	0.006293
2588.000000	0.006308
2587.000000	0.006322
2586.000000	0.006323
2585.000000	0.006312
2584.000000	0.006298
2583.000000	0.006290
2582.000000	0.006292
2581.000000	0.006300
2580.000000	0.006300
2579.000000	0.006278
2578.000000	0.006233
2577.000000	0.006183
2576.000000	0.006146
2575.000000	0.006134
2574.000000	0.006143
2573.000000	0.006171
2572.000000	0.006214
2571.000000	0.006266
2570.000000	0.006309
2569.000000	0.006327
2568.000000	0.006321
2567.000000	0.006307
2566.000000	0.006293
2565.000000	0.006270
2564.000000	0.006227
2563.000000	0.006177
2562.000000	0.006144
2561.000000	0.006134
2560.000000	0.006129
2559.000000	0.006111
2558.000000	0.006080
2557.000000	0.006055
2556.000000	0.006049
2555.000000	0.006065
2554.000000	0.006098
2553.000000	0.006130
2552.000000	0.006146
2551.000000	0.006135
2550.000000	0.006097
2549.000000	0.006040
2548.000000	0.005981
2547.000000	0.005940
2546.000000	0.005933
2545.000000	0.005958
2544.000000	0.005987
2543.000000	0.005989
2542.000000	0.005952
2541.000000	0.005891
2540.000000	0.005839
2539.000000	0.005823
2538.000000	0.005850
2537.000000	0.005903
2536.000000	0.005956
2535.000000	0.005989
2534.000000	0.005995
2533.000000	0.005979
2532.000000	0.005947
2531.000000	0.005913
2530.000000	0.005890
2529.000000	0.005875
2528.000000	0.005855
2527.000000	0.005828
2526.000000	0.005804
2525.000000	0.005795
2524.000000	0.005798
2523.000000	0.005804
2522.000000	0.005808
2521.000000	0.005809
2520.000000	0.005804
2519.000000	0.005797
2518.000000	0.005799
2517.000000	0.005819
2516.000000	0.005850
2515.000000	0.005881
2514.000000	0.005909
2513.000000	0.005932
2512.000000	0.005938
2511.000000	0.005914
2510.000000	0.005864
2509.000000	0.005807
2508.000000	0.005759
2507.000000	0.005730
2506.000000	0.005725
2505.000000	0.005750
2504.000000	0.005786
2503.000000	0.005805
2502.000000	0.005787
2501.000000	0.005748
2500.000000	0.005717
2499.000000	0.005712
2498.000000	0.005725
2497.000000	0.005737
2496.000000	0.005737
2495.000000	0.005723
2494.000000	0.005706
2493.000000	0.005695
2492.000000	0.005691
2491.000000	0.005693
2490.000000	0.005699
2489.000000	0.005710
2488.000000	0.005718
2487.000000	0.005707
2486.000000	0.005669
2485.000000	0.005620
2484.000000	0.005589
2483.000000	0.005590
2482.000000	0.005615
2481.000000	0.005638
2480.000000	0.005647
2479.000000	0.005647
2478.000000	0.005657
2477.000000	0.005685
2476.000000	0.005720
2475.000000	0.005738
2474.000000	0.005725
2473.000000	0.005687
2472.000000	0.005643
2471.000000	0.005608
2470.000000	0.005587
2469.000000	0.005574
2468.000000	0.005564
2467.000000	0.005551
2466.000000	0.005535
2465.000000	0.005517
2464.000000	0.005504
2463.000000	0.005501
2462.000000	0.005514
2461.000000	0.005542
2460.000000	0.005575
2459.000000	0.005600
2458.000000	0.005607
2457.000000	0.005594
2456.000000	0.005562
2455.000000	0.005523
2454.000000	0.005495
2453.000000	0.005487
2452.000000	0.005502
2451.000000	0.005534
2450.000000	0.005577
2449.000000	0.005617
2448.000000	0.005635
2447.000000	0.005617
2446.000000	0.005570
2445.000000	0.005523
2444.000000	0.005496
2443.000000	0.005486
2442.000000	0.005480
2441.000000	0.005469
2440.000000	0.005465
2439.000000	0.005481
2438.000000	0.005515
2437.000000	0.005543
2436.000000	0.005538
2435.000000	0.005494
2434.000000	0.005430
2433.000000	0.005376
2432.000000	0.005352
2431.000000	0.005362
2430.000000	0.005395
2429.000000	0.005433
2428.000000	0.005459
2427.000000	0.005467
2426.000000	0.005464
2425.000000	0.005457
2424.000000	0.005452
2423.000000	0.005452
2422.000000	0.005462
2421.000000	0.005479
2420.000000	0.005495
2419.000000	0.005502
2418.000000	0.005497
2417.000000	0.005484
2416.000000	0.005459
2415.000000	0.005421
2414.000000	0.005375
2413.000000	0.005334
2412.000000	0.005304
2411.000000	0.005289
2410.000000	0.005290
2409.000000	0.005300
2408.000000	0.005311
2407.000000	0.005318
2406.000000	0.005319
2405.000000	0.005312
2404.000000	0.005295
2403.000000	0.005272
2402.000000	0.005258
2401.000000	0.005259
2400.000000	0.005271
2399.000000	0.005280
2398.000000	0.005279
2397.000000	0.005271
2396.000000	0.005261
2395.000000	0.005259
2394.000000	0.005280
2393.000000	0.005330
2392.000000	0.005390
2391.000000	0.005435
2390.000000	0.005451
2389.000000	0.005446
2388.000000	0.005432
2387.000000	0.005418
2386.000000	0.005410
2385.000000	0.005411
2384.000000	0.005421
2383.000000	0.005434
2382.000000	0.005446
2381.000000	0.005455
2380.000000	0.005458
2379.000000	0.005450
2378.000000	0.005437
2377.000000	0.005428
2376.000000	0.005431
2375.000000	0.005446
2374.000000	0.005469
2373.000000	0.005496
2372.000000	0.005518
2371.000000	0.005525
2370.000000	0.005523
2369.000000	0.005530
2368.000000	0.005552
2367.000000	0.005578
2366.000000	0.005597
2365.000000	0.005607
2364.000000	0.005598
2363.000000	0.005564
2362.000000	0.005520
2361.000000	0.005505
2360.000000	0.005536
2359.000000	0.005586
2358.000000	0.005614
2357.000000	0.005625
2356.000000	0.005649
2355.000000	0.005693
2354.000000	0.005729
2353.000000	0.005727
2352.000000	0.005692
2351.000000	0.005653
2350.000000	0.005636
2349.000000	0.005646
2348.000000	0.005671
2347.000000	0.005689
2346.000000	0.005692
2345.000000	0.005690
2344.000000	0.005705
2343.000000	0.005730
2342.000000	0.005739
2341.000000	0.005721
2340.000000	0.005700
2339.000000	0.005706
2338.000000	0.005741
2337.000000	0.005781
2336.000000	0.005814
2335.000000	0.005837
2334.000000	0.005843
2333.000000	0.005817
2332.000000	0.005761
2331.000000	0.005704
2330.000000	0.005672
2329.000000	0.005670
2328.000000	0.005691
2327.000000	0.005736
2326.000000	0.005800
2325.000000	0.005859
2324.000000	0.005881
2323.000000	0.005857
2322.000000	0.005817
2321.000000	0.005799
2320.000000	0.005809
2319.000000	0.005812
2318.000000	0.005776
2317.000000	0.005701
2316.000000	0.005616
2315.000000	0.005554
2314.000000	0.005538
2313.000000	0.005564
2312.000000	0.005616
2311.000000	0.005664
2310.000000	0.005683
2309.000000	0.005658
2308.000000	0.005593
2307.000000	0.005514
2306.000000	0.005450
2305.000000	0.005417
2304.000000	0.005411
2303.000000	0.005417
2302.000000	0.005432
2301.000000	0.005453
2300.000000	0.005472
2299.000000	0.005476
2298.000000	0.005460
2297.000000	0.005431
2296.000000	0.005402
2295.000000	0.005386
2294.000000	0.005390
2293.000000	0.005402
2292.000000	0.005407
2291.000000	0.005399
2290.000000	0.005392
2289.000000	0.005410
2288.000000	0.005463
2287.000000	0.005539
2286.000000	0.005608
2285.000000	0.005638
2284.000000	0.005610
2283.000000	0.005537
2282.000000	0.005456
2281.000000	0.005396
2280.000000	0.005363
2279.000000	0.005344
2278.000000	0.005325
2277.000000	0.005304
2276.000000	0.005284
2275.000000	0.005266
2274.000000	0.005248
2273.000000	0.005228
2272.000000	0.005208
2271.000000	0.005193
2270.000000	0.005183
2269.000000	0.005170
2268.000000	0.005156
2267.000000	0.005163
2266.000000	0.005205
2265.000000	0.005254
2264.000000	0.005244
2263.000000	0.005152
2262.000000	0.005023
2261.000000	0.004927
2260.000000	0.004890
2259.000000	0.004889
2258.000000	0.004900
2257.000000	0.004917
2256.000000	0.004930
2255.000000	0.004930
2254.000000	0.004922
2253.000000	0.004927
2252.000000	0.004959
2251.000000	0.005019
2250.000000	0.005096
2249.000000	0.005164
2248.000000	0.005186
2247.000000	0.005154
2246.000000	0.005110
2245.000000	0.005100
2244.000000	0.005117
2243.000000	0.005121
2242.000000	0.005101
2241.000000	0.005097
2240.000000	0.005145
2239.000000	0.005240
2238.000000	0.005352
2237.000000	0.005443
2236.000000	0.005477
2235.000000	0.005426
2234.000000	0.005309
2233.000000	0.005195
2232.000000	0.005146
2231.000000	0.005155
2230.000000	0.005167
2229.000000	0.005139
2228.000000	0.005079
2227.000000	0.005019
2226.000000	0.004967
2225.000000	0.004900
2224.000000	0.004792
2223.000000	0.004657
2222.000000	0.004552
2221.000000	0.004528
2220.000000	0.004587
2219.000000	0.004691
2218.000000	0.004799
2217.000000	0.004882
2216.000000	0.004912
2215.000000	0.004870
2214.000000	0.004775
2213.000000	0.004678
2212.000000	0.004621
2211.000000	0.004614
2210.000000	0.004641
2209.000000	0.004684
2208.000000	0.004736
2207.000000	0.004803
2206.000000	0.004875
2205.000000	0.004909
2204.000000	0.004844
2203.000000	0.004680
2202.000000	0.004492
2201.000000	0.004361
2200.000000	0.004294
2199.000000	0.004248
2198.000000	0.004223
2197.000000	0.004263
2196.000000	0.004373
2195.000000	0.004495
2194.000000	0.004576
2193.000000	0.004610
2192.000000	0.004607
2191.000000	0.004558
2190.000000	0.004478
2189.000000	0.004437
2188.000000	0.004491
2187.000000	0.004610
2186.000000	0.004694
2185.000000	0.004682
2184.000000	0.004594
2183.000000	0.004487
2182.000000	0.004408
2181.000000	0.004375
2180.000000	0.004392
2179.000000	0.004439
2178.000000	0.004492
2177.000000	0.004552
2176.000000	0.004633
2175.000000	0.004723
2174.000000	0.004761
2173.000000	0.004697
2172.000000	0.004560
2171.000000	0.004435
2170.000000	0.004355
2169.000000	0.004264
2168.000000	0.004118
2167.000000	0.003988
2166.000000	0.004008
2165.000000	0.004205
2164.000000	0.004436
2163.000000	0.004523
2162.000000	0.004400
2161.000000	0.004119
2160.000000	0.003792
2159.000000	0.003554
2158.000000	0.003499
2157.000000	0.003570
2156.000000	0.003605
2155.000000	0.003532
2154.000000	0.003464
2153.000000	0.003549
2152.000000	0.003780
2151.000000	0.004004
2150.000000	0.004095
2149.000000	0.004063
2148.000000	0.004005
2147.000000	0.004003
2146.000000	0.004078
2145.000000	0.004207
2144.000000	0.004344
2143.000000	0.004450
2142.000000	0.004503
2141.000000	0.004511
2140.000000	0.004497
2139.000000	0.004485
2138.000000	0.004487
2137.000000	0.004495
2136.000000	0.004488
2135.000000	0.004448
2134.000000	0.004366
2133.000000	0.004257
2132.000000	0.004163
2131.000000	0.004138
2130.000000	0.004200
2129.000000	0.004306
2128.000000	0.004395
2127.000000	0.004455
2126.000000	0.004523
2125.000000	0.004615
2124.000000	0.004692
2123.000000	0.004706
2122.000000	0.004666
2121.000000	0.004624
2120.000000	0.004615
2119.000000	0.004645
2118.000000	0.004700
2117.000000	0.004761
2116.000000	0.004800
2115.000000	0.004799
2114.000000	0.004778
2113.000000	0.004769
2112.000000	0.004785
2111.000000	0.004807
2110.000000	0.004809
2109.000000	0.004784
2108.000000	0.004741
2107.000000	0.004700
2106.000000	0.004684
2105.000000	0.004697
2104.000000	0.004720
2103.000000	0.004729
2102.000000	0.004721
2101.000000	0.004708
2100.000000	0.004697
2099.000000	0.004688
2098.000000	0.004681
2097.000000	0.004687
2096.000000	0.004707
2095.000000	0.004736
2094.000000	0.004755
2093.000000	0.004743
2092.000000	0.004698
2091.000000	0.004653
2090.000000	0.004654
2089.000000	0.004699
2088.000000	0.004740
2087.000000	0.004753
2086.000000	0.004774
2085.000000	0.004839
2084.000000	0.004915
2083.000000	0.004930
2082.000000	0.004863
2081.000000	0.004769
2080.000000	0.004716
2079.000000	0.004711
2078.000000	0.004710
2077.000000	0.004663
2076.000000	0.004569
2075.000000	0.004465
2074.000000	0.004395
2073.000000	0.004364
2072.000000	0.004355
2071.000000	0.004376
2070.000000	0.004447
2069.000000	0.004543
2068.000000	0.004584
2067.000000	0.004532
2066.000000	0.004455
2065.000000	0.004448
2064.000000	0.004519
2063.000000	0.004593
2062.000000	0.004612
2061.000000	0.004583
2060.000000	0.004541
2059.000000	0.004515
2058.000000	0.004515
2057.000000	0.004520
2056.000000	0.004484
2055.000000	0.004391
2054.000000	0.004291
2053.000000	0.004254
2052.000000	0.004294
2051.000000	0.004386
2050.000000	0.004503
2049.000000	0.004609
2048.000000	0.004640
2047.000000	0.004560
2046.000000	0.004418
2045.000000	0.004284
2044.000000	0.004161
2043.000000	0.004035
2042.000000	0.003962
2041.000000	0.004004
2040.000000	0.004107
2039.000000	0.004154
2038.000000	0.004122
2037.000000	0.004082
2036.000000	0.004037
2035.000000	0.003869
2034.000000	0.003511
2033.000000	0.003080
2032.000000	0.002791
2031.000000	0.002779
2030.000000	0.003024
2029.000000	0.003378
2028.000000	0.003649
2027.000000	0.003736
2026.000000	0.003707
2025.000000	0.003690
2024.000000	0.003719
2023.000000	0.003739
2022.000000	0.003726
2021.000000	0.003713
2020.000000	0.003713
2019.000000	0.003715
2018.000000	0.003734
2017.000000	0.003798
2016.000000	0.003879
2015.000000	0.003910
2014.000000	0.003877
2013.000000	0.003810
2012.000000	0.003707
2011.000000	0.003542
2010.000000	0.003340
2009.000000	0.003168
2008.000000	0.003056
2007.000000	0.003006
2006.000000	0.003053
2005.000000	0.003225
2004.000000	0.003446
2003.000000	0.003594
2002.000000	0.003641
2001.000000	0.003658
2000.000000	0.003705
1999.000000	0.003770
1998.000000	0.003830
1997.000000	0.003886
1996.000000	0.003907
1995.000000	0.003841
1994.000000	0.003691
1993.000000	0.003544
1992.000000	0.003475
1991.000000	0.003464
1990.000000	0.003439
1989.000000	0.003376
1988.000000	0.003314
1987.000000	0.003317
1986.000000	0.003425
1985.000000	0.003615
1984.000000	0.003810
1983.000000	0.003948
1982.000000	0.004033
1981.000000	0.004081
1980.000000	0.004053
1979.000000	0.003891
1978.000000	0.003631
1977.000000	0.003398
1976.000000	0.003268
1975.000000	0.003212
1974.000000	0.003188
1973.000000	0.003190
1972.000000	0.003221
1971.000000	0.003286
1970.000000	0.003406
1969.000000	0.003560
1968.000000	0.003657
1967.000000	0.003624
1966.000000	0.003511
1965.000000	0.003423
1964.000000	0.003383
1963.000000	0.003341
1962.000000	0.003299
1961.000000	0.003317
1960.000000	0.003411
1959.000000	0.003526
1958.000000	0.003623
1957.000000	0.003728
1956.000000	0.003859
1955.000000	0.003984
1954.000000	0.004048
1953.000000	0.004016
1952.000000	0.003892
1951.000000	0.003729
1950.000000	0.003623
1949.000000	0.003623
1948.000000	0.003683
1947.000000	0.003716
1946.000000	0.003711
1945.000000	0.003719
1944.000000	0.003745
1943.000000	0.003714
1942.000000	0.003581
1941.000000	0.003419
1940.000000	0.003342
1939.000000	0.003404
1938.000000	0.003569
1937.000000	0.003742
1936.000000	0.003823
1935.000000	0.003779
1934.000000	0.003672
1933.000000	0.003595
1932.000000	0.003579
1931.000000	0.003581
1930.000000	0.003568
1929.000000	0.003554
1928.000000	0.003569
1927.000000	0.003607
1926.000000	0.003635
1925.000000	0.003621
1924.000000	0.003555
1923.000000	0.003469
1922.000000	0.003426
1921.000000	0.003469
1920.000000	0.003585
1919.000000	0.003722
1918.000000	0.003824
1917.000000	0.003852
1916.000000	0.003809
1915.000000	0.003732
1914.000000	0.003676
1913.000000	0.003680
1912.000000	0.003731
1911.000000	0.003789
1910.000000	0.003823
1909.000000	0.003827
1908.000000	0.003804
1907.000000	0.003762
1906.000000	0.003722
1905.000000	0.003699
1904.000000	0.003691
1903.000000	0.003687
1902.000000	0.003694
1901.000000	0.003718
1900.000000	0.003741
1899.000000	0.003746
1898.000000	0.003751
1897.000000	0.003782
1896.000000	0.003827
1895.000000	0.003842
1894.000000	0.003805
1893.000000	0.003736
1892.000000	0.003668
1891.000000	0.003628
1890.000000	0.003645
1889.000000	0.003725
1888.000000	0.003835
1887.000000	0.003930
1886.000000	0.003982
1885.000000	0.003983
1884.000000	0.003925
1883.000000	0.003820
1882.000000	0.003708
1881.000000	0.003633
1880.000000	0.003601
1879.000000	0.003587
1878.000000	0.003574
1877.000000	0.003566
1876.000000	0.003563
1875.000000	0.003556
1874.000000	0.003547
1873.000000	0.003540
1872.000000	0.003521
1871.000000	0.003483
1870.000000	0.003453
1869.000000	0.003462
1868.000000	0.003498
1867.000000	0.003524
1866.000000	0.003530
1865.000000	0.003535
1864.000000	0.003550
1863.000000	0.003572
1862.000000	0.003594
1861.000000	0.003610
1860.000000	0.003603
1859.000000	0.003563
1858.000000	0.003505
1857.000000	0.003466
1856.000000	0.003470
1855.000000	0.003507
1854.000000	0.003559
1853.000000	0.003604
1852.000000	0.003617
1851.000000	0.003584
1850.000000	0.003522
1849.000000	0.003463
1848.000000	0.003423
1847.000000	0.003395
1846.000000	0.003392
1845.000000	0.003455
1844.000000	0.003576
1843.000000	0.003670
1842.000000	0.003685
1841.000000	0.003639
1840.000000	0.003571
1839.000000	0.003508
1838.000000	0.003473
1837.000000	0.003471
1836.000000	0.003485
1835.000000	0.003491
1834.000000	0.003470
1833.000000	0.003413
1832.000000	0.003314
1831.000000	0.003200
1830.000000	0.003124
1829.000000	0.003131
1828.000000	0.003202
1827.000000	0.003289
1826.000000	0.003367
1825.000000	0.003437
1824.000000	0.003493
1823.000000	0.003518
1822.000000	0.003513
1821.000000	0.003493
1820.000000	0.003472
1819.000000	0.003451
1818.000000	0.003435
1817.000000	0.003425
1816.000000	0.003409
1815.000000	0.003374
1814.000000	0.003334
1813.000000	0.003310
1812.000000	0.003308
1811.000000	0.003323
1810.000000	0.003354
1809.000000	0.003406
1808.000000	0.003464
1807.000000	0.003507
1806.000000	0.003527
1805.000000	0.003529
1804.000000	0.003510
1803.000000	0.003468
1802.000000	0.003411
1801.000000	0.003366
1800.000000	0.003346
1799.000000	0.003350
1798.000000	0.003370
1797.000000	0.003385
1796.000000	0.003364
1795.000000	0.003290
1794.000000	0.003197
1793.000000	0.003163
1792.000000	0.003212
1791.000000	0.003282
1790.000000	0.003331
1789.000000	0.003368
1788.000000	0.003402
1787.000000	0.003420
1786.000000	0.003412
1785.000000	0.003387
1784.000000	0.003357
1783.000000	0.003337
1782.000000	0.003337
1781.000000	0.003361
1780.000000	0.003396
1779.000000	0.003419
1778.000000	0.003429
1777.000000	0.003443
1776.000000	0.003457
1775.000000	0.003430
1774.000000	0.003341
1773.000000	0.003251
1772.000000	0.003244
1771.000000	0.003325
1770.000000	0.003451
1769.000000	0.003569
1768.000000	0.003623
1767.000000	0.003600
1766.000000	0.003540
1765.000000	0.003481
1764.000000	0.003414
1763.000000	0.003320
1762.000000	0.003226
1761.000000	0.003183
1760.000000	0.003194
1759.000000	0.003214
1758.000000	0.003216
1757.000000	0.003216
1756.000000	0.003243
1755.000000	0.003301
1754.000000	0.003379
1753.000000	0.003463
1752.000000	0.003542
1751.000000	0.003622
1750.000000	0.003728
1749.000000	0.003897
1748.000000	0.004121
1747.000000	0.004354
1746.000000	0.004575
1745.000000	0.004806
1744.000000	0.005044
1743.000000	0.005244
1742.000000	0.005398
1741.000000	0.005576
1740.000000	0.005828
1739.000000	0.006105
1738.000000	0.006340
1737.000000	0.006519
1736.000000	0.006612
1735.000000	0.006619
1734.000000	0.006603
1733.000000	0.006603
1732.000000	0.006612
1731.000000	0.006614
1730.000000	0.006604
1729.000000	0.006588
1728.000000	0.006567
1727.000000	0.006534
1726.000000	0.006498
1725.000000	0.006493
1724.000000	0.006520
1723.000000	0.006528
1722.000000	0.006497
1721.000000	0.006469
1720.000000	0.006493
1719.000000	0.006586
1718.000000	0.006731
1717.000000	0.006869
1716.000000	0.006957
1715.000000	0.007012
1714.000000	0.007080
1713.000000	0.007184
1712.000000	0.007299
1711.000000	0.007390
1710.000000	0.007451
1709.000000	0.007510
1708.000000	0.007594
1707.000000	0.007729
1706.000000	0.007951
1705.000000	0.008258
1704.000000	0.008573
1703.000000	0.008802
1702.000000	0.008925
1701.000000	0.009205
1700.000000	0.009859
1699.000000	0.010634
1698.000000	0.011314
1697.000000	0.011930
1696.000000	0.012513
1695.000000	0.013034
1694.000000	0.013468
1693.000000	0.013893
1692.000000	0.014376
1691.000000	0.014896
1690.000000	0.015429
1689.000000	0.015977
1688.000000	0.016526
1687.000000	0.017009
1686.000000	0.017402
1685.000000	0.017916
1684.000000	0.018674
1683.000000	0.019460
1682.000000	0.020173
1681.000000	0.020873
1680.000000	0.021546
1679.000000	0.022140
1678.000000	0.022670
1677.000000	0.023250
1676.000000	0.023996
1675.000000	0.024856
1674.000000	0.025652
1673.000000	0.026327
1672.000000	0.026957
1671.000000	0.027625
1670.000000	0.028411
1669.000000	0.029311
1668.000000	0.030202
1667.000000	0.030953
1666.000000	0.031556
1665.000000	0.032102
1664.000000	0.032688
1663.000000	0.033341
1662.000000	0.034022
1661.000000	0.034709
1660.000000	0.035388
1659.000000	0.036003
1658.000000	0.036523
1657.000000	0.037004
1656.000000	0.037465
1655.000000	0.037809
1654.000000	0.038053
1653.000000	0.038405
1652.000000	0.038861
1651.000000	0.039231
1650.000000	0.039532
1649.000000	0.039858
1648.000000	0.040190
1647.000000	0.040444
1646.000000	0.040634
1645.000000	0.040864
1644.000000	0.041156
1643.000000	0.041456
1642.000000	0.041716
1641.000000	0.041914
1640.000000	0.042079
1639.000000	0.042223
1638.000000	0.042306
1637.000000	0.042281
1636.000000	0.042186
1635.000000	0.042148
1634.000000	0.042249
1633.000000	0.042440
1632.000000	0.042616
1631.000000	0.042682
1630.000000	0.042599
1629.000000	0.042403
1628.000000	0.042159
1627.000000	0.041899
1626.000000	0.041608
1625.000000	0.041243
1624.000000	0.040774
1623.000000	0.040226
1622.000000	0.039698
1621.000000	0.039277
1620.000000	0.038932
1619.000000	0.038527
1618.000000	0.037901
1617.000000	0.037031
1616.000000	0.036110
1615.000000	0.035333
1614.000000	0.034708
1613.000000	0.034114
1612.000000	0.033443
1611.000000	0.032686
1610.000000	0.031918
1609.000000	0.031199
1608.000000	0.030532
1607.000000	0.029909
1606.000000	0.029330
1605.000000	0.028791
1604.000000	0.028279
1603.000000	0.027793
1602.000000	0.027342
1601.000000	0.026926
1600.000000	0.026545
1599.000000	0.026209
1598.000000	0.025931
1597.000000	0.025706
1596.000000	0.025518
1595.000000	0.025364
1594.000000	0.025242
1593.000000	0.025138
1592.000000	0.025034
1591.000000	0.024932
1590.000000	0.024834
1589.000000	0.024730
1588.000000	0.024616
1587.000000	0.024512
1586.000000	0.024441
1585.000000	0.024397
1584.000000	0.024374
1583.000000	0.024396
1582.000000	0.024481
1581.000000	0.024619
1580.000000	0.024797
1579.000000	0.025017
1578.000000	0.025261
1577.000000	0.025504
1576.000000	0.025733
1575.000000	0.025950
1574.000000	0.026173
1573.000000	0.026403
1572.000000	0.026600
1571.000000	0.026784
1570.000000	0.027072
1569.000000	0.027511
1568.000000	0.028021
1567.000000	0.028527
1566.000000	0.029026
1565.000000	0.029535
1564.000000	0.030039
1563.000000	0.030503
1562.000000	0.030847
1561.000000	0.030947
1560.000000	0.030974
1559.000000	0.031209
1558.000000	0.031672
1557.000000	0.032291
1556.000000	0.032920
1555.000000	0.033473
1554.000000	0.033939
1553.000000	0.034345
1552.000000	0.034722
1551.000000	0.035054
1550.000000	0.035320
1549.000000	0.035534
1548.000000	0.035738
1547.000000	0.035950
1546.000000	0.036156
1545.000000	0.036329
1544.000000	0.036442
1543.000000	0.036506
1542.000000	0.036564
1541.000000	0.036635
1540.000000	0.036676
1539.000000	0.036713
1538.000000	0.036795
1537.000000	0.036891
1536.000000	0.036948
1535.000000	0.036917
1534.000000	0.036805
1533.000000	0.036700
1532.000000	0.036675
1531.000000	0.036697
1530.000000	0.036681
1529.000000	0.036595
1528.000000	0.036445
1527.000000	0.036235
1526.000000	0.035990
1525.000000	0.035767
1524.000000	0.035589
1523.000000	0.035405
1522.000000	0.035134
1521.000000	0.034796
1520.000000	0.034511
1519.000000	0.034340
1518.000000	0.034248
1517.000000	0.034163
1516.000000	0.034030
1515.000000	0.033860
1514.000000	0.033650
1513.000000	0.033362
1512.000000	0.032990
1511.000000	0.032584
1510.000000	0.032198
1509.000000	0.031807
1508.000000	0.031323
1507.000000	0.030690
1506.000000	0.030085
1505.000000	0.029676
1504.000000	0.029352
1503.000000	0.028996
1502.000000	0.028533
1501.000000	0.027924
1500.000000	0.027207
1499.000000	0.026458
1498.000000	0.025695
1497.000000	0.024896
1496.000000	0.024085
1495.000000	0.023336
1494.000000	0.022693
1493.000000	0.022144
1492.000000	0.021649
1491.000000	0.021171
1490.000000	0.020697
1489.000000	0.020254
1488.000000	0.019886
1487.000000	0.019589
1486.000000	0.019337
1485.000000	0.019135
1484.000000	0.018992
1483.000000	0.018905
1482.000000	0.018870
1481.000000	0.018892
1480.000000	0.018964
1479.000000	0.019054
1478.000000	0.019151
1477.000000	0.019276
1476.000000	0.019430
1475.000000	0.019568
1474.000000	0.019663
1473.000000	0.019754
1472.000000	0.019889
1471.000000	0.020081
1470.000000	0.020320
1469.000000	0.020595
1468.000000	0.020877
1467.000000	0.021135
1466.000000	0.021377
1465.000000	0.021643
1464.000000	0.021943
1463.000000	0.022229
1462.000000	0.022465
1461.000000	0.022673
1460.000000	0.022905
1459.000000	0.023195
1458.000000	0.023565
1457.000000	0.024003
1456.000000	0.024405
1455.000000	0.024694
1454.000000	0.024922
1453.000000	0.025142
1452.000000	0.025327
1451.000000	0.025437
1450.000000	0.025474
1449.000000	0.025466
1448.000000	0.025426
1447.000000	0.025371
1446.000000	0.025332
1445.000000	0.025314
1444.000000	0.025295
1443.000000	0.025240
1442.000000	0.025144
1441.000000	0.025030
1440.000000	0.024917
1439.000000	0.024782
1438.000000	0.024587
1437.000000	0.024337
1436.000000	0.024078
1435.000000	0.023850
1434.000000	0.023648
1433.000000	0.023423
1432.000000	0.023137
1431.000000	0.022805
1430.000000	0.022488
1429.000000	0.022239
1428.000000	0.022075
1427.000000	0.021980
1426.000000	0.021919
1425.000000	0.021862
1424.000000	0.021800
1423.000000	0.021747
1422.000000	0.021710
1421.000000	0.021671
1420.000000	0.021640
1419.000000	0.021649
1418.000000	0.021694
1417.000000	0.021759
1416.000000	0.021838
1415.000000	0.021928
1414.000000	0.022035
1413.000000	0.022167
1412.000000	0.022317
1411.000000	0.022462
1410.000000	0.022602
1409.000000	0.022749
1408.000000	0.022905
1407.000000	0.023060
1406.000000	0.023211
1405.000000	0.023362
1404.000000	0.023506
1403.000000	0.023621
1402.000000	0.023699
1401.000000	0.023744
1400.000000	0.023759
1399.000000	0.023744
1398.000000	0.023707
1397.000000	0.023656
1396.000000	0.023571
1395.000000	0.023443
1394.000000	0.023304
1393.000000	0.023203
1392.000000	0.023143
1391.000000	0.023101
1390.000000	0.023067
1389.000000	0.023038
1388.000000	0.022996
1387.000000	0.022918
1386.000000	0.022816
1385.000000	0.022713
1384.000000	0.022604
1383.000000	0.022467
1382.000000	0.022310
1381.000000	0.022170
1380.000000	0.022052
1379.000000	0.021931
1378.000000	0.021790
1377.000000	0.021647
1376.000000	0.021515
1375.000000	0.021378
1374.000000	0.021216
1373.000000	0.021046
1372.000000	0.020901
1371.000000	0.020779
1370.000000	0.020661
1369.000000	0.020540
1368.000000	0.020421
1367.000000	0.020308
1366.000000	0.020192
1365.000000	0.020061
1364.000000	0.019900
1363.000000	0.019689
1362.000000	0.019438
1361.000000	0.019184
1360.000000	0.018956
1359.000000	0.018757
1358.000000	0.018582
1357.000000	0.018432
1356.000000	0.018304
1355.000000	0.018192
1354.000000	0.018097
1353.000000	0.018039
1352.000000	0.018027
1351.000000	0.018050
1350.000000	0.018088
1349.000000	0.018139
1348.000000	0.018214
1347.000000	0.018317
1346.000000	0.018438
1345.000000	0.018573
1344.000000	0.018731
1343.000000	0.018919
1342.000000	0.019133
1341.000000	0.019350
1340.000000	0.019535
1339.000000	0.019658
1338.000000	0.019710
1337.000000	0.019706
1336.000000	0.019656
1335.000000	0.019573
1334.000000	0.019467
1333.000000	0.019343
1332.000000	0.019193
1331.000000	0.019008
1330.000000	0.018797
1329.000000	0.018584
1328.000000	0.018395
1327.000000	0.018242
1326.000000	0.018126
1325.000000	0.018047
1324.000000	0.018008
1323.000000	0.018016
1322.000000	0.018070
1321.000000	0.018161
1320.000000	0.018261
1319.000000	0.018338
1318.000000	0.018384
1317.000000	0.018424
1316.000000	0.018484
1315.000000	0.018559
1314.000000	0.018612
1313.000000	0.018605
1312.000000	0.018529
1311.000000	0.018408
1310.000000	0.018273
1309.000000	0.018142
1308.000000	0.018013
1307.000000	0.017873
1306.000000	0.017716
1305.000000	0.017549
1304.000000	0.017383
1303.000000	0.017223
1302.000000	0.017070
1301.000000	0.016927
1300.000000	0.016797
1299.000000	0.016678
1298.000000	0.016572
1297.000000	0.016491
1296.000000	0.016455
1295.000000	0.016479
1294.000000	0.016560
1293.000000	0.016685
1292.000000	0.016839
1291.000000	0.017010
1290.000000	0.017183
1289.000000	0.017344
1288.000000	0.017483
1287.000000	0.017611
1286.000000	0.017751
1285.000000	0.017930
1284.000000	0.018154
1283.000000	0.018406
1282.000000	0.018658
1281.000000	0.018890
1280.000000	0.019089
1279.000000	0.019243
1278.000000	0.019349
1277.000000	0.019416
1276.000000	0.019461
1275.000000	0.019495
1274.000000	0.019523
1273.000000	0.019540
1272.000000	0.019545
1271.000000	0.019543
1270.000000	0.019544
1269.000000	0.019554
1268.000000	0.019573
1267.000000	0.019586
1266.000000	0.019588
1265.000000	0.019582
1264.000000	0.019582
1263.000000	0.019604
1262.000000	0.019661
1261.000000	0.019764
1260.000000	0.019922
1259.000000	0.020140
1258.000000	0.020409
1257.000000	0.020704
1256.000000	0.020997
1255.000000	0.021270
1254.000000	0.021528
1253.000000	0.021785
1252.000000	0.022045
1251.000000	0.022310
1250.000000	0.022592
1249.000000	0.022903
1248.000000	0.023237
1247.000000	0.023573
1246.000000	0.023901
1245.000000	0.024234
1244.000000	0.024587
1243.000000	0.024964
1242.000000	0.025359
1241.000000	0.025759
1240.000000	0.026141
1239.000000	0.026482
1238.000000	0.026776
1237.000000	0.027037
1236.000000	0.027266
1235.000000	0.027444
1234.000000	0.027553
1233.000000	0.027598
1232.000000	0.027587
1231.000000	0.027518
1230.000000	0.027383
1229.000000	0.027175
1228.000000	0.026887
1227.000000	0.026515
1226.000000	0.026062
1225.000000	0.025543
1224.000000	0.024975
1223.000000	0.024373
1222.000000	0.023759
1221.000000	0.023156
1220.000000	0.022580
1219.000000	0.022042
1218.000000	0.021554
1217.000000	0.021123
1216.000000	0.020751
1215.000000	0.020436
1214.000000	0.020177
1213.000000	0.019973
1212.000000	0.019812
1211.000000	0.019684
1210.000000	0.019589
1209.000000	0.019528
1208.000000	0.019486
1207.000000	0.019435
1206.000000	0.019362
1205.000000	0.019275
1204.000000	0.019178
1203.000000	0.019054
1202.000000	0.018878
1201.000000	0.018645
1200.000000	0.018377
1199.000000	0.018097
1198.000000	0.017811
1197.000000	0.017504
1196.000000	0.017163
1195.000000	0.016789
1194.000000	0.016411
1193.000000	0.016057
1192.000000	0.015741
1191.000000	0.015460
1190.000000	0.015210
1189.000000	0.014987
1188.000000	0.014788
1187.000000	0.014615
1186.000000	0.014493
1185.000000	0.014448
1184.000000	0.014490
1183.000000	0.014599
1182.000000	0.014748
1181.000000	0.014917
1180.000000	0.015093
1179.000000	0.015257
1178.000000	0.015395
1177.000000	0.015511
1176.000000	0.015619
1175.000000	0.015732
1174.000000	0.015854
1173.000000	0.015982
1172.000000	0.016111
1171.000000	0.016232
1170.000000	0.016340
1169.000000	0.016437
1168.000000	0.016526
1167.000000	0.016601
1166.000000	0.016658
1165.000000	0.016709
1164.000000	0.016767
1163.000000	0.016833
1162.000000	0.016887
1161.000000	0.016909
1160.000000	0.016884
1159.000000	0.016812
1158.000000	0.016703
1157.000000	0.016576
1156.000000	0.016442
1155.000000	0.016295
1154.000000	0.016122
1153.000000	0.015924
1152.000000	0.015720
1151.000000	0.015532
1150.000000	0.015359
1149.000000	0.015188
1148.000000	0.015007
1147.000000	0.014820
1146.000000	0.014633
1145.000000	0.014445
1144.000000	0.014265
1143.000000	0.014107
1142.000000	0.013983
1141.000000	0.013875
1140.000000	0.013750
1139.000000	0.013581
1138.000000	0.013377
1137.000000	0.013168
1136.000000	0.012986
1135.000000	0.012839
1134.000000	0.012715
1133.000000	0.012598
1132.000000	0.012487
1131.000000	0.012393
1130.000000	0.012323
1129.000000	0.012281
1128.000000	0.012265
1127.000000	0.012271
1126.000000	0.012294
1125.000000	0.012320
1124.000000	0.012340
1123.000000	0.012360
1122.000000	0.012399
1121.000000	0.012470
1120.000000	0.012559
1119.000000	0.012648
1118.000000	0.012736
1117.000000	0.012840
1116.000000	0.012967
1115.000000	0.013097
1114.000000	0.013202
1113.000000	0.013275
1112.000000	0.013337
1111.000000	0.013405
1110.000000	0.013477
1109.000000	0.013542
1108.000000	0.013603
1107.000000	0.013680
1106.000000	0.013786
1105.000000	0.013919
1104.000000	0.014062
1103.000000	0.014202
1102.000000	0.014329
1101.000000	0.014442
1100.000000	0.014546
1099.000000	0.014650
1098.000000	0.014761
1097.000000	0.014879
1096.000000	0.014999
1095.000000	0.015114
1094.000000	0.015234
1093.000000	0.015368
1092.000000	0.015517
1091.000000	0.015674
1090.000000	0.015840
1089.000000	0.016036
1088.000000	0.016295
1087.000000	0.016631
1086.000000	0.017029
1085.000000	0.017442
1084.000000	0.017808
1083.000000	0.018084
1082.000000	0.018244
1081.000000	0.018276
1080.000000	0.018171
1079.000000	0.017937
1078.000000	0.017618
1077.000000	0.017269
1076.000000	0.016921
1075.000000	0.016580
1074.000000	0.016251
1073.000000	0.015956
1072.000000	0.015723
1071.000000	0.015568
1070.000000	0.015490
1069.000000	0.015478
1068.000000	0.015516
1067.000000	0.015583
1066.000000	0.015666
1065.000000	0.015769
1064.000000	0.015894
1063.000000	0.016032
1062.000000	0.016170
1061.000000	0.016309
1060.000000	0.016456
1059.000000	0.016607
1058.000000	0.016738
1057.000000	0.016825
1056.000000	0.016872
1055.000000	0.016901
1054.000000	0.016927
1053.000000	0.016929
1052.000000	0.016877
1051.000000	0.016762
1050.000000	0.016624
1049.000000	0.016514
1048.000000	0.016459
1047.000000	0.016448
1046.000000	0.016455
1045.000000	0.016456
1044.000000	0.016438
1043.000000	0.016398
1042.000000	0.016352
1041.000000	0.016328
1040.000000	0.016356
1039.000000	0.016455
1038.000000	0.016620
1037.000000	0.016827
1036.000000	0.017048
1035.000000	0.017264
1034.000000	0.017468
1033.000000	0.017658
1032.000000	0.017819
1031.000000	0.017940
1030.000000	0.018021
1029.000000	0.018075
1028.000000	0.018108
1027.000000	0.018117
1026.000000	0.018092
1025.000000	0.018037
1024.000000	0.017968
1023.000000	0.017907
1022.000000	0.017865
1021.000000	0.017841
1020.000000	0.017837
1019.000000	0.017861
1018.000000	0.017918
1017.000000	0.017984
1016.000000	0.018012
1015.000000	0.017954
1014.000000	0.017796
1013.000000	0.017543
1012.000000	0.017199
1011.000000	0.016774
1010.000000	0.016298
1009.000000	0.015820
1008.000000	0.015369
1007.000000	0.014952
1006.000000	0.014565
1005.000000	0.014208
1004.000000	0.013878
1003.000000	0.013560
1002.000000	0.013232
1001.000000	0.012881
1000.000000	0.012520
999.000000	0.012180
998.000000	0.011882
997.000000	0.011622
996.000000	0.011378
995.000000	0.011134
994.000000	0.010895
993.000000	0.010669
992.000000	0.010453
991.000000	0.010234
990.000000	0.010010
989.000000	0.009793
988.000000	0.009606
987.000000	0.009463
986.000000	0.009353
985.000000	0.009248
984.000000	0.009124
983.000000	0.008984
982.000000	0.008851
981.000000	0.008736
980.000000	0.008632
979.000000	0.008536
978.000000	0.008458
977.000000	0.008399
976.000000	0.008333
975.000000	0.008232
974.000000	0.008107
973.000000	0.007995
972.000000	0.007917
971.000000	0.007860
970.000000	0.007798
969.000000	0.007720
968.000000	0.007631
967.000000	0.007542
966.000000	0.007466
965.000000	0.007411
964.000000	0.007367
963.000000	0.007316
962.000000	0.007247
961.000000	0.007172
960.000000	0.007115
959.000000	0.007090
958.000000	0.007089
957.000000	0.007100
956.000000	0.007110
955.000000	0.007110
954.000000	0.007095
953.000000	0.007060
952.000000	0.006999
951.000000	0.006907
950.000000	0.006788
949.000000	0.006653
948.000000	0.006515
947.000000	0.006381
946.000000	0.006241
945.000000	0.006085
944.000000	0.005921
943.000000	0.005779
942.000000	0.005693
941.000000	0.005676
940.000000	0.005706
939.000000	0.005748
938.000000	0.005781
937.000000	0.005798
936.000000	0.005800
935.000000	0.005783
934.000000	0.005746
933.000000	0.005690
932.000000	0.005621
931.000000	0.005545
930.000000	0.005474
929.000000	0.005419
928.000000	0.005375
927.000000	0.005323
926.000000	0.005239
925.000000	0.005118
924.000000	0.004966
923.000000	0.004801
922.000000	0.004640
921.000000	0.004498
920.000000	0.004377
919.000000	0.004273
918.000000	0.004173
917.000000	0.004069
916.000000	0.003958
915.000000	0.003845
914.000000	0.003733
913.000000	0.003623
912.000000	0.003516
911.000000	0.003423
910.000000	0.003368
909.000000	0.003360
908.000000	0.003373
907.000000	0.003366
906.000000	0.003328
905.000000	0.003294
904.000000	0.003302
903.000000	0.003343
902.000000	0.003374
901.000000	0.003372
900.000000	0.003351
899.000000	0.003331
898.000000	0.003309
897.000000	0.003273
896.000000	0.003229
895.000000	0.003200
894.000000	0.003198
893.000000	0.003219
892.000000	0.003244
891.000000	0.003260
890.000000	0.003262
889.000000	0.003257
888.000000	0.003258
887.000000	0.003277
886.000000	0.003308
885.000000	0.003335
884.000000	0.003343
883.000000	0.003335
882.000000	0.003333
881.000000	0.003359
880.000000	0.003422
879.000000	0.003513
878.000000	0.003618
877.000000	0.003713
876.000000	0.003776
875.000000	0.003790
874.000000	0.003762
873.000000	0.003716
872.000000	0.003661
871.000000	0.003589
870.000000	0.003495
869.000000	0.003392
868.000000	0.003299
867.000000	0.003217
866.000000	0.003149
865.000000	0.003112
864.000000	0.003131
863.000000	0.003200
862.000000	0.003281
861.000000	0.003349
860.000000	0.003418
859.000000	0.003515
858.000000	0.003637
857.000000	0.003753
856.000000	0.003842
855.000000	0.003920
854.000000	0.004021
853.000000	0.004152
852.000000	0.004282
851.000000	0.004373
850.000000	0.004413
849.000000	0.004426
848.000000	0.004440
847.000000	0.004469
846.000000	0.004517
845.000000	0.004592
844.000000	0.004695
843.000000	0.004811
842.000000	0.004924
841.000000	0.005045
840.000000	0.005210
839.000000	0.005432
838.000000	0.005668
837.000000	0.005846
836.000000	0.005929
835.000000	0.005939
834.000000	0.005930
833.000000	0.005929
832.000000	0.005915
831.000000	0.005852
830.000000	0.005733
829.000000	0.005594
828.000000	0.005472
827.000000	0.005369
826.000000	0.005256
825.000000	0.005110
824.000000	0.004944
823.000000	0.004786
822.000000	0.004654
821.000000	0.004538
820.000000	0.004422
819.000000	0.004304
818.000000	0.004193
817.000000	0.004092
816.000000	0.003999
815.000000	0.003910
814.000000	0.003830
813.000000	0.003757
812.000000	0.003681
811.000000	0.003602
810.000000	0.003534
809.000000	0.003484
808.000000	0.003431
807.000000	0.003349
806.000000	0.003244
805.000000	0.003159
804.000000	0.003131
803.000000	0.003151
802.000000	0.003185
801.000000	0.003203
800.000000	0.003206
799.000000	0.003210
798.000000	0.003228
797.000000	0.003257
796.000000	0.003282
795.000000	0.003291
794.000000	0.003293
793.000000	0.003305
792.000000	0.003328
791.000000	0.003350
790.000000	0.003369
789.000000	0.003387
788.000000	0.003399
787.000000	0.003387
786.000000	0.003356
785.000000	0.003339
784.000000	0.003358
783.000000	0.003393
782.000000	0.003410
781.000000	0.003402
780.000000	0.003384
779.000000	0.003366
778.000000	0.003351
777.000000	0.003360
776.000000	0.003422
775.000000	0.003528
774.000000	0.003626
773.000000	0.003660
772.000000	0.003631
771.000000	0.003576
770.000000	0.003523
769.000000	0.003471
768.000000	0.003413
767.000000	0.003366
766.000000	0.003359
765.000000	0.003404
764.000000	0.003485
763.000000	0.003566
762.000000	0.003621
761.000000	0.003649
760.000000	0.003677
759.000000	0.003736
758.000000	0.003835
757.000000	0.003950
756.000000	0.004045
755.000000	0.004111
754.000000	0.004171
753.000000	0.004246
752.000000	0.004330
751.000000	0.004407
750.000000	0.004477
749.000000	0.004554
748.000000	0.004639
747.000000	0.004716
746.000000	0.004769
745.000000	0.004779
744.000000	0.004722
743.000000	0.004587
742.000000	0.004419
741.000000	0.004300
740.000000	0.004289
739.000000	0.004369
738.000000	0.004475
737.000000	0.004551
736.000000	0.004580
735.000000	0.004583
734.000000	0.004596
733.000000	0.004652
732.000000	0.004758
731.000000	0.004900
730.000000	0.005059
729.000000	0.005227
728.000000	0.005402
727.000000	0.005575
726.000000	0.005729
725.000000	0.005838
724.000000	0.005898
723.000000	0.005940
722.000000	0.006022
721.000000	0.006168
720.000000	0.006341
719.000000	0.006477
718.000000	0.006558
717.000000	0.006614
716.000000	0.006670
715.000000	0.006724
714.000000	0.006766
713.000000	0.006798
712.000000	0.006830
711.000000	0.006872
710.000000	0.006953
709.000000	0.007096
708.000000	0.007281
707.000000	0.007447
706.000000	0.007548
705.000000	0.007592
704.000000	0.007611
703.000000	0.007617
702.000000	0.007613
701.000000	0.007611
700.000000	0.007628
699.000000	0.007651
698.000000	0.007652
697.000000	0.007625
696.000000	0.007591
695.000000	0.007574
694.000000	0.007566
693.000000	0.007549
692.000000	0.007515
691.000000	0.007485
690.000000	0.007481
689.000000	0.007499
688.000000	0.007520
687.000000	0.007539
686.000000	0.007580
685.000000	0.007646
684.000000	0.007698
683.000000	0.007698
682.000000	0.007669
681.000000	0.007663
680.000000	0.007699
679.000000	0.007751
678.000000	0.007799
677.000000	0.007851
676.000000	0.007916
675.000000	0.007989
674.000000	0.008077
673.000000	0.008188
672.000000	0.008307
671.000000	0.008402
670.000000	0.008465
669.000000	0.008510
668.000000	0.008551
667.000000	0.008604
666.000000	0.008662
665.000000	0.008708
664.000000	0.008719
663.000000	0.008685
662.000000	0.008657
661.000000	0.008703
660.000000	0.008815
659.000000	0.008913
658.000000	0.008947
657.000000	0.008939
656.000000	0.008929
655.000000	0.008933
654.000000	0.008974
653.000000	0.009073
652.000000	0.009192
651.000000	0.009250
650.000000	0.009218
649.000000	0.009154
648.000000	0.009118
647.000000	0.009115
646.000000	0.009133
645.000000	0.009177
644.000000	0.009233
643.000000	0.009257
642.000000	0.009221
641.000000	0.009135
640.000000	0.009004
639.000000	0.008831
638.000000	0.008671
637.000000	0.008611
636.000000	0.008665
635.000000	0.008745
634.000000	0.008768
633.000000	0.008737
632.000000	0.008686
631.000000	0.008629
630.000000	0.008590
629.000000	0.008619
628.000000	0.008724
627.000000	0.008832
626.000000	0.008872
625.000000	0.008851
624.000000	0.008814
623.000000	0.008775
622.000000	0.008751
621.000000	0.008784
620.000000	0.008887
619.000000	0.009000
618.000000	0.009060
617.000000	0.009070
616.000000	0.009057
615.000000	0.009009
614.000000	0.008920
613.000000	0.008836
612.000000	0.008792
611.000000	0.008754
610.000000	0.008685
609.000000	0.008627
608.000000	0.008650
607.000000	0.008755
606.000000	0.008881
605.000000	0.008998
604.000000	0.009107
603.000000	0.009188
602.000000	0.009221
601.000000	0.009231
600.000000	0.009265
599.000000	0.009331
598.000000	0.009402
597.000000	0.009449
596.000000	0.009433
595.000000	0.009317
594.000000	0.009123
593.000000	0.008962
592.000000	0.008934
591.000000	0.009026
590.000000	0.009149
589.000000	0.009241
588.000000	0.009281
587.000000	0.009267
586.000000	0.009224
585.000000	0.009206
584.000000	0.009221
583.000000	0.009205
582.000000	0.009119
581.000000	0.009028
580.000000	0.009028
579.000000	0.009134
578.000000	0.009289
577.000000	0.009440
576.000000	0.009535
575.000000	0.009541
574.000000	0.009517
573.000000	0.009604
572.000000	0.009845
571.000000	0.010115
570.000000	0.010278
569.000000	0.010376
568.000000	0.010527
567.000000	0.010729
566.000000	0.010896
565.000000	0.011026
564.000000	0.011195
563.000000	0.011402
562.000000	0.011566
561.000000	0.011662
560.000000	0.011734
559.000000	0.011797
558.000000	0.011831
557.000000	0.011852
556.000000	0.011891
555.000000	0.011923
554.000000	0.011895
553.000000	0.011812
552.000000	0.011689
551.000000	0.011464
550.000000	0.011095
549.000000	0.010691
548.000000	0.010451
547.000000	0.010463
546.000000	0.010638
545.000000	0.010809
544.000000	0.010827
543.000000	0.010620
542.000000	0.010268
541.000000	0.009997
540.000000	0.009951
539.000000	0.010036
538.000000	0.010051
537.000000	0.009953
536.000000	0.009853
535.000000	0.009813
534.000000	0.009801
533.000000	0.009836
532.000000	0.010028
531.000000	0.010421
530.000000	0.010895
529.000000	0.011272
528.000000	0.011444
527.000000	0.011418
526.000000	0.011306
525.000000	0.011246
524.000000	0.011232
523.000000	0.011114
522.000000	0.010799
521.000000	0.010384
520.000000	0.010034
519.000000	0.009787
518.000000	0.009589
517.000000	0.009427
516.000000	0.009305
515.000000	0.009155
514.000000	0.008929
513.000000	0.008706
512.000000	0.008592
511.000000	0.008559
510.000000	0.008522
509.000000	0.008502
508.000000	0.008574
507.000000	0.008680
506.000000	0.008680
505.000000	0.008562
504.000000	0.008437
503.000000	0.008349
502.000000	0.008248
501.000000	0.008134
500.000000	0.008073
499.000000	0.008038
498.000000	0.007926
497.000000	0.007723
496.000000	0.007517
495.000000	0.007343
494.000000	0.007139
493.000000	0.006873
492.000000	0.006614
491.000000	0.006431
490.000000	0.006350
489.000000	0.006399
488.000000	0.006588
487.000000	0.006834
486.000000	0.006999
485.000000	0.007027
484.000000	0.006965
483.000000	0.006832
482.000000	0.006615
481.000000	0.006374
480.000000	0.006230
479.000000	0.006228
478.000000	0.006299
477.000000	0.006353
476.000000	0.006321
475.000000	0.006161
474.000000	0.005915
473.000000	0.005762
472.000000	0.005830
471.000000	0.005982
470.000000	0.005978
469.000000	0.005790
468.000000	0.005574
467.000000	0.005417
466.000000	0.005278
465.000000	0.005135
464.000000	0.005018
463.000000	0.004930
462.000000	0.004818
461.000000	0.004674
460.000000	0.004601
459.000000	0.004482
458.000000	0.004327
457.000000	0.004306
456.000000	0.004452
455.000000	0.004442
454.000000	0.004017
453.000000	0.003405
452.000000	0.003105
451.000000	0.003214
450.000000	0.003349
