PE IR       SUBTECH     SPECTRUM    ASCII       PEDS        4.00        
   -1
3S-H10-F040_1.ASC
22/02/18
11:29:02.00
22/02/18
11:29:39.00
uco
Sample 040 By uco Date Friday, February 18 2022
450.000000
#HDR
-1
-1
#GR
cm-1
A
1.0
0.0
4000.000000
-1.000000
3551
8
0.045571
0.001294
#DATA
4000.000000	0.001939
3999.000000	0.001945
3998.000000	0.001950
3997.000000	0.001951
3996.000000	0.001950
3995.000000	0.001950
3994.000000	0.001950
3993.000000	0.001947
3992.000000	0.001938
3991.000000	0.001928
3990.000000	0.001927
3989.000000	0.001939
3988.000000	0.001960
3987.000000	0.001981
3986.000000	0.001992
3985.000000	0.001995
3984.000000	0.001996
3983.000000	0.001997
3982.000000	0.001997
3981.000000	0.001993
3980.000000	0.001985
3979.000000	0.001974
3978.000000	0.001964
3977.000000	0.001957
3976.000000	0.001957
3975.000000	0.001968
3974.000000	0.001984
3973.000000	0.001999
3972.000000	0.002004
3971.000000	0.002000
3970.000000	0.001995
3969.000000	0.001995
3968.000000	0.002000
3967.000000	0.002006
3966.000000	0.002008
3965.000000	0.002007
3964.000000	0.002003
3963.000000	0.001997
3962.000000	0.001990
3961.000000	0.001984
3960.000000	0.001986
3959.000000	0.001999
3958.000000	0.002023
3957.000000	0.002051
3956.000000	0.002072
3955.000000	0.002080
3954.000000	0.002077
3953.000000	0.002073
3952.000000	0.002076
3951.000000	0.002085
3950.000000	0.002096
3949.000000	0.002106
3948.000000	0.002112
3947.000000	0.002115
3946.000000	0.002114
3945.000000	0.002107
3944.000000	0.002092
3943.000000	0.002070
3942.000000	0.002045
3941.000000	0.002025
3940.000000	0.002011
3939.000000	0.002004
3938.000000	0.002002
3937.000000	0.002006
3936.000000	0.002015
3935.000000	0.002025
3934.000000	0.002033
3933.000000	0.002041
3932.000000	0.002052
3931.000000	0.002070
3930.000000	0.002093
3929.000000	0.002113
3928.000000	0.002121
3927.000000	0.002114
3926.000000	0.002088
3925.000000	0.002047
3924.000000	0.002002
3923.000000	0.001969
3922.000000	0.001955
3921.000000	0.001959
3920.000000	0.001972
3919.000000	0.001985
3918.000000	0.001992
3917.000000	0.001991
3916.000000	0.001992
3915.000000	0.001999
3914.000000	0.002013
3913.000000	0.002025
3912.000000	0.002029
3911.000000	0.002027
3910.000000	0.002023
3909.000000	0.002022
3908.000000	0.002024
3907.000000	0.002030
3906.000000	0.002040
3905.000000	0.002050
3904.000000	0.002056
3903.000000	0.002060
3902.000000	0.002065
3901.000000	0.002075
3900.000000	0.002088
3899.000000	0.002100
3898.000000	0.002110
3897.000000	0.002117
3896.000000	0.002121
3895.000000	0.002117
3894.000000	0.002106
3893.000000	0.002090
3892.000000	0.002077
3891.000000	0.002074
3890.000000	0.002082
3889.000000	0.002100
3888.000000	0.002126
3887.000000	0.002146
3886.000000	0.002142
3885.000000	0.002110
3884.000000	0.002067
3883.000000	0.002032
3882.000000	0.002009
3881.000000	0.001999
3880.000000	0.002004
3879.000000	0.002025
3878.000000	0.002055
3877.000000	0.002088
3876.000000	0.002111
3875.000000	0.002111
3874.000000	0.002085
3873.000000	0.002051
3872.000000	0.002025
3871.000000	0.002006
3870.000000	0.001987
3869.000000	0.001971
3868.000000	0.001971
3867.000000	0.001989
3866.000000	0.002008
3865.000000	0.002010
3864.000000	0.001995
3863.000000	0.001978
3862.000000	0.001968
3861.000000	0.001965
3860.000000	0.001963
3859.000000	0.001959
3858.000000	0.001950
3857.000000	0.001945
3856.000000	0.001955
3855.000000	0.001979
3854.000000	0.002008
3853.000000	0.002035
3852.000000	0.002060
3851.000000	0.002077
3850.000000	0.002086
3849.000000	0.002090
3848.000000	0.002096
3847.000000	0.002109
3846.000000	0.002124
3845.000000	0.002132
3844.000000	0.002120
3843.000000	0.002086
3842.000000	0.002041
3841.000000	0.002002
3840.000000	0.001981
3839.000000	0.001981
3838.000000	0.001994
3837.000000	0.002012
3836.000000	0.002023
3835.000000	0.002026
3834.000000	0.002026
3833.000000	0.002030
3832.000000	0.002039
3831.000000	0.002051
3830.000000	0.002064
3829.000000	0.002075
3828.000000	0.002081
3827.000000	0.002075
3826.000000	0.002056
3825.000000	0.002027
3824.000000	0.002001
3823.000000	0.001980
3822.000000	0.001957
3821.000000	0.001942
3820.000000	0.001951
3819.000000	0.001984
3818.000000	0.002025
3817.000000	0.002053
3816.000000	0.002059
3815.000000	0.002060
3814.000000	0.002072
3813.000000	0.002097
3812.000000	0.002119
3811.000000	0.002126
3810.000000	0.002117
3809.000000	0.002098
3808.000000	0.002068
3807.000000	0.002027
3806.000000	0.001987
3805.000000	0.001960
3804.000000	0.001954
3803.000000	0.001955
3802.000000	0.001945
3801.000000	0.001925
3800.000000	0.001911
3799.000000	0.001913
3798.000000	0.001927
3797.000000	0.001949
3796.000000	0.001974
3795.000000	0.001994
3794.000000	0.002006
3793.000000	0.002004
3792.000000	0.001991
3791.000000	0.001973
3790.000000	0.001955
3789.000000	0.001942
3788.000000	0.001935
3787.000000	0.001936
3786.000000	0.001944
3785.000000	0.001953
3784.000000	0.001954
3783.000000	0.001948
3782.000000	0.001939
3781.000000	0.001938
3780.000000	0.001952
3779.000000	0.001980
3778.000000	0.002005
3777.000000	0.002009
3776.000000	0.001987
3775.000000	0.001949
3774.000000	0.001914
3773.000000	0.001899
3772.000000	0.001910
3771.000000	0.001933
3770.000000	0.001955
3769.000000	0.001969
3768.000000	0.001980
3767.000000	0.001987
3766.000000	0.001987
3765.000000	0.001977
3764.000000	0.001963
3763.000000	0.001953
3762.000000	0.001947
3761.000000	0.001938
3760.000000	0.001923
3759.000000	0.001914
3758.000000	0.001921
3757.000000	0.001938
3756.000000	0.001953
3755.000000	0.001967
3754.000000	0.001981
3753.000000	0.001998
3752.000000	0.002015
3751.000000	0.002036
3750.000000	0.002056
3749.000000	0.002060
3748.000000	0.002046
3747.000000	0.002035
3746.000000	0.002037
3745.000000	0.002036
3744.000000	0.002017
3743.000000	0.001991
3742.000000	0.001972
3741.000000	0.001964
3740.000000	0.001963
3739.000000	0.001971
3738.000000	0.001986
3737.000000	0.001998
3736.000000	0.001993
3735.000000	0.001978
3734.000000	0.001977
3733.000000	0.001989
3732.000000	0.001993
3731.000000	0.001974
3730.000000	0.001941
3729.000000	0.001918
3728.000000	0.001923
3727.000000	0.001956
3726.000000	0.002000
3725.000000	0.002033
3724.000000	0.002039
3723.000000	0.002017
3722.000000	0.001984
3721.000000	0.001956
3720.000000	0.001943
3719.000000	0.001948
3718.000000	0.001965
3717.000000	0.001987
3716.000000	0.002006
3715.000000	0.002023
3714.000000	0.002034
3713.000000	0.002033
3712.000000	0.002014
3711.000000	0.001987
3710.000000	0.001965
3709.000000	0.001954
3708.000000	0.001948
3707.000000	0.001940
3706.000000	0.001931
3705.000000	0.001927
3704.000000	0.001934
3703.000000	0.001951
3702.000000	0.001972
3701.000000	0.001988
3700.000000	0.001991
3699.000000	0.001984
3698.000000	0.001974
3697.000000	0.001962
3696.000000	0.001949
3695.000000	0.001936
3694.000000	0.001930
3693.000000	0.001928
3692.000000	0.001926
3691.000000	0.001919
3690.000000	0.001916
3689.000000	0.001932
3688.000000	0.001965
3687.000000	0.001999
3686.000000	0.002028
3685.000000	0.002053
3684.000000	0.002080
3683.000000	0.002104
3682.000000	0.002120
3681.000000	0.002125
3680.000000	0.002122
3679.000000	0.002125
3678.000000	0.002155
3677.000000	0.002213
3676.000000	0.002268
3675.000000	0.002294
3674.000000	0.002291
3673.000000	0.002276
3672.000000	0.002270
3671.000000	0.002281
3670.000000	0.002306
3669.000000	0.002343
3668.000000	0.002384
3667.000000	0.002418
3666.000000	0.002443
3665.000000	0.002459
3664.000000	0.002465
3663.000000	0.002464
3662.000000	0.002465
3661.000000	0.002474
3660.000000	0.002487
3659.000000	0.002497
3658.000000	0.002504
3657.000000	0.002520
3656.000000	0.002561
3655.000000	0.002627
3654.000000	0.002703
3653.000000	0.002773
3652.000000	0.002824
3651.000000	0.002846
3650.000000	0.002843
3649.000000	0.002844
3648.000000	0.002863
3647.000000	0.002894
3646.000000	0.002933
3645.000000	0.002978
3644.000000	0.003027
3643.000000	0.003072
3642.000000	0.003107
3641.000000	0.003129
3640.000000	0.003144
3639.000000	0.003159
3638.000000	0.003182
3637.000000	0.003220
3636.000000	0.003266
3635.000000	0.003298
3634.000000	0.003304
3633.000000	0.003293
3632.000000	0.003297
3631.000000	0.003340
3630.000000	0.003414
3629.000000	0.003487
3628.000000	0.003543
3627.000000	0.003581
3626.000000	0.003610
3625.000000	0.003639
3624.000000	0.003668
3623.000000	0.003690
3622.000000	0.003698
3621.000000	0.003692
3620.000000	0.003691
3619.000000	0.003720
3618.000000	0.003787
3617.000000	0.003868
3616.000000	0.003937
3615.000000	0.003982
3614.000000	0.004008
3613.000000	0.004028
3612.000000	0.004056
3611.000000	0.004097
3610.000000	0.004151
3609.000000	0.004210
3608.000000	0.004265
3607.000000	0.004314
3606.000000	0.004363
3605.000000	0.004416
3604.000000	0.004474
3603.000000	0.004531
3602.000000	0.004579
3601.000000	0.004618
3600.000000	0.004659
3599.000000	0.004710
3598.000000	0.004772
3597.000000	0.004835
3596.000000	0.004890
3595.000000	0.004934
3594.000000	0.004971
3593.000000	0.005007
3592.000000	0.005045
3591.000000	0.005089
3590.000000	0.005141
3589.000000	0.005198
3588.000000	0.005260
3587.000000	0.005326
3586.000000	0.005392
3585.000000	0.005444
3584.000000	0.005475
3583.000000	0.005495
3582.000000	0.005520
3581.000000	0.005565
3580.000000	0.005630
3579.000000	0.005706
3578.000000	0.005782
3577.000000	0.005859
3576.000000	0.005941
3575.000000	0.006029
3574.000000	0.006116
3573.000000	0.006194
3572.000000	0.006264
3571.000000	0.006332
3570.000000	0.006404
3569.000000	0.006470
3568.000000	0.006514
3567.000000	0.006539
3566.000000	0.006568
3565.000000	0.006618
3564.000000	0.006686
3563.000000	0.006762
3562.000000	0.006840
3561.000000	0.006913
3560.000000	0.006971
3559.000000	0.007009
3558.000000	0.007039
3557.000000	0.007080
3556.000000	0.007148
3555.000000	0.007243
3554.000000	0.007349
3553.000000	0.007444
3552.000000	0.007515
3551.000000	0.007557
3550.000000	0.007583
3549.000000	0.007609
3548.000000	0.007651
3547.000000	0.007707
3546.000000	0.007766
3545.000000	0.007816
3544.000000	0.007853
3543.000000	0.007885
3542.000000	0.007920
3541.000000	0.007967
3540.000000	0.008026
3539.000000	0.008095
3538.000000	0.008168
3537.000000	0.008237
3536.000000	0.008301
3535.000000	0.008362
3534.000000	0.008424
3533.000000	0.008487
3532.000000	0.008547
3531.000000	0.008602
3530.000000	0.008657
3529.000000	0.008725
3528.000000	0.008806
3527.000000	0.008890
3526.000000	0.008962
3525.000000	0.009015
3524.000000	0.009055
3523.000000	0.009099
3522.000000	0.009156
3521.000000	0.009222
3520.000000	0.009285
3519.000000	0.009340
3518.000000	0.009387
3517.000000	0.009432
3516.000000	0.009474
3515.000000	0.009512
3514.000000	0.009551
3513.000000	0.009602
3512.000000	0.009672
3511.000000	0.009757
3510.000000	0.009845
3509.000000	0.009917
3508.000000	0.009961
3507.000000	0.009982
3506.000000	0.009993
3505.000000	0.010009
3504.000000	0.010038
3503.000000	0.010078
3502.000000	0.010128
3501.000000	0.010188
3500.000000	0.010257
3499.000000	0.010334
3498.000000	0.010409
3497.000000	0.010475
3496.000000	0.010531
3495.000000	0.010584
3494.000000	0.010641
3493.000000	0.010704
3492.000000	0.010765
3491.000000	0.010812
3490.000000	0.010838
3489.000000	0.010842
3488.000000	0.010837
3487.000000	0.010839
3486.000000	0.010865
3485.000000	0.010918
3484.000000	0.010983
3483.000000	0.011043
3482.000000	0.011090
3481.000000	0.011130
3480.000000	0.011172
3479.000000	0.011214
3478.000000	0.011250
3477.000000	0.011286
3476.000000	0.011331
3475.000000	0.011395
3474.000000	0.011470
3473.000000	0.011538
3472.000000	0.011588
3471.000000	0.011622
3470.000000	0.011658
3469.000000	0.011709
3468.000000	0.011772
3467.000000	0.011835
3466.000000	0.011882
3465.000000	0.011908
3464.000000	0.011919
3463.000000	0.011928
3462.000000	0.011942
3461.000000	0.011963
3460.000000	0.011992
3459.000000	0.012031
3458.000000	0.012083
3457.000000	0.012141
3456.000000	0.012198
3455.000000	0.012252
3454.000000	0.012309
3453.000000	0.012373
3452.000000	0.012436
3451.000000	0.012491
3450.000000	0.012536
3449.000000	0.012577
3448.000000	0.012620
3447.000000	0.012668
3446.000000	0.012723
3445.000000	0.012778
3444.000000	0.012821
3443.000000	0.012847
3442.000000	0.012869
3441.000000	0.012905
3440.000000	0.012961
3439.000000	0.013030
3438.000000	0.013105
3437.000000	0.013183
3436.000000	0.013261
3435.000000	0.013336
3434.000000	0.013401
3433.000000	0.013457
3432.000000	0.013505
3431.000000	0.013545
3430.000000	0.013577
3429.000000	0.013600
3428.000000	0.013620
3427.000000	0.013643
3426.000000	0.013669
3425.000000	0.013699
3424.000000	0.013733
3423.000000	0.013770
3422.000000	0.013814
3421.000000	0.013867
3420.000000	0.013925
3419.000000	0.013983
3418.000000	0.014039
3417.000000	0.014097
3416.000000	0.014156
3415.000000	0.014213
3414.000000	0.014263
3413.000000	0.014307
3412.000000	0.014354
3411.000000	0.014410
3410.000000	0.014479
3409.000000	0.014556
3408.000000	0.014631
3407.000000	0.014693
3406.000000	0.014733
3405.000000	0.014745
3404.000000	0.014737
3403.000000	0.014726
3402.000000	0.014734
3401.000000	0.014775
3400.000000	0.014846
3399.000000	0.014928
3398.000000	0.015004
3397.000000	0.015062
3396.000000	0.015103
3395.000000	0.015136
3394.000000	0.015167
3393.000000	0.015196
3392.000000	0.015223
3391.000000	0.015252
3390.000000	0.015293
3389.000000	0.015355
3388.000000	0.015433
3387.000000	0.015514
3386.000000	0.015585
3385.000000	0.015643
3384.000000	0.015691
3383.000000	0.015734
3382.000000	0.015776
3381.000000	0.015819
3380.000000	0.015866
3379.000000	0.015917
3378.000000	0.015968
3377.000000	0.016016
3376.000000	0.016064
3375.000000	0.016122
3374.000000	0.016198
3373.000000	0.016292
3372.000000	0.016388
3371.000000	0.016466
3370.000000	0.016518
3369.000000	0.016558
3368.000000	0.016599
3367.000000	0.016648
3366.000000	0.016698
3365.000000	0.016749
3364.000000	0.016806
3363.000000	0.016882
3362.000000	0.016979
3361.000000	0.017083
3360.000000	0.017173
3359.000000	0.017237
3358.000000	0.017283
3357.000000	0.017331
3356.000000	0.017395
3355.000000	0.017475
3354.000000	0.017562
3353.000000	0.017648
3352.000000	0.017733
3351.000000	0.017820
3350.000000	0.017911
3349.000000	0.018002
3348.000000	0.018087
3347.000000	0.018162
3346.000000	0.018225
3345.000000	0.018281
3344.000000	0.018334
3343.000000	0.018393
3342.000000	0.018461
3341.000000	0.018534
3340.000000	0.018608
3339.000000	0.018681
3338.000000	0.018755
3337.000000	0.018833
3336.000000	0.018904
3335.000000	0.018960
3334.000000	0.019009
3333.000000	0.019070
3332.000000	0.019153
3331.000000	0.019246
3330.000000	0.019323
3329.000000	0.019370
3328.000000	0.019393
3327.000000	0.019413
3326.000000	0.019449
3325.000000	0.019510
3324.000000	0.019588
3323.000000	0.019669
3322.000000	0.019740
3321.000000	0.019794
3320.000000	0.019834
3319.000000	0.019869
3318.000000	0.019909
3317.000000	0.019957
3316.000000	0.020010
3315.000000	0.020064
3314.000000	0.020117
3313.000000	0.020172
3312.000000	0.020228
3311.000000	0.020273
3310.000000	0.020299
3309.000000	0.020310
3308.000000	0.020323
3307.000000	0.020356
3306.000000	0.020411
3305.000000	0.020473
3304.000000	0.020524
3303.000000	0.020556
3302.000000	0.020577
3301.000000	0.020597
3300.000000	0.020616
3299.000000	0.020631
3298.000000	0.020641
3297.000000	0.020655
3296.000000	0.020679
3295.000000	0.020711
3294.000000	0.020742
3293.000000	0.020765
3292.000000	0.020784
3291.000000	0.020804
3290.000000	0.020828
3289.000000	0.020849
3288.000000	0.020861
3287.000000	0.020860
3286.000000	0.020848
3285.000000	0.020828
3284.000000	0.020811
3283.000000	0.020803
3282.000000	0.020805
3281.000000	0.020809
3280.000000	0.020805
3279.000000	0.020786
3278.000000	0.020754
3277.000000	0.020718
3276.000000	0.020687
3275.000000	0.020665
3274.000000	0.020646
3273.000000	0.020621
3272.000000	0.020586
3271.000000	0.020546
3270.000000	0.020508
3269.000000	0.020470
3268.000000	0.020431
3267.000000	0.020389
3266.000000	0.020344
3265.000000	0.020295
3264.000000	0.020244
3263.000000	0.020195
3262.000000	0.020151
3261.000000	0.020114
3260.000000	0.020075
3259.000000	0.020031
3258.000000	0.019979
3257.000000	0.019917
3256.000000	0.019845
3255.000000	0.019771
3254.000000	0.019706
3253.000000	0.019654
3252.000000	0.019606
3251.000000	0.019547
3250.000000	0.019474
3249.000000	0.019393
3248.000000	0.019314
3247.000000	0.019248
3246.000000	0.019203
3245.000000	0.019181
3244.000000	0.019171
3243.000000	0.019154
3242.000000	0.019115
3241.000000	0.019055
3240.000000	0.018987
3239.000000	0.018928
3238.000000	0.018887
3237.000000	0.018859
3236.000000	0.018830
3235.000000	0.018788
3234.000000	0.018734
3233.000000	0.018680
3232.000000	0.018634
3231.000000	0.018597
3230.000000	0.018566
3229.000000	0.018538
3228.000000	0.018514
3227.000000	0.018497
3226.000000	0.018487
3225.000000	0.018479
3224.000000	0.018464
3223.000000	0.018437
3222.000000	0.018401
3221.000000	0.018360
3220.000000	0.018318
3219.000000	0.018275
3218.000000	0.018228
3217.000000	0.018176
3216.000000	0.018115
3215.000000	0.018048
3214.000000	0.017984
3213.000000	0.017926
3212.000000	0.017871
3211.000000	0.017814
3210.000000	0.017756
3209.000000	0.017705
3208.000000	0.017666
3207.000000	0.017639
3206.000000	0.017619
3205.000000	0.017598
3204.000000	0.017570
3203.000000	0.017531
3202.000000	0.017485
3201.000000	0.017438
3200.000000	0.017388
3199.000000	0.017334
3198.000000	0.017278
3197.000000	0.017224
3196.000000	0.017168
3195.000000	0.017104
3194.000000	0.017031
3193.000000	0.016962
3192.000000	0.016909
3191.000000	0.016877
3190.000000	0.016859
3189.000000	0.016836
3188.000000	0.016794
3187.000000	0.016727
3186.000000	0.016643
3185.000000	0.016559
3184.000000	0.016488
3183.000000	0.016433
3182.000000	0.016389
3181.000000	0.016347
3180.000000	0.016296
3179.000000	0.016232
3178.000000	0.016158
3177.000000	0.016077
3176.000000	0.015991
3175.000000	0.015898
3174.000000	0.015804
3173.000000	0.015720
3172.000000	0.015654
3171.000000	0.015601
3170.000000	0.015551
3169.000000	0.015494
3168.000000	0.015428
3167.000000	0.015357
3166.000000	0.015290
3165.000000	0.015238
3164.000000	0.015200
3163.000000	0.015167
3162.000000	0.015134
3161.000000	0.015100
3160.000000	0.015066
3159.000000	0.015028
3158.000000	0.014982
3157.000000	0.014927
3156.000000	0.014867
3155.000000	0.014801
3154.000000	0.014724
3153.000000	0.014638
3152.000000	0.014547
3151.000000	0.014457
3150.000000	0.014374
3149.000000	0.014308
3148.000000	0.014265
3147.000000	0.014241
3146.000000	0.014222
3145.000000	0.014195
3144.000000	0.014160
3143.000000	0.014127
3142.000000	0.014097
3141.000000	0.014067
3140.000000	0.014029
3139.000000	0.013984
3138.000000	0.013932
3137.000000	0.013876
3136.000000	0.013819
3135.000000	0.013768
3134.000000	0.013726
3133.000000	0.013695
3132.000000	0.013670
3131.000000	0.013646
3130.000000	0.013621
3129.000000	0.013597
3128.000000	0.013575
3127.000000	0.013550
3126.000000	0.013522
3125.000000	0.013493
3124.000000	0.013465
3123.000000	0.013435
3122.000000	0.013398
3121.000000	0.013356
3120.000000	0.013319
3119.000000	0.013303
3118.000000	0.013313
3117.000000	0.013335
3116.000000	0.013347
3115.000000	0.013339
3114.000000	0.013318
3113.000000	0.013300
3112.000000	0.013296
3111.000000	0.013300
3110.000000	0.013302
3109.000000	0.013296
3108.000000	0.013290
3107.000000	0.013294
3106.000000	0.013315
3105.000000	0.013347
3104.000000	0.013370
3103.000000	0.013373
3102.000000	0.013363
3101.000000	0.013358
3100.000000	0.013370
3099.000000	0.013390
3098.000000	0.013405
3097.000000	0.013409
3096.000000	0.013413
3095.000000	0.013427
3094.000000	0.013454
3093.000000	0.013488
3092.000000	0.013516
3091.000000	0.013532
3090.000000	0.013535
3089.000000	0.013532
3088.000000	0.013529
3087.000000	0.013527
3086.000000	0.013529
3085.000000	0.013536
3084.000000	0.013557
3083.000000	0.013590
3082.000000	0.013629
3081.000000	0.013660
3080.000000	0.013670
3079.000000	0.013658
3078.000000	0.013635
3077.000000	0.013619
3076.000000	0.013625
3075.000000	0.013650
3074.000000	0.013681
3073.000000	0.013701
3072.000000	0.013701
3071.000000	0.013682
3070.000000	0.013649
3069.000000	0.013616
3068.000000	0.013594
3067.000000	0.013590
3066.000000	0.013596
3065.000000	0.013594
3064.000000	0.013574
3063.000000	0.013536
3062.000000	0.013489
3061.000000	0.013440
3060.000000	0.013393
3059.000000	0.013347
3058.000000	0.013302
3057.000000	0.013256
3056.000000	0.013202
3055.000000	0.013138
3054.000000	0.013068
3053.000000	0.013001
3052.000000	0.012947
3051.000000	0.012907
3050.000000	0.012870
3049.000000	0.012824
3048.000000	0.012763
3047.000000	0.012696
3046.000000	0.012633
3045.000000	0.012574
3044.000000	0.012514
3043.000000	0.012449
3042.000000	0.012388
3041.000000	0.012342
3040.000000	0.012314
3039.000000	0.012293
3038.000000	0.012268
3037.000000	0.012232
3036.000000	0.012187
3035.000000	0.012138
3034.000000	0.012087
3033.000000	0.012034
3032.000000	0.011976
3031.000000	0.011915
3030.000000	0.011863
3029.000000	0.011825
3028.000000	0.011799
3027.000000	0.011772
3026.000000	0.011739
3025.000000	0.011703
3024.000000	0.011670
3023.000000	0.011643
3022.000000	0.011620
3021.000000	0.011598
3020.000000	0.011575
3019.000000	0.011552
3018.000000	0.011535
3017.000000	0.011530
3016.000000	0.011538
3015.000000	0.011550
3014.000000	0.011561
3013.000000	0.011570
3012.000000	0.011580
3011.000000	0.011590
3010.000000	0.011596
3009.000000	0.011598
3008.000000	0.011600
3007.000000	0.011601
3006.000000	0.011601
3005.000000	0.011596
3004.000000	0.011584
3003.000000	0.011564
3002.000000	0.011534
3001.000000	0.011498
3000.000000	0.011465
2999.000000	0.011445
2998.000000	0.011441
2997.000000	0.011450
2996.000000	0.011464
2995.000000	0.011475
2994.000000	0.011482
2993.000000	0.011487
2992.000000	0.011494
2991.000000	0.011507
2990.000000	0.011533
2989.000000	0.011579
2988.000000	0.011649
2987.000000	0.011741
2986.000000	0.011846
2985.000000	0.011954
2984.000000	0.012064
2983.000000	0.012177
2982.000000	0.012295
2981.000000	0.012415
2980.000000	0.012533
2979.000000	0.012650
2978.000000	0.012772
2977.000000	0.012903
2976.000000	0.013044
2975.000000	0.013190
2974.000000	0.013338
2973.000000	0.013482
2972.000000	0.013623
2971.000000	0.013762
2970.000000	0.013903
2969.000000	0.014048
2968.000000	0.014197
2967.000000	0.014355
2966.000000	0.014526
2965.000000	0.014710
2964.000000	0.014895
2963.000000	0.015064
2962.000000	0.015206
2961.000000	0.015320
2960.000000	0.015411
2959.000000	0.015486
2958.000000	0.015548
2957.000000	0.015599
2956.000000	0.015638
2955.000000	0.015664
2954.000000	0.015679
2953.000000	0.015683
2952.000000	0.015679
2951.000000	0.015672
2950.000000	0.015664
2949.000000	0.015662
2948.000000	0.015667
2947.000000	0.015677
2946.000000	0.015690
2945.000000	0.015706
2944.000000	0.015743
2943.000000	0.015826
2942.000000	0.015972
2941.000000	0.016168
2940.000000	0.016381
2939.000000	0.016586
2938.000000	0.016787
2937.000000	0.017005
2936.000000	0.017250
2935.000000	0.017510
2934.000000	0.017768
2933.000000	0.018014
2932.000000	0.018252
2931.000000	0.018488
2930.000000	0.018733
2929.000000	0.018999
2928.000000	0.019282
2927.000000	0.019569
2926.000000	0.019846
2925.000000	0.020114
2924.000000	0.020379
2923.000000	0.020640
2922.000000	0.020883
2921.000000	0.021087
2920.000000	0.021229
2919.000000	0.021292
2918.000000	0.021267
2917.000000	0.021160
2916.000000	0.020975
2915.000000	0.020722
2914.000000	0.020413
2913.000000	0.020070
2912.000000	0.019716
2911.000000	0.019370
2910.000000	0.019045
2909.000000	0.018747
2908.000000	0.018476
2907.000000	0.018224
2906.000000	0.017982
2905.000000	0.017752
2904.000000	0.017543
2903.000000	0.017361
2902.000000	0.017196
2901.000000	0.017035
2900.000000	0.016867
2899.000000	0.016693
2898.000000	0.016519
2897.000000	0.016351
2896.000000	0.016193
2895.000000	0.016039
2894.000000	0.015884
2893.000000	0.015729
2892.000000	0.015582
2891.000000	0.015452
2890.000000	0.015339
2889.000000	0.015237
2888.000000	0.015139
2887.000000	0.015038
2886.000000	0.014935
2885.000000	0.014829
2884.000000	0.014722
2883.000000	0.014620
2882.000000	0.014532
2881.000000	0.014468
2880.000000	0.014435
2879.000000	0.014432
2878.000000	0.014447
2877.000000	0.014466
2876.000000	0.014482
2875.000000	0.014501
2874.000000	0.014536
2873.000000	0.014591
2872.000000	0.014652
2871.000000	0.014695
2870.000000	0.014709
2869.000000	0.014694
2868.000000	0.014655
2867.000000	0.014600
2866.000000	0.014539
2865.000000	0.014490
2864.000000	0.014471
2863.000000	0.014498
2862.000000	0.014577
2861.000000	0.014714
2860.000000	0.014908
2859.000000	0.015157
2858.000000	0.015452
2857.000000	0.015776
2856.000000	0.016113
2855.000000	0.016453
2854.000000	0.016785
2853.000000	0.017086
2852.000000	0.017317
2851.000000	0.017427
2850.000000	0.017380
2849.000000	0.017170
2848.000000	0.016821
2847.000000	0.016375
2846.000000	0.015876
2845.000000	0.015365
2844.000000	0.014871
2843.000000	0.014408
2842.000000	0.013985
2841.000000	0.013606
2840.000000	0.013276
2839.000000	0.012988
2838.000000	0.012728
2837.000000	0.012487
2836.000000	0.012269
2835.000000	0.012082
2834.000000	0.011924
2833.000000	0.011785
2832.000000	0.011651
2831.000000	0.011519
2830.000000	0.011392
2829.000000	0.011275
2828.000000	0.011169
2827.000000	0.011069
2826.000000	0.010969
2825.000000	0.010860
2824.000000	0.010736
2823.000000	0.010605
2822.000000	0.010485
2821.000000	0.010389
2820.000000	0.010319
2819.000000	0.010260
2818.000000	0.010196
2817.000000	0.010121
2816.000000	0.010039
2815.000000	0.009965
2814.000000	0.009906
2813.000000	0.009861
2812.000000	0.009817
2811.000000	0.009766
2810.000000	0.009710
2809.000000	0.009652
2808.000000	0.009597
2807.000000	0.009547
2806.000000	0.009505
2805.000000	0.009471
2804.000000	0.009440
2803.000000	0.009403
2802.000000	0.009355
2801.000000	0.009299
2800.000000	0.009245
2799.000000	0.009202
2798.000000	0.009175
2797.000000	0.009160
2796.000000	0.009149
2795.000000	0.009132
2794.000000	0.009102
2793.000000	0.009060
2792.000000	0.009013
2791.000000	0.008973
2790.000000	0.008949
2789.000000	0.008938
2788.000000	0.008930
2787.000000	0.008905
2786.000000	0.008859
2785.000000	0.008803
2784.000000	0.008750
2783.000000	0.008706
2782.000000	0.008666
2781.000000	0.008626
2780.000000	0.008588
2779.000000	0.008559
2778.000000	0.008539
2777.000000	0.008524
2776.000000	0.008506
2775.000000	0.008484
2774.000000	0.008459
2773.000000	0.008437
2772.000000	0.008417
2771.000000	0.008400
2770.000000	0.008386
2769.000000	0.008372
2768.000000	0.008353
2767.000000	0.008327
2766.000000	0.008296
2765.000000	0.008266
2764.000000	0.008242
2763.000000	0.008224
2762.000000	0.008209
2761.000000	0.008196
2760.000000	0.008184
2759.000000	0.008170
2758.000000	0.008157
2757.000000	0.008149
2756.000000	0.008146
2755.000000	0.008136
2754.000000	0.008109
2753.000000	0.008065
2752.000000	0.008018
2751.000000	0.007984
2750.000000	0.007970
2749.000000	0.007972
2748.000000	0.007978
2747.000000	0.007980
2746.000000	0.007978
2745.000000	0.007977
2744.000000	0.007973
2743.000000	0.007958
2742.000000	0.007923
2741.000000	0.007876
2740.000000	0.007831
2739.000000	0.007797
2738.000000	0.007774
2737.000000	0.007757
2736.000000	0.007742
2735.000000	0.007727
2734.000000	0.007712
2733.000000	0.007697
2732.000000	0.007684
2731.000000	0.007673
2730.000000	0.007665
2729.000000	0.007657
2728.000000	0.007649
2727.000000	0.007642
2726.000000	0.007634
2725.000000	0.007620
2724.000000	0.007598
2723.000000	0.007569
2722.000000	0.007536
2721.000000	0.007505
2720.000000	0.007479
2719.000000	0.007455
2718.000000	0.007432
2717.000000	0.007409
2716.000000	0.007389
2715.000000	0.007369
2714.000000	0.007350
2713.000000	0.007332
2712.000000	0.007316
2711.000000	0.007301
2710.000000	0.007286
2709.000000	0.007271
2708.000000	0.007261
2707.000000	0.007256
2706.000000	0.007250
2705.000000	0.007237
2704.000000	0.007216
2703.000000	0.007196
2702.000000	0.007180
2701.000000	0.007167
2700.000000	0.007152
2699.000000	0.007130
2698.000000	0.007100
2697.000000	0.007070
2696.000000	0.007049
2695.000000	0.007044
2694.000000	0.007053
2693.000000	0.007069
2692.000000	0.007080
2691.000000	0.007082
2690.000000	0.007081
2689.000000	0.007087
2688.000000	0.007102
2687.000000	0.007117
2686.000000	0.007117
2685.000000	0.007094
2684.000000	0.007062
2683.000000	0.007039
2682.000000	0.007036
2681.000000	0.007043
2680.000000	0.007042
2679.000000	0.007023
2678.000000	0.006991
2677.000000	0.006962
2676.000000	0.006948
2675.000000	0.006949
2674.000000	0.006959
2673.000000	0.006967
2672.000000	0.006970
2671.000000	0.006968
2670.000000	0.006967
2669.000000	0.006967
2668.000000	0.006966
2667.000000	0.006960
2666.000000	0.006946
2665.000000	0.006926
2664.000000	0.006902
2663.000000	0.006880
2662.000000	0.006865
2661.000000	0.006857
2660.000000	0.006851
2659.000000	0.006840
2658.000000	0.006820
2657.000000	0.006796
2656.000000	0.006775
2655.000000	0.006760
2654.000000	0.006752
2653.000000	0.006745
2652.000000	0.006733
2651.000000	0.006707
2650.000000	0.006661
2649.000000	0.006601
2648.000000	0.006542
2647.000000	0.006503
2646.000000	0.006487
2645.000000	0.006481
2644.000000	0.006467
2643.000000	0.006440
2642.000000	0.006409
2641.000000	0.006384
2640.000000	0.006364
2639.000000	0.006344
2638.000000	0.006316
2637.000000	0.006282
2636.000000	0.006247
2635.000000	0.006212
2634.000000	0.006177
2633.000000	0.006142
2632.000000	0.006108
2631.000000	0.006079
2630.000000	0.006063
2629.000000	0.006058
2628.000000	0.006055
2627.000000	0.006037
2626.000000	0.005998
2625.000000	0.005946
2624.000000	0.005904
2623.000000	0.005890
2622.000000	0.005906
2621.000000	0.005939
2620.000000	0.005967
2619.000000	0.005971
2618.000000	0.005943
2617.000000	0.005892
2616.000000	0.005836
2615.000000	0.005791
2614.000000	0.005761
2613.000000	0.005736
2612.000000	0.005709
2611.000000	0.005683
2610.000000	0.005667
2609.000000	0.005661
2608.000000	0.005656
2607.000000	0.005649
2606.000000	0.005644
2605.000000	0.005646
2604.000000	0.005648
2603.000000	0.005639
2602.000000	0.005617
2601.000000	0.005594
2600.000000	0.005578
2599.000000	0.005568
2598.000000	0.005552
2597.000000	0.005529
2596.000000	0.005508
2595.000000	0.005499
2594.000000	0.005495
2593.000000	0.005479
2592.000000	0.005443
2591.000000	0.005403
2590.000000	0.005383
2589.000000	0.005390
2588.000000	0.005405
2587.000000	0.005403
2586.000000	0.005374
2585.000000	0.005328
2584.000000	0.005280
2583.000000	0.005242
2582.000000	0.005225
2581.000000	0.005226
2580.000000	0.005232
2579.000000	0.005227
2578.000000	0.005209
2577.000000	0.005186
2576.000000	0.005162
2575.000000	0.005138
2574.000000	0.005117
2573.000000	0.005110
2572.000000	0.005122
2571.000000	0.005140
2570.000000	0.005148
2569.000000	0.005144
2568.000000	0.005147
2567.000000	0.005177
2566.000000	0.005224
2565.000000	0.005251
2564.000000	0.005227
2563.000000	0.005155
2562.000000	0.005076
2561.000000	0.005028
2560.000000	0.005017
2559.000000	0.005018
2558.000000	0.005005
2557.000000	0.004980
2556.000000	0.004968
2555.000000	0.004990
2554.000000	0.005041
2553.000000	0.005088
2552.000000	0.005098
2551.000000	0.005064
2550.000000	0.005008
2549.000000	0.004957
2548.000000	0.004921
2547.000000	0.004900
2546.000000	0.004889
2545.000000	0.004884
2544.000000	0.004876
2543.000000	0.004854
2542.000000	0.004818
2541.000000	0.004785
2540.000000	0.004781
2539.000000	0.004821
2538.000000	0.004895
2537.000000	0.004971
2536.000000	0.005019
2535.000000	0.005028
2534.000000	0.005009
2533.000000	0.004976
2532.000000	0.004938
2531.000000	0.004899
2530.000000	0.004865
2529.000000	0.004839
2528.000000	0.004821
2527.000000	0.004816
2526.000000	0.004830
2525.000000	0.004852
2524.000000	0.004859
2523.000000	0.004842
2522.000000	0.004817
2521.000000	0.004799
2520.000000	0.004788
2519.000000	0.004774
2518.000000	0.004767
2517.000000	0.004780
2516.000000	0.004816
2515.000000	0.004853
2514.000000	0.004875
2513.000000	0.004881
2512.000000	0.004868
2511.000000	0.004835
2510.000000	0.004789
2509.000000	0.004754
2508.000000	0.004749
2507.000000	0.004770
2506.000000	0.004794
2505.000000	0.004801
2504.000000	0.004786
2503.000000	0.004751
2502.000000	0.004704
2501.000000	0.004656
2500.000000	0.004618
2499.000000	0.004600
2498.000000	0.004599
2497.000000	0.004604
2496.000000	0.004602
2495.000000	0.004588
2494.000000	0.004573
2493.000000	0.004567
2492.000000	0.004574
2491.000000	0.004590
2490.000000	0.004608
2489.000000	0.004619
2488.000000	0.004613
2487.000000	0.004590
2486.000000	0.004570
2485.000000	0.004570
2484.000000	0.004588
2483.000000	0.004602
2482.000000	0.004596
2481.000000	0.004576
2480.000000	0.004553
2479.000000	0.004537
2478.000000	0.004530
2477.000000	0.004533
2476.000000	0.004540
2475.000000	0.004535
2474.000000	0.004514
2473.000000	0.004487
2472.000000	0.004467
2471.000000	0.004459
2470.000000	0.004459
2469.000000	0.004462
2468.000000	0.004465
2467.000000	0.004462
2466.000000	0.004451
2465.000000	0.004433
2464.000000	0.004418
2463.000000	0.004417
2462.000000	0.004438
2461.000000	0.004478
2460.000000	0.004518
2459.000000	0.004535
2458.000000	0.004529
2457.000000	0.004517
2456.000000	0.004517
2455.000000	0.004526
2454.000000	0.004530
2453.000000	0.004522
2452.000000	0.004507
2451.000000	0.004495
2450.000000	0.004492
2449.000000	0.004495
2448.000000	0.004496
2447.000000	0.004487
2446.000000	0.004463
2445.000000	0.004431
2444.000000	0.004402
2443.000000	0.004384
2442.000000	0.004378
2441.000000	0.004377
2440.000000	0.004377
2439.000000	0.004375
2438.000000	0.004374
2437.000000	0.004376
2436.000000	0.004377
2435.000000	0.004370
2434.000000	0.004349
2433.000000	0.004321
2432.000000	0.004296
2431.000000	0.004289
2430.000000	0.004310
2429.000000	0.004355
2428.000000	0.004409
2427.000000	0.004451
2426.000000	0.004468
2425.000000	0.004457
2424.000000	0.004426
2423.000000	0.004389
2422.000000	0.004360
2421.000000	0.004339
2420.000000	0.004319
2419.000000	0.004301
2418.000000	0.004296
2417.000000	0.004316
2416.000000	0.004350
2415.000000	0.004372
2414.000000	0.004363
2413.000000	0.004323
2412.000000	0.004265
2411.000000	0.004208
2410.000000	0.004163
2409.000000	0.004144
2408.000000	0.004153
2407.000000	0.004184
2406.000000	0.004219
2405.000000	0.004243
2404.000000	0.004247
2403.000000	0.004239
2402.000000	0.004231
2401.000000	0.004229
2400.000000	0.004226
2399.000000	0.004224
2398.000000	0.004231
2397.000000	0.004249
2396.000000	0.004269
2395.000000	0.004282
2394.000000	0.004297
2393.000000	0.004331
2392.000000	0.004381
2391.000000	0.004425
2390.000000	0.004445
2389.000000	0.004439
2388.000000	0.004420
2387.000000	0.004401
2386.000000	0.004387
2385.000000	0.004379
2384.000000	0.004370
2383.000000	0.004358
2382.000000	0.004345
2381.000000	0.004335
2380.000000	0.004329
2379.000000	0.004331
2378.000000	0.004349
2377.000000	0.004382
2376.000000	0.004404
2375.000000	0.004390
2374.000000	0.004347
2373.000000	0.004310
2372.000000	0.004299
2371.000000	0.004305
2370.000000	0.004317
2369.000000	0.004338
2368.000000	0.004367
2367.000000	0.004398
2366.000000	0.004432
2365.000000	0.004479
2364.000000	0.004530
2363.000000	0.004552
2362.000000	0.004525
2361.000000	0.004475
2360.000000	0.004440
2359.000000	0.004424
2358.000000	0.004407
2357.000000	0.004384
2356.000000	0.004384
2355.000000	0.004427
2354.000000	0.004482
2353.000000	0.004507
2352.000000	0.004495
2351.000000	0.004479
2350.000000	0.004488
2349.000000	0.004516
2348.000000	0.004545
2347.000000	0.004551
2346.000000	0.004538
2345.000000	0.004533
2344.000000	0.004558
2343.000000	0.004597
2342.000000	0.004619
2341.000000	0.004607
2340.000000	0.004579
2339.000000	0.004551
2338.000000	0.004532
2337.000000	0.004524
2336.000000	0.004542
2335.000000	0.004585
2334.000000	0.004630
2333.000000	0.004640
2332.000000	0.004609
2331.000000	0.004564
2330.000000	0.004539
2329.000000	0.004542
2328.000000	0.004571
2327.000000	0.004621
2326.000000	0.004691
2325.000000	0.004761
2324.000000	0.004798
2323.000000	0.004778
2322.000000	0.004716
2321.000000	0.004654
2320.000000	0.004619
2319.000000	0.004600
2318.000000	0.004576
2317.000000	0.004543
2316.000000	0.004518
2315.000000	0.004513
2314.000000	0.004525
2313.000000	0.004541
2312.000000	0.004547
2311.000000	0.004539
2310.000000	0.004516
2309.000000	0.004481
2308.000000	0.004434
2307.000000	0.004380
2306.000000	0.004328
2305.000000	0.004293
2304.000000	0.004284
2303.000000	0.004294
2302.000000	0.004309
2301.000000	0.004321
2300.000000	0.004327
2299.000000	0.004329
2298.000000	0.004329
2297.000000	0.004325
2296.000000	0.004317
2295.000000	0.004311
2294.000000	0.004312
2293.000000	0.004316
2292.000000	0.004318
2291.000000	0.004319
2290.000000	0.004329
2289.000000	0.004353
2288.000000	0.004376
2287.000000	0.004379
2286.000000	0.004357
2285.000000	0.004326
2284.000000	0.004304
2283.000000	0.004304
2282.000000	0.004326
2281.000000	0.004359
2280.000000	0.004380
2279.000000	0.004373
2278.000000	0.004345
2277.000000	0.004312
2276.000000	0.004278
2275.000000	0.004237
2274.000000	0.004190
2273.000000	0.004146
2272.000000	0.004101
2271.000000	0.004044
2270.000000	0.003972
2269.000000	0.003906
2268.000000	0.003879
2267.000000	0.003906
2266.000000	0.003974
2265.000000	0.004046
2264.000000	0.004082
2263.000000	0.004071
2262.000000	0.004032
2261.000000	0.003985
2260.000000	0.003925
2259.000000	0.003847
2258.000000	0.003774
2257.000000	0.003738
2256.000000	0.003740
2255.000000	0.003749
2254.000000	0.003743
2253.000000	0.003729
2252.000000	0.003733
2251.000000	0.003776
2250.000000	0.003870
2249.000000	0.003999
2248.000000	0.004107
2247.000000	0.004141
2246.000000	0.004097
2245.000000	0.004020
2244.000000	0.003948
2243.000000	0.003888
2242.000000	0.003850
2241.000000	0.003862
2240.000000	0.003941
2239.000000	0.004067
2238.000000	0.004204
2237.000000	0.004309
2236.000000	0.004345
2235.000000	0.004294
2234.000000	0.004189
2233.000000	0.004101
2232.000000	0.004083
2231.000000	0.004119
2230.000000	0.004149
2229.000000	0.004131
2228.000000	0.004071
2227.000000	0.004012
2226.000000	0.003988
2225.000000	0.003998
2224.000000	0.004007
2223.000000	0.003984
2222.000000	0.003934
2221.000000	0.003872
2220.000000	0.003799
2219.000000	0.003726
2218.000000	0.003695
2217.000000	0.003744
2216.000000	0.003835
2215.000000	0.003885
2214.000000	0.003861
2213.000000	0.003799
2212.000000	0.003730
2211.000000	0.003633
2210.000000	0.003500
2209.000000	0.003388
2208.000000	0.003366
2207.000000	0.003426
2206.000000	0.003506
2205.000000	0.003567
2204.000000	0.003629
2203.000000	0.003706
2202.000000	0.003765
2201.000000	0.003742
2200.000000	0.003619
2199.000000	0.003454
2198.000000	0.003335
2197.000000	0.003307
2196.000000	0.003340
2195.000000	0.003378
2194.000000	0.003401
2193.000000	0.003408
2192.000000	0.003374
2191.000000	0.003274
2190.000000	0.003141
2189.000000	0.003065
2188.000000	0.003105
2187.000000	0.003230
2186.000000	0.003365
2185.000000	0.003462
2184.000000	0.003525
2183.000000	0.003574
2182.000000	0.003613
2181.000000	0.003628
2180.000000	0.003608
2179.000000	0.003577
2178.000000	0.003584
2177.000000	0.003635
2176.000000	0.003669
2175.000000	0.003614
2174.000000	0.003478
2173.000000	0.003344
2172.000000	0.003277
2171.000000	0.003276
2170.000000	0.003288
2169.000000	0.003260
2168.000000	0.003159
2167.000000	0.003016
2166.000000	0.002930
2165.000000	0.002999
2164.000000	0.003215
2163.000000	0.003454
2162.000000	0.003596
2161.000000	0.003598
2160.000000	0.003484
2159.000000	0.003301
2158.000000	0.003104
2157.000000	0.002928
2156.000000	0.002782
2155.000000	0.002697
2154.000000	0.002734
2153.000000	0.002905
2152.000000	0.003098
2151.000000	0.003162
2150.000000	0.003068
2149.000000	0.002944
2148.000000	0.002938
2147.000000	0.003077
2146.000000	0.003273
2145.000000	0.003411
2144.000000	0.003434
2143.000000	0.003359
2142.000000	0.003258
2141.000000	0.003208
2140.000000	0.003248
2139.000000	0.003366
2138.000000	0.003515
2137.000000	0.003641
2136.000000	0.003707
2135.000000	0.003709
2134.000000	0.003666
2133.000000	0.003601
2132.000000	0.003523
2131.000000	0.003453
2130.000000	0.003417
2129.000000	0.003425
2128.000000	0.003464
2127.000000	0.003523
2126.000000	0.003604
2125.000000	0.003692
2124.000000	0.003751
2123.000000	0.003757
2122.000000	0.003742
2121.000000	0.003750
2120.000000	0.003791
2119.000000	0.003843
2118.000000	0.003889
2117.000000	0.003921
2116.000000	0.003920
2115.000000	0.003870
2114.000000	0.003801
2113.000000	0.003771
2112.000000	0.003811
2111.000000	0.003888
2110.000000	0.003952
2109.000000	0.003979
2108.000000	0.003973
2107.000000	0.003957
2106.000000	0.003950
2105.000000	0.003956
2104.000000	0.003949
2103.000000	0.003907
2102.000000	0.003849
2101.000000	0.003818
2100.000000	0.003834
2099.000000	0.003876
2098.000000	0.003922
2097.000000	0.003963
2096.000000	0.003987
2095.000000	0.003969
2094.000000	0.003903
2093.000000	0.003817
2092.000000	0.003752
2091.000000	0.003732
2090.000000	0.003758
2089.000000	0.003807
2088.000000	0.003842
2087.000000	0.003850
2086.000000	0.003861
2085.000000	0.003910
2084.000000	0.003978
2083.000000	0.004007
2082.000000	0.003978
2081.000000	0.003936
2080.000000	0.003939
2079.000000	0.003974
2078.000000	0.003970
2077.000000	0.003878
2076.000000	0.003719
2075.000000	0.003571
2074.000000	0.003487
2073.000000	0.003452
2072.000000	0.003420
2071.000000	0.003386
2070.000000	0.003405
2069.000000	0.003508
2068.000000	0.003634
2067.000000	0.003690
2066.000000	0.003663
2065.000000	0.003627
2064.000000	0.003644
2063.000000	0.003691
2062.000000	0.003705
2061.000000	0.003647
2060.000000	0.003524
2059.000000	0.003380
2058.000000	0.003273
2057.000000	0.003234
2056.000000	0.003250
2055.000000	0.003287
2054.000000	0.003340
2053.000000	0.003419
2052.000000	0.003506
2051.000000	0.003561
2050.000000	0.003566
2049.000000	0.003523
2048.000000	0.003422
2047.000000	0.003255
2046.000000	0.003064
2045.000000	0.002929
2044.000000	0.002900
2043.000000	0.002968
2042.000000	0.003094
2041.000000	0.003221
2040.000000	0.003282
2039.000000	0.003262
2038.000000	0.003228
2037.000000	0.003240
2036.000000	0.003226
2035.000000	0.003048
2034.000000	0.002697
2033.000000	0.002345
2032.000000	0.002179
2031.000000	0.002250
2030.000000	0.002502
2029.000000	0.002835
2028.000000	0.003126
2027.000000	0.003265
2026.000000	0.003228
2025.000000	0.003092
2024.000000	0.002958
2023.000000	0.002898
2022.000000	0.002948
2021.000000	0.003095
2020.000000	0.003265
2019.000000	0.003366
2018.000000	0.003340
2017.000000	0.003176
2016.000000	0.002907
2015.000000	0.002621
2014.000000	0.002422
2013.000000	0.002333
2012.000000	0.002262
2011.000000	0.002121
2010.000000	0.001941
2009.000000	0.001804
2008.000000	0.001722
2007.000000	0.001674
2006.000000	0.001711
2005.000000	0.001899
2004.000000	0.002173
2003.000000	0.002382
2002.000000	0.002458
2001.000000	0.002472
2000.000000	0.002527
1999.000000	0.002657
1998.000000	0.002828
1997.000000	0.002960
1996.000000	0.002966
1995.000000	0.002834
1994.000000	0.002665
1993.000000	0.002591
1992.000000	0.002636
1991.000000	0.002700
1990.000000	0.002689
1989.000000	0.002590
1988.000000	0.002452
1987.000000	0.002362
1986.000000	0.002411
1985.000000	0.002605
1984.000000	0.002825
1983.000000	0.002948
1982.000000	0.002977
1981.000000	0.002990
1980.000000	0.002985
1979.000000	0.002894
1978.000000	0.002723
1977.000000	0.002568
1976.000000	0.002446
1975.000000	0.002280
1974.000000	0.002082
1973.000000	0.001993
1972.000000	0.002111
1971.000000	0.002378
1970.000000	0.002667
1969.000000	0.002855
1968.000000	0.002856
1967.000000	0.002675
1966.000000	0.002440
1965.000000	0.002290
1964.000000	0.002229
1963.000000	0.002174
1962.000000	0.002115
1961.000000	0.002129
1960.000000	0.002241
1959.000000	0.002383
1958.000000	0.002507
1957.000000	0.002624
1956.000000	0.002750
1955.000000	0.002855
1954.000000	0.002910
1953.000000	0.002892
1952.000000	0.002786
1951.000000	0.002608
1950.000000	0.002446
1949.000000	0.002398
1948.000000	0.002455
1947.000000	0.002525
1946.000000	0.002551
1945.000000	0.002552
1944.000000	0.002542
1943.000000	0.002495
1942.000000	0.002407
1941.000000	0.002327
1940.000000	0.002299
1939.000000	0.002325
1938.000000	0.002392
1937.000000	0.002477
1936.000000	0.002541
1935.000000	0.002556
1934.000000	0.002559
1933.000000	0.002609
1932.000000	0.002704
1931.000000	0.002771
1930.000000	0.002756
1929.000000	0.002682
1928.000000	0.002608
1927.000000	0.002564
1926.000000	0.002542
1925.000000	0.002523
1924.000000	0.002488
1923.000000	0.002436
1922.000000	0.002397
1921.000000	0.002404
1920.000000	0.002462
1919.000000	0.002535
1918.000000	0.002585
1917.000000	0.002592
1916.000000	0.002562
1915.000000	0.002520
1914.000000	0.002507
1913.000000	0.002539
1912.000000	0.002591
1911.000000	0.002624
1910.000000	0.002626
1909.000000	0.002610
1908.000000	0.002588
1907.000000	0.002567
1906.000000	0.002564
1905.000000	0.002595
1904.000000	0.002641
1903.000000	0.002662
1902.000000	0.002652
1901.000000	0.002638
1900.000000	0.002640
1899.000000	0.002650
1898.000000	0.002656
1897.000000	0.002654
1896.000000	0.002640
1895.000000	0.002609
1894.000000	0.002566
1893.000000	0.002523
1892.000000	0.002477
1891.000000	0.002420
1890.000000	0.002376
1889.000000	0.002385
1888.000000	0.002444
1887.000000	0.002509
1886.000000	0.002546
1885.000000	0.002551
1884.000000	0.002529
1883.000000	0.002487
1882.000000	0.002434
1881.000000	0.002387
1880.000000	0.002350
1879.000000	0.002318
1878.000000	0.002288
1877.000000	0.002260
1876.000000	0.002227
1875.000000	0.002189
1874.000000	0.002163
1873.000000	0.002163
1872.000000	0.002168
1871.000000	0.002151
1870.000000	0.002115
1869.000000	0.002105
1868.000000	0.002152
1867.000000	0.002234
1866.000000	0.002316
1865.000000	0.002379
1864.000000	0.002406
1863.000000	0.002385
1862.000000	0.002340
1861.000000	0.002308
1860.000000	0.002296
1859.000000	0.002279
1858.000000	0.002252
1857.000000	0.002237
1856.000000	0.002251
1855.000000	0.002283
1854.000000	0.002317
1853.000000	0.002346
1852.000000	0.002358
1851.000000	0.002338
1850.000000	0.002282
1849.000000	0.002204
1848.000000	0.002129
1847.000000	0.002088
1846.000000	0.002104
1845.000000	0.002163
1844.000000	0.002219
1843.000000	0.002226
1842.000000	0.002190
1841.000000	0.002165
1840.000000	0.002170
1839.000000	0.002168
1838.000000	0.002144
1837.000000	0.002138
1836.000000	0.002172
1835.000000	0.002210
1834.000000	0.002206
1833.000000	0.002149
1832.000000	0.002041
1831.000000	0.001902
1830.000000	0.001797
1829.000000	0.001788
1828.000000	0.001848
1827.000000	0.001917
1826.000000	0.001979
1825.000000	0.002048
1824.000000	0.002117
1823.000000	0.002163
1822.000000	0.002183
1821.000000	0.002192
1820.000000	0.002185
1819.000000	0.002152
1818.000000	0.002108
1817.000000	0.002082
1816.000000	0.002074
1815.000000	0.002061
1814.000000	0.002036
1813.000000	0.002009
1812.000000	0.001983
1811.000000	0.001961
1810.000000	0.001955
1809.000000	0.001978
1808.000000	0.002025
1807.000000	0.002076
1806.000000	0.002111
1805.000000	0.002122
1804.000000	0.002099
1803.000000	0.002034
1802.000000	0.001953
1801.000000	0.001894
1800.000000	0.001885
1799.000000	0.001912
1798.000000	0.001942
1797.000000	0.001956
1796.000000	0.001954
1795.000000	0.001943
1794.000000	0.001925
1793.000000	0.001905
1792.000000	0.001898
1791.000000	0.001914
1790.000000	0.001942
1789.000000	0.001985
1788.000000	0.002042
1787.000000	0.002091
1786.000000	0.002107
1785.000000	0.002093
1784.000000	0.002056
1783.000000	0.001994
1782.000000	0.001934
1781.000000	0.001911
1780.000000	0.001941
1779.000000	0.001998
1778.000000	0.002056
1777.000000	0.002117
1776.000000	0.002191
1775.000000	0.002270
1774.000000	0.002315
1773.000000	0.002306
1772.000000	0.002283
1771.000000	0.002299
1770.000000	0.002379
1769.000000	0.002526
1768.000000	0.002680
1767.000000	0.002749
1766.000000	0.002724
1765.000000	0.002687
1764.000000	0.002703
1763.000000	0.002765
1762.000000	0.002864
1761.000000	0.003006
1760.000000	0.003169
1759.000000	0.003339
1758.000000	0.003560
1757.000000	0.003891
1756.000000	0.004317
1755.000000	0.004768
1754.000000	0.005237
1753.000000	0.005757
1752.000000	0.006285
1751.000000	0.006720
1750.000000	0.007052
1749.000000	0.007394
1748.000000	0.007801
1747.000000	0.008207
1746.000000	0.008545
1745.000000	0.008810
1744.000000	0.009006
1743.000000	0.009120
1742.000000	0.009170
1741.000000	0.009193
1740.000000	0.009179
1739.000000	0.009089
1738.000000	0.008969
1737.000000	0.008918
1736.000000	0.008906
1735.000000	0.008724
1734.000000	0.008297
1733.000000	0.007836
1732.000000	0.007420
1731.000000	0.007058
1730.000000	0.006804
1729.000000	0.006668
1728.000000	0.006593
1727.000000	0.006507
1726.000000	0.006399
1725.000000	0.006304
1724.000000	0.006238
1723.000000	0.006167
1722.000000	0.006073
1721.000000	0.006012
1720.000000	0.006038
1719.000000	0.006134
1718.000000	0.006263
1717.000000	0.006405
1716.000000	0.006500
1715.000000	0.006524
1714.000000	0.006536
1713.000000	0.006595
1712.000000	0.006702
1711.000000	0.006823
1710.000000	0.006945
1709.000000	0.007065
1708.000000	0.007175
1707.000000	0.007297
1706.000000	0.007489
1705.000000	0.007791
1704.000000	0.008171
1703.000000	0.008624
1702.000000	0.009182
1701.000000	0.009846
1700.000000	0.010550
1699.000000	0.011139
1698.000000	0.011635
1697.000000	0.012270
1696.000000	0.013066
1695.000000	0.013770
1694.000000	0.014205
1693.000000	0.014520
1692.000000	0.014944
1691.000000	0.015490
1690.000000	0.016071
1689.000000	0.016669
1688.000000	0.017324
1687.000000	0.018056
1686.000000	0.018806
1685.000000	0.019533
1684.000000	0.020280
1683.000000	0.020999
1682.000000	0.021618
1681.000000	0.022279
1680.000000	0.023041
1679.000000	0.023810
1678.000000	0.024557
1677.000000	0.025372
1676.000000	0.026299
1675.000000	0.027233
1674.000000	0.028035
1673.000000	0.028716
1672.000000	0.029403
1671.000000	0.030164
1670.000000	0.031020
1669.000000	0.031979
1668.000000	0.032931
1667.000000	0.033730
1666.000000	0.034399
1665.000000	0.035050
1664.000000	0.035728
1663.000000	0.036403
1662.000000	0.037077
1661.000000	0.037780
1660.000000	0.038493
1659.000000	0.039146
1658.000000	0.039704
1657.000000	0.040257
1656.000000	0.040940
1655.000000	0.041684
1654.000000	0.042214
1653.000000	0.042589
1652.000000	0.043006
1651.000000	0.043156
1650.000000	0.043166
1649.000000	0.043310
1648.000000	0.043558
1647.000000	0.043782
1646.000000	0.044027
1645.000000	0.044322
1644.000000	0.044587
1643.000000	0.044800
1642.000000	0.044982
1641.000000	0.045135
1640.000000	0.045268
1639.000000	0.045412
1638.000000	0.045550
1637.000000	0.045571
1636.000000	0.045419
1635.000000	0.045259
1634.000000	0.045207
1633.000000	0.045218
1632.000000	0.045258
1631.000000	0.045256
1630.000000	0.045111
1629.000000	0.044793
1628.000000	0.044387
1627.000000	0.043995
1626.000000	0.043637
1625.000000	0.043227
1624.000000	0.042660
1623.000000	0.041950
1622.000000	0.041266
1621.000000	0.040734
1620.000000	0.040353
1619.000000	0.040004
1618.000000	0.039459
1617.000000	0.038577
1616.000000	0.037540
1615.000000	0.036589
1614.000000	0.035771
1613.000000	0.035042
1612.000000	0.034310
1611.000000	0.033520
1610.000000	0.032708
1609.000000	0.031943
1608.000000	0.031243
1607.000000	0.030590
1606.000000	0.029976
1605.000000	0.029394
1604.000000	0.028840
1603.000000	0.028328
1602.000000	0.027876
1601.000000	0.027482
1600.000000	0.027124
1599.000000	0.026798
1598.000000	0.026512
1597.000000	0.026270
1596.000000	0.026067
1595.000000	0.025909
1594.000000	0.025800
1593.000000	0.025716
1592.000000	0.025625
1591.000000	0.025518
1590.000000	0.025411
1589.000000	0.025314
1588.000000	0.025229
1587.000000	0.025168
1586.000000	0.025141
1585.000000	0.025140
1584.000000	0.025152
1583.000000	0.025197
1582.000000	0.025297
1581.000000	0.025440
1580.000000	0.025618
1579.000000	0.025877
1578.000000	0.026230
1577.000000	0.026600
1576.000000	0.026897
1575.000000	0.027091
1574.000000	0.027211
1573.000000	0.027367
1572.000000	0.027611
1571.000000	0.027888
1570.000000	0.028183
1569.000000	0.028572
1568.000000	0.029037
1567.000000	0.029509
1566.000000	0.029982
1565.000000	0.030473
1564.000000	0.030984
1563.000000	0.031557
1562.000000	0.032224
1561.000000	0.032842
1560.000000	0.033117
1559.000000	0.033151
1558.000000	0.033486
1557.000000	0.034010
1556.000000	0.034488
1555.000000	0.034953
1554.000000	0.035403
1553.000000	0.035791
1552.000000	0.036109
1551.000000	0.036392
1550.000000	0.036668
1549.000000	0.036965
1548.000000	0.037281
1547.000000	0.037576
1546.000000	0.037798
1545.000000	0.037928
1544.000000	0.038036
1543.000000	0.038208
1542.000000	0.038415
1541.000000	0.038520
1540.000000	0.038517
1539.000000	0.038570
1538.000000	0.038634
1537.000000	0.038641
1536.000000	0.038656
1535.000000	0.038633
1534.000000	0.038467
1533.000000	0.038258
1532.000000	0.038184
1531.000000	0.038216
1530.000000	0.038228
1529.000000	0.038145
1528.000000	0.037970
1527.000000	0.037739
1526.000000	0.037490
1525.000000	0.037256
1524.000000	0.037058
1523.000000	0.036859
1522.000000	0.036584
1521.000000	0.036271
1520.000000	0.036005
1519.000000	0.035772
1518.000000	0.035567
1517.000000	0.035395
1516.000000	0.035268
1515.000000	0.035167
1514.000000	0.035026
1513.000000	0.034764
1512.000000	0.034333
1511.000000	0.033793
1510.000000	0.033278
1509.000000	0.032829
1508.000000	0.032344
1507.000000	0.031823
1506.000000	0.031493
1505.000000	0.031234
1504.000000	0.030800
1503.000000	0.030258
1502.000000	0.029687
1501.000000	0.029047
1500.000000	0.028305
1499.000000	0.027495
1498.000000	0.026655
1497.000000	0.025795
1496.000000	0.024945
1495.000000	0.024143
1494.000000	0.023417
1493.000000	0.022784
1492.000000	0.022197
1491.000000	0.021569
1490.000000	0.020928
1489.000000	0.020413
1488.000000	0.020079
1487.000000	0.019856
1486.000000	0.019669
1485.000000	0.019510
1484.000000	0.019389
1483.000000	0.019310
1482.000000	0.019288
1481.000000	0.019357
1480.000000	0.019514
1479.000000	0.019710
1478.000000	0.019898
1477.000000	0.020084
1476.000000	0.020300
1475.000000	0.020555
1474.000000	0.020830
1473.000000	0.021142
1472.000000	0.021527
1471.000000	0.021947
1470.000000	0.022355
1469.000000	0.022776
1468.000000	0.023217
1467.000000	0.023624
1466.000000	0.023956
1465.000000	0.024235
1464.000000	0.024504
1463.000000	0.024748
1462.000000	0.024939
1461.000000	0.025112
1460.000000	0.025329
1459.000000	0.025616
1458.000000	0.025972
1457.000000	0.026419
1456.000000	0.026857
1455.000000	0.027098
1454.000000	0.027212
1453.000000	0.027340
1452.000000	0.027471
1451.000000	0.027535
1450.000000	0.027526
1449.000000	0.027472
1448.000000	0.027384
1447.000000	0.027296
1446.000000	0.027256
1445.000000	0.027250
1444.000000	0.027228
1443.000000	0.027153
1442.000000	0.027028
1441.000000	0.026894
1440.000000	0.026792
1439.000000	0.026722
1438.000000	0.026594
1437.000000	0.026315
1436.000000	0.025926
1435.000000	0.025534
1434.000000	0.025186
1433.000000	0.024876
1432.000000	0.024555
1431.000000	0.024195
1430.000000	0.023847
1429.000000	0.023581
1428.000000	0.023407
1427.000000	0.023278
1426.000000	0.023162
1425.000000	0.023047
1424.000000	0.022962
1423.000000	0.022962
1422.000000	0.023063
1421.000000	0.023200
1420.000000	0.023248
1419.000000	0.023179
1418.000000	0.023117
1417.000000	0.023137
1416.000000	0.023219
1415.000000	0.023326
1414.000000	0.023426
1413.000000	0.023513
1412.000000	0.023600
1411.000000	0.023695
1410.000000	0.023802
1409.000000	0.023927
1408.000000	0.024061
1407.000000	0.024189
1406.000000	0.024316
1405.000000	0.024460
1404.000000	0.024614
1403.000000	0.024738
1402.000000	0.024808
1401.000000	0.024812
1400.000000	0.024735
1399.000000	0.024597
1398.000000	0.024466
1397.000000	0.024383
1396.000000	0.024319
1395.000000	0.024228
1394.000000	0.024126
1393.000000	0.024055
1392.000000	0.024013
1391.000000	0.023986
1390.000000	0.023963
1389.000000	0.023924
1388.000000	0.023850
1387.000000	0.023745
1386.000000	0.023633
1385.000000	0.023534
1384.000000	0.023439
1383.000000	0.023328
1382.000000	0.023195
1381.000000	0.023059
1380.000000	0.022933
1379.000000	0.022804
1378.000000	0.022651
1377.000000	0.022464
1376.000000	0.022242
1375.000000	0.021993
1374.000000	0.021757
1373.000000	0.021578
1372.000000	0.021448
1371.000000	0.021331
1370.000000	0.021210
1369.000000	0.021104
1368.000000	0.021026
1367.000000	0.020952
1366.000000	0.020838
1365.000000	0.020655
1364.000000	0.020404
1363.000000	0.020127
1362.000000	0.019877
1361.000000	0.019670
1360.000000	0.019477
1359.000000	0.019273
1358.000000	0.019062
1357.000000	0.018866
1356.000000	0.018704
1355.000000	0.018582
1354.000000	0.018504
1353.000000	0.018469
1352.000000	0.018467
1351.000000	0.018483
1350.000000	0.018506
1349.000000	0.018545
1348.000000	0.018615
1347.000000	0.018716
1346.000000	0.018837
1345.000000	0.018960
1344.000000	0.019077
1343.000000	0.019179
1342.000000	0.019259
1341.000000	0.019319
1340.000000	0.019380
1339.000000	0.019464
1338.000000	0.019567
1337.000000	0.019658
1336.000000	0.019704
1335.000000	0.019688
1334.000000	0.019613
1333.000000	0.019489
1332.000000	0.019323
1331.000000	0.019123
1330.000000	0.018912
1329.000000	0.018714
1328.000000	0.018545
1327.000000	0.018407
1326.000000	0.018302
1325.000000	0.018241
1324.000000	0.018227
1323.000000	0.018249
1322.000000	0.018294
1321.000000	0.018353
1320.000000	0.018419
1319.000000	0.018479
1318.000000	0.018535
1317.000000	0.018599
1316.000000	0.018681
1315.000000	0.018767
1314.000000	0.018828
1313.000000	0.018841
1312.000000	0.018797
1311.000000	0.018701
1310.000000	0.018574
1309.000000	0.018444
1308.000000	0.018326
1307.000000	0.018216
1306.000000	0.018097
1305.000000	0.017959
1304.000000	0.017799
1303.000000	0.017624
1302.000000	0.017448
1301.000000	0.017292
1300.000000	0.017170
1299.000000	0.017075
1298.000000	0.016995
1297.000000	0.016931
1296.000000	0.016899
1295.000000	0.016920
1294.000000	0.016995
1293.000000	0.017113
1292.000000	0.017260
1291.000000	0.017426
1290.000000	0.017604
1289.000000	0.017793
1288.000000	0.017983
1287.000000	0.018171
1286.000000	0.018367
1285.000000	0.018594
1284.000000	0.018861
1283.000000	0.019153
1282.000000	0.019443
1281.000000	0.019707
1280.000000	0.019933
1279.000000	0.020112
1278.000000	0.020242
1277.000000	0.020332
1276.000000	0.020389
1275.000000	0.020412
1274.000000	0.020407
1273.000000	0.020397
1272.000000	0.020403
1271.000000	0.020436
1270.000000	0.020489
1269.000000	0.020542
1268.000000	0.020578
1267.000000	0.020595
1266.000000	0.020610
1265.000000	0.020642
1264.000000	0.020695
1263.000000	0.020761
1262.000000	0.020844
1261.000000	0.020961
1260.000000	0.021130
1259.000000	0.021360
1258.000000	0.021655
1257.000000	0.022002
1256.000000	0.022367
1255.000000	0.022704
1254.000000	0.022999
1253.000000	0.023268
1252.000000	0.023539
1251.000000	0.023826
1250.000000	0.024137
1249.000000	0.024477
1248.000000	0.024835
1247.000000	0.025189
1246.000000	0.025537
1245.000000	0.025908
1244.000000	0.026320
1243.000000	0.026757
1242.000000	0.027190
1241.000000	0.027605
1240.000000	0.027999
1239.000000	0.028362
1238.000000	0.028683
1237.000000	0.028958
1236.000000	0.029183
1235.000000	0.029342
1234.000000	0.029423
1233.000000	0.029428
1232.000000	0.029358
1231.000000	0.029214
1230.000000	0.028995
1229.000000	0.028703
1228.000000	0.028334
1227.000000	0.027883
1226.000000	0.027364
1225.000000	0.026803
1224.000000	0.026211
1223.000000	0.025578
1222.000000	0.024904
1221.000000	0.024212
1220.000000	0.023541
1219.000000	0.022920
1218.000000	0.022366
1217.000000	0.021884
1216.000000	0.021477
1215.000000	0.021144
1214.000000	0.020877
1213.000000	0.020665
1212.000000	0.020488
1211.000000	0.020335
1210.000000	0.020204
1209.000000	0.020102
1208.000000	0.020019
1207.000000	0.019931
1206.000000	0.019817
1205.000000	0.019679
1204.000000	0.019530
1203.000000	0.019377
1202.000000	0.019213
1201.000000	0.019024
1200.000000	0.018800
1199.000000	0.018540
1198.000000	0.018248
1197.000000	0.017932
1196.000000	0.017600
1195.000000	0.017264
1194.000000	0.016937
1193.000000	0.016633
1192.000000	0.016359
1191.000000	0.016119
1190.000000	0.015908
1189.000000	0.015717
1188.000000	0.015546
1187.000000	0.015423
1186.000000	0.015393
1185.000000	0.015476
1184.000000	0.015648
1183.000000	0.015858
1182.000000	0.016073
1181.000000	0.016286
1180.000000	0.016500
1179.000000	0.016714
1178.000000	0.016927
1177.000000	0.017138
1176.000000	0.017338
1175.000000	0.017520
1174.000000	0.017697
1173.000000	0.017884
1172.000000	0.018083
1171.000000	0.018273
1170.000000	0.018445
1169.000000	0.018603
1168.000000	0.018749
1167.000000	0.018869
1166.000000	0.018952
1165.000000	0.019009
1164.000000	0.019057
1163.000000	0.019097
1162.000000	0.019119
1161.000000	0.019118
1160.000000	0.019096
1159.000000	0.019052
1158.000000	0.018976
1157.000000	0.018868
1156.000000	0.018728
1155.000000	0.018561
1154.000000	0.018366
1153.000000	0.018153
1152.000000	0.017936
1151.000000	0.017729
1150.000000	0.017528
1149.000000	0.017315
1148.000000	0.017077
1147.000000	0.016823
1146.000000	0.016581
1145.000000	0.016367
1144.000000	0.016169
1143.000000	0.015964
1142.000000	0.015742
1141.000000	0.015504
1140.000000	0.015248
1139.000000	0.014965
1138.000000	0.014660
1137.000000	0.014351
1136.000000	0.014059
1135.000000	0.013793
1134.000000	0.013555
1133.000000	0.013352
1132.000000	0.013193
1131.000000	0.013075
1130.000000	0.012988
1129.000000	0.012926
1128.000000	0.012902
1127.000000	0.012932
1126.000000	0.013017
1125.000000	0.013130
1124.000000	0.013240
1123.000000	0.013338
1122.000000	0.013441
1121.000000	0.013564
1120.000000	0.013696
1119.000000	0.013814
1118.000000	0.013908
1117.000000	0.013991
1116.000000	0.014081
1115.000000	0.014179
1114.000000	0.014276
1113.000000	0.014364
1112.000000	0.014437
1111.000000	0.014496
1110.000000	0.014554
1109.000000	0.014622
1108.000000	0.014705
1107.000000	0.014805
1106.000000	0.014927
1105.000000	0.015076
1104.000000	0.015243
1103.000000	0.015415
1102.000000	0.015583
1101.000000	0.015744
1100.000000	0.015894
1099.000000	0.016029
1098.000000	0.016155
1097.000000	0.016278
1096.000000	0.016401
1095.000000	0.016524
1094.000000	0.016656
1093.000000	0.016800
1092.000000	0.016944
1091.000000	0.017074
1090.000000	0.017202
1089.000000	0.017366
1088.000000	0.017596
1087.000000	0.017900
1086.000000	0.018266
1085.000000	0.018662
1084.000000	0.019027
1083.000000	0.019296
1082.000000	0.019429
1081.000000	0.019415
1080.000000	0.019252
1079.000000	0.018954
1078.000000	0.018575
1077.000000	0.018181
1076.000000	0.017808
1075.000000	0.017449
1074.000000	0.017098
1073.000000	0.016784
1072.000000	0.016538
1071.000000	0.016370
1070.000000	0.016275
1069.000000	0.016241
1068.000000	0.016253
1067.000000	0.016283
1066.000000	0.016326
1065.000000	0.016401
1064.000000	0.016531
1063.000000	0.016704
1062.000000	0.016881
1061.000000	0.017030
1060.000000	0.017140
1059.000000	0.017219
1058.000000	0.017282
1057.000000	0.017345
1056.000000	0.017414
1055.000000	0.017483
1054.000000	0.017537
1053.000000	0.017567
1052.000000	0.017557
1051.000000	0.017508
1050.000000	0.017442
1049.000000	0.017398
1048.000000	0.017387
1047.000000	0.017381
1046.000000	0.017352
1045.000000	0.017300
1044.000000	0.017245
1043.000000	0.017202
1042.000000	0.017174
1041.000000	0.017175
1040.000000	0.017220
1039.000000	0.017312
1038.000000	0.017447
1037.000000	0.017617
1036.000000	0.017816
1035.000000	0.018026
1034.000000	0.018230
1033.000000	0.018416
1032.000000	0.018582
1031.000000	0.018717
1030.000000	0.018815
1029.000000	0.018875
1028.000000	0.018904
1027.000000	0.018911
1026.000000	0.018905
1025.000000	0.018895
1024.000000	0.018890
1023.000000	0.018885
1022.000000	0.018877
1021.000000	0.018880
1020.000000	0.018918
1019.000000	0.019005
1018.000000	0.019127
1017.000000	0.019235
1016.000000	0.019262
1015.000000	0.019159
1014.000000	0.018917
1013.000000	0.018555
1012.000000	0.018103
1011.000000	0.017587
1010.000000	0.017043
1009.000000	0.016508
1008.000000	0.016004
1007.000000	0.015532
1006.000000	0.015092
1005.000000	0.014690
1004.000000	0.014318
1003.000000	0.013952
1002.000000	0.013570
1001.000000	0.013182
1000.000000	0.012818
999.000000	0.012498
998.000000	0.012209
997.000000	0.011933
996.000000	0.011664
995.000000	0.011412
994.000000	0.011176
993.000000	0.010940
992.000000	0.010694
991.000000	0.010446
990.000000	0.010214
989.000000	0.010000
988.000000	0.009792
987.000000	0.009585
986.000000	0.009384
985.000000	0.009194
984.000000	0.009010
983.000000	0.008829
982.000000	0.008660
981.000000	0.008503
980.000000	0.008354
979.000000	0.008213
978.000000	0.008096
977.000000	0.008008
976.000000	0.007924
975.000000	0.007813
974.000000	0.007676
973.000000	0.007547
972.000000	0.007448
971.000000	0.007364
970.000000	0.007266
969.000000	0.007148
968.000000	0.007033
967.000000	0.006939
966.000000	0.006872
965.000000	0.006817
964.000000	0.006749
963.000000	0.006645
962.000000	0.006509
961.000000	0.006375
960.000000	0.006278
959.000000	0.006222
958.000000	0.006182
957.000000	0.006143
956.000000	0.006109
955.000000	0.006083
954.000000	0.006050
953.000000	0.005988
952.000000	0.005885
951.000000	0.005750
950.000000	0.005600
949.000000	0.005454
948.000000	0.005321
947.000000	0.005200
946.000000	0.005082
945.000000	0.004957
944.000000	0.004829
943.000000	0.004714
942.000000	0.004641
941.000000	0.004627
940.000000	0.004659
939.000000	0.004691
938.000000	0.004683
937.000000	0.004630
936.000000	0.004561
935.000000	0.004499
934.000000	0.004445
933.000000	0.004383
932.000000	0.004316
931.000000	0.004262
930.000000	0.004238
929.000000	0.004235
928.000000	0.004224
927.000000	0.004182
926.000000	0.004099
925.000000	0.003977
924.000000	0.003822
923.000000	0.003646
922.000000	0.003467
921.000000	0.003298
920.000000	0.003139
919.000000	0.002989
918.000000	0.002858
917.000000	0.002756
916.000000	0.002672
915.000000	0.002578
914.000000	0.002455
913.000000	0.002315
912.000000	0.002187
911.000000	0.002097
910.000000	0.002056
909.000000	0.002060
908.000000	0.002077
907.000000	0.002072
906.000000	0.002034
905.000000	0.001991
904.000000	0.001978
903.000000	0.001996
902.000000	0.002022
901.000000	0.002041
900.000000	0.002059
899.000000	0.002071
898.000000	0.002059
897.000000	0.002013
896.000000	0.001949
895.000000	0.001888
894.000000	0.001842
893.000000	0.001823
892.000000	0.001846
891.000000	0.001905
890.000000	0.001963
889.000000	0.001978
888.000000	0.001950
887.000000	0.001910
886.000000	0.001880
885.000000	0.001865
884.000000	0.001873
883.000000	0.001931
882.000000	0.002060
881.000000	0.002242
880.000000	0.002432
879.000000	0.002599
878.000000	0.002738
877.000000	0.002848
876.000000	0.002910
875.000000	0.002908
874.000000	0.002851
873.000000	0.002762
872.000000	0.002650
871.000000	0.002510
870.000000	0.002347
869.000000	0.002183
868.000000	0.002044
867.000000	0.001940
866.000000	0.001877
865.000000	0.001862
864.000000	0.001898
863.000000	0.001967
862.000000	0.002043
861.000000	0.002119
860.000000	0.002210
859.000000	0.002329
858.000000	0.002464
857.000000	0.002590
856.000000	0.002691
855.000000	0.002769
854.000000	0.002836
853.000000	0.002898
852.000000	0.002955
851.000000	0.003008
850.000000	0.003064
849.000000	0.003125
848.000000	0.003186
847.000000	0.003250
846.000000	0.003327
845.000000	0.003424
844.000000	0.003528
843.000000	0.003633
842.000000	0.003758
841.000000	0.003937
840.000000	0.004174
839.000000	0.004431
838.000000	0.004662
837.000000	0.004840
836.000000	0.004952
835.000000	0.004988
834.000000	0.004949
833.000000	0.004850
832.000000	0.004720
831.000000	0.004581
830.000000	0.004452
829.000000	0.004338
828.000000	0.004227
827.000000	0.004103
826.000000	0.003962
825.000000	0.003807
824.000000	0.003635
823.000000	0.003444
822.000000	0.003252
821.000000	0.003093
820.000000	0.002978
819.000000	0.002884
818.000000	0.002787
817.000000	0.002678
816.000000	0.002565
815.000000	0.002463
814.000000	0.002386
813.000000	0.002341
812.000000	0.002307
811.000000	0.002250
810.000000	0.002160
809.000000	0.002060
808.000000	0.001973
807.000000	0.001904
806.000000	0.001857
805.000000	0.001844
804.000000	0.001862
803.000000	0.001882
802.000000	0.001886
801.000000	0.001885
800.000000	0.001896
799.000000	0.001909
798.000000	0.001904
797.000000	0.001889
796.000000	0.001885
795.000000	0.001904
794.000000	0.001941
793.000000	0.001987
792.000000	0.002037
791.000000	0.002078
790.000000	0.002117
789.000000	0.002168
788.000000	0.002231
787.000000	0.002276
786.000000	0.002285
785.000000	0.002278
784.000000	0.002297
783.000000	0.002349
782.000000	0.002410
781.000000	0.002456
780.000000	0.002479
779.000000	0.002480
778.000000	0.002477
777.000000	0.002498
776.000000	0.002551
775.000000	0.002604
774.000000	0.002617
773.000000	0.002595
772.000000	0.002573
771.000000	0.002569
770.000000	0.002572
769.000000	0.002568
768.000000	0.002565
767.000000	0.002573
766.000000	0.002596
765.000000	0.002634
764.000000	0.002686
763.000000	0.002746
762.000000	0.002801
761.000000	0.002847
760.000000	0.002893
759.000000	0.002947
758.000000	0.003017
757.000000	0.003115
756.000000	0.003245
755.000000	0.003387
754.000000	0.003505
753.000000	0.003582
752.000000	0.003629
751.000000	0.003677
750.000000	0.003751
749.000000	0.003859
748.000000	0.003976
747.000000	0.004055
746.000000	0.004067
745.000000	0.004028
744.000000	0.003970
743.000000	0.003910
742.000000	0.003851
741.000000	0.003817
740.000000	0.003841
739.000000	0.003928
738.000000	0.004041
737.000000	0.004136
736.000000	0.004196
735.000000	0.004240
734.000000	0.004303
733.000000	0.004419
732.000000	0.004590
731.000000	0.004786
730.000000	0.004974
729.000000	0.005153
728.000000	0.005341
727.000000	0.005545
726.000000	0.005747
725.000000	0.005925
724.000000	0.006076
723.000000	0.006213
722.000000	0.006362
721.000000	0.006536
720.000000	0.006711
719.000000	0.006824
718.000000	0.006832
717.000000	0.006764
716.000000	0.006700
715.000000	0.006694
714.000000	0.006737
713.000000	0.006792
712.000000	0.006839
711.000000	0.006888
710.000000	0.006964
709.000000	0.007072
708.000000	0.007190
707.000000	0.007280
706.000000	0.007334
705.000000	0.007383
704.000000	0.007455
703.000000	0.007524
702.000000	0.007543
701.000000	0.007494
700.000000	0.007416
699.000000	0.007349
698.000000	0.007309
697.000000	0.007296
696.000000	0.007314
695.000000	0.007353
694.000000	0.007379
693.000000	0.007364
692.000000	0.007315
691.000000	0.007264
690.000000	0.007225
689.000000	0.007192
688.000000	0.007159
687.000000	0.007138
686.000000	0.007144
685.000000	0.007182
684.000000	0.007246
683.000000	0.007319
682.000000	0.007372
681.000000	0.007379
680.000000	0.007348
679.000000	0.007328
678.000000	0.007372
677.000000	0.007492
676.000000	0.007646
675.000000	0.007776
674.000000	0.007857
673.000000	0.007918
672.000000	0.007990
671.000000	0.008062
670.000000	0.008085
669.000000	0.008009
668.000000	0.007889
667.000000	0.007911
666.000000	0.008046
665.000000	0.008176
664.000000	0.008234
663.000000	0.008200
662.000000	0.008128
661.000000	0.008102
660.000000	0.008160
659.000000	0.008266
658.000000	0.008359
657.000000	0.008402
656.000000	0.008395
655.000000	0.008370
654.000000	0.008381
653.000000	0.008449
652.000000	0.008519
651.000000	0.008522
650.000000	0.008470
649.000000	0.008440
648.000000	0.008458
647.000000	0.008474
646.000000	0.008450
645.000000	0.008410
644.000000	0.008385
643.000000	0.008374
642.000000	0.008363
641.000000	0.008341
640.000000	0.008277
639.000000	0.008139
638.000000	0.007961
637.000000	0.007820
636.000000	0.007753
635.000000	0.007737
634.000000	0.007759
633.000000	0.007837
632.000000	0.007949
631.000000	0.008027
630.000000	0.008043
629.000000	0.008041
628.000000	0.008064
627.000000	0.008091
626.000000	0.008094
625.000000	0.008088
624.000000	0.008085
623.000000	0.008069
622.000000	0.008037
621.000000	0.008034
620.000000	0.008086
619.000000	0.008163
618.000000	0.008225
617.000000	0.008272
616.000000	0.008308
615.000000	0.008303
614.000000	0.008253
613.000000	0.008205
612.000000	0.008192
611.000000	0.008190
610.000000	0.008173
609.000000	0.008173
608.000000	0.008220
607.000000	0.008278
606.000000	0.008293
605.000000	0.008268
604.000000	0.008244
603.000000	0.008247
602.000000	0.008304
601.000000	0.008453
600.000000	0.008674
599.000000	0.008868
598.000000	0.008942
597.000000	0.008905
596.000000	0.008806
595.000000	0.008656
594.000000	0.008465
593.000000	0.008313
592.000000	0.008292
591.000000	0.008385
590.000000	0.008493
589.000000	0.008557
588.000000	0.008603
587.000000	0.008669
586.000000	0.008759
585.000000	0.008856
584.000000	0.008931
583.000000	0.008946
582.000000	0.008906
581.000000	0.008873
580.000000	0.008903
579.000000	0.008968
578.000000	0.009002
577.000000	0.008976
576.000000	0.008893
575.000000	0.008783
574.000000	0.008725
573.000000	0.008819
572.000000	0.009073
571.000000	0.009358
570.000000	0.009528
569.000000	0.009574
568.000000	0.009597
567.000000	0.009668
566.000000	0.009782
565.000000	0.009906
564.000000	0.010009
563.000000	0.010078
562.000000	0.010154
561.000000	0.010300
560.000000	0.010497
559.000000	0.010626
558.000000	0.010617
557.000000	0.010537
556.000000	0.010473
555.000000	0.010407
554.000000	0.010285
553.000000	0.010132
552.000000	0.010015
551.000000	0.009925
550.000000	0.009799
549.000000	0.009619
548.000000	0.009425
547.000000	0.009277
546.000000	0.009235
545.000000	0.009312
544.000000	0.009416
543.000000	0.009411
542.000000	0.009283
541.000000	0.009170
540.000000	0.009150
539.000000	0.009126
538.000000	0.009001
537.000000	0.008862
536.000000	0.008866
535.000000	0.009019
534.000000	0.009188
533.000000	0.009286
532.000000	0.009337
531.000000	0.009398
530.000000	0.009503
529.000000	0.009657
528.000000	0.009804
527.000000	0.009833
526.000000	0.009700
525.000000	0.009502
524.000000	0.009322
523.000000	0.009119
522.000000	0.008823
521.000000	0.008456
520.000000	0.008076
519.000000	0.007720
518.000000	0.007453
517.000000	0.007368
516.000000	0.007423
515.000000	0.007424
514.000000	0.007258
513.000000	0.007018
512.000000	0.006825
511.000000	0.006650
510.000000	0.006424
509.000000	0.006212
508.000000	0.006122
507.000000	0.006115
506.000000	0.006067
505.000000	0.005978
504.000000	0.005912
503.000000	0.005837
502.000000	0.005680
501.000000	0.005499
500.000000	0.005412
499.000000	0.005388
498.000000	0.005296
497.000000	0.005125
496.000000	0.004982
495.000000	0.004895
494.000000	0.004776
493.000000	0.004594
492.000000	0.004440
491.000000	0.004367
490.000000	0.004332
489.000000	0.004307
488.000000	0.004332
487.000000	0.004406
486.000000	0.004441
485.000000	0.004349
484.000000	0.004105
483.000000	0.003728
482.000000	0.003294
481.000000	0.002969
480.000000	0.002879
479.000000	0.002976
478.000000	0.003120
477.000000	0.003225
476.000000	0.003252
475.000000	0.003131
474.000000	0.002859
473.000000	0.002647
472.000000	0.002753
471.000000	0.003102
470.000000	0.003390
469.000000	0.003491
468.000000	0.003497
467.000000	0.003473
466.000000	0.003380
465.000000	0.003193
464.000000	0.002922
463.000000	0.002534
462.000000	0.002054
461.000000	0.001671
460.000000	0.001571
459.000000	0.001695
458.000000	0.001844
457.000000	0.001968
456.000000	0.002125
455.000000	0.002218
454.000000	0.002313
453.000000	0.001962
452.000000	0.001629
451.000000	0.001430
450.000000	0.001294
