PE IR       SUBTECH     SPECTRUM    ASCII       PEDS        4.00        
   -1
3S-H10-F008_1.ASC
22/02/18
10:43:40.00
22/02/18
11:02:52.00
uco
Sample 008 By uco Date Friday, February 18 2022
450.000000
#HDR
-1
-1
#GR
cm-1
A
1.0
0.0
4000.000000
-1.000000
3551
8
0.053880
0.002769
#DATA
4000.000000	0.003045
3999.000000	0.003047
3998.000000	0.003039
3997.000000	0.003029
3996.000000	0.003025
3995.000000	0.003031
3994.000000	0.003040
3993.000000	0.003044
3992.000000	0.003041
3991.000000	0.003035
3990.000000	0.003032
3989.000000	0.003038
3988.000000	0.003052
3987.000000	0.003070
3986.000000	0.003086
3985.000000	0.003099
3984.000000	0.003110
3983.000000	0.003121
3982.000000	0.003130
3981.000000	0.003135
3980.000000	0.003135
3979.000000	0.003132
3978.000000	0.003132
3977.000000	0.003142
3976.000000	0.003165
3975.000000	0.003192
3974.000000	0.003211
3973.000000	0.003214
3972.000000	0.003199
3971.000000	0.003176
3970.000000	0.003154
3969.000000	0.003138
3968.000000	0.003125
3967.000000	0.003116
3966.000000	0.003112
3965.000000	0.003117
3964.000000	0.003128
3963.000000	0.003140
3962.000000	0.003146
3961.000000	0.003144
3960.000000	0.003136
3959.000000	0.003131
3958.000000	0.003132
3957.000000	0.003142
3956.000000	0.003155
3955.000000	0.003170
3954.000000	0.003190
3953.000000	0.003214
3952.000000	0.003234
3951.000000	0.003241
3950.000000	0.003232
3949.000000	0.003214
3948.000000	0.003200
3947.000000	0.003197
3946.000000	0.003201
3945.000000	0.003209
3944.000000	0.003215
3943.000000	0.003210
3942.000000	0.003192
3941.000000	0.003166
3940.000000	0.003144
3939.000000	0.003134
3938.000000	0.003137
3937.000000	0.003147
3936.000000	0.003157
3935.000000	0.003160
3934.000000	0.003157
3933.000000	0.003152
3932.000000	0.003152
3931.000000	0.003161
3930.000000	0.003178
3929.000000	0.003197
3928.000000	0.003210
3927.000000	0.003213
3926.000000	0.003203
3925.000000	0.003181
3924.000000	0.003156
3923.000000	0.003143
3922.000000	0.003148
3921.000000	0.003165
3920.000000	0.003181
3919.000000	0.003187
3918.000000	0.003188
3917.000000	0.003198
3916.000000	0.003222
3915.000000	0.003250
3914.000000	0.003267
3913.000000	0.003262
3912.000000	0.003236
3911.000000	0.003203
3910.000000	0.003176
3909.000000	0.003166
3908.000000	0.003168
3907.000000	0.003176
3906.000000	0.003180
3905.000000	0.003172
3904.000000	0.003154
3903.000000	0.003132
3902.000000	0.003117
3901.000000	0.003114
3900.000000	0.003123
3899.000000	0.003137
3898.000000	0.003153
3897.000000	0.003172
3896.000000	0.003189
3895.000000	0.003201
3894.000000	0.003204
3893.000000	0.003197
3892.000000	0.003188
3891.000000	0.003182
3890.000000	0.003180
3889.000000	0.003181
3888.000000	0.003184
3887.000000	0.003187
3886.000000	0.003186
3885.000000	0.003182
3884.000000	0.003178
3883.000000	0.003177
3882.000000	0.003177
3881.000000	0.003178
3880.000000	0.003181
3879.000000	0.003190
3878.000000	0.003210
3877.000000	0.003238
3876.000000	0.003267
3875.000000	0.003283
3874.000000	0.003276
3873.000000	0.003251
3872.000000	0.003220
3871.000000	0.003190
3870.000000	0.003158
3869.000000	0.003125
3868.000000	0.003098
3867.000000	0.003086
3866.000000	0.003087
3865.000000	0.003092
3864.000000	0.003095
3863.000000	0.003094
3862.000000	0.003091
3861.000000	0.003093
3860.000000	0.003104
3859.000000	0.003129
3858.000000	0.003165
3857.000000	0.003203
3856.000000	0.003237
3855.000000	0.003261
3854.000000	0.003270
3853.000000	0.003271
3852.000000	0.003274
3851.000000	0.003278
3850.000000	0.003276
3849.000000	0.003266
3848.000000	0.003246
3847.000000	0.003223
3846.000000	0.003207
3845.000000	0.003203
3844.000000	0.003208
3843.000000	0.003206
3842.000000	0.003187
3841.000000	0.003151
3840.000000	0.003111
3839.000000	0.003083
3838.000000	0.003077
3837.000000	0.003091
3836.000000	0.003111
3835.000000	0.003127
3834.000000	0.003138
3833.000000	0.003144
3832.000000	0.003146
3831.000000	0.003143
3830.000000	0.003140
3829.000000	0.003144
3828.000000	0.003159
3827.000000	0.003178
3826.000000	0.003188
3825.000000	0.003180
3824.000000	0.003162
3823.000000	0.003142
3822.000000	0.003127
3821.000000	0.003116
3820.000000	0.003109
3819.000000	0.003111
3818.000000	0.003126
3817.000000	0.003151
3816.000000	0.003174
3815.000000	0.003191
3814.000000	0.003207
3813.000000	0.003227
3812.000000	0.003246
3811.000000	0.003251
3810.000000	0.003234
3809.000000	0.003202
3808.000000	0.003172
3807.000000	0.003156
3806.000000	0.003157
3805.000000	0.003170
3804.000000	0.003188
3803.000000	0.003203
3802.000000	0.003206
3801.000000	0.003196
3800.000000	0.003181
3799.000000	0.003166
3798.000000	0.003153
3797.000000	0.003144
3796.000000	0.003144
3795.000000	0.003151
3794.000000	0.003162
3793.000000	0.003169
3792.000000	0.003168
3791.000000	0.003157
3790.000000	0.003136
3789.000000	0.003110
3788.000000	0.003083
3787.000000	0.003060
3786.000000	0.003044
3785.000000	0.003037
3784.000000	0.003039
3783.000000	0.003049
3782.000000	0.003063
3781.000000	0.003081
3780.000000	0.003104
3779.000000	0.003131
3778.000000	0.003153
3777.000000	0.003159
3776.000000	0.003145
3775.000000	0.003117
3774.000000	0.003088
3773.000000	0.003073
3772.000000	0.003080
3771.000000	0.003103
3770.000000	0.003127
3769.000000	0.003142
3768.000000	0.003150
3767.000000	0.003155
3766.000000	0.003156
3765.000000	0.003149
3764.000000	0.003133
3763.000000	0.003113
3762.000000	0.003096
3761.000000	0.003082
3760.000000	0.003069
3759.000000	0.003062
3758.000000	0.003064
3757.000000	0.003073
3756.000000	0.003082
3755.000000	0.003089
3754.000000	0.003096
3753.000000	0.003101
3752.000000	0.003107
3751.000000	0.003114
3750.000000	0.003120
3749.000000	0.003113
3748.000000	0.003091
3747.000000	0.003077
3746.000000	0.003099
3745.000000	0.003157
3744.000000	0.003214
3743.000000	0.003235
3742.000000	0.003223
3741.000000	0.003200
3740.000000	0.003179
3739.000000	0.003164
3738.000000	0.003149
3737.000000	0.003126
3736.000000	0.003088
3735.000000	0.003045
3734.000000	0.003015
3733.000000	0.003012
3732.000000	0.003026
3731.000000	0.003039
3730.000000	0.003039
3729.000000	0.003036
3728.000000	0.003042
3727.000000	0.003061
3726.000000	0.003084
3725.000000	0.003099
3724.000000	0.003106
3723.000000	0.003110
3722.000000	0.003116
3721.000000	0.003122
3720.000000	0.003126
3719.000000	0.003124
3718.000000	0.003117
3717.000000	0.003102
3716.000000	0.003079
3715.000000	0.003054
3714.000000	0.003033
3713.000000	0.003022
3712.000000	0.003019
3711.000000	0.003020
3710.000000	0.003024
3709.000000	0.003031
3708.000000	0.003042
3707.000000	0.003051
3706.000000	0.003056
3705.000000	0.003059
3704.000000	0.003070
3703.000000	0.003094
3702.000000	0.003126
3701.000000	0.003149
3700.000000	0.003152
3699.000000	0.003142
3698.000000	0.003133
3697.000000	0.003137
3696.000000	0.003153
3695.000000	0.003174
3694.000000	0.003194
3693.000000	0.003211
3692.000000	0.003221
3691.000000	0.003222
3690.000000	0.003220
3689.000000	0.003225
3688.000000	0.003242
3687.000000	0.003260
3686.000000	0.003270
3685.000000	0.003267
3684.000000	0.003251
3683.000000	0.003225
3682.000000	0.003202
3681.000000	0.003199
3680.000000	0.003221
3679.000000	0.003261
3678.000000	0.003312
3677.000000	0.003362
3676.000000	0.003401
3675.000000	0.003419
3674.000000	0.003423
3673.000000	0.003427
3672.000000	0.003445
3671.000000	0.003483
3670.000000	0.003526
3669.000000	0.003557
3668.000000	0.003572
3667.000000	0.003581
3666.000000	0.003594
3665.000000	0.003613
3664.000000	0.003630
3663.000000	0.003643
3662.000000	0.003654
3661.000000	0.003665
3660.000000	0.003673
3659.000000	0.003672
3658.000000	0.003670
3657.000000	0.003684
3656.000000	0.003730
3655.000000	0.003804
3654.000000	0.003891
3653.000000	0.003977
3652.000000	0.004049
3651.000000	0.004093
3650.000000	0.004102
3649.000000	0.004088
3648.000000	0.004078
3647.000000	0.004085
3646.000000	0.004113
3645.000000	0.004160
3644.000000	0.004225
3643.000000	0.004301
3642.000000	0.004375
3641.000000	0.004435
3640.000000	0.004480
3639.000000	0.004510
3638.000000	0.004534
3637.000000	0.004557
3636.000000	0.004586
3635.000000	0.004625
3634.000000	0.004668
3633.000000	0.004708
3632.000000	0.004748
3631.000000	0.004798
3630.000000	0.004865
3629.000000	0.004938
3628.000000	0.004996
3627.000000	0.005035
3626.000000	0.005070
3625.000000	0.005110
3624.000000	0.005155
3623.000000	0.005194
3622.000000	0.005221
3621.000000	0.005247
3620.000000	0.005289
3619.000000	0.005353
3618.000000	0.005425
3617.000000	0.005479
3616.000000	0.005504
3615.000000	0.005504
3614.000000	0.005500
3613.000000	0.005511
3612.000000	0.005542
3611.000000	0.005583
3610.000000	0.005625
3609.000000	0.005668
3608.000000	0.005719
3607.000000	0.005782
3606.000000	0.005861
3605.000000	0.005954
3604.000000	0.006053
3603.000000	0.006146
3602.000000	0.006223
3601.000000	0.006277
3600.000000	0.006317
3599.000000	0.006353
3598.000000	0.006396
3597.000000	0.006449
3596.000000	0.006510
3595.000000	0.006576
3594.000000	0.006641
3593.000000	0.006702
3592.000000	0.006752
3591.000000	0.006793
3590.000000	0.006830
3589.000000	0.006877
3588.000000	0.006946
3587.000000	0.007034
3586.000000	0.007131
3585.000000	0.007215
3584.000000	0.007272
3583.000000	0.007304
3582.000000	0.007331
3581.000000	0.007379
3580.000000	0.007458
3579.000000	0.007555
3578.000000	0.007647
3577.000000	0.007724
3576.000000	0.007794
3575.000000	0.007874
3574.000000	0.007972
3573.000000	0.008081
3572.000000	0.008180
3571.000000	0.008256
3570.000000	0.008307
3569.000000	0.008341
3568.000000	0.008366
3567.000000	0.008396
3566.000000	0.008446
3565.000000	0.008524
3564.000000	0.008620
3563.000000	0.008719
3562.000000	0.008810
3561.000000	0.008893
3560.000000	0.008973
3559.000000	0.009058
3558.000000	0.009151
3557.000000	0.009249
3556.000000	0.009343
3555.000000	0.009425
3554.000000	0.009494
3553.000000	0.009559
3552.000000	0.009623
3551.000000	0.009687
3550.000000	0.009747
3549.000000	0.009807
3548.000000	0.009872
3547.000000	0.009944
3546.000000	0.010019
3545.000000	0.010091
3544.000000	0.010151
3543.000000	0.010197
3542.000000	0.010233
3541.000000	0.010270
3540.000000	0.010321
3539.000000	0.010389
3538.000000	0.010471
3537.000000	0.010558
3536.000000	0.010641
3535.000000	0.010720
3534.000000	0.010797
3533.000000	0.010874
3532.000000	0.010950
3531.000000	0.011021
3530.000000	0.011085
3529.000000	0.011148
3528.000000	0.011217
3527.000000	0.011296
3526.000000	0.011380
3525.000000	0.011460
3524.000000	0.011529
3523.000000	0.011588
3522.000000	0.011644
3521.000000	0.011703
3520.000000	0.011771
3519.000000	0.011852
3518.000000	0.011944
3517.000000	0.012036
3516.000000	0.012113
3515.000000	0.012170
3514.000000	0.012213
3513.000000	0.012260
3512.000000	0.012326
3511.000000	0.012413
3510.000000	0.012510
3509.000000	0.012596
3508.000000	0.012656
3507.000000	0.012687
3506.000000	0.012706
3505.000000	0.012733
3504.000000	0.012781
3503.000000	0.012843
3502.000000	0.012903
3501.000000	0.012952
3500.000000	0.012989
3499.000000	0.013027
3498.000000	0.013079
3497.000000	0.013149
3496.000000	0.013228
3495.000000	0.013307
3494.000000	0.013381
3493.000000	0.013456
3492.000000	0.013532
3491.000000	0.013606
3490.000000	0.013667
3489.000000	0.013712
3488.000000	0.013745
3487.000000	0.013773
3486.000000	0.013805
3485.000000	0.013847
3484.000000	0.013896
3483.000000	0.013945
3482.000000	0.013991
3481.000000	0.014034
3480.000000	0.014081
3479.000000	0.014131
3478.000000	0.014184
3477.000000	0.014244
3476.000000	0.014317
3475.000000	0.014404
3474.000000	0.014496
3473.000000	0.014574
3472.000000	0.014632
3471.000000	0.014675
3470.000000	0.014715
3469.000000	0.014759
3468.000000	0.014801
3467.000000	0.014835
3466.000000	0.014861
3465.000000	0.014885
3464.000000	0.014916
3463.000000	0.014953
3462.000000	0.014991
3461.000000	0.015026
3460.000000	0.015061
3459.000000	0.015110
3458.000000	0.015176
3457.000000	0.015250
3456.000000	0.015320
3455.000000	0.015385
3454.000000	0.015452
3453.000000	0.015525
3452.000000	0.015596
3451.000000	0.015654
3450.000000	0.015700
3449.000000	0.015748
3448.000000	0.015807
3447.000000	0.015878
3446.000000	0.015950
3445.000000	0.016009
3444.000000	0.016050
3443.000000	0.016081
3442.000000	0.016117
3441.000000	0.016171
3440.000000	0.016241
3439.000000	0.016314
3438.000000	0.016384
3437.000000	0.016450
3436.000000	0.016513
3435.000000	0.016569
3434.000000	0.016620
3433.000000	0.016670
3432.000000	0.016719
3431.000000	0.016764
3430.000000	0.016803
3429.000000	0.016839
3428.000000	0.016885
3427.000000	0.016947
3426.000000	0.017018
3425.000000	0.017086
3424.000000	0.017142
3423.000000	0.017186
3422.000000	0.017229
3421.000000	0.017279
3420.000000	0.017337
3419.000000	0.017397
3418.000000	0.017453
3417.000000	0.017505
3416.000000	0.017554
3415.000000	0.017604
3414.000000	0.017653
3413.000000	0.017698
3412.000000	0.017742
3411.000000	0.017794
3410.000000	0.017864
3409.000000	0.017950
3408.000000	0.018034
3407.000000	0.018102
3406.000000	0.018147
3405.000000	0.018174
3404.000000	0.018194
3403.000000	0.018219
3402.000000	0.018262
3401.000000	0.018326
3400.000000	0.018402
3399.000000	0.018472
3398.000000	0.018527
3397.000000	0.018568
3396.000000	0.018600
3395.000000	0.018625
3394.000000	0.018646
3393.000000	0.018671
3392.000000	0.018704
3391.000000	0.018746
3390.000000	0.018795
3389.000000	0.018852
3388.000000	0.018922
3387.000000	0.019009
3386.000000	0.019103
3385.000000	0.019191
3384.000000	0.019261
3383.000000	0.019312
3382.000000	0.019354
3381.000000	0.019394
3380.000000	0.019439
3379.000000	0.019488
3378.000000	0.019540
3377.000000	0.019592
3376.000000	0.019645
3375.000000	0.019706
3374.000000	0.019783
3373.000000	0.019877
3372.000000	0.019976
3371.000000	0.020064
3370.000000	0.020134
3369.000000	0.020189
3368.000000	0.020241
3367.000000	0.020296
3366.000000	0.020359
3365.000000	0.020425
3364.000000	0.020495
3363.000000	0.020572
3362.000000	0.020667
3361.000000	0.020781
3360.000000	0.020904
3359.000000	0.021021
3358.000000	0.021123
3357.000000	0.021209
3356.000000	0.021281
3355.000000	0.021345
3354.000000	0.021409
3353.000000	0.021486
3352.000000	0.021582
3351.000000	0.021696
3350.000000	0.021819
3349.000000	0.021938
3348.000000	0.022046
3347.000000	0.022142
3346.000000	0.022235
3345.000000	0.022331
3344.000000	0.022423
3343.000000	0.022503
3342.000000	0.022564
3341.000000	0.022609
3340.000000	0.022650
3339.000000	0.022700
3338.000000	0.022768
3337.000000	0.022852
3336.000000	0.022937
3335.000000	0.023016
3334.000000	0.023089
3333.000000	0.023167
3332.000000	0.023250
3331.000000	0.023331
3330.000000	0.023406
3329.000000	0.023476
3328.000000	0.023542
3327.000000	0.023604
3326.000000	0.023664
3325.000000	0.023725
3324.000000	0.023791
3323.000000	0.023860
3322.000000	0.023930
3321.000000	0.023999
3320.000000	0.024068
3319.000000	0.024138
3318.000000	0.024211
3317.000000	0.024283
3316.000000	0.024352
3315.000000	0.024410
3314.000000	0.024459
3313.000000	0.024500
3312.000000	0.024535
3311.000000	0.024562
3310.000000	0.024584
3309.000000	0.024603
3308.000000	0.024624
3307.000000	0.024651
3306.000000	0.024688
3305.000000	0.024733
3304.000000	0.024781
3303.000000	0.024826
3302.000000	0.024861
3301.000000	0.024887
3300.000000	0.024912
3299.000000	0.024944
3298.000000	0.024982
3297.000000	0.025020
3296.000000	0.025048
3295.000000	0.025060
3294.000000	0.025060
3293.000000	0.025057
3292.000000	0.025059
3291.000000	0.025071
3290.000000	0.025097
3289.000000	0.025133
3288.000000	0.025167
3287.000000	0.025190
3286.000000	0.025199
3285.000000	0.025203
3284.000000	0.025214
3283.000000	0.025232
3282.000000	0.025245
3281.000000	0.025239
3280.000000	0.025208
3279.000000	0.025158
3278.000000	0.025101
3277.000000	0.025051
3276.000000	0.025020
3275.000000	0.025006
3274.000000	0.024992
3273.000000	0.024956
3272.000000	0.024893
3271.000000	0.024820
3270.000000	0.024764
3269.000000	0.024738
3268.000000	0.024731
3267.000000	0.024718
3266.000000	0.024682
3265.000000	0.024622
3264.000000	0.024555
3263.000000	0.024491
3262.000000	0.024436
3261.000000	0.024388
3260.000000	0.024340
3259.000000	0.024291
3258.000000	0.024236
3257.000000	0.024168
3256.000000	0.024088
3255.000000	0.024003
3254.000000	0.023926
3253.000000	0.023858
3252.000000	0.023790
3251.000000	0.023716
3250.000000	0.023642
3249.000000	0.023579
3248.000000	0.023531
3247.000000	0.023492
3246.000000	0.023454
3245.000000	0.023412
3244.000000	0.023364
3243.000000	0.023304
3242.000000	0.023227
3241.000000	0.023138
3240.000000	0.023050
3239.000000	0.022980
3238.000000	0.022935
3237.000000	0.022911
3236.000000	0.022891
3235.000000	0.022860
3234.000000	0.022815
3233.000000	0.022759
3232.000000	0.022701
3231.000000	0.022651
3230.000000	0.022614
3229.000000	0.022581
3228.000000	0.022546
3227.000000	0.022505
3226.000000	0.022465
3225.000000	0.022428
3224.000000	0.022391
3223.000000	0.022350
3222.000000	0.022305
3221.000000	0.022262
3220.000000	0.022230
3219.000000	0.022208
3218.000000	0.022186
3217.000000	0.022149
3216.000000	0.022093
3215.000000	0.022021
3214.000000	0.021943
3213.000000	0.021862
3212.000000	0.021778
3211.000000	0.021697
3210.000000	0.021631
3209.000000	0.021584
3208.000000	0.021545
3207.000000	0.021506
3206.000000	0.021464
3205.000000	0.021427
3204.000000	0.021393
3203.000000	0.021358
3202.000000	0.021315
3201.000000	0.021264
3200.000000	0.021203
3199.000000	0.021132
3198.000000	0.021057
3197.000000	0.020987
3196.000000	0.020923
3195.000000	0.020859
3194.000000	0.020790
3193.000000	0.020719
3192.000000	0.020650
3191.000000	0.020588
3190.000000	0.020538
3189.000000	0.020501
3188.000000	0.020466
3187.000000	0.020412
3186.000000	0.020331
3185.000000	0.020234
3184.000000	0.020137
3183.000000	0.020048
3182.000000	0.019965
3181.000000	0.019884
3180.000000	0.019807
3179.000000	0.019733
3178.000000	0.019658
3177.000000	0.019580
3176.000000	0.019496
3175.000000	0.019406
3174.000000	0.019311
3173.000000	0.019216
3172.000000	0.019125
3171.000000	0.019039
3170.000000	0.018956
3169.000000	0.018878
3168.000000	0.018810
3167.000000	0.018754
3166.000000	0.018707
3165.000000	0.018658
3164.000000	0.018599
3163.000000	0.018527
3162.000000	0.018449
3161.000000	0.018375
3160.000000	0.018315
3159.000000	0.018265
3158.000000	0.018214
3157.000000	0.018156
3156.000000	0.018090
3155.000000	0.018016
3154.000000	0.017930
3153.000000	0.017834
3152.000000	0.017741
3151.000000	0.017660
3150.000000	0.017592
3149.000000	0.017527
3148.000000	0.017462
3147.000000	0.017404
3146.000000	0.017357
3145.000000	0.017319
3144.000000	0.017279
3143.000000	0.017226
3142.000000	0.017157
3141.000000	0.017077
3140.000000	0.017002
3139.000000	0.016948
3138.000000	0.016917
3137.000000	0.016893
3136.000000	0.016856
3135.000000	0.016798
3134.000000	0.016730
3133.000000	0.016669
3132.000000	0.016622
3131.000000	0.016586
3130.000000	0.016557
3129.000000	0.016531
3128.000000	0.016507
3127.000000	0.016478
3126.000000	0.016444
3125.000000	0.016408
3124.000000	0.016377
3123.000000	0.016351
3122.000000	0.016323
3121.000000	0.016287
3120.000000	0.016248
3119.000000	0.016220
3118.000000	0.016208
3117.000000	0.016207
3116.000000	0.016208
3115.000000	0.016204
3114.000000	0.016196
3113.000000	0.016188
3112.000000	0.016177
3111.000000	0.016163
3110.000000	0.016145
3109.000000	0.016129
3108.000000	0.016123
3107.000000	0.016140
3106.000000	0.016179
3105.000000	0.016226
3104.000000	0.016259
3103.000000	0.016268
3102.000000	0.016261
3101.000000	0.016257
3100.000000	0.016265
3099.000000	0.016288
3098.000000	0.016319
3097.000000	0.016357
3096.000000	0.016395
3095.000000	0.016426
3094.000000	0.016445
3093.000000	0.016453
3092.000000	0.016452
3091.000000	0.016450
3090.000000	0.016448
3089.000000	0.016450
3088.000000	0.016455
3087.000000	0.016464
3086.000000	0.016477
3085.000000	0.016493
3084.000000	0.016512
3083.000000	0.016536
3082.000000	0.016561
3081.000000	0.016586
3080.000000	0.016602
3079.000000	0.016606
3078.000000	0.016597
3077.000000	0.016580
3076.000000	0.016567
3075.000000	0.016567
3074.000000	0.016584
3073.000000	0.016609
3072.000000	0.016629
3071.000000	0.016631
3070.000000	0.016609
3069.000000	0.016567
3068.000000	0.016516
3067.000000	0.016468
3066.000000	0.016431
3065.000000	0.016407
3064.000000	0.016389
3063.000000	0.016367
3062.000000	0.016329
3061.000000	0.016275
3060.000000	0.016215
3059.000000	0.016158
3058.000000	0.016102
3057.000000	0.016037
3056.000000	0.015957
3055.000000	0.015869
3054.000000	0.015780
3053.000000	0.015699
3052.000000	0.015626
3051.000000	0.015562
3050.000000	0.015503
3049.000000	0.015441
3048.000000	0.015374
3047.000000	0.015305
3046.000000	0.015238
3045.000000	0.015169
3044.000000	0.015096
3043.000000	0.015023
3042.000000	0.014961
3041.000000	0.014916
3040.000000	0.014882
3039.000000	0.014844
3038.000000	0.014791
3037.000000	0.014722
3036.000000	0.014642
3035.000000	0.014566
3034.000000	0.014503
3033.000000	0.014450
3032.000000	0.014395
3031.000000	0.014334
3030.000000	0.014273
3029.000000	0.014215
3028.000000	0.014156
3027.000000	0.014083
3026.000000	0.013999
3025.000000	0.013916
3024.000000	0.013846
3023.000000	0.013792
3022.000000	0.013750
3021.000000	0.013715
3020.000000	0.013676
3019.000000	0.013625
3018.000000	0.013569
3017.000000	0.013522
3016.000000	0.013497
3015.000000	0.013493
3014.000000	0.013499
3013.000000	0.013501
3012.000000	0.013492
3011.000000	0.013469
3010.000000	0.013436
3009.000000	0.013400
3008.000000	0.013371
3007.000000	0.013356
3006.000000	0.013352
3005.000000	0.013351
3004.000000	0.013349
3003.000000	0.013342
3002.000000	0.013325
3001.000000	0.013296
3000.000000	0.013257
2999.000000	0.013216
2998.000000	0.013188
2997.000000	0.013180
2996.000000	0.013195
2995.000000	0.013229
2994.000000	0.013272
2993.000000	0.013320
2992.000000	0.013367
2991.000000	0.013409
2990.000000	0.013444
2989.000000	0.013477
2988.000000	0.013524
2987.000000	0.013598
2986.000000	0.013698
2985.000000	0.013805
2984.000000	0.013899
2983.000000	0.013974
2982.000000	0.014039
2981.000000	0.014102
2980.000000	0.014165
2979.000000	0.014226
2978.000000	0.014289
2977.000000	0.014363
2976.000000	0.014452
2975.000000	0.014550
2974.000000	0.014650
2973.000000	0.014742
2972.000000	0.014824
2971.000000	0.014896
2970.000000	0.014966
2969.000000	0.015040
2968.000000	0.015123
2967.000000	0.015216
2966.000000	0.015314
2965.000000	0.015407
2964.000000	0.015492
2963.000000	0.015571
2962.000000	0.015647
2961.000000	0.015722
2960.000000	0.015792
2959.000000	0.015851
2958.000000	0.015894
2957.000000	0.015919
2956.000000	0.015929
2955.000000	0.015928
2954.000000	0.015926
2953.000000	0.015928
2952.000000	0.015932
2951.000000	0.015932
2950.000000	0.015921
2949.000000	0.015894
2948.000000	0.015849
2947.000000	0.015793
2946.000000	0.015734
2945.000000	0.015679
2944.000000	0.015630
2943.000000	0.015597
2942.000000	0.015591
2941.000000	0.015612
2940.000000	0.015648
2939.000000	0.015678
2938.000000	0.015694
2937.000000	0.015697
2936.000000	0.015696
2935.000000	0.015701
2934.000000	0.015722
2933.000000	0.015761
2932.000000	0.015809
2931.000000	0.015856
2930.000000	0.015900
2929.000000	0.015951
2928.000000	0.016023
2927.000000	0.016133
2926.000000	0.016288
2925.000000	0.016493
2924.000000	0.016744
2923.000000	0.017034
2922.000000	0.017351
2921.000000	0.017677
2920.000000	0.017992
2919.000000	0.018277
2918.000000	0.018516
2917.000000	0.018698
2916.000000	0.018809
2915.000000	0.018840
2914.000000	0.018795
2913.000000	0.018692
2912.000000	0.018555
2911.000000	0.018404
2910.000000	0.018253
2909.000000	0.018109
2908.000000	0.017973
2907.000000	0.017841
2906.000000	0.017711
2905.000000	0.017588
2904.000000	0.017474
2903.000000	0.017373
2902.000000	0.017285
2901.000000	0.017207
2900.000000	0.017132
2899.000000	0.017054
2898.000000	0.016965
2897.000000	0.016860
2896.000000	0.016744
2895.000000	0.016629
2894.000000	0.016529
2893.000000	0.016451
2892.000000	0.016391
2891.000000	0.016341
2890.000000	0.016291
2889.000000	0.016236
2888.000000	0.016174
2887.000000	0.016104
2886.000000	0.016031
2885.000000	0.015958
2884.000000	0.015887
2883.000000	0.015819
2882.000000	0.015758
2881.000000	0.015703
2880.000000	0.015656
2879.000000	0.015617
2878.000000	0.015587
2877.000000	0.015566
2876.000000	0.015553
2875.000000	0.015541
2874.000000	0.015527
2873.000000	0.015508
2872.000000	0.015481
2871.000000	0.015440
2870.000000	0.015379
2869.000000	0.015295
2868.000000	0.015191
2867.000000	0.015073
2866.000000	0.014944
2865.000000	0.014808
2864.000000	0.014666
2863.000000	0.014528
2862.000000	0.014407
2861.000000	0.014321
2860.000000	0.014283
2859.000000	0.014297
2858.000000	0.014363
2857.000000	0.014474
2856.000000	0.014631
2855.000000	0.014841
2854.000000	0.015114
2853.000000	0.015439
2852.000000	0.015775
2851.000000	0.016064
2850.000000	0.016252
2849.000000	0.016317
2848.000000	0.016265
2847.000000	0.016128
2846.000000	0.015937
2845.000000	0.015714
2844.000000	0.015467
2843.000000	0.015206
2842.000000	0.014941
2841.000000	0.014686
2840.000000	0.014450
2839.000000	0.014236
2838.000000	0.014043
2837.000000	0.013869
2836.000000	0.013715
2835.000000	0.013583
2834.000000	0.013474
2833.000000	0.013378
2832.000000	0.013284
2831.000000	0.013181
2830.000000	0.013069
2829.000000	0.012957
2828.000000	0.012852
2827.000000	0.012760
2826.000000	0.012677
2825.000000	0.012596
2824.000000	0.012511
2823.000000	0.012423
2822.000000	0.012336
2821.000000	0.012253
2820.000000	0.012171
2819.000000	0.012089
2818.000000	0.012018
2817.000000	0.011962
2816.000000	0.011916
2815.000000	0.011865
2814.000000	0.011803
2813.000000	0.011732
2812.000000	0.011660
2811.000000	0.011597
2810.000000	0.011548
2809.000000	0.011513
2808.000000	0.011483
2807.000000	0.011446
2806.000000	0.011402
2805.000000	0.011356
2804.000000	0.011312
2803.000000	0.011269
2802.000000	0.011226
2801.000000	0.011186
2800.000000	0.011151
2799.000000	0.011116
2798.000000	0.011078
2797.000000	0.011037
2796.000000	0.010997
2795.000000	0.010959
2794.000000	0.010922
2793.000000	0.010883
2792.000000	0.010847
2791.000000	0.010820
2790.000000	0.010803
2789.000000	0.010790
2788.000000	0.010769
2787.000000	0.010731
2786.000000	0.010680
2785.000000	0.010627
2784.000000	0.010581
2783.000000	0.010545
2782.000000	0.010510
2781.000000	0.010469
2780.000000	0.010422
2779.000000	0.010375
2778.000000	0.010335
2777.000000	0.010302
2776.000000	0.010273
2775.000000	0.010250
2774.000000	0.010237
2773.000000	0.010233
2772.000000	0.010225
2771.000000	0.010207
2770.000000	0.010177
2769.000000	0.010146
2768.000000	0.010119
2767.000000	0.010098
2766.000000	0.010080
2765.000000	0.010064
2764.000000	0.010048
2763.000000	0.010029
2762.000000	0.010004
2761.000000	0.009975
2760.000000	0.009941
2759.000000	0.009909
2758.000000	0.009882
2757.000000	0.009858
2756.000000	0.009832
2755.000000	0.009798
2754.000000	0.009755
2753.000000	0.009709
2752.000000	0.009665
2751.000000	0.009631
2750.000000	0.009612
2749.000000	0.009607
2748.000000	0.009608
2747.000000	0.009606
2746.000000	0.009599
2745.000000	0.009588
2744.000000	0.009574
2743.000000	0.009554
2742.000000	0.009525
2741.000000	0.009492
2740.000000	0.009458
2739.000000	0.009432
2738.000000	0.009418
2737.000000	0.009412
2736.000000	0.009407
2735.000000	0.009394
2734.000000	0.009375
2733.000000	0.009355
2732.000000	0.009339
2731.000000	0.009325
2730.000000	0.009310
2729.000000	0.009291
2728.000000	0.009270
2727.000000	0.009250
2726.000000	0.009230
2725.000000	0.009206
2724.000000	0.009173
2723.000000	0.009134
2722.000000	0.009096
2721.000000	0.009070
2720.000000	0.009056
2719.000000	0.009045
2718.000000	0.009030
2717.000000	0.009010
2716.000000	0.008986
2715.000000	0.008958
2714.000000	0.008929
2713.000000	0.008901
2712.000000	0.008881
2711.000000	0.008865
2710.000000	0.008846
2709.000000	0.008817
2708.000000	0.008786
2707.000000	0.008763
2706.000000	0.008752
2705.000000	0.008745
2704.000000	0.008737
2703.000000	0.008728
2702.000000	0.008720
2701.000000	0.008707
2700.000000	0.008683
2699.000000	0.008648
2698.000000	0.008614
2697.000000	0.008591
2696.000000	0.008582
2695.000000	0.008583
2694.000000	0.008593
2693.000000	0.008605
2692.000000	0.008607
2691.000000	0.008591
2690.000000	0.008566
2689.000000	0.008549
2688.000000	0.008546
2687.000000	0.008548
2686.000000	0.008544
2685.000000	0.008530
2684.000000	0.008510
2683.000000	0.008491
2682.000000	0.008478
2681.000000	0.008473
2680.000000	0.008474
2679.000000	0.008474
2678.000000	0.008467
2677.000000	0.008454
2676.000000	0.008440
2675.000000	0.008432
2674.000000	0.008429
2673.000000	0.008425
2672.000000	0.008417
2671.000000	0.008401
2670.000000	0.008379
2669.000000	0.008354
2668.000000	0.008333
2667.000000	0.008325
2666.000000	0.008334
2665.000000	0.008353
2664.000000	0.008365
2663.000000	0.008365
2662.000000	0.008359
2661.000000	0.008359
2660.000000	0.008361
2659.000000	0.008355
2658.000000	0.008338
2657.000000	0.008316
2656.000000	0.008297
2655.000000	0.008285
2654.000000	0.008275
2653.000000	0.008263
2652.000000	0.008244
2651.000000	0.008211
2650.000000	0.008160
2649.000000	0.008100
2648.000000	0.008045
2647.000000	0.008008
2646.000000	0.007991
2645.000000	0.007987
2644.000000	0.007981
2643.000000	0.007963
2642.000000	0.007931
2641.000000	0.007893
2640.000000	0.007857
2639.000000	0.007827
2638.000000	0.007802
2637.000000	0.007777
2636.000000	0.007750
2635.000000	0.007719
2634.000000	0.007685
2633.000000	0.007647
2632.000000	0.007603
2631.000000	0.007559
2630.000000	0.007526
2629.000000	0.007509
2628.000000	0.007499
2627.000000	0.007477
2626.000000	0.007438
2625.000000	0.007396
2624.000000	0.007378
2623.000000	0.007392
2622.000000	0.007422
2621.000000	0.007437
2620.000000	0.007420
2619.000000	0.007381
2618.000000	0.007341
2617.000000	0.007313
2616.000000	0.007289
2615.000000	0.007257
2614.000000	0.007213
2613.000000	0.007166
2612.000000	0.007131
2611.000000	0.007111
2610.000000	0.007102
2609.000000	0.007092
2608.000000	0.007072
2607.000000	0.007045
2606.000000	0.007024
2605.000000	0.007021
2604.000000	0.007029
2603.000000	0.007037
2602.000000	0.007038
2601.000000	0.007038
2600.000000	0.007039
2599.000000	0.007029
2598.000000	0.006999
2597.000000	0.006956
2596.000000	0.006922
2595.000000	0.006912
2594.000000	0.006916
2593.000000	0.006912
2592.000000	0.006884
2591.000000	0.006842
2590.000000	0.006808
2589.000000	0.006793
2588.000000	0.006794
2587.000000	0.006797
2586.000000	0.006787
2585.000000	0.006756
2584.000000	0.006709
2583.000000	0.006668
2582.000000	0.006652
2581.000000	0.006662
2580.000000	0.006676
2579.000000	0.006676
2578.000000	0.006661
2577.000000	0.006636
2576.000000	0.006606
2575.000000	0.006575
2574.000000	0.006560
2573.000000	0.006570
2572.000000	0.006600
2571.000000	0.006629
2570.000000	0.006637
2569.000000	0.006622
2568.000000	0.006594
2567.000000	0.006573
2566.000000	0.006564
2565.000000	0.006550
2564.000000	0.006505
2563.000000	0.006435
2562.000000	0.006381
2561.000000	0.006377
2560.000000	0.006414
2559.000000	0.006451
2558.000000	0.006456
2557.000000	0.006426
2556.000000	0.006389
2555.000000	0.006375
2554.000000	0.006401
2553.000000	0.006453
2552.000000	0.006488
2551.000000	0.006472
2550.000000	0.006406
2549.000000	0.006319
2548.000000	0.006246
2547.000000	0.006204
2546.000000	0.006197
2545.000000	0.006217
2544.000000	0.006243
2543.000000	0.006250
2542.000000	0.006224
2541.000000	0.006177
2540.000000	0.006137
2539.000000	0.006130
2538.000000	0.006164
2537.000000	0.006220
2536.000000	0.006262
2535.000000	0.006268
2534.000000	0.006248
2533.000000	0.006230
2532.000000	0.006234
2531.000000	0.006258
2530.000000	0.006283
2529.000000	0.006287
2528.000000	0.006257
2527.000000	0.006200
2526.000000	0.006145
2525.000000	0.006113
2524.000000	0.006095
2523.000000	0.006073
2522.000000	0.006048
2521.000000	0.006035
2520.000000	0.006036
2519.000000	0.006039
2518.000000	0.006038
2517.000000	0.006044
2516.000000	0.006073
2515.000000	0.006119
2514.000000	0.006166
2513.000000	0.006196
2512.000000	0.006200
2511.000000	0.006180
2510.000000	0.006147
2509.000000	0.006120
2508.000000	0.006108
2507.000000	0.006106
2506.000000	0.006108
2505.000000	0.006111
2504.000000	0.006108
2503.000000	0.006088
2502.000000	0.006046
2501.000000	0.005992
2500.000000	0.005952
2499.000000	0.005943
2498.000000	0.005961
2497.000000	0.005986
2496.000000	0.005997
2495.000000	0.005987
2494.000000	0.005961
2493.000000	0.005933
2492.000000	0.005912
2491.000000	0.005912
2490.000000	0.005942
2489.000000	0.005989
2488.000000	0.006021
2487.000000	0.006012
2486.000000	0.005965
2485.000000	0.005906
2484.000000	0.005857
2483.000000	0.005822
2482.000000	0.005804
2481.000000	0.005799
2480.000000	0.005801
2479.000000	0.005799
2478.000000	0.005797
2477.000000	0.005803
2476.000000	0.005820
2475.000000	0.005831
2474.000000	0.005825
2473.000000	0.005805
2472.000000	0.005785
2471.000000	0.005778
2470.000000	0.005791
2469.000000	0.005818
2468.000000	0.005849
2467.000000	0.005877
2466.000000	0.005897
2465.000000	0.005901
2464.000000	0.005882
2463.000000	0.005852
2462.000000	0.005833
2461.000000	0.005837
2460.000000	0.005848
2459.000000	0.005838
2458.000000	0.005809
2457.000000	0.005786
2456.000000	0.005782
2455.000000	0.005786
2454.000000	0.005778
2453.000000	0.005760
2452.000000	0.005750
2451.000000	0.005765
2450.000000	0.005799
2449.000000	0.005836
2448.000000	0.005858
2447.000000	0.005859
2446.000000	0.005848
2445.000000	0.005830
2444.000000	0.005803
2443.000000	0.005761
2442.000000	0.005706
2441.000000	0.005652
2440.000000	0.005615
2439.000000	0.005609
2438.000000	0.005635
2437.000000	0.005672
2436.000000	0.005693
2435.000000	0.005684
2434.000000	0.005658
2433.000000	0.005636
2432.000000	0.005624
2431.000000	0.005619
2430.000000	0.005616
2429.000000	0.005615
2428.000000	0.005615
2427.000000	0.005617
2426.000000	0.005625
2425.000000	0.005636
2424.000000	0.005640
2423.000000	0.005633
2422.000000	0.005630
2421.000000	0.005643
2420.000000	0.005660
2419.000000	0.005658
2418.000000	0.005635
2417.000000	0.005612
2416.000000	0.005607
2415.000000	0.005614
2414.000000	0.005618
2413.000000	0.005612
2412.000000	0.005602
2411.000000	0.005594
2410.000000	0.005590
2409.000000	0.005581
2408.000000	0.005564
2407.000000	0.005540
2406.000000	0.005519
2405.000000	0.005499
2404.000000	0.005474
2403.000000	0.005448
2402.000000	0.005443
2401.000000	0.005472
2400.000000	0.005514
2399.000000	0.005538
2398.000000	0.005535
2397.000000	0.005525
2396.000000	0.005532
2395.000000	0.005564
2394.000000	0.005613
2393.000000	0.005663
2392.000000	0.005699
2391.000000	0.005709
2390.000000	0.005695
2389.000000	0.005671
2388.000000	0.005652
2387.000000	0.005646
2386.000000	0.005662
2385.000000	0.005693
2384.000000	0.005726
2383.000000	0.005745
2382.000000	0.005754
2381.000000	0.005768
2380.000000	0.005788
2379.000000	0.005801
2378.000000	0.005797
2377.000000	0.005775
2376.000000	0.005739
2375.000000	0.005700
2374.000000	0.005677
2373.000000	0.005685
2372.000000	0.005714
2371.000000	0.005739
2370.000000	0.005754
2369.000000	0.005772
2368.000000	0.005798
2367.000000	0.005826
2366.000000	0.005867
2365.000000	0.005936
2364.000000	0.006011
2363.000000	0.006035
2362.000000	0.005985
2361.000000	0.005907
2360.000000	0.005865
2359.000000	0.005874
2358.000000	0.005896
2357.000000	0.005906
2356.000000	0.005913
2355.000000	0.005938
2354.000000	0.005973
2353.000000	0.005985
2352.000000	0.005958
2351.000000	0.005919
2350.000000	0.005910
2349.000000	0.005942
2348.000000	0.005994
2347.000000	0.006029
2346.000000	0.006029
2345.000000	0.006010
2344.000000	0.005998
2343.000000	0.006001
2342.000000	0.006003
2341.000000	0.005989
2340.000000	0.005963
2339.000000	0.005948
2338.000000	0.005964
2337.000000	0.006011
2336.000000	0.006075
2335.000000	0.006129
2334.000000	0.006151
2333.000000	0.006126
2332.000000	0.006063
2331.000000	0.005986
2330.000000	0.005937
2329.000000	0.005944
2328.000000	0.006007
2327.000000	0.006105
2326.000000	0.006211
2325.000000	0.006299
2324.000000	0.006336
2323.000000	0.006311
2322.000000	0.006245
2321.000000	0.006179
2320.000000	0.006136
2319.000000	0.006102
2318.000000	0.006062
2317.000000	0.006016
2316.000000	0.005977
2315.000000	0.005952
2314.000000	0.005942
2313.000000	0.005942
2312.000000	0.005945
2311.000000	0.005939
2310.000000	0.005917
2309.000000	0.005878
2308.000000	0.005827
2307.000000	0.005777
2306.000000	0.005743
2305.000000	0.005734
2304.000000	0.005741
2303.000000	0.005751
2302.000000	0.005760
2301.000000	0.005775
2300.000000	0.005798
2299.000000	0.005814
2298.000000	0.005813
2297.000000	0.005793
2296.000000	0.005765
2295.000000	0.005745
2294.000000	0.005741
2293.000000	0.005753
2292.000000	0.005769
2291.000000	0.005780
2290.000000	0.005787
2289.000000	0.005799
2288.000000	0.005814
2287.000000	0.005821
2286.000000	0.005813
2285.000000	0.005790
2284.000000	0.005752
2283.000000	0.005709
2282.000000	0.005678
2281.000000	0.005667
2280.000000	0.005670
2279.000000	0.005674
2278.000000	0.005681
2277.000000	0.005693
2276.000000	0.005692
2275.000000	0.005654
2274.000000	0.005592
2273.000000	0.005535
2272.000000	0.005491
2271.000000	0.005441
2270.000000	0.005384
2269.000000	0.005347
2268.000000	0.005344
2267.000000	0.005351
2266.000000	0.005336
2265.000000	0.005299
2264.000000	0.005265
2263.000000	0.005247
2262.000000	0.005239
2261.000000	0.005223
2260.000000	0.005188
2259.000000	0.005146
2258.000000	0.005124
2257.000000	0.005134
2256.000000	0.005154
2255.000000	0.005144
2254.000000	0.005091
2253.000000	0.005025
2252.000000	0.004985
2251.000000	0.005001
2250.000000	0.005078
2249.000000	0.005186
2248.000000	0.005278
2247.000000	0.005326
2246.000000	0.005351
2245.000000	0.005387
2244.000000	0.005419
2243.000000	0.005405
2242.000000	0.005341
2241.000000	0.005282
2240.000000	0.005284
2239.000000	0.005349
2238.000000	0.005432
2237.000000	0.005466
2236.000000	0.005405
2235.000000	0.005273
2234.000000	0.005168
2233.000000	0.005180
2232.000000	0.005290
2231.000000	0.005394
2230.000000	0.005417
2229.000000	0.005379
2228.000000	0.005325
2227.000000	0.005268
2226.000000	0.005193
2225.000000	0.005095
2224.000000	0.004979
2223.000000	0.004849
2222.000000	0.004731
2221.000000	0.004668
2220.000000	0.004681
2219.000000	0.004745
2218.000000	0.004829
2217.000000	0.004928
2216.000000	0.005036
2215.000000	0.005128
2214.000000	0.005187
2213.000000	0.005215
2212.000000	0.005219
2211.000000	0.005199
2210.000000	0.005163
2209.000000	0.005138
2208.000000	0.005135
2207.000000	0.005138
2206.000000	0.005131
2205.000000	0.005113
2204.000000	0.005085
2203.000000	0.005032
2202.000000	0.004939
2201.000000	0.004800
2200.000000	0.004625
2199.000000	0.004456
2198.000000	0.004375
2197.000000	0.004438
2196.000000	0.004601
2195.000000	0.004755
2194.000000	0.004842
2193.000000	0.004891
2192.000000	0.004934
2191.000000	0.004944
2190.000000	0.004888
2189.000000	0.004785
2188.000000	0.004683
2187.000000	0.004600
2186.000000	0.004527
2185.000000	0.004467
2184.000000	0.004434
2183.000000	0.004427
2182.000000	0.004436
2181.000000	0.004458
2180.000000	0.004494
2179.000000	0.004544
2178.000000	0.004613
2177.000000	0.004711
2176.000000	0.004829
2175.000000	0.004930
2174.000000	0.004968
2173.000000	0.004914
2172.000000	0.004779
2171.000000	0.004623
2170.000000	0.004516
2169.000000	0.004475
2168.000000	0.004456
2167.000000	0.004422
2166.000000	0.004407
2165.000000	0.004458
2164.000000	0.004531
2163.000000	0.004505
2162.000000	0.004300
2161.000000	0.003938
2160.000000	0.003536
2159.000000	0.003259
2158.000000	0.003229
2157.000000	0.003393
2156.000000	0.003553
2155.000000	0.003584
2154.000000	0.003552
2153.000000	0.003587
2152.000000	0.003694
2151.000000	0.003769
2150.000000	0.003759
2149.000000	0.003724
2148.000000	0.003751
2147.000000	0.003859
2146.000000	0.004019
2145.000000	0.004184
2144.000000	0.004303
2143.000000	0.004349
2142.000000	0.004358
2141.000000	0.004395
2140.000000	0.004485
2139.000000	0.004591
2138.000000	0.004660
2137.000000	0.004668
2136.000000	0.004610
2135.000000	0.004496
2134.000000	0.004356
2133.000000	0.004235
2132.000000	0.004169
2131.000000	0.004179
2130.000000	0.004266
2129.000000	0.004397
2128.000000	0.004518
2127.000000	0.004594
2126.000000	0.004648
2125.000000	0.004721
2124.000000	0.004815
2123.000000	0.004894
2122.000000	0.004926
2121.000000	0.004913
2120.000000	0.004881
2119.000000	0.004870
2118.000000	0.004926
2117.000000	0.005047
2116.000000	0.005171
2115.000000	0.005221
2114.000000	0.005187
2113.000000	0.005132
2112.000000	0.005116
2111.000000	0.005147
2110.000000	0.005188
2109.000000	0.005204
2108.000000	0.005180
2107.000000	0.005143
2106.000000	0.005143
2105.000000	0.005198
2104.000000	0.005252
2103.000000	0.005234
2102.000000	0.005140
2101.000000	0.005031
2100.000000	0.004958
2099.000000	0.004921
2098.000000	0.004900
2097.000000	0.004901
2096.000000	0.004928
2095.000000	0.004963
2094.000000	0.004980
2093.000000	0.004974
2092.000000	0.004962
2091.000000	0.004963
2090.000000	0.004981
2089.000000	0.004994
2088.000000	0.004976
2087.000000	0.004929
2086.000000	0.004901
2085.000000	0.004936
2084.000000	0.005020
2083.000000	0.005088
2082.000000	0.005103
2081.000000	0.005074
2080.000000	0.005030
2079.000000	0.004977
2078.000000	0.004907
2077.000000	0.004822
2076.000000	0.004737
2075.000000	0.004671
2074.000000	0.004637
2073.000000	0.004625
2072.000000	0.004617
2071.000000	0.004615
2070.000000	0.004633
2069.000000	0.004651
2068.000000	0.004615
2067.000000	0.004516
2066.000000	0.004441
2065.000000	0.004482
2064.000000	0.004619
2063.000000	0.004735
2062.000000	0.004739
2061.000000	0.004635
2060.000000	0.004480
2059.000000	0.004346
2058.000000	0.004286
2057.000000	0.004305
2056.000000	0.004350
2055.000000	0.004378
2054.000000	0.004415
2053.000000	0.004503
2052.000000	0.004618
2051.000000	0.004692
2050.000000	0.004697
2049.000000	0.004650
2048.000000	0.004548
2047.000000	0.004381
2046.000000	0.004193
2045.000000	0.004065
2044.000000	0.004010
2043.000000	0.003982
2042.000000	0.003966
2041.000000	0.003982
2040.000000	0.004004
2039.000000	0.003981
2038.000000	0.003943
2037.000000	0.003972
2036.000000	0.004029
2035.000000	0.003939
2034.000000	0.003618
2033.000000	0.003215
2032.000000	0.002970
2031.000000	0.002977
2030.000000	0.003156
2029.000000	0.003367
2028.000000	0.003510
2027.000000	0.003574
2026.000000	0.003633
2025.000000	0.003739
2024.000000	0.003850
2023.000000	0.003889
2022.000000	0.003847
2021.000000	0.003787
2020.000000	0.003761
2019.000000	0.003777
2018.000000	0.003818
2017.000000	0.003815
2016.000000	0.003676
2015.000000	0.003413
2014.000000	0.003190
2013.000000	0.003138
2012.000000	0.003169
2011.000000	0.003091
2010.000000	0.002895
2009.000000	0.002769
2008.000000	0.002840
2007.000000	0.003028
2006.000000	0.003183
2005.000000	0.003244
2004.000000	0.003227
2003.000000	0.003181
2002.000000	0.003194
2001.000000	0.003343
2000.000000	0.003582
1999.000000	0.003766
1998.000000	0.003810
1997.000000	0.003759
1996.000000	0.003701
1995.000000	0.003667
1994.000000	0.003641
1993.000000	0.003606
1992.000000	0.003559
1991.000000	0.003514
1990.000000	0.003506
1989.000000	0.003550
1988.000000	0.003615
1987.000000	0.003659
1986.000000	0.003681
1985.000000	0.003699
1984.000000	0.003720
1983.000000	0.003765
1982.000000	0.003875
1981.000000	0.004038
1980.000000	0.004124
1979.000000	0.004026
1978.000000	0.003805
1977.000000	0.003613
1976.000000	0.003487
1975.000000	0.003368
1974.000000	0.003281
1973.000000	0.003316
1972.000000	0.003453
1971.000000	0.003575
1970.000000	0.003617
1969.000000	0.003596
1968.000000	0.003515
1967.000000	0.003364
1966.000000	0.003225
1965.000000	0.003214
1964.000000	0.003319
1963.000000	0.003404
1962.000000	0.003390
1961.000000	0.003325
1960.000000	0.003280
1959.000000	0.003262
1958.000000	0.003259
1957.000000	0.003275
1956.000000	0.003301
1955.000000	0.003314
1954.000000	0.003319
1953.000000	0.003337
1952.000000	0.003358
1951.000000	0.003350
1950.000000	0.003335
1949.000000	0.003370
1948.000000	0.003446
1947.000000	0.003485
1946.000000	0.003453
1945.000000	0.003407
1944.000000	0.003396
1943.000000	0.003382
1942.000000	0.003306
1941.000000	0.003194
1940.000000	0.003130
1939.000000	0.003174
1938.000000	0.003307
1937.000000	0.003461
1936.000000	0.003565
1935.000000	0.003617
1934.000000	0.003673
1933.000000	0.003769
1932.000000	0.003862
1931.000000	0.003873
1930.000000	0.003787
1929.000000	0.003677
1928.000000	0.003606
1927.000000	0.003588
1926.000000	0.003592
1925.000000	0.003600
1924.000000	0.003599
1923.000000	0.003577
1922.000000	0.003542
1921.000000	0.003527
1920.000000	0.003544
1919.000000	0.003576
1918.000000	0.003596
1917.000000	0.003610
1916.000000	0.003630
1915.000000	0.003651
1914.000000	0.003664
1913.000000	0.003668
1912.000000	0.003679
1911.000000	0.003708
1910.000000	0.003746
1909.000000	0.003760
1908.000000	0.003722
1907.000000	0.003653
1906.000000	0.003597
1905.000000	0.003576
1904.000000	0.003573
1903.000000	0.003565
1902.000000	0.003567
1901.000000	0.003597
1900.000000	0.003632
1899.000000	0.003648
1898.000000	0.003653
1897.000000	0.003672
1896.000000	0.003696
1895.000000	0.003688
1894.000000	0.003645
1893.000000	0.003595
1892.000000	0.003556
1891.000000	0.003528
1890.000000	0.003519
1889.000000	0.003539
1888.000000	0.003570
1887.000000	0.003592
1886.000000	0.003602
1885.000000	0.003604
1884.000000	0.003586
1883.000000	0.003533
1882.000000	0.003467
1881.000000	0.003432
1880.000000	0.003436
1879.000000	0.003463
1878.000000	0.003493
1877.000000	0.003501
1876.000000	0.003463
1875.000000	0.003376
1874.000000	0.003271
1873.000000	0.003191
1872.000000	0.003151
1871.000000	0.003148
1870.000000	0.003181
1869.000000	0.003236
1868.000000	0.003272
1867.000000	0.003280
1866.000000	0.003300
1865.000000	0.003353
1864.000000	0.003406
1863.000000	0.003423
1862.000000	0.003423
1861.000000	0.003447
1860.000000	0.003481
1859.000000	0.003475
1858.000000	0.003416
1857.000000	0.003338
1856.000000	0.003284
1855.000000	0.003274
1854.000000	0.003324
1853.000000	0.003425
1852.000000	0.003509
1851.000000	0.003533
1850.000000	0.003501
1849.000000	0.003427
1848.000000	0.003306
1847.000000	0.003159
1846.000000	0.003068
1845.000000	0.003096
1844.000000	0.003191
1843.000000	0.003238
1842.000000	0.003219
1841.000000	0.003204
1840.000000	0.003227
1839.000000	0.003261
1838.000000	0.003278
1837.000000	0.003300
1836.000000	0.003332
1835.000000	0.003338
1834.000000	0.003293
1833.000000	0.003215
1832.000000	0.003129
1831.000000	0.003059
1830.000000	0.003003
1829.000000	0.002954
1828.000000	0.002923
1827.000000	0.002939
1826.000000	0.003016
1825.000000	0.003122
1824.000000	0.003199
1823.000000	0.003230
1822.000000	0.003249
1821.000000	0.003278
1820.000000	0.003297
1819.000000	0.003286
1818.000000	0.003252
1817.000000	0.003231
1816.000000	0.003223
1815.000000	0.003205
1814.000000	0.003179
1813.000000	0.003164
1812.000000	0.003170
1811.000000	0.003181
1810.000000	0.003188
1809.000000	0.003215
1808.000000	0.003267
1807.000000	0.003309
1806.000000	0.003321
1805.000000	0.003312
1804.000000	0.003291
1803.000000	0.003248
1802.000000	0.003186
1801.000000	0.003118
1800.000000	0.003073
1799.000000	0.003070
1798.000000	0.003108
1797.000000	0.003149
1796.000000	0.003143
1795.000000	0.003075
1794.000000	0.003000
1793.000000	0.002970
1792.000000	0.002981
1791.000000	0.002990
1790.000000	0.003002
1789.000000	0.003049
1788.000000	0.003125
1787.000000	0.003188
1786.000000	0.003219
1785.000000	0.003222
1784.000000	0.003197
1783.000000	0.003145
1782.000000	0.003119
1781.000000	0.003126
1780.000000	0.003132
1779.000000	0.003111
1778.000000	0.003090
1777.000000	0.003091
1776.000000	0.003079
1775.000000	0.003035
1774.000000	0.002993
1773.000000	0.002975
1772.000000	0.002954
1771.000000	0.002925
1770.000000	0.002960
1769.000000	0.003109
1768.000000	0.003281
1767.000000	0.003322
1766.000000	0.003223
1765.000000	0.003106
1764.000000	0.003070
1763.000000	0.003091
1762.000000	0.003103
1761.000000	0.003075
1760.000000	0.003047
1759.000000	0.003056
1758.000000	0.003137
1757.000000	0.003280
1756.000000	0.003410
1755.000000	0.003508
1754.000000	0.003650
1753.000000	0.003899
1752.000000	0.004188
1751.000000	0.004397
1750.000000	0.004508
1749.000000	0.004656
1748.000000	0.004899
1747.000000	0.005175
1746.000000	0.005444
1745.000000	0.005710
1744.000000	0.005963
1743.000000	0.006138
1742.000000	0.006229
1741.000000	0.006325
1740.000000	0.006475
1739.000000	0.006580
1738.000000	0.006586
1737.000000	0.006589
1736.000000	0.006670
1735.000000	0.006729
1734.000000	0.006642
1733.000000	0.006465
1732.000000	0.006308
1731.000000	0.006210
1730.000000	0.006185
1729.000000	0.006202
1728.000000	0.006204
1727.000000	0.006169
1726.000000	0.006126
1725.000000	0.006106
1724.000000	0.006115
1723.000000	0.006080
1722.000000	0.005950
1721.000000	0.005804
1720.000000	0.005775
1719.000000	0.005916
1718.000000	0.006141
1717.000000	0.006331
1716.000000	0.006444
1715.000000	0.006509
1714.000000	0.006589
1713.000000	0.006739
1712.000000	0.006948
1711.000000	0.007158
1710.000000	0.007346
1709.000000	0.007517
1708.000000	0.007688
1707.000000	0.007921
1706.000000	0.008256
1705.000000	0.008626
1704.000000	0.008915
1703.000000	0.009162
1702.000000	0.009546
1701.000000	0.010212
1700.000000	0.011047
1699.000000	0.011746
1698.000000	0.012387
1697.000000	0.013271
1696.000000	0.014347
1695.000000	0.015208
1694.000000	0.015714
1693.000000	0.016122
1692.000000	0.016678
1691.000000	0.017369
1690.000000	0.018064
1689.000000	0.018686
1688.000000	0.019232
1687.000000	0.019781
1686.000000	0.020410
1685.000000	0.021219
1684.000000	0.022123
1683.000000	0.022863
1682.000000	0.023557
1681.000000	0.024413
1680.000000	0.025355
1679.000000	0.026170
1678.000000	0.026847
1677.000000	0.027591
1676.000000	0.028532
1675.000000	0.029526
1674.000000	0.030372
1673.000000	0.031097
1672.000000	0.031868
1671.000000	0.032776
1670.000000	0.033826
1669.000000	0.034972
1668.000000	0.036081
1667.000000	0.037034
1666.000000	0.037843
1665.000000	0.038641
1664.000000	0.039528
1663.000000	0.040450
1662.000000	0.041326
1661.000000	0.042164
1660.000000	0.042997
1659.000000	0.043781
1658.000000	0.044425
1657.000000	0.044929
1656.000000	0.045425
1655.000000	0.046035
1654.000000	0.046748
1653.000000	0.047485
1652.000000	0.048111
1651.000000	0.048464
1650.000000	0.048636
1649.000000	0.048931
1648.000000	0.049421
1647.000000	0.049933
1646.000000	0.050351
1645.000000	0.050767
1644.000000	0.051201
1643.000000	0.051596
1642.000000	0.051963
1641.000000	0.052295
1640.000000	0.052550
1639.000000	0.052721
1638.000000	0.052847
1637.000000	0.052957
1636.000000	0.053017
1635.000000	0.053060
1634.000000	0.053193
1633.000000	0.053436
1632.000000	0.053707
1631.000000	0.053880
1630.000000	0.053857
1629.000000	0.053648
1628.000000	0.053336
1627.000000	0.052981
1626.000000	0.052615
1625.000000	0.052207
1624.000000	0.051687
1623.000000	0.051010
1622.000000	0.050270
1621.000000	0.049590
1620.000000	0.048999
1619.000000	0.048431
1618.000000	0.047720
1617.000000	0.046721
1616.000000	0.045532
1615.000000	0.044406
1614.000000	0.043456
1613.000000	0.042631
1612.000000	0.041800
1611.000000	0.040866
1610.000000	0.039866
1609.000000	0.038889
1608.000000	0.037968
1607.000000	0.037105
1606.000000	0.036313
1605.000000	0.035576
1604.000000	0.034863
1603.000000	0.034181
1602.000000	0.033552
1601.000000	0.032975
1600.000000	0.032434
1599.000000	0.031936
1598.000000	0.031505
1597.000000	0.031138
1596.000000	0.030822
1595.000000	0.030560
1594.000000	0.030362
1593.000000	0.030209
1592.000000	0.030072
1591.000000	0.029943
1590.000000	0.029835
1589.000000	0.029749
1588.000000	0.029685
1587.000000	0.029665
1586.000000	0.029702
1585.000000	0.029780
1584.000000	0.029861
1583.000000	0.029980
1582.000000	0.030170
1581.000000	0.030381
1580.000000	0.030565
1579.000000	0.030802
1578.000000	0.031202
1577.000000	0.031739
1576.000000	0.032245
1575.000000	0.032586
1574.000000	0.032804
1573.000000	0.033014
1572.000000	0.033287
1571.000000	0.033641
1570.000000	0.034091
1569.000000	0.034629
1568.000000	0.035192
1567.000000	0.035780
1566.000000	0.036413
1565.000000	0.037056
1564.000000	0.037606
1563.000000	0.038060
1562.000000	0.038493
1561.000000	0.038914
1560.000000	0.039294
1559.000000	0.039715
1558.000000	0.040167
1557.000000	0.040765
1556.000000	0.041493
1555.000000	0.042259
1554.000000	0.042960
1553.000000	0.043501
1552.000000	0.043928
1551.000000	0.044342
1550.000000	0.044728
1549.000000	0.045033
1548.000000	0.045263
1547.000000	0.045483
1546.000000	0.045714
1545.000000	0.045909
1544.000000	0.046008
1543.000000	0.046034
1542.000000	0.046064
1541.000000	0.046167
1540.000000	0.046315
1539.000000	0.046463
1538.000000	0.046583
1537.000000	0.046618
1536.000000	0.046603
1535.000000	0.046554
1534.000000	0.046418
1533.000000	0.046209
1532.000000	0.046062
1531.000000	0.046018
1530.000000	0.045974
1529.000000	0.045848
1528.000000	0.045642
1527.000000	0.045364
1526.000000	0.045010
1525.000000	0.044596
1524.000000	0.044196
1523.000000	0.043852
1522.000000	0.043496
1521.000000	0.043068
1520.000000	0.042632
1519.000000	0.042279
1518.000000	0.042034
1517.000000	0.041831
1516.000000	0.041581
1515.000000	0.041284
1514.000000	0.040974
1513.000000	0.040603
1512.000000	0.040101
1511.000000	0.039460
1510.000000	0.038780
1509.000000	0.038149
1508.000000	0.037521
1507.000000	0.036715
1506.000000	0.035816
1505.000000	0.035182
1504.000000	0.034735
1503.000000	0.034277
1502.000000	0.033731
1501.000000	0.033038
1500.000000	0.032189
1499.000000	0.031269
1498.000000	0.030351
1497.000000	0.029468
1496.000000	0.028648
1495.000000	0.027874
1494.000000	0.027119
1493.000000	0.026400
1492.000000	0.025724
1491.000000	0.025045
1490.000000	0.024353
1489.000000	0.023731
1488.000000	0.023281
1487.000000	0.022977
1486.000000	0.022745
1485.000000	0.022570
1484.000000	0.022437
1483.000000	0.022346
1482.000000	0.022296
1481.000000	0.022302
1480.000000	0.022365
1479.000000	0.022466
1478.000000	0.022590
1477.000000	0.022735
1476.000000	0.022903
1475.000000	0.023087
1474.000000	0.023331
1473.000000	0.023680
1472.000000	0.024115
1471.000000	0.024579
1470.000000	0.025063
1469.000000	0.025573
1468.000000	0.026082
1467.000000	0.026531
1466.000000	0.026931
1465.000000	0.027337
1464.000000	0.027764
1463.000000	0.028174
1462.000000	0.028514
1461.000000	0.028791
1460.000000	0.029056
1459.000000	0.029396
1458.000000	0.029888
1457.000000	0.030523
1456.000000	0.031133
1455.000000	0.031582
1454.000000	0.031924
1453.000000	0.032251
1452.000000	0.032530
1451.000000	0.032673
1450.000000	0.032692
1449.000000	0.032669
1448.000000	0.032642
1447.000000	0.032595
1446.000000	0.032561
1445.000000	0.032535
1444.000000	0.032485
1443.000000	0.032379
1442.000000	0.032204
1441.000000	0.031973
1440.000000	0.031716
1439.000000	0.031468
1438.000000	0.031205
1437.000000	0.030883
1436.000000	0.030502
1435.000000	0.030130
1434.000000	0.029800
1433.000000	0.029492
1432.000000	0.029160
1431.000000	0.028785
1430.000000	0.028407
1429.000000	0.028090
1428.000000	0.027860
1427.000000	0.027701
1426.000000	0.027608
1425.000000	0.027544
1424.000000	0.027455
1423.000000	0.027336
1422.000000	0.027241
1421.000000	0.027216
1420.000000	0.027243
1419.000000	0.027285
1418.000000	0.027311
1417.000000	0.027344
1416.000000	0.027423
1415.000000	0.027537
1414.000000	0.027657
1413.000000	0.027776
1412.000000	0.027909
1411.000000	0.028057
1410.000000	0.028208
1409.000000	0.028370
1408.000000	0.028559
1407.000000	0.028766
1406.000000	0.028987
1405.000000	0.029211
1404.000000	0.029399
1403.000000	0.029516
1402.000000	0.029565
1401.000000	0.029580
1400.000000	0.029570
1399.000000	0.029513
1398.000000	0.029410
1397.000000	0.029311
1396.000000	0.029236
1395.000000	0.029154
1394.000000	0.029058
1393.000000	0.028971
1392.000000	0.028900
1391.000000	0.028821
1390.000000	0.028732
1389.000000	0.028649
1388.000000	0.028577
1387.000000	0.028476
1386.000000	0.028318
1385.000000	0.028130
1384.000000	0.027951
1383.000000	0.027791
1382.000000	0.027639
1381.000000	0.027505
1380.000000	0.027384
1379.000000	0.027246
1378.000000	0.027059
1377.000000	0.026832
1376.000000	0.026595
1375.000000	0.026355
1374.000000	0.026104
1373.000000	0.025852
1372.000000	0.025622
1371.000000	0.025414
1370.000000	0.025217
1369.000000	0.025013
1368.000000	0.024786
1367.000000	0.024529
1366.000000	0.024245
1365.000000	0.023947
1364.000000	0.023644
1363.000000	0.023339
1362.000000	0.023040
1361.000000	0.022765
1360.000000	0.022525
1359.000000	0.022313
1358.000000	0.022127
1357.000000	0.021973
1356.000000	0.021861
1355.000000	0.021790
1354.000000	0.021759
1353.000000	0.021776
1352.000000	0.021848
1351.000000	0.021957
1350.000000	0.022085
1349.000000	0.022223
1348.000000	0.022372
1347.000000	0.022539
1346.000000	0.022725
1345.000000	0.022930
1344.000000	0.023149
1343.000000	0.023377
1342.000000	0.023615
1341.000000	0.023865
1340.000000	0.024113
1339.000000	0.024322
1338.000000	0.024457
1337.000000	0.024513
1336.000000	0.024498
1335.000000	0.024425
1334.000000	0.024303
1333.000000	0.024138
1332.000000	0.023928
1331.000000	0.023674
1330.000000	0.023393
1329.000000	0.023113
1328.000000	0.022861
1327.000000	0.022649
1326.000000	0.022484
1325.000000	0.022369
1324.000000	0.022300
1323.000000	0.022275
1322.000000	0.022292
1321.000000	0.022341
1320.000000	0.022405
1319.000000	0.022462
1318.000000	0.022509
1317.000000	0.022553
1316.000000	0.022591
1315.000000	0.022605
1314.000000	0.022578
1313.000000	0.022503
1312.000000	0.022376
1311.000000	0.022202
1310.000000	0.022000
1309.000000	0.021801
1308.000000	0.021624
1307.000000	0.021459
1306.000000	0.021289
1305.000000	0.021106
1304.000000	0.020917
1303.000000	0.020722
1302.000000	0.020527
1301.000000	0.020338
1300.000000	0.020169
1299.000000	0.020024
1298.000000	0.019904
1297.000000	0.019815
1296.000000	0.019766
1295.000000	0.019763
1294.000000	0.019804
1293.000000	0.019888
1292.000000	0.020021
1291.000000	0.020198
1290.000000	0.020404
1289.000000	0.020621
1288.000000	0.020832
1287.000000	0.021030
1286.000000	0.021226
1285.000000	0.021442
1284.000000	0.021693
1283.000000	0.021958
1282.000000	0.022199
1281.000000	0.022390
1280.000000	0.022529
1279.000000	0.022627
1278.000000	0.022696
1277.000000	0.022745
1276.000000	0.022781
1275.000000	0.022802
1274.000000	0.022802
1273.000000	0.022789
1272.000000	0.022783
1271.000000	0.022803
1270.000000	0.022848
1269.000000	0.022905
1268.000000	0.022956
1267.000000	0.022991
1266.000000	0.023013
1265.000000	0.023047
1264.000000	0.023115
1263.000000	0.023224
1262.000000	0.023364
1261.000000	0.023522
1260.000000	0.023700
1259.000000	0.023909
1258.000000	0.024154
1257.000000	0.024431
1256.000000	0.024728
1255.000000	0.025034
1254.000000	0.025347
1253.000000	0.025669
1252.000000	0.025992
1251.000000	0.026314
1250.000000	0.026646
1249.000000	0.027003
1248.000000	0.027383
1247.000000	0.027766
1246.000000	0.028144
1245.000000	0.028527
1244.000000	0.028929
1243.000000	0.029340
1242.000000	0.029745
1241.000000	0.030135
1240.000000	0.030504
1239.000000	0.030839
1238.000000	0.031121
1237.000000	0.031346
1236.000000	0.031514
1235.000000	0.031622
1234.000000	0.031670
1233.000000	0.031661
1232.000000	0.031594
1231.000000	0.031459
1230.000000	0.031246
1229.000000	0.030954
1228.000000	0.030580
1227.000000	0.030126
1226.000000	0.029600
1225.000000	0.029020
1224.000000	0.028406
1223.000000	0.027771
1222.000000	0.027122
1221.000000	0.026468
1220.000000	0.025830
1219.000000	0.025233
1218.000000	0.024699
1217.000000	0.024234
1216.000000	0.023828
1215.000000	0.023476
1214.000000	0.023181
1213.000000	0.022949
1212.000000	0.022779
1211.000000	0.022672
1210.000000	0.022634
1209.000000	0.022656
1208.000000	0.022709
1207.000000	0.022759
1206.000000	0.022782
1205.000000	0.022776
1204.000000	0.022739
1203.000000	0.022665
1202.000000	0.022546
1201.000000	0.022376
1200.000000	0.022147
1199.000000	0.021852
1198.000000	0.021495
1197.000000	0.021091
1196.000000	0.020661
1195.000000	0.020229
1194.000000	0.019817
1193.000000	0.019432
1192.000000	0.019061
1191.000000	0.018694
1190.000000	0.018339
1189.000000	0.018015
1188.000000	0.017738
1187.000000	0.017514
1186.000000	0.017354
1185.000000	0.017269
1184.000000	0.017254
1183.000000	0.017287
1182.000000	0.017347
1181.000000	0.017432
1180.000000	0.017545
1179.000000	0.017675
1178.000000	0.017807
1177.000000	0.017934
1176.000000	0.018059
1175.000000	0.018185
1174.000000	0.018320
1173.000000	0.018477
1172.000000	0.018658
1171.000000	0.018849
1170.000000	0.019034
1169.000000	0.019216
1168.000000	0.019405
1167.000000	0.019597
1166.000000	0.019780
1165.000000	0.019949
1164.000000	0.020101
1163.000000	0.020227
1162.000000	0.020314
1161.000000	0.020359
1160.000000	0.020360
1159.000000	0.020311
1158.000000	0.020203
1157.000000	0.020041
1156.000000	0.019841
1155.000000	0.019610
1154.000000	0.019343
1153.000000	0.019050
1152.000000	0.018758
1151.000000	0.018488
1150.000000	0.018237
1149.000000	0.017988
1148.000000	0.017734
1147.000000	0.017484
1146.000000	0.017244
1145.000000	0.017011
1144.000000	0.016781
1143.000000	0.016558
1142.000000	0.016348
1141.000000	0.016144
1140.000000	0.015928
1139.000000	0.015686
1138.000000	0.015426
1137.000000	0.015174
1136.000000	0.014954
1135.000000	0.014765
1134.000000	0.014593
1133.000000	0.014435
1132.000000	0.014302
1131.000000	0.014206
1130.000000	0.014144
1129.000000	0.014110
1128.000000	0.014108
1127.000000	0.014145
1126.000000	0.014211
1125.000000	0.014280
1124.000000	0.014335
1123.000000	0.014381
1122.000000	0.014437
1121.000000	0.014518
1120.000000	0.014619
1119.000000	0.014729
1118.000000	0.014839
1117.000000	0.014953
1116.000000	0.015078
1115.000000	0.015214
1114.000000	0.015352
1113.000000	0.015486
1112.000000	0.015610
1111.000000	0.015724
1110.000000	0.015822
1109.000000	0.015906
1108.000000	0.015991
1107.000000	0.016098
1106.000000	0.016230
1105.000000	0.016372
1104.000000	0.016514
1103.000000	0.016658
1102.000000	0.016811
1101.000000	0.016963
1100.000000	0.017097
1099.000000	0.017210
1098.000000	0.017317
1097.000000	0.017434
1096.000000	0.017566
1095.000000	0.017711
1094.000000	0.017869
1093.000000	0.018046
1092.000000	0.018245
1091.000000	0.018469
1090.000000	0.018726
1089.000000	0.019026
1088.000000	0.019369
1087.000000	0.019753
1086.000000	0.020171
1085.000000	0.020601
1084.000000	0.020999
1083.000000	0.021312
1082.000000	0.021507
1081.000000	0.021569
1080.000000	0.021492
1079.000000	0.021288
1078.000000	0.020995
1077.000000	0.020667
1076.000000	0.020330
1075.000000	0.019980
1074.000000	0.019620
1073.000000	0.019282
1072.000000	0.019009
1071.000000	0.018826
1070.000000	0.018731
1069.000000	0.018714
1068.000000	0.018755
1067.000000	0.018836
1066.000000	0.018943
1065.000000	0.019078
1064.000000	0.019242
1063.000000	0.019420
1062.000000	0.019579
1061.000000	0.019699
1060.000000	0.019780
1059.000000	0.019834
1058.000000	0.019872
1057.000000	0.019900
1056.000000	0.019921
1055.000000	0.019935
1054.000000	0.019936
1053.000000	0.019905
1052.000000	0.019824
1051.000000	0.019691
1050.000000	0.019537
1049.000000	0.019402
1048.000000	0.019307
1047.000000	0.019236
1046.000000	0.019161
1045.000000	0.019070
1044.000000	0.018977
1043.000000	0.018904
1042.000000	0.018876
1041.000000	0.018912
1040.000000	0.019018
1039.000000	0.019190
1038.000000	0.019416
1037.000000	0.019687
1036.000000	0.019988
1035.000000	0.020295
1034.000000	0.020583
1033.000000	0.020833
1032.000000	0.021031
1031.000000	0.021167
1030.000000	0.021234
1029.000000	0.021236
1028.000000	0.021189
1027.000000	0.021108
1026.000000	0.020998
1025.000000	0.020854
1024.000000	0.020678
1023.000000	0.020491
1022.000000	0.020321
1021.000000	0.020179
1020.000000	0.020057
1019.000000	0.019947
1018.000000	0.019853
1017.000000	0.019777
1016.000000	0.019698
1015.000000	0.019584
1014.000000	0.019418
1013.000000	0.019197
1012.000000	0.018920
1011.000000	0.018584
1010.000000	0.018196
1009.000000	0.017772
1008.000000	0.017328
1007.000000	0.016881
1006.000000	0.016452
1005.000000	0.016066
1004.000000	0.015729
1003.000000	0.015419
1002.000000	0.015103
1001.000000	0.014768
1000.000000	0.014421
999.000000	0.014076
998.000000	0.013739
997.000000	0.013413
996.000000	0.013108
995.000000	0.012828
994.000000	0.012567
993.000000	0.012305
992.000000	0.012033
991.000000	0.011762
990.000000	0.011514
989.000000	0.011295
988.000000	0.011101
987.000000	0.010924
986.000000	0.010765
985.000000	0.010620
984.000000	0.010485
983.000000	0.010360
982.000000	0.010249
981.000000	0.010154
980.000000	0.010071
979.000000	0.010005
978.000000	0.009964
977.000000	0.009937
976.000000	0.009891
975.000000	0.009798
974.000000	0.009667
973.000000	0.009535
972.000000	0.009424
971.000000	0.009326
970.000000	0.009218
969.000000	0.009087
968.000000	0.008930
967.000000	0.008759
966.000000	0.008599
965.000000	0.008475
964.000000	0.008388
963.000000	0.008308
962.000000	0.008204
961.000000	0.008075
960.000000	0.007946
959.000000	0.007837
958.000000	0.007752
957.000000	0.007686
956.000000	0.007631
955.000000	0.007577
954.000000	0.007513
953.000000	0.007426
952.000000	0.007310
951.000000	0.007166
950.000000	0.007008
949.000000	0.006855
948.000000	0.006713
947.000000	0.006580
946.000000	0.006447
945.000000	0.006319
944.000000	0.006203
943.000000	0.006114
942.000000	0.006062
941.000000	0.006050
940.000000	0.006062
939.000000	0.006064
938.000000	0.006040
937.000000	0.006002
936.000000	0.005970
935.000000	0.005933
934.000000	0.005857
933.000000	0.005725
932.000000	0.005564
931.000000	0.005429
930.000000	0.005357
929.000000	0.005341
928.000000	0.005336
927.000000	0.005294
926.000000	0.005196
925.000000	0.005067
924.000000	0.004943
923.000000	0.004832
922.000000	0.004717
921.000000	0.004578
920.000000	0.004422
919.000000	0.004268
918.000000	0.004134
917.000000	0.004024
916.000000	0.003927
915.000000	0.003820
914.000000	0.003691
913.000000	0.003546
912.000000	0.003405
911.000000	0.003285
910.000000	0.003194
909.000000	0.003145
908.000000	0.003137
907.000000	0.003151
906.000000	0.003165
905.000000	0.003177
904.000000	0.003199
903.000000	0.003226
902.000000	0.003233
901.000000	0.003207
900.000000	0.003166
899.000000	0.003136
898.000000	0.003120
897.000000	0.003104
896.000000	0.003080
895.000000	0.003045
894.000000	0.002996
893.000000	0.002942
892.000000	0.002912
891.000000	0.002923
890.000000	0.002964
889.000000	0.003010
888.000000	0.003049
887.000000	0.003079
886.000000	0.003105
885.000000	0.003135
884.000000	0.003195
883.000000	0.003302
882.000000	0.003431
881.000000	0.003534
880.000000	0.003591
879.000000	0.003629
878.000000	0.003685
877.000000	0.003761
876.000000	0.003831
875.000000	0.003873
874.000000	0.003882
873.000000	0.003857
872.000000	0.003781
871.000000	0.003643
870.000000	0.003455
869.000000	0.003260
868.000000	0.003108
867.000000	0.003017
866.000000	0.002975
865.000000	0.002959
864.000000	0.002954
863.000000	0.002954
862.000000	0.002953
861.000000	0.002963
860.000000	0.003010
859.000000	0.003108
858.000000	0.003231
857.000000	0.003334
856.000000	0.003389
855.000000	0.003410
854.000000	0.003434
853.000000	0.003489
852.000000	0.003574
851.000000	0.003658
850.000000	0.003704
849.000000	0.003696
848.000000	0.003648
847.000000	0.003597
846.000000	0.003576
845.000000	0.003593
844.000000	0.003637
843.000000	0.003690
842.000000	0.003746
841.000000	0.003809
840.000000	0.003886
839.000000	0.003975
838.000000	0.004055
837.000000	0.004103
836.000000	0.004110
835.000000	0.004093
834.000000	0.004076
833.000000	0.004074
832.000000	0.004088
831.000000	0.004100
830.000000	0.004095
829.000000	0.004061
828.000000	0.003998
827.000000	0.003924
826.000000	0.003852
825.000000	0.003789
824.000000	0.003730
823.000000	0.003677
822.000000	0.003639
821.000000	0.003611
820.000000	0.003579
819.000000	0.003539
818.000000	0.003500
817.000000	0.003465
816.000000	0.003422
815.000000	0.003374
814.000000	0.003348
813.000000	0.003365
812.000000	0.003394
811.000000	0.003377
810.000000	0.003291
809.000000	0.003169
808.000000	0.003058
807.000000	0.002975
806.000000	0.002921
805.000000	0.002898
804.000000	0.002899
803.000000	0.002909
802.000000	0.002920
801.000000	0.002951
800.000000	0.003010
799.000000	0.003068
798.000000	0.003089
797.000000	0.003074
796.000000	0.003052
795.000000	0.003047
794.000000	0.003060
793.000000	0.003087
792.000000	0.003123
791.000000	0.003155
790.000000	0.003176
789.000000	0.003186
788.000000	0.003196
787.000000	0.003204
786.000000	0.003208
785.000000	0.003212
784.000000	0.003230
783.000000	0.003263
782.000000	0.003304
781.000000	0.003346
780.000000	0.003380
779.000000	0.003392
778.000000	0.003389
777.000000	0.003400
776.000000	0.003454
775.000000	0.003537
774.000000	0.003600
773.000000	0.003611
772.000000	0.003581
771.000000	0.003549
770.000000	0.003532
769.000000	0.003523
768.000000	0.003506
767.000000	0.003479
766.000000	0.003463
765.000000	0.003478
764.000000	0.003515
763.000000	0.003546
762.000000	0.003556
761.000000	0.003570
760.000000	0.003615
759.000000	0.003696
758.000000	0.003795
757.000000	0.003903
756.000000	0.004014
755.000000	0.004114
754.000000	0.004190
753.000000	0.004249
752.000000	0.004318
751.000000	0.004409
750.000000	0.004512
749.000000	0.004610
748.000000	0.004689
747.000000	0.004735
746.000000	0.004748
745.000000	0.004752
744.000000	0.004769
743.000000	0.004792
742.000000	0.004796
741.000000	0.004778
740.000000	0.004767
739.000000	0.004798
738.000000	0.004876
737.000000	0.004979
736.000000	0.005077
735.000000	0.005156
734.000000	0.005232
733.000000	0.005345
732.000000	0.005517
731.000000	0.005729
730.000000	0.005936
729.000000	0.006118
728.000000	0.006292
727.000000	0.006473
726.000000	0.006655
725.000000	0.006826
724.000000	0.006990
723.000000	0.007171
722.000000	0.007379
721.000000	0.007595
720.000000	0.007770
719.000000	0.007866
718.000000	0.007892
717.000000	0.007889
716.000000	0.007905
715.000000	0.007960
714.000000	0.008051
713.000000	0.008159
712.000000	0.008249
711.000000	0.008304
710.000000	0.008352
709.000000	0.008457
708.000000	0.008643
707.000000	0.008861
706.000000	0.009035
705.000000	0.009140
704.000000	0.009213
703.000000	0.009292
702.000000	0.009389
701.000000	0.009492
700.000000	0.009582
699.000000	0.009634
698.000000	0.009627
697.000000	0.009567
696.000000	0.009489
695.000000	0.009428
694.000000	0.009401
693.000000	0.009405
692.000000	0.009433
691.000000	0.009470
690.000000	0.009495
689.000000	0.009504
688.000000	0.009523
687.000000	0.009584
686.000000	0.009686
685.000000	0.009783
684.000000	0.009833
683.000000	0.009843
682.000000	0.009856
681.000000	0.009900
680.000000	0.009965
679.000000	0.010038
678.000000	0.010134
677.000000	0.010270
676.000000	0.010424
675.000000	0.010548
674.000000	0.010639
673.000000	0.010744
672.000000	0.010880
671.000000	0.011004
670.000000	0.011052
669.000000	0.010998
668.000000	0.010894
667.000000	0.010925
666.000000	0.011128
665.000000	0.011345
664.000000	0.011477
663.000000	0.011512
662.000000	0.011505
661.000000	0.011526
660.000000	0.011589
659.000000	0.011656
658.000000	0.011696
657.000000	0.011709
656.000000	0.011694
655.000000	0.011660
654.000000	0.011660
653.000000	0.011751
652.000000	0.011902
651.000000	0.011992
650.000000	0.011942
649.000000	0.011798
648.000000	0.011667
647.000000	0.011616
646.000000	0.011650
645.000000	0.011724
644.000000	0.011770
643.000000	0.011747
642.000000	0.011676
641.000000	0.011608
640.000000	0.011544
639.000000	0.011445
638.000000	0.011330
637.000000	0.011280
636.000000	0.011332
635.000000	0.011422
634.000000	0.011478
633.000000	0.011497
632.000000	0.011508
631.000000	0.011511
630.000000	0.011497
629.000000	0.011482
628.000000	0.011479
627.000000	0.011478
626.000000	0.011477
625.000000	0.011495
624.000000	0.011523
623.000000	0.011523
622.000000	0.011495
621.000000	0.011501
620.000000	0.011587
619.000000	0.011723
618.000000	0.011853
617.000000	0.011951
616.000000	0.011998
615.000000	0.011967
614.000000	0.011881
613.000000	0.011810
612.000000	0.011788
611.000000	0.011763
610.000000	0.011693
609.000000	0.011616
608.000000	0.011591
607.000000	0.011611
606.000000	0.011642
605.000000	0.011697
604.000000	0.011789
603.000000	0.011879
602.000000	0.011917
601.000000	0.011915
600.000000	0.011900
599.000000	0.011862
598.000000	0.011792
597.000000	0.011736
596.000000	0.011729
595.000000	0.011743
594.000000	0.011730
593.000000	0.011691
592.000000	0.011649
591.000000	0.011596
590.000000	0.011534
589.000000	0.011518
588.000000	0.011580
587.000000	0.011676
586.000000	0.011753
585.000000	0.011816
584.000000	0.011875
583.000000	0.011874
582.000000	0.011773
581.000000	0.011651
580.000000	0.011629
579.000000	0.011733
578.000000	0.011893
577.000000	0.012023
576.000000	0.012049
575.000000	0.011930
574.000000	0.011752
573.000000	0.011720
572.000000	0.011940
571.000000	0.012277
570.000000	0.012508
569.000000	0.012605
568.000000	0.012716
567.000000	0.012917
566.000000	0.013140
565.000000	0.013326
564.000000	0.013509
563.000000	0.013711
562.000000	0.013889
561.000000	0.014026
560.000000	0.014167
559.000000	0.014331
558.000000	0.014479
557.000000	0.014567
556.000000	0.014579
555.000000	0.014511
554.000000	0.014376
553.000000	0.014211
552.000000	0.014036
551.000000	0.013833
550.000000	0.013608
549.000000	0.013419
548.000000	0.013286
547.000000	0.013154
546.000000	0.013014
545.000000	0.012955
544.000000	0.013008
543.000000	0.013043
542.000000	0.012948
541.000000	0.012803
540.000000	0.012745
539.000000	0.012755
538.000000	0.012733
537.000000	0.012710
536.000000	0.012802
535.000000	0.012976
534.000000	0.013067
533.000000	0.013044
532.000000	0.013069
531.000000	0.013275
530.000000	0.013592
529.000000	0.013850
528.000000	0.013942
527.000000	0.013862
526.000000	0.013697
525.000000	0.013579
524.000000	0.013560
523.000000	0.013539
522.000000	0.013397
521.000000	0.013145
520.000000	0.012878
519.000000	0.012637
518.000000	0.012414
517.000000	0.012226
516.000000	0.012083
515.000000	0.011917
514.000000	0.011679
513.000000	0.011432
512.000000	0.011256
511.000000	0.011100
510.000000	0.010860
509.000000	0.010563
508.000000	0.010339
507.000000	0.010227
506.000000	0.010151
505.000000	0.010073
504.000000	0.010016
503.000000	0.009959
502.000000	0.009828
501.000000	0.009616
500.000000	0.009397
499.000000	0.009217
498.000000	0.009087
497.000000	0.009048
496.000000	0.009121
495.000000	0.009211
494.000000	0.009173
493.000000	0.008970
492.000000	0.008700
491.000000	0.008469
490.000000	0.008333
489.000000	0.008327
488.000000	0.008433
487.000000	0.008534
486.000000	0.008509
485.000000	0.008350
484.000000	0.008114
483.000000	0.007808
482.000000	0.007463
481.000000	0.007238
480.000000	0.007287
479.000000	0.007543
478.000000	0.007781
477.000000	0.007846
476.000000	0.007696
475.000000	0.007310
474.000000	0.006725
473.000000	0.006188
472.000000	0.006020
471.000000	0.006231
470.000000	0.006526
469.000000	0.006673
468.000000	0.006645
467.000000	0.006476
466.000000	0.006231
465.000000	0.006056
464.000000	0.006051
463.000000	0.006068
462.000000	0.005793
461.000000	0.005102
460.000000	0.004200
459.000000	0.003436
458.000000	0.003158
457.000000	0.003516
456.000000	0.004228
455.000000	0.004738
454.000000	0.004692
453.000000	0.004190
452.000000	0.003595
451.000000	0.003127
450.000000	0.002775
