PE IR       SUBTECH     SPECTRUM    ASCII       PEDS        4.00        
   -1
Vierge018_1.ASC
23/07/04
15:13:09.00
23/07/04
15:15:40.00
uco
Sample 018 By uco Date Tuesday, July 04 2023
450.000000
#HDR
-1
-1
#GR
cm-1
A
1.0
0.0
4000.000000
-1.000000
3551
8
0.001794
-0.002267
#DATA
4000.000000	-0.000559
3999.000000	-0.000545
3998.000000	-0.000534
3997.000000	-0.000527
3996.000000	-0.000528
3995.000000	-0.000532
3994.000000	-0.000531
3993.000000	-0.000520
3992.000000	-0.000497
3991.000000	-0.000465
3990.000000	-0.000431
3989.000000	-0.000405
3988.000000	-0.000394
3987.000000	-0.000401
3986.000000	-0.000421
3985.000000	-0.000444
3984.000000	-0.000463
3983.000000	-0.000477
3982.000000	-0.000487
3981.000000	-0.000495
3980.000000	-0.000502
3979.000000	-0.000506
3978.000000	-0.000501
3977.000000	-0.000489
3976.000000	-0.000475
3975.000000	-0.000469
3974.000000	-0.000476
3973.000000	-0.000489
3972.000000	-0.000497
3971.000000	-0.000488
3970.000000	-0.000455
3969.000000	-0.000403
3968.000000	-0.000342
3967.000000	-0.000283
3966.000000	-0.000238
3965.000000	-0.000217
3964.000000	-0.000221
3963.000000	-0.000247
3962.000000	-0.000289
3961.000000	-0.000341
3960.000000	-0.000391
3959.000000	-0.000428
3958.000000	-0.000446
3957.000000	-0.000446
3956.000000	-0.000438
3955.000000	-0.000429
3954.000000	-0.000421
3953.000000	-0.000414
3952.000000	-0.000412
3951.000000	-0.000424
3950.000000	-0.000446
3949.000000	-0.000469
3948.000000	-0.000479
3947.000000	-0.000476
3946.000000	-0.000468
3945.000000	-0.000461
3944.000000	-0.000456
3943.000000	-0.000452
3942.000000	-0.000453
3941.000000	-0.000461
3940.000000	-0.000469
3939.000000	-0.000467
3938.000000	-0.000448
3937.000000	-0.000417
3936.000000	-0.000390
3935.000000	-0.000379
3934.000000	-0.000388
3933.000000	-0.000406
3932.000000	-0.000424
3931.000000	-0.000432
3930.000000	-0.000429
3929.000000	-0.000418
3928.000000	-0.000403
3927.000000	-0.000386
3926.000000	-0.000369
3925.000000	-0.000351
3924.000000	-0.000335
3923.000000	-0.000330
3922.000000	-0.000343
3921.000000	-0.000374
3920.000000	-0.000411
3919.000000	-0.000441
3918.000000	-0.000453
3917.000000	-0.000442
3916.000000	-0.000415
3915.000000	-0.000385
3914.000000	-0.000367
3913.000000	-0.000366
3912.000000	-0.000379
3911.000000	-0.000400
3910.000000	-0.000420
3909.000000	-0.000433
3908.000000	-0.000439
3907.000000	-0.000442
3906.000000	-0.000450
3905.000000	-0.000466
3904.000000	-0.000489
3903.000000	-0.000508
3902.000000	-0.000512
3901.000000	-0.000498
3900.000000	-0.000473
3899.000000	-0.000456
3898.000000	-0.000456
3897.000000	-0.000468
3896.000000	-0.000479
3895.000000	-0.000479
3894.000000	-0.000465
3893.000000	-0.000442
3892.000000	-0.000418
3891.000000	-0.000401
3890.000000	-0.000395
3889.000000	-0.000405
3888.000000	-0.000434
3887.000000	-0.000469
3886.000000	-0.000488
3885.000000	-0.000482
3884.000000	-0.000461
3883.000000	-0.000440
3882.000000	-0.000421
3881.000000	-0.000401
3880.000000	-0.000387
3879.000000	-0.000389
3878.000000	-0.000409
3877.000000	-0.000439
3876.000000	-0.000470
3875.000000	-0.000487
3874.000000	-0.000489
3873.000000	-0.000488
3872.000000	-0.000492
3871.000000	-0.000500
3870.000000	-0.000498
3869.000000	-0.000485
3868.000000	-0.000471
3867.000000	-0.000458
3866.000000	-0.000437
3865.000000	-0.000401
3864.000000	-0.000363
3863.000000	-0.000349
3862.000000	-0.000361
3861.000000	-0.000382
3860.000000	-0.000393
3859.000000	-0.000393
3858.000000	-0.000386
3857.000000	-0.000381
3856.000000	-0.000386
3855.000000	-0.000397
3854.000000	-0.000407
3853.000000	-0.000421
3852.000000	-0.000440
3851.000000	-0.000451
3850.000000	-0.000452
3849.000000	-0.000445
3848.000000	-0.000434
3847.000000	-0.000427
3846.000000	-0.000429
3845.000000	-0.000440
3844.000000	-0.000447
3843.000000	-0.000437
3842.000000	-0.000405
3841.000000	-0.000363
3840.000000	-0.000329
3839.000000	-0.000311
3838.000000	-0.000303
3837.000000	-0.000295
3836.000000	-0.000283
3835.000000	-0.000275
3834.000000	-0.000282
3833.000000	-0.000312
3832.000000	-0.000360
3831.000000	-0.000408
3830.000000	-0.000438
3829.000000	-0.000438
3828.000000	-0.000419
3827.000000	-0.000400
3826.000000	-0.000395
3825.000000	-0.000408
3824.000000	-0.000431
3823.000000	-0.000447
3822.000000	-0.000437
3821.000000	-0.000399
3820.000000	-0.000354
3819.000000	-0.000316
3818.000000	-0.000290
3817.000000	-0.000273
3816.000000	-0.000259
3815.000000	-0.000249
3814.000000	-0.000247
3813.000000	-0.000254
3812.000000	-0.000268
3811.000000	-0.000281
3810.000000	-0.000294
3809.000000	-0.000306
3808.000000	-0.000315
3807.000000	-0.000314
3806.000000	-0.000306
3805.000000	-0.000298
3804.000000	-0.000301
3803.000000	-0.000313
3802.000000	-0.000323
3801.000000	-0.000323
3800.000000	-0.000316
3799.000000	-0.000310
3798.000000	-0.000309
3797.000000	-0.000314
3796.000000	-0.000329
3795.000000	-0.000357
3794.000000	-0.000394
3793.000000	-0.000425
3792.000000	-0.000436
3791.000000	-0.000425
3790.000000	-0.000406
3789.000000	-0.000396
3788.000000	-0.000399
3787.000000	-0.000404
3786.000000	-0.000403
3785.000000	-0.000401
3784.000000	-0.000405
3783.000000	-0.000417
3782.000000	-0.000428
3781.000000	-0.000428
3780.000000	-0.000414
3779.000000	-0.000395
3778.000000	-0.000376
3777.000000	-0.000355
3776.000000	-0.000329
3775.000000	-0.000300
3774.000000	-0.000277
3773.000000	-0.000273
3772.000000	-0.000295
3771.000000	-0.000336
3770.000000	-0.000382
3769.000000	-0.000423
3768.000000	-0.000460
3767.000000	-0.000492
3766.000000	-0.000515
3765.000000	-0.000518
3764.000000	-0.000504
3763.000000	-0.000490
3762.000000	-0.000487
3761.000000	-0.000488
3760.000000	-0.000483
3759.000000	-0.000472
3758.000000	-0.000462
3757.000000	-0.000454
3756.000000	-0.000442
3755.000000	-0.000428
3754.000000	-0.000417
3753.000000	-0.000404
3752.000000	-0.000381
3751.000000	-0.000359
3750.000000	-0.000358
3749.000000	-0.000376
3748.000000	-0.000396
3747.000000	-0.000413
3746.000000	-0.000425
3745.000000	-0.000431
3744.000000	-0.000437
3743.000000	-0.000451
3742.000000	-0.000474
3741.000000	-0.000500
3740.000000	-0.000518
3739.000000	-0.000523
3738.000000	-0.000510
3737.000000	-0.000465
3736.000000	-0.000386
3735.000000	-0.000313
3734.000000	-0.000297
3733.000000	-0.000343
3732.000000	-0.000401
3731.000000	-0.000434
3730.000000	-0.000441
3729.000000	-0.000448
3728.000000	-0.000473
3727.000000	-0.000510
3726.000000	-0.000537
3725.000000	-0.000536
3724.000000	-0.000507
3723.000000	-0.000465
3722.000000	-0.000434
3721.000000	-0.000420
3720.000000	-0.000415
3719.000000	-0.000403
3718.000000	-0.000384
3717.000000	-0.000373
3716.000000	-0.000387
3715.000000	-0.000426
3714.000000	-0.000468
3713.000000	-0.000483
3712.000000	-0.000458
3711.000000	-0.000417
3710.000000	-0.000393
3709.000000	-0.000392
3708.000000	-0.000404
3707.000000	-0.000422
3706.000000	-0.000444
3705.000000	-0.000470
3704.000000	-0.000496
3703.000000	-0.000511
3702.000000	-0.000516
3701.000000	-0.000516
3700.000000	-0.000509
3699.000000	-0.000486
3698.000000	-0.000445
3697.000000	-0.000397
3696.000000	-0.000367
3695.000000	-0.000368
3694.000000	-0.000394
3693.000000	-0.000427
3692.000000	-0.000443
3691.000000	-0.000436
3690.000000	-0.000415
3689.000000	-0.000401
3688.000000	-0.000404
3687.000000	-0.000412
3686.000000	-0.000412
3685.000000	-0.000396
3684.000000	-0.000366
3683.000000	-0.000334
3682.000000	-0.000316
3681.000000	-0.000319
3680.000000	-0.000337
3679.000000	-0.000363
3678.000000	-0.000396
3677.000000	-0.000437
3676.000000	-0.000475
3675.000000	-0.000505
3674.000000	-0.000532
3673.000000	-0.000561
3672.000000	-0.000597
3671.000000	-0.000619
3670.000000	-0.000603
3669.000000	-0.000555
3668.000000	-0.000504
3667.000000	-0.000467
3666.000000	-0.000440
3665.000000	-0.000419
3664.000000	-0.000398
3663.000000	-0.000381
3662.000000	-0.000374
3661.000000	-0.000379
3660.000000	-0.000394
3659.000000	-0.000415
3658.000000	-0.000428
3657.000000	-0.000420
3656.000000	-0.000389
3655.000000	-0.000357
3654.000000	-0.000342
3653.000000	-0.000346
3652.000000	-0.000349
3651.000000	-0.000334
3650.000000	-0.000311
3649.000000	-0.000322
3648.000000	-0.000367
3647.000000	-0.000406
3646.000000	-0.000416
3645.000000	-0.000415
3644.000000	-0.000430
3643.000000	-0.000464
3642.000000	-0.000493
3641.000000	-0.000492
3640.000000	-0.000463
3639.000000	-0.000431
3638.000000	-0.000421
3637.000000	-0.000436
3636.000000	-0.000463
3635.000000	-0.000483
3634.000000	-0.000483
3633.000000	-0.000472
3632.000000	-0.000469
3631.000000	-0.000496
3630.000000	-0.000545
3629.000000	-0.000587
3628.000000	-0.000596
3627.000000	-0.000571
3626.000000	-0.000528
3625.000000	-0.000484
3624.000000	-0.000451
3623.000000	-0.000429
3622.000000	-0.000418
3621.000000	-0.000418
3620.000000	-0.000433
3619.000000	-0.000473
3618.000000	-0.000533
3617.000000	-0.000581
3616.000000	-0.000585
3615.000000	-0.000544
3614.000000	-0.000481
3613.000000	-0.000437
3612.000000	-0.000432
3611.000000	-0.000457
3610.000000	-0.000482
3609.000000	-0.000487
3608.000000	-0.000469
3607.000000	-0.000441
3606.000000	-0.000417
3605.000000	-0.000396
3604.000000	-0.000373
3603.000000	-0.000345
3602.000000	-0.000320
3601.000000	-0.000307
3600.000000	-0.000310
3599.000000	-0.000319
3598.000000	-0.000319
3597.000000	-0.000305
3596.000000	-0.000285
3595.000000	-0.000276
3594.000000	-0.000286
3593.000000	-0.000306
3592.000000	-0.000316
3591.000000	-0.000303
3590.000000	-0.000273
3589.000000	-0.000244
3588.000000	-0.000244
3587.000000	-0.000283
3586.000000	-0.000328
3585.000000	-0.000343
3584.000000	-0.000317
3583.000000	-0.000274
3582.000000	-0.000244
3581.000000	-0.000241
3580.000000	-0.000259
3579.000000	-0.000275
3578.000000	-0.000273
3577.000000	-0.000252
3576.000000	-0.000222
3575.000000	-0.000196
3574.000000	-0.000191
3573.000000	-0.000214
3572.000000	-0.000266
3571.000000	-0.000331
3570.000000	-0.000386
3569.000000	-0.000408
3568.000000	-0.000385
3567.000000	-0.000337
3566.000000	-0.000295
3565.000000	-0.000277
3564.000000	-0.000278
3563.000000	-0.000292
3562.000000	-0.000310
3561.000000	-0.000323
3560.000000	-0.000319
3559.000000	-0.000293
3558.000000	-0.000256
3557.000000	-0.000225
3556.000000	-0.000208
3555.000000	-0.000199
3554.000000	-0.000183
3553.000000	-0.000156
3552.000000	-0.000127
3551.000000	-0.000110
3550.000000	-0.000114
3549.000000	-0.000136
3548.000000	-0.000164
3547.000000	-0.000184
3546.000000	-0.000185
3545.000000	-0.000165
3544.000000	-0.000132
3543.000000	-0.000094
3542.000000	-0.000065
3541.000000	-0.000063
3540.000000	-0.000101
3539.000000	-0.000175
3538.000000	-0.000255
3537.000000	-0.000307
3536.000000	-0.000315
3535.000000	-0.000294
3534.000000	-0.000269
3533.000000	-0.000250
3532.000000	-0.000234
3531.000000	-0.000222
3530.000000	-0.000220
3529.000000	-0.000236
3528.000000	-0.000264
3527.000000	-0.000288
3526.000000	-0.000299
3525.000000	-0.000300
3524.000000	-0.000304
3523.000000	-0.000314
3522.000000	-0.000318
3521.000000	-0.000302
3520.000000	-0.000265
3519.000000	-0.000222
3518.000000	-0.000190
3517.000000	-0.000172
3516.000000	-0.000161
3515.000000	-0.000146
3514.000000	-0.000130
3513.000000	-0.000122
3512.000000	-0.000126
3511.000000	-0.000136
3510.000000	-0.000146
3509.000000	-0.000154
3508.000000	-0.000169
3507.000000	-0.000197
3506.000000	-0.000238
3505.000000	-0.000286
3504.000000	-0.000323
3503.000000	-0.000330
3502.000000	-0.000303
3501.000000	-0.000260
3500.000000	-0.000226
3499.000000	-0.000216
3498.000000	-0.000223
3497.000000	-0.000231
3496.000000	-0.000235
3495.000000	-0.000238
3494.000000	-0.000238
3493.000000	-0.000228
3492.000000	-0.000207
3491.000000	-0.000179
3490.000000	-0.000154
3489.000000	-0.000137
3488.000000	-0.000129
3487.000000	-0.000131
3486.000000	-0.000141
3485.000000	-0.000147
3484.000000	-0.000141
3483.000000	-0.000123
3482.000000	-0.000110
3481.000000	-0.000112
3480.000000	-0.000126
3479.000000	-0.000141
3478.000000	-0.000147
3477.000000	-0.000142
3476.000000	-0.000129
3475.000000	-0.000120
3474.000000	-0.000129
3473.000000	-0.000163
3472.000000	-0.000210
3471.000000	-0.000246
3470.000000	-0.000256
3469.000000	-0.000242
3468.000000	-0.000219
3467.000000	-0.000200
3466.000000	-0.000188
3465.000000	-0.000178
3464.000000	-0.000163
3463.000000	-0.000140
3462.000000	-0.000112
3461.000000	-0.000093
3460.000000	-0.000092
3459.000000	-0.000108
3458.000000	-0.000128
3457.000000	-0.000135
3456.000000	-0.000118
3455.000000	-0.000083
3454.000000	-0.000048
3453.000000	-0.000033
3452.000000	-0.000037
3451.000000	-0.000045
3450.000000	-0.000043
3449.000000	-0.000040
3448.000000	-0.000047
3447.000000	-0.000066
3446.000000	-0.000080
3445.000000	-0.000079
3444.000000	-0.000062
3443.000000	-0.000039
3442.000000	-0.000018
3441.000000	-0.000007
3440.000000	-0.000012
3439.000000	-0.000033
3438.000000	-0.000066
3437.000000	-0.000102
3436.000000	-0.000137
3435.000000	-0.000165
3434.000000	-0.000176
3433.000000	-0.000163
3432.000000	-0.000125
3431.000000	-0.000076
3430.000000	-0.000044
3429.000000	-0.000054
3428.000000	-0.000107
3427.000000	-0.000173
3426.000000	-0.000216
3425.000000	-0.000220
3424.000000	-0.000198
3423.000000	-0.000169
3422.000000	-0.000138
3421.000000	-0.000097
3420.000000	-0.000053
3419.000000	-0.000025
3418.000000	-0.000026
3417.000000	-0.000047
3416.000000	-0.000067
3415.000000	-0.000070
3414.000000	-0.000056
3413.000000	-0.000031
3412.000000	-0.000002
3411.000000	0.000024
3410.000000	0.000041
3409.000000	0.000039
3408.000000	0.000024
3407.000000	0.000008
3406.000000	0.000004
3405.000000	0.000009
3404.000000	0.000011
3403.000000	-0.000003
3402.000000	-0.000027
3401.000000	-0.000046
3400.000000	-0.000047
3399.000000	-0.000026
3398.000000	0.000004
3397.000000	0.000027
3396.000000	0.000028
3395.000000	0.000008
3394.000000	-0.000014
3393.000000	-0.000020
3392.000000	-0.000008
3391.000000	0.000010
3390.000000	0.000018
3389.000000	0.000015
3388.000000	0.000011
3387.000000	0.000017
3386.000000	0.000034
3385.000000	0.000055
3384.000000	0.000073
3383.000000	0.000085
3382.000000	0.000096
3381.000000	0.000099
3380.000000	0.000084
3379.000000	0.000048
3378.000000	0.000007
3377.000000	-0.000015
3376.000000	-0.000012
3375.000000	-0.000001
3374.000000	-0.000001
3373.000000	-0.000012
3372.000000	-0.000017
3371.000000	-0.000002
3370.000000	0.000030
3369.000000	0.000065
3368.000000	0.000088
3367.000000	0.000097
3366.000000	0.000106
3365.000000	0.000126
3364.000000	0.000160
3363.000000	0.000192
3362.000000	0.000200
3361.000000	0.000175
3360.000000	0.000125
3359.000000	0.000075
3358.000000	0.000043
3357.000000	0.000028
3356.000000	0.000015
3355.000000	-0.000009
3354.000000	-0.000038
3353.000000	-0.000053
3352.000000	-0.000039
3351.000000	-0.000002
3350.000000	0.000038
3349.000000	0.000063
3348.000000	0.000072
3347.000000	0.000075
3346.000000	0.000087
3345.000000	0.000111
3344.000000	0.000138
3343.000000	0.000156
3342.000000	0.000156
3341.000000	0.000140
3340.000000	0.000117
3339.000000	0.000101
3338.000000	0.000104
3337.000000	0.000128
3336.000000	0.000164
3335.000000	0.000195
3334.000000	0.000205
3333.000000	0.000188
3332.000000	0.000155
3331.000000	0.000128
3330.000000	0.000121
3329.000000	0.000135
3328.000000	0.000153
3327.000000	0.000159
3326.000000	0.000153
3325.000000	0.000148
3324.000000	0.000155
3323.000000	0.000169
3322.000000	0.000180
3321.000000	0.000175
3320.000000	0.000155
3319.000000	0.000132
3318.000000	0.000118
3317.000000	0.000118
3316.000000	0.000119
3315.000000	0.000102
3314.000000	0.000060
3313.000000	0.000011
3312.000000	-0.000014
3311.000000	0.000007
3310.000000	0.000071
3309.000000	0.000148
3308.000000	0.000206
3307.000000	0.000222
3306.000000	0.000202
3305.000000	0.000168
3304.000000	0.000143
3303.000000	0.000140
3302.000000	0.000157
3301.000000	0.000184
3300.000000	0.000202
3299.000000	0.000202
3298.000000	0.000187
3297.000000	0.000171
3296.000000	0.000164
3295.000000	0.000164
3294.000000	0.000169
3293.000000	0.000178
3292.000000	0.000192
3291.000000	0.000201
3290.000000	0.000194
3289.000000	0.000170
3288.000000	0.000146
3287.000000	0.000137
3286.000000	0.000146
3285.000000	0.000165
3284.000000	0.000188
3283.000000	0.000208
3282.000000	0.000224
3281.000000	0.000230
3280.000000	0.000220
3279.000000	0.000191
3278.000000	0.000153
3277.000000	0.000120
3276.000000	0.000107
3275.000000	0.000110
3274.000000	0.000118
3273.000000	0.000123
3272.000000	0.000130
3271.000000	0.000143
3270.000000	0.000157
3269.000000	0.000168
3268.000000	0.000180
3267.000000	0.000191
3266.000000	0.000195
3265.000000	0.000184
3264.000000	0.000162
3263.000000	0.000149
3262.000000	0.000157
3261.000000	0.000181
3260.000000	0.000202
3259.000000	0.000208
3258.000000	0.000199
3257.000000	0.000186
3256.000000	0.000177
3255.000000	0.000175
3254.000000	0.000177
3253.000000	0.000180
3252.000000	0.000181
3251.000000	0.000180
3250.000000	0.000176
3249.000000	0.000172
3248.000000	0.000169
3247.000000	0.000166
3246.000000	0.000167
3245.000000	0.000178
3244.000000	0.000202
3243.000000	0.000231
3242.000000	0.000249
3241.000000	0.000246
3240.000000	0.000221
3239.000000	0.000184
3238.000000	0.000140
3237.000000	0.000089
3236.000000	0.000035
3235.000000	-0.000009
3234.000000	-0.000021
3233.000000	0.000008
3232.000000	0.000063
3231.000000	0.000124
3230.000000	0.000171
3229.000000	0.000198
3228.000000	0.000204
3227.000000	0.000196
3226.000000	0.000185
3225.000000	0.000182
3224.000000	0.000183
3223.000000	0.000181
3222.000000	0.000173
3221.000000	0.000168
3220.000000	0.000175
3219.000000	0.000188
3218.000000	0.000193
3217.000000	0.000187
3216.000000	0.000180
3215.000000	0.000187
3214.000000	0.000207
3213.000000	0.000226
3212.000000	0.000227
3211.000000	0.000205
3210.000000	0.000171
3209.000000	0.000148
3208.000000	0.000150
3207.000000	0.000171
3206.000000	0.000190
3205.000000	0.000188
3204.000000	0.000163
3203.000000	0.000129
3202.000000	0.000103
3201.000000	0.000094
3200.000000	0.000100
3199.000000	0.000117
3198.000000	0.000137
3197.000000	0.000151
3196.000000	0.000151
3195.000000	0.000128
3194.000000	0.000089
3193.000000	0.000051
3192.000000	0.000039
3191.000000	0.000058
3190.000000	0.000097
3189.000000	0.000134
3188.000000	0.000152
3187.000000	0.000146
3186.000000	0.000129
3185.000000	0.000117
3184.000000	0.000126
3183.000000	0.000156
3182.000000	0.000192
3181.000000	0.000216
3180.000000	0.000216
3179.000000	0.000193
3178.000000	0.000159
3177.000000	0.000129
3176.000000	0.000113
3175.000000	0.000109
3174.000000	0.000106
3173.000000	0.000098
3172.000000	0.000086
3171.000000	0.000073
3170.000000	0.000067
3169.000000	0.000083
3168.000000	0.000125
3167.000000	0.000178
3166.000000	0.000212
3165.000000	0.000199
3164.000000	0.000144
3163.000000	0.000075
3162.000000	0.000021
3161.000000	-0.000003
3160.000000	0.000003
3159.000000	0.000022
3158.000000	0.000035
3157.000000	0.000031
3156.000000	0.000009
3155.000000	-0.000020
3154.000000	-0.000046
3153.000000	-0.000059
3152.000000	-0.000055
3151.000000	-0.000041
3150.000000	-0.000030
3149.000000	-0.000027
3148.000000	-0.000023
3147.000000	-0.000006
3146.000000	0.000020
3145.000000	0.000044
3144.000000	0.000058
3143.000000	0.000073
3142.000000	0.000103
3141.000000	0.000150
3140.000000	0.000195
3139.000000	0.000216
3138.000000	0.000206
3137.000000	0.000175
3136.000000	0.000148
3135.000000	0.000141
3134.000000	0.000154
3133.000000	0.000162
3132.000000	0.000147
3131.000000	0.000108
3130.000000	0.000068
3129.000000	0.000049
3128.000000	0.000055
3127.000000	0.000071
3126.000000	0.000084
3125.000000	0.000091
3124.000000	0.000092
3123.000000	0.000085
3122.000000	0.000064
3121.000000	0.000029
3120.000000	-0.000009
3119.000000	-0.000026
3118.000000	-0.000007
3117.000000	0.000039
3116.000000	0.000079
3115.000000	0.000089
3114.000000	0.000073
3113.000000	0.000058
3112.000000	0.000062
3111.000000	0.000077
3110.000000	0.000083
3109.000000	0.000073
3108.000000	0.000049
3107.000000	0.000021
3106.000000	-0.000003
3105.000000	-0.000011
3104.000000	0.000005
3103.000000	0.000040
3102.000000	0.000072
3101.000000	0.000087
3100.000000	0.000088
3099.000000	0.000084
3098.000000	0.000078
3097.000000	0.000072
3096.000000	0.000071
3095.000000	0.000082
3094.000000	0.000105
3093.000000	0.000129
3092.000000	0.000137
3091.000000	0.000124
3090.000000	0.000099
3089.000000	0.000080
3088.000000	0.000078
3087.000000	0.000083
3086.000000	0.000081
3085.000000	0.000066
3084.000000	0.000051
3083.000000	0.000052
3082.000000	0.000075
3081.000000	0.000117
3080.000000	0.000167
3079.000000	0.000211
3078.000000	0.000234
3077.000000	0.000234
3076.000000	0.000221
3075.000000	0.000210
3074.000000	0.000205
3073.000000	0.000199
3072.000000	0.000187
3071.000000	0.000170
3070.000000	0.000156
3069.000000	0.000153
3068.000000	0.000168
3067.000000	0.000197
3066.000000	0.000226
3065.000000	0.000233
3064.000000	0.000210
3063.000000	0.000168
3062.000000	0.000123
3061.000000	0.000085
3060.000000	0.000058
3059.000000	0.000054
3058.000000	0.000078
3057.000000	0.000123
3056.000000	0.000170
3055.000000	0.000197
3054.000000	0.000195
3053.000000	0.000171
3052.000000	0.000140
3051.000000	0.000121
3050.000000	0.000121
3049.000000	0.000138
3048.000000	0.000157
3047.000000	0.000166
3046.000000	0.000160
3045.000000	0.000142
3044.000000	0.000119
3043.000000	0.000099
3042.000000	0.000086
3041.000000	0.000074
3040.000000	0.000063
3039.000000	0.000055
3038.000000	0.000059
3037.000000	0.000076
3036.000000	0.000096
3035.000000	0.000108
3034.000000	0.000108
3033.000000	0.000100
3032.000000	0.000090
3031.000000	0.000078
3030.000000	0.000067
3029.000000	0.000057
3028.000000	0.000049
3027.000000	0.000043
3026.000000	0.000040
3025.000000	0.000044
3024.000000	0.000054
3023.000000	0.000070
3022.000000	0.000081
3021.000000	0.000081
3020.000000	0.000064
3019.000000	0.000040
3018.000000	0.000024
3017.000000	0.000028
3016.000000	0.000052
3015.000000	0.000082
3014.000000	0.000102
3013.000000	0.000106
3012.000000	0.000098
3011.000000	0.000094
3010.000000	0.000103
3009.000000	0.000123
3008.000000	0.000143
3007.000000	0.000153
3006.000000	0.000156
3005.000000	0.000166
3004.000000	0.000195
3003.000000	0.000243
3002.000000	0.000286
3001.000000	0.000294
3000.000000	0.000250
2999.000000	0.000172
2998.000000	0.000098
2997.000000	0.000055
2996.000000	0.000045
2995.000000	0.000057
2994.000000	0.000078
2993.000000	0.000099
2992.000000	0.000105
2991.000000	0.000089
2990.000000	0.000055
2989.000000	0.000023
2988.000000	0.000011
2987.000000	0.000025
2986.000000	0.000060
2985.000000	0.000101
2984.000000	0.000126
2983.000000	0.000121
2982.000000	0.000095
2981.000000	0.000075
2980.000000	0.000085
2979.000000	0.000117
2978.000000	0.000148
2977.000000	0.000159
2976.000000	0.000146
2975.000000	0.000123
2974.000000	0.000103
2973.000000	0.000097
2972.000000	0.000107
2971.000000	0.000125
2970.000000	0.000135
2969.000000	0.000127
2968.000000	0.000098
2967.000000	0.000057
2966.000000	0.000024
2965.000000	0.000011
2964.000000	0.000019
2963.000000	0.000033
2962.000000	0.000045
2961.000000	0.000058
2960.000000	0.000083
2959.000000	0.000118
2958.000000	0.000146
2957.000000	0.000148
2956.000000	0.000124
2955.000000	0.000090
2954.000000	0.000066
2953.000000	0.000066
2952.000000	0.000083
2951.000000	0.000104
2950.000000	0.000120
2949.000000	0.000134
2948.000000	0.000146
2947.000000	0.000150
2946.000000	0.000143
2945.000000	0.000131
2944.000000	0.000130
2943.000000	0.000144
2942.000000	0.000163
2941.000000	0.000175
2940.000000	0.000178
2939.000000	0.000175
2938.000000	0.000165
2937.000000	0.000140
2936.000000	0.000103
2935.000000	0.000068
2934.000000	0.000049
2933.000000	0.000053
2932.000000	0.000073
2931.000000	0.000103
2930.000000	0.000140
2929.000000	0.000179
2928.000000	0.000213
2927.000000	0.000234
2926.000000	0.000234
2925.000000	0.000213
2924.000000	0.000177
2923.000000	0.000131
2922.000000	0.000085
2921.000000	0.000051
2920.000000	0.000040
2919.000000	0.000051
2918.000000	0.000074
2917.000000	0.000096
2916.000000	0.000112
2915.000000	0.000124
2914.000000	0.000136
2913.000000	0.000141
2912.000000	0.000132
2911.000000	0.000109
2910.000000	0.000088
2909.000000	0.000085
2908.000000	0.000100
2907.000000	0.000118
2906.000000	0.000123
2905.000000	0.000116
2904.000000	0.000109
2903.000000	0.000110
2902.000000	0.000114
2901.000000	0.000116
2900.000000	0.000111
2899.000000	0.000105
2898.000000	0.000103
2897.000000	0.000108
2896.000000	0.000122
2895.000000	0.000144
2894.000000	0.000167
2893.000000	0.000188
2892.000000	0.000201
2891.000000	0.000213
2890.000000	0.000226
2889.000000	0.000237
2888.000000	0.000234
2887.000000	0.000213
2886.000000	0.000182
2885.000000	0.000157
2884.000000	0.000146
2883.000000	0.000141
2882.000000	0.000135
2881.000000	0.000132
2880.000000	0.000144
2879.000000	0.000173
2878.000000	0.000207
2877.000000	0.000224
2876.000000	0.000214
2875.000000	0.000183
2874.000000	0.000150
2873.000000	0.000133
2872.000000	0.000139
2871.000000	0.000156
2870.000000	0.000164
2869.000000	0.000154
2868.000000	0.000135
2867.000000	0.000125
2866.000000	0.000134
2865.000000	0.000155
2864.000000	0.000175
2863.000000	0.000180
2862.000000	0.000169
2861.000000	0.000143
2860.000000	0.000105
2859.000000	0.000063
2858.000000	0.000029
2857.000000	0.000012
2856.000000	0.000013
2855.000000	0.000028
2854.000000	0.000051
2853.000000	0.000081
2852.000000	0.000112
2851.000000	0.000136
2850.000000	0.000155
2849.000000	0.000175
2848.000000	0.000201
2847.000000	0.000222
2846.000000	0.000219
2845.000000	0.000188
2844.000000	0.000138
2843.000000	0.000094
2842.000000	0.000075
2841.000000	0.000088
2840.000000	0.000127
2839.000000	0.000171
2838.000000	0.000196
2837.000000	0.000190
2836.000000	0.000166
2835.000000	0.000144
2834.000000	0.000141
2833.000000	0.000157
2832.000000	0.000177
2831.000000	0.000186
2830.000000	0.000179
2829.000000	0.000160
2828.000000	0.000137
2827.000000	0.000118
2826.000000	0.000102
2825.000000	0.000090
2824.000000	0.000083
2823.000000	0.000086
2822.000000	0.000100
2821.000000	0.000124
2820.000000	0.000153
2819.000000	0.000185
2818.000000	0.000220
2817.000000	0.000253
2816.000000	0.000277
2815.000000	0.000286
2814.000000	0.000278
2813.000000	0.000256
2812.000000	0.000225
2811.000000	0.000197
2810.000000	0.000181
2809.000000	0.000183
2808.000000	0.000198
2807.000000	0.000210
2806.000000	0.000203
2805.000000	0.000180
2804.000000	0.000153
2803.000000	0.000142
2802.000000	0.000158
2801.000000	0.000195
2800.000000	0.000232
2799.000000	0.000247
2798.000000	0.000235
2797.000000	0.000208
2796.000000	0.000187
2795.000000	0.000180
2794.000000	0.000178
2793.000000	0.000172
2792.000000	0.000160
2791.000000	0.000140
2790.000000	0.000116
2789.000000	0.000098
2788.000000	0.000099
2787.000000	0.000127
2786.000000	0.000173
2785.000000	0.000213
2784.000000	0.000232
2783.000000	0.000223
2782.000000	0.000195
2781.000000	0.000165
2780.000000	0.000143
2779.000000	0.000131
2778.000000	0.000126
2777.000000	0.000129
2776.000000	0.000153
2775.000000	0.000207
2774.000000	0.000282
2773.000000	0.000347
2772.000000	0.000365
2771.000000	0.000331
2770.000000	0.000267
2769.000000	0.000206
2768.000000	0.000164
2767.000000	0.000135
2766.000000	0.000114
2765.000000	0.000107
2764.000000	0.000126
2763.000000	0.000161
2762.000000	0.000186
2761.000000	0.000182
2760.000000	0.000158
2759.000000	0.000138
2758.000000	0.000141
2757.000000	0.000164
2756.000000	0.000195
2755.000000	0.000218
2754.000000	0.000226
2753.000000	0.000224
2752.000000	0.000223
2751.000000	0.000231
2750.000000	0.000240
2749.000000	0.000234
2748.000000	0.000205
2747.000000	0.000163
2746.000000	0.000125
2745.000000	0.000109
2744.000000	0.000115
2743.000000	0.000131
2742.000000	0.000141
2741.000000	0.000139
2740.000000	0.000132
2739.000000	0.000129
2738.000000	0.000129
2737.000000	0.000126
2736.000000	0.000119
2735.000000	0.000113
2734.000000	0.000106
2733.000000	0.000094
2732.000000	0.000081
2731.000000	0.000081
2730.000000	0.000101
2729.000000	0.000132
2728.000000	0.000152
2727.000000	0.000152
2726.000000	0.000138
2725.000000	0.000124
2724.000000	0.000123
2723.000000	0.000138
2722.000000	0.000158
2721.000000	0.000167
2720.000000	0.000159
2719.000000	0.000147
2718.000000	0.000154
2717.000000	0.000182
2716.000000	0.000211
2715.000000	0.000218
2714.000000	0.000203
2713.000000	0.000183
2712.000000	0.000172
2711.000000	0.000172
2710.000000	0.000173
2709.000000	0.000167
2708.000000	0.000159
2707.000000	0.000158
2706.000000	0.000166
2705.000000	0.000179
2704.000000	0.000189
2703.000000	0.000193
2702.000000	0.000196
2701.000000	0.000201
2700.000000	0.000206
2699.000000	0.000210
2698.000000	0.000215
2697.000000	0.000229
2696.000000	0.000249
2695.000000	0.000263
2694.000000	0.000264
2693.000000	0.000257
2692.000000	0.000247
2691.000000	0.000240
2690.000000	0.000231
2689.000000	0.000219
2688.000000	0.000208
2687.000000	0.000208
2686.000000	0.000225
2685.000000	0.000255
2684.000000	0.000281
2683.000000	0.000284
2682.000000	0.000257
2681.000000	0.000211
2680.000000	0.000168
2679.000000	0.000148
2678.000000	0.000149
2677.000000	0.000154
2676.000000	0.000146
2675.000000	0.000127
2674.000000	0.000110
2673.000000	0.000113
2672.000000	0.000141
2671.000000	0.000187
2670.000000	0.000234
2669.000000	0.000261
2668.000000	0.000256
2667.000000	0.000225
2666.000000	0.000192
2665.000000	0.000182
2664.000000	0.000198
2663.000000	0.000228
2662.000000	0.000255
2661.000000	0.000273
2660.000000	0.000281
2659.000000	0.000275
2658.000000	0.000260
2657.000000	0.000245
2656.000000	0.000237
2655.000000	0.000234
2654.000000	0.000227
2653.000000	0.000215
2652.000000	0.000206
2651.000000	0.000208
2650.000000	0.000221
2649.000000	0.000236
2648.000000	0.000243
2647.000000	0.000234
2646.000000	0.000202
2645.000000	0.000160
2644.000000	0.000126
2643.000000	0.000112
2642.000000	0.000116
2641.000000	0.000128
2640.000000	0.000146
2639.000000	0.000173
2638.000000	0.000203
2637.000000	0.000226
2636.000000	0.000229
2635.000000	0.000211
2634.000000	0.000179
2633.000000	0.000147
2632.000000	0.000126
2631.000000	0.000117
2630.000000	0.000110
2629.000000	0.000099
2628.000000	0.000091
2627.000000	0.000094
2626.000000	0.000108
2625.000000	0.000115
2624.000000	0.000102
2623.000000	0.000069
2622.000000	0.000035
2621.000000	0.000023
2620.000000	0.000039
2619.000000	0.000060
2618.000000	0.000054
2617.000000	0.000017
2616.000000	-0.000022
2615.000000	-0.000025
2614.000000	0.000010
2613.000000	0.000053
2612.000000	0.000070
2611.000000	0.000056
2610.000000	0.000026
2609.000000	0.000007
2608.000000	0.000013
2607.000000	0.000038
2606.000000	0.000053
2605.000000	0.000033
2604.000000	-0.000020
2603.000000	-0.000067
2602.000000	-0.000076
2601.000000	-0.000045
2600.000000	0.000005
2599.000000	0.000051
2598.000000	0.000081
2597.000000	0.000091
2596.000000	0.000085
2595.000000	0.000076
2594.000000	0.000071
2593.000000	0.000063
2592.000000	0.000044
2591.000000	0.000022
2590.000000	0.000007
2589.000000	0.000005
2588.000000	0.000014
2587.000000	0.000026
2586.000000	0.000030
2585.000000	0.000014
2584.000000	-0.000021
2583.000000	-0.000057
2582.000000	-0.000091
2581.000000	-0.000151
2580.000000	-0.000264
2579.000000	-0.000398
2578.000000	-0.000471
2577.000000	-0.000422
2576.000000	-0.000277
2575.000000	-0.000117
2574.000000	-0.000013
2573.000000	0.000021
2572.000000	0.000010
2571.000000	-0.000013
2570.000000	-0.000030
2569.000000	-0.000030
2568.000000	-0.000010
2567.000000	0.000026
2566.000000	0.000057
2565.000000	0.000064
2564.000000	0.000051
2563.000000	0.000053
2562.000000	0.000090
2561.000000	0.000139
2560.000000	0.000156
2559.000000	0.000123
2558.000000	0.000064
2557.000000	0.000007
2556.000000	-0.000041
2555.000000	-0.000080
2554.000000	-0.000101
2553.000000	-0.000095
2552.000000	-0.000074
2551.000000	-0.000063
2550.000000	-0.000072
2549.000000	-0.000093
2548.000000	-0.000112
2547.000000	-0.000116
2546.000000	-0.000098
2545.000000	-0.000061
2544.000000	-0.000025
2543.000000	-0.000006
2542.000000	-0.000001
2541.000000	0.000003
2540.000000	0.000004
2539.000000	-0.000007
2538.000000	-0.000027
2537.000000	-0.000038
2536.000000	-0.000030
2535.000000	-0.000014
2534.000000	-0.000005
2533.000000	-0.000000
2532.000000	0.000018
2531.000000	0.000057
2530.000000	0.000105
2529.000000	0.000129
2528.000000	0.000098
2527.000000	0.000016
2526.000000	-0.000077
2525.000000	-0.000134
2524.000000	-0.000142
2523.000000	-0.000119
2522.000000	-0.000083
2521.000000	-0.000036
2520.000000	0.000014
2519.000000	0.000051
2518.000000	0.000065
2517.000000	0.000074
2516.000000	0.000114
2515.000000	0.000193
2514.000000	0.000269
2513.000000	0.000281
2512.000000	0.000190
2511.000000	0.000019
2510.000000	-0.000160
2509.000000	-0.000267
2508.000000	-0.000266
2507.000000	-0.000168
2506.000000	-0.000004
2505.000000	0.000199
2504.000000	0.000399
2503.000000	0.000531
2502.000000	0.000540
2501.000000	0.000426
2500.000000	0.000247
2499.000000	0.000065
2498.000000	-0.000087
2497.000000	-0.000193
2496.000000	-0.000237
2495.000000	-0.000210
2494.000000	-0.000136
2493.000000	-0.000060
2492.000000	-0.000016
2491.000000	0.000001
2490.000000	0.000017
2489.000000	0.000048
2488.000000	0.000077
2487.000000	0.000080
2486.000000	0.000047
2485.000000	-0.000005
2484.000000	-0.000050
2483.000000	-0.000067
2482.000000	-0.000054
2481.000000	-0.000026
2480.000000	-0.000008
2479.000000	-0.000019
2478.000000	-0.000050
2477.000000	-0.000075
2476.000000	-0.000074
2475.000000	-0.000048
2474.000000	-0.000015
2473.000000	0.000005
2472.000000	-0.000002
2471.000000	-0.000039
2470.000000	-0.000097
2469.000000	-0.000156
2468.000000	-0.000201
2467.000000	-0.000234
2466.000000	-0.000263
2465.000000	-0.000287
2464.000000	-0.000282
2463.000000	-0.000229
2462.000000	-0.000137
2461.000000	-0.000049
2460.000000	-0.000011
2459.000000	-0.000035
2458.000000	-0.000089
2457.000000	-0.000119
2456.000000	-0.000098
2455.000000	-0.000042
2454.000000	0.000007
2453.000000	0.000021
2452.000000	0.000004
2451.000000	-0.000019
2450.000000	-0.000027
2449.000000	-0.000008
2448.000000	0.000037
2447.000000	0.000095
2446.000000	0.000143
2445.000000	0.000154
2444.000000	0.000126
2443.000000	0.000082
2442.000000	0.000058
2441.000000	0.000070
2440.000000	0.000107
2439.000000	0.000143
2438.000000	0.000157
2437.000000	0.000141
2436.000000	0.000099
2435.000000	0.000045
2434.000000	0.000000
2433.000000	-0.000024
2432.000000	-0.000036
2431.000000	-0.000053
2430.000000	-0.000084
2429.000000	-0.000110
2428.000000	-0.000116
2427.000000	-0.000106
2426.000000	-0.000109
2425.000000	-0.000136
2424.000000	-0.000164
2423.000000	-0.000150
2422.000000	-0.000080
2421.000000	0.000010
2420.000000	0.000065
2419.000000	0.000056
2418.000000	0.000007
2417.000000	-0.000036
2416.000000	-0.000044
2415.000000	-0.000014
2414.000000	0.000031
2413.000000	0.000069
2412.000000	0.000083
2411.000000	0.000068
2410.000000	0.000038
2409.000000	0.000010
2408.000000	-0.000007
2407.000000	-0.000018
2406.000000	-0.000030
2405.000000	-0.000044
2404.000000	-0.000055
2403.000000	-0.000058
2402.000000	-0.000052
2401.000000	-0.000043
2400.000000	-0.000036
2399.000000	-0.000031
2398.000000	-0.000023
2397.000000	-0.000007
2396.000000	0.000015
2395.000000	0.000035
2394.000000	0.000040
2393.000000	0.000030
2392.000000	0.000008
2391.000000	-0.000019
2390.000000	-0.000044
2389.000000	-0.000053
2388.000000	-0.000042
2387.000000	-0.000015
2386.000000	0.000009
2385.000000	0.000014
2384.000000	-0.000001
2383.000000	-0.000024
2382.000000	-0.000041
2381.000000	-0.000056
2380.000000	-0.000085
2379.000000	-0.000139
2378.000000	-0.000203
2377.000000	-0.000241
2376.000000	-0.000222
2375.000000	-0.000152
2374.000000	-0.000070
2373.000000	-0.000021
2372.000000	-0.000015
2371.000000	-0.000027
2370.000000	-0.000026
2369.000000	-0.000005
2368.000000	0.000021
2367.000000	0.000036
2366.000000	0.000037
2365.000000	0.000028
2364.000000	0.000021
2363.000000	0.000021
2362.000000	0.000020
2361.000000	0.000010
2360.000000	-0.000006
2359.000000	-0.000013
2358.000000	-0.000009
2357.000000	-0.000005
2356.000000	0.000013
2355.000000	0.000060
2354.000000	0.000102
2353.000000	0.000094
2352.000000	0.000060
2351.000000	0.000072
2350.000000	0.000140
2349.000000	0.000210
2348.000000	0.000220
2347.000000	0.000163
2346.000000	0.000098
2345.000000	0.000099
2344.000000	0.000168
2343.000000	0.000236
2342.000000	0.000254
2341.000000	0.000207
2340.000000	0.000116
2339.000000	0.000037
2338.000000	0.000023
2337.000000	0.000075
2336.000000	0.000140
2335.000000	0.000157
2334.000000	0.000103
2333.000000	0.000012
2332.000000	-0.000056
2331.000000	-0.000057
2330.000000	-0.000006
2329.000000	0.000064
2328.000000	0.000122
2327.000000	0.000171
2326.000000	0.000218
2325.000000	0.000265
2324.000000	0.000299
2323.000000	0.000307
2322.000000	0.000298
2321.000000	0.000307
2320.000000	0.000357
2319.000000	0.000430
2318.000000	0.000473
2317.000000	0.000456
2316.000000	0.000379
2315.000000	0.000273
2314.000000	0.000173
2313.000000	0.000112
2312.000000	0.000102
2311.000000	0.000129
2310.000000	0.000170
2309.000000	0.000221
2308.000000	0.000285
2307.000000	0.000354
2306.000000	0.000399
2305.000000	0.000401
2304.000000	0.000364
2303.000000	0.000310
2302.000000	0.000258
2301.000000	0.000212
2300.000000	0.000160
2299.000000	0.000094
2298.000000	0.000024
2297.000000	-0.000010
2296.000000	0.000020
2295.000000	0.000097
2294.000000	0.000164
2293.000000	0.000177
2292.000000	0.000148
2291.000000	0.000122
2290.000000	0.000133
2289.000000	0.000175
2288.000000	0.000219
2287.000000	0.000232
2286.000000	0.000204
2285.000000	0.000160
2284.000000	0.000127
2283.000000	0.000106
2282.000000	0.000071
2281.000000	0.000022
2280.000000	-0.000003
2279.000000	0.000024
2278.000000	0.000085
2277.000000	0.000131
2276.000000	0.000131
2275.000000	0.000086
2274.000000	0.000008
2273.000000	-0.000069
2272.000000	-0.000089
2271.000000	-0.000016
2270.000000	0.000101
2269.000000	0.000162
2268.000000	0.000121
2267.000000	0.000037
2266.000000	-0.000002
2265.000000	0.000015
2264.000000	0.000027
2263.000000	-0.000013
2262.000000	-0.000076
2261.000000	-0.000101
2260.000000	-0.000067
2259.000000	-0.000005
2258.000000	0.000052
2257.000000	0.000111
2256.000000	0.000202
2255.000000	0.000316
2254.000000	0.000400
2253.000000	0.000405
2252.000000	0.000346
2251.000000	0.000263
2250.000000	0.000172
2249.000000	0.000057
2248.000000	-0.000078
2247.000000	-0.000185
2246.000000	-0.000224
2245.000000	-0.000194
2244.000000	-0.000121
2243.000000	-0.000042
2242.000000	0.000007
2241.000000	-0.000003
2240.000000	-0.000048
2239.000000	-0.000054
2238.000000	0.000027
2237.000000	0.000158
2236.000000	0.000258
2235.000000	0.000289
2234.000000	0.000276
2233.000000	0.000247
2232.000000	0.000200
2231.000000	0.000127
2230.000000	0.000043
2229.000000	-0.000021
2228.000000	-0.000034
2227.000000	0.000024
2226.000000	0.000153
2225.000000	0.000313
2224.000000	0.000443
2223.000000	0.000504
2222.000000	0.000489
2221.000000	0.000398
2220.000000	0.000214
2219.000000	-0.000060
2218.000000	-0.000363
2217.000000	-0.000589
2216.000000	-0.000659
2215.000000	-0.000579
2214.000000	-0.000437
2213.000000	-0.000345
2212.000000	-0.000363
2211.000000	-0.000465
2210.000000	-0.000551
2209.000000	-0.000515
2208.000000	-0.000336
2207.000000	-0.000115
2206.000000	-0.000008
2205.000000	-0.000071
2204.000000	-0.000185
2203.000000	-0.000181
2202.000000	-0.000034
2201.000000	0.000105
2200.000000	0.000092
2199.000000	-0.000059
2198.000000	-0.000232
2197.000000	-0.000358
2196.000000	-0.000448
2195.000000	-0.000503
2194.000000	-0.000489
2193.000000	-0.000422
2192.000000	-0.000375
2191.000000	-0.000371
2190.000000	-0.000331
2189.000000	-0.000178
2188.000000	0.000033
2187.000000	0.000146
2186.000000	0.000052
2185.000000	-0.000211
2184.000000	-0.000504
2183.000000	-0.000696
2182.000000	-0.000748
2181.000000	-0.000702
2180.000000	-0.000610
2179.000000	-0.000475
2178.000000	-0.000288
2177.000000	-0.000097
2176.000000	0.000010
2175.000000	-0.000008
2174.000000	-0.000111
2173.000000	-0.000249
2172.000000	-0.000408
2171.000000	-0.000551
2170.000000	-0.000591
2169.000000	-0.000462
2168.000000	-0.000226
2167.000000	-0.000025
2166.000000	0.000042
2165.000000	-0.000001
2164.000000	-0.000044
2163.000000	0.000032
2162.000000	0.000305
2161.000000	0.000762
2160.000000	0.001286
2159.000000	0.001693
2158.000000	0.001794
2157.000000	0.001468
2156.000000	0.000740
2155.000000	-0.000165
2154.000000	-0.000899
2153.000000	-0.001192
2152.000000	-0.001066
2151.000000	-0.000806
2150.000000	-0.000709
2149.000000	-0.000841
2148.000000	-0.001025
2147.000000	-0.001021
2146.000000	-0.000745
2145.000000	-0.000332
2144.000000	0.000008
2143.000000	0.000170
2142.000000	0.000182
2141.000000	0.000105
2140.000000	-0.000028
2139.000000	-0.000156
2138.000000	-0.000172
2137.000000	-0.000026
2136.000000	0.000174
2135.000000	0.000239
2134.000000	0.000091
2133.000000	-0.000165
2132.000000	-0.000361
2131.000000	-0.000406
2130.000000	-0.000320
2129.000000	-0.000171
2128.000000	-0.000029
2127.000000	0.000057
2126.000000	0.000057
2125.000000	-0.000038
2124.000000	-0.000204
2123.000000	-0.000366
2122.000000	-0.000426
2121.000000	-0.000316
2120.000000	-0.000053
2119.000000	0.000281
2118.000000	0.000577
2117.000000	0.000740
2116.000000	0.000720
2115.000000	0.000550
2114.000000	0.000343
2113.000000	0.000210
2112.000000	0.000172
2111.000000	0.000166
2110.000000	0.000138
2109.000000	0.000088
2108.000000	0.000038
2107.000000	0.000010
2106.000000	0.000023
2105.000000	0.000077
2104.000000	0.000128
2103.000000	0.000118
2102.000000	0.000037
2101.000000	-0.000062
2100.000000	-0.000135
2099.000000	-0.000180
2098.000000	-0.000198
2097.000000	-0.000162
2096.000000	-0.000065
2095.000000	0.000046
2094.000000	0.000114
2093.000000	0.000124
2092.000000	0.000086
2091.000000	0.000005
2090.000000	-0.000100
2089.000000	-0.000172
2088.000000	-0.000177
2087.000000	-0.000156
2086.000000	-0.000177
2085.000000	-0.000241
2084.000000	-0.000297
2083.000000	-0.000323
2082.000000	-0.000334
2081.000000	-0.000285
2080.000000	-0.000088
2079.000000	0.000247
2078.000000	0.000537
2077.000000	0.000580
2076.000000	0.000369
2075.000000	0.000091
2074.000000	-0.000075
2073.000000	-0.000110
2072.000000	-0.000103
2071.000000	-0.000124
2070.000000	-0.000170
2069.000000	-0.000203
2068.000000	-0.000203
2067.000000	-0.000193
2066.000000	-0.000210
2065.000000	-0.000271
2064.000000	-0.000341
2063.000000	-0.000365
2062.000000	-0.000316
2061.000000	-0.000213
2060.000000	-0.000085
2059.000000	0.000050
2058.000000	0.000166
2057.000000	0.000218
2056.000000	0.000173
2055.000000	0.000045
2054.000000	-0.000121
2053.000000	-0.000275
2052.000000	-0.000359
2051.000000	-0.000299
2050.000000	-0.000064
2049.000000	0.000253
2048.000000	0.000462
2047.000000	0.000445
2046.000000	0.000243
2045.000000	-0.000031
2044.000000	-0.000292
2043.000000	-0.000488
2042.000000	-0.000547
2041.000000	-0.000408
2040.000000	-0.000099
2039.000000	0.000253
2038.000000	0.000499
2037.000000	0.000537
2036.000000	0.000360
2035.000000	0.000071
2034.000000	-0.000201
2033.000000	-0.000429
2032.000000	-0.000685
2031.000000	-0.000975
2030.000000	-0.001151
2029.000000	-0.001076
2028.000000	-0.000816
2027.000000	-0.000560
2026.000000	-0.000393
2025.000000	-0.000266
2024.000000	-0.000176
2023.000000	-0.000220
2022.000000	-0.000432
2021.000000	-0.000680
2020.000000	-0.000792
2019.000000	-0.000725
2018.000000	-0.000570
2017.000000	-0.000442
2016.000000	-0.000411
2015.000000	-0.000469
2014.000000	-0.000546
2013.000000	-0.000569
2012.000000	-0.000530
2011.000000	-0.000463
2010.000000	-0.000358
2009.000000	-0.000176
2008.000000	0.000042
2007.000000	0.000156
2006.000000	0.000060
2005.000000	-0.000242
2004.000000	-0.000686
2003.000000	-0.001197
2002.000000	-0.001612
2001.000000	-0.001704
2000.000000	-0.001384
1999.000000	-0.000838
1998.000000	-0.000366
1997.000000	-0.000112
1996.000000	0.000007
1995.000000	0.000141
1994.000000	0.000339
1993.000000	0.000533
1992.000000	0.000600
1991.000000	0.000466
1990.000000	0.000184
1989.000000	-0.000086
1988.000000	-0.000202
1987.000000	-0.000164
1986.000000	-0.000081
1985.000000	-0.000049
1984.000000	-0.000096
1983.000000	-0.000213
1982.000000	-0.000345
1981.000000	-0.000375
1980.000000	-0.000202
1979.000000	0.000106
1978.000000	0.000312
1977.000000	0.000216
1976.000000	-0.000136
1975.000000	-0.000521
1974.000000	-0.000738
1973.000000	-0.000728
1972.000000	-0.000590
1971.000000	-0.000500
1970.000000	-0.000514
1969.000000	-0.000460
1968.000000	-0.000108
1967.000000	0.000510
1966.000000	0.001068
1965.000000	0.001311
1964.000000	0.001305
1963.000000	0.001241
1962.000000	0.001144
1961.000000	0.000902
1960.000000	0.000491
1959.000000	0.000026
1958.000000	-0.000402
1957.000000	-0.000760
1956.000000	-0.000972
1955.000000	-0.000917
1954.000000	-0.000585
1953.000000	-0.000151
1952.000000	0.000159
1951.000000	0.000255
1950.000000	0.000186
1949.000000	0.000052
1948.000000	-0.000069
1947.000000	-0.000137
1946.000000	-0.000175
1945.000000	-0.000248
1944.000000	-0.000376
1943.000000	-0.000478
1942.000000	-0.000459
1941.000000	-0.000350
1940.000000	-0.000274
1939.000000	-0.000304
1938.000000	-0.000394
1937.000000	-0.000444
1936.000000	-0.000394
1935.000000	-0.000275
1934.000000	-0.000176
1933.000000	-0.000177
1932.000000	-0.000272
1931.000000	-0.000373
1930.000000	-0.000397
1929.000000	-0.000352
1928.000000	-0.000309
1927.000000	-0.000310
1926.000000	-0.000340
1925.000000	-0.000377
1924.000000	-0.000433
1923.000000	-0.000508
1922.000000	-0.000543
1921.000000	-0.000476
1920.000000	-0.000309
1919.000000	-0.000113
1918.000000	0.000032
1917.000000	0.000099
1916.000000	0.000123
1915.000000	0.000147
1914.000000	0.000165
1913.000000	0.000129
1912.000000	-0.000002
1911.000000	-0.000209
1910.000000	-0.000412
1909.000000	-0.000517
1908.000000	-0.000474
1907.000000	-0.000317
1906.000000	-0.000134
1905.000000	-0.000025
1904.000000	-0.000031
1903.000000	-0.000103
1902.000000	-0.000157
1901.000000	-0.000164
1900.000000	-0.000153
1899.000000	-0.000146
1898.000000	-0.000136
1897.000000	-0.000127
1896.000000	-0.000156
1895.000000	-0.000236
1894.000000	-0.000310
1893.000000	-0.000313
1892.000000	-0.000262
1891.000000	-0.000240
1890.000000	-0.000304
1889.000000	-0.000437
1888.000000	-0.000579
1887.000000	-0.000668
1886.000000	-0.000660
1885.000000	-0.000547
1884.000000	-0.000387
1883.000000	-0.000271
1882.000000	-0.000238
1881.000000	-0.000250
1880.000000	-0.000249
1879.000000	-0.000217
1878.000000	-0.000166
1877.000000	-0.000116
1876.000000	-0.000087
1875.000000	-0.000095
1874.000000	-0.000132
1873.000000	-0.000175
1872.000000	-0.000209
1871.000000	-0.000236
1870.000000	-0.000252
1869.000000	-0.000234
1868.000000	-0.000177
1867.000000	-0.000121
1866.000000	-0.000099
1865.000000	-0.000108
1864.000000	-0.000131
1863.000000	-0.000161
1862.000000	-0.000207
1861.000000	-0.000270
1860.000000	-0.000333
1859.000000	-0.000365
1858.000000	-0.000343
1857.000000	-0.000279
1856.000000	-0.000223
1855.000000	-0.000214
1854.000000	-0.000242
1853.000000	-0.000267
1852.000000	-0.000276
1851.000000	-0.000311
1850.000000	-0.000417
1849.000000	-0.000577
1848.000000	-0.000707
1847.000000	-0.000738
1846.000000	-0.000660
1845.000000	-0.000521
1844.000000	-0.000392
1843.000000	-0.000309
1842.000000	-0.000253
1841.000000	-0.000204
1840.000000	-0.000175
1839.000000	-0.000187
1838.000000	-0.000230
1837.000000	-0.000268
1836.000000	-0.000284
1835.000000	-0.000283
1834.000000	-0.000275
1833.000000	-0.000260
1832.000000	-0.000244
1831.000000	-0.000247
1830.000000	-0.000272
1829.000000	-0.000286
1828.000000	-0.000263
1827.000000	-0.000217
1826.000000	-0.000176
1825.000000	-0.000156
1824.000000	-0.000160
1823.000000	-0.000193
1822.000000	-0.000252
1821.000000	-0.000314
1820.000000	-0.000341
1819.000000	-0.000320
1818.000000	-0.000274
1817.000000	-0.000241
1816.000000	-0.000236
1815.000000	-0.000244
1814.000000	-0.000234
1813.000000	-0.000184
1812.000000	-0.000108
1811.000000	-0.000052
1810.000000	-0.000064
1809.000000	-0.000143
1808.000000	-0.000246
1807.000000	-0.000326
1806.000000	-0.000364
1805.000000	-0.000369
1804.000000	-0.000364
1803.000000	-0.000362
1802.000000	-0.000350
1801.000000	-0.000311
1800.000000	-0.000261
1799.000000	-0.000240
1798.000000	-0.000258
1797.000000	-0.000284
1796.000000	-0.000287
1795.000000	-0.000272
1794.000000	-0.000262
1793.000000	-0.000260
1792.000000	-0.000244
1791.000000	-0.000212
1790.000000	-0.000184
1789.000000	-0.000177
1788.000000	-0.000194
1787.000000	-0.000229
1786.000000	-0.000273
1785.000000	-0.000307
1784.000000	-0.000329
1783.000000	-0.000352
1782.000000	-0.000380
1781.000000	-0.000390
1780.000000	-0.000356
1779.000000	-0.000293
1778.000000	-0.000243
1777.000000	-0.000242
1776.000000	-0.000292
1775.000000	-0.000383
1774.000000	-0.000503
1773.000000	-0.000625
1772.000000	-0.000696
1771.000000	-0.000693
1770.000000	-0.000639
1769.000000	-0.000555
1768.000000	-0.000453
1767.000000	-0.000357
1766.000000	-0.000298
1765.000000	-0.000275
1764.000000	-0.000269
1763.000000	-0.000263
1762.000000	-0.000254
1761.000000	-0.000241
1760.000000	-0.000218
1759.000000	-0.000174
1758.000000	-0.000120
1757.000000	-0.000077
1756.000000	-0.000064
1755.000000	-0.000078
1754.000000	-0.000102
1753.000000	-0.000119
1752.000000	-0.000118
1751.000000	-0.000096
1750.000000	-0.000057
1749.000000	-0.000009
1748.000000	0.000044
1747.000000	0.000092
1746.000000	0.000113
1745.000000	0.000098
1744.000000	0.000060
1743.000000	0.000017
1742.000000	-0.000018
1741.000000	-0.000052
1740.000000	-0.000082
1739.000000	-0.000098
1738.000000	-0.000102
1737.000000	-0.000105
1736.000000	-0.000117
1735.000000	-0.000133
1734.000000	-0.000137
1733.000000	-0.000140
1732.000000	-0.000175
1731.000000	-0.000238
1730.000000	-0.000310
1729.000000	-0.000371
1728.000000	-0.000403
1727.000000	-0.000405
1726.000000	-0.000391
1725.000000	-0.000381
1724.000000	-0.000383
1723.000000	-0.000382
1722.000000	-0.000362
1721.000000	-0.000336
1720.000000	-0.000332
1719.000000	-0.000368
1718.000000	-0.000415
1717.000000	-0.000416
1716.000000	-0.000377
1715.000000	-0.000348
1714.000000	-0.000336
1713.000000	-0.000328
1712.000000	-0.000315
1711.000000	-0.000296
1710.000000	-0.000271
1709.000000	-0.000245
1708.000000	-0.000229
1707.000000	-0.000231
1706.000000	-0.000232
1705.000000	-0.000202
1704.000000	-0.000152
1703.000000	-0.000117
1702.000000	-0.000112
1701.000000	-0.000110
1700.000000	-0.000071
1699.000000	-0.000039
1698.000000	-0.000066
1697.000000	-0.000133
1696.000000	-0.000191
1695.000000	-0.000200
1694.000000	-0.000157
1693.000000	-0.000078
1692.000000	0.000015
1691.000000	0.000100
1690.000000	0.000168
1689.000000	0.000230
1688.000000	0.000294
1687.000000	0.000343
1686.000000	0.000357
1685.000000	0.000347
1684.000000	0.000355
1683.000000	0.000368
1682.000000	0.000348
1681.000000	0.000327
1680.000000	0.000345
1679.000000	0.000403
1678.000000	0.000470
1677.000000	0.000524
1676.000000	0.000570
1675.000000	0.000620
1674.000000	0.000658
1673.000000	0.000668
1672.000000	0.000660
1671.000000	0.000657
1670.000000	0.000679
1669.000000	0.000728
1668.000000	0.000783
1667.000000	0.000835
1666.000000	0.000887
1665.000000	0.000938
1664.000000	0.000983
1663.000000	0.001024
1662.000000	0.001065
1661.000000	0.001103
1660.000000	0.001130
1659.000000	0.001131
1658.000000	0.001107
1657.000000	0.001080
1656.000000	0.001070
1655.000000	0.001082
1654.000000	0.001137
1653.000000	0.001255
1652.000000	0.001341
1651.000000	0.001350
1650.000000	0.001343
1649.000000	0.001340
1648.000000	0.001349
1647.000000	0.001377
1646.000000	0.001416
1645.000000	0.001439
1644.000000	0.001453
1643.000000	0.001467
1642.000000	0.001470
1641.000000	0.001449
1640.000000	0.001412
1639.000000	0.001380
1638.000000	0.001367
1637.000000	0.001369
1636.000000	0.001381
1635.000000	0.001396
1634.000000	0.001406
1633.000000	0.001412
1632.000000	0.001422
1631.000000	0.001435
1630.000000	0.001453
1629.000000	0.001473
1628.000000	0.001479
1627.000000	0.001460
1626.000000	0.001416
1625.000000	0.001362
1624.000000	0.001318
1623.000000	0.001300
1622.000000	0.001301
1621.000000	0.001299
1620.000000	0.001282
1619.000000	0.001240
1618.000000	0.001160
1617.000000	0.001044
1616.000000	0.000936
1615.000000	0.000881
1614.000000	0.000875
1613.000000	0.000884
1612.000000	0.000884
1611.000000	0.000872
1610.000000	0.000856
1609.000000	0.000830
1608.000000	0.000777
1607.000000	0.000700
1606.000000	0.000632
1605.000000	0.000600
1604.000000	0.000604
1603.000000	0.000620
1602.000000	0.000625
1601.000000	0.000604
1600.000000	0.000558
1599.000000	0.000509
1598.000000	0.000482
1597.000000	0.000488
1596.000000	0.000512
1595.000000	0.000527
1594.000000	0.000516
1593.000000	0.000480
1592.000000	0.000435
1591.000000	0.000405
1590.000000	0.000408
1589.000000	0.000440
1588.000000	0.000473
1587.000000	0.000486
1586.000000	0.000480
1585.000000	0.000466
1584.000000	0.000460
1583.000000	0.000471
1582.000000	0.000498
1581.000000	0.000530
1580.000000	0.000557
1579.000000	0.000574
1578.000000	0.000589
1577.000000	0.000599
1576.000000	0.000594
1575.000000	0.000575
1574.000000	0.000564
1573.000000	0.000578
1572.000000	0.000611
1571.000000	0.000643
1570.000000	0.000658
1569.000000	0.000655
1568.000000	0.000643
1567.000000	0.000640
1566.000000	0.000668
1565.000000	0.000735
1564.000000	0.000824
1563.000000	0.000901
1562.000000	0.000942
1561.000000	0.000919
1560.000000	0.000815
1559.000000	0.000749
1558.000000	0.000861
1557.000000	0.000982
1556.000000	0.001033
1555.000000	0.001039
1554.000000	0.001032
1553.000000	0.001042
1552.000000	0.001070
1551.000000	0.001090
1550.000000	0.001081
1549.000000	0.001050
1548.000000	0.001031
1547.000000	0.001041
1546.000000	0.001076
1545.000000	0.001122
1544.000000	0.001174
1543.000000	0.001230
1542.000000	0.001275
1541.000000	0.001284
1540.000000	0.001256
1539.000000	0.001212
1538.000000	0.001168
1537.000000	0.001138
1536.000000	0.001120
1535.000000	0.001109
1534.000000	0.001116
1533.000000	0.001159
1532.000000	0.001209
1531.000000	0.001231
1530.000000	0.001227
1529.000000	0.001210
1528.000000	0.001188
1527.000000	0.001165
1526.000000	0.001148
1525.000000	0.001144
1524.000000	0.001145
1523.000000	0.001127
1522.000000	0.001087
1521.000000	0.001055
1520.000000	0.001047
1519.000000	0.001038
1518.000000	0.001007
1517.000000	0.000956
1516.000000	0.000906
1515.000000	0.000867
1514.000000	0.000840
1513.000000	0.000828
1512.000000	0.000832
1511.000000	0.000841
1510.000000	0.000839
1509.000000	0.000823
1508.000000	0.000801
1507.000000	0.000793
1506.000000	0.000775
1505.000000	0.000722
1504.000000	0.000687
1503.000000	0.000696
1502.000000	0.000731
1501.000000	0.000761
1500.000000	0.000761
1499.000000	0.000724
1498.000000	0.000658
1497.000000	0.000584
1496.000000	0.000522
1495.000000	0.000476
1494.000000	0.000432
1493.000000	0.000382
1492.000000	0.000332
1491.000000	0.000298
1490.000000	0.000291
1489.000000	0.000298
1488.000000	0.000290
1487.000000	0.000267
1486.000000	0.000253
1485.000000	0.000256
1484.000000	0.000260
1483.000000	0.000255
1482.000000	0.000248
1481.000000	0.000256
1480.000000	0.000277
1479.000000	0.000297
1478.000000	0.000311
1477.000000	0.000333
1476.000000	0.000371
1475.000000	0.000410
1474.000000	0.000427
1473.000000	0.000423
1472.000000	0.000407
1471.000000	0.000380
1470.000000	0.000354
1469.000000	0.000356
1468.000000	0.000408
1467.000000	0.000522
1466.000000	0.000684
1465.000000	0.000846
1464.000000	0.000933
1463.000000	0.000918
1462.000000	0.000852
1461.000000	0.000799
1460.000000	0.000790
1459.000000	0.000810
1458.000000	0.000821
1457.000000	0.000797
1456.000000	0.000746
1455.000000	0.000688
1454.000000	0.000645
1453.000000	0.000630
1452.000000	0.000653
1451.000000	0.000704
1450.000000	0.000754
1449.000000	0.000779
1448.000000	0.000772
1447.000000	0.000746
1446.000000	0.000719
1445.000000	0.000705
1444.000000	0.000702
1443.000000	0.000702
1442.000000	0.000700
1441.000000	0.000704
1440.000000	0.000719
1439.000000	0.000737
1438.000000	0.000734
1437.000000	0.000705
1436.000000	0.000676
1435.000000	0.000666
1434.000000	0.000669
1433.000000	0.000673
1432.000000	0.000677
1431.000000	0.000674
1430.000000	0.000653
1429.000000	0.000605
1428.000000	0.000549
1427.000000	0.000520
1426.000000	0.000529
1425.000000	0.000556
1424.000000	0.000576
1423.000000	0.000575
1422.000000	0.000559
1421.000000	0.000533
1420.000000	0.000498
1419.000000	0.000476
1418.000000	0.000486
1417.000000	0.000514
1416.000000	0.000531
1415.000000	0.000525
1414.000000	0.000505
1413.000000	0.000489
1412.000000	0.000489
1411.000000	0.000503
1410.000000	0.000528
1409.000000	0.000563
1408.000000	0.000599
1407.000000	0.000617
1406.000000	0.000606
1405.000000	0.000586
1404.000000	0.000591
1403.000000	0.000623
1402.000000	0.000659
1401.000000	0.000684
1400.000000	0.000695
1399.000000	0.000697
1398.000000	0.000682
1397.000000	0.000646
1396.000000	0.000600
1395.000000	0.000570
1394.000000	0.000571
1393.000000	0.000595
1392.000000	0.000625
1391.000000	0.000649
1390.000000	0.000664
1389.000000	0.000679
1388.000000	0.000703
1387.000000	0.000726
1386.000000	0.000725
1385.000000	0.000690
1384.000000	0.000634
1383.000000	0.000577
1382.000000	0.000526
1381.000000	0.000480
1380.000000	0.000432
1379.000000	0.000384
1378.000000	0.000346
1377.000000	0.000330
1376.000000	0.000336
1375.000000	0.000353
1374.000000	0.000368
1373.000000	0.000372
1372.000000	0.000365
1371.000000	0.000361
1370.000000	0.000372
1369.000000	0.000401
1368.000000	0.000433
1367.000000	0.000447
1366.000000	0.000431
1365.000000	0.000392
1364.000000	0.000345
1363.000000	0.000303
1362.000000	0.000275
1361.000000	0.000263
1360.000000	0.000262
1359.000000	0.000265
1358.000000	0.000270
1357.000000	0.000278
1356.000000	0.000298
1355.000000	0.000325
1354.000000	0.000342
1353.000000	0.000335
1352.000000	0.000310
1351.000000	0.000296
1350.000000	0.000313
1349.000000	0.000359
1348.000000	0.000404
1347.000000	0.000424
1346.000000	0.000416
1345.000000	0.000397
1344.000000	0.000386
1343.000000	0.000384
1342.000000	0.000387
1341.000000	0.000389
1340.000000	0.000396
1339.000000	0.000411
1338.000000	0.000431
1337.000000	0.000443
1336.000000	0.000440
1335.000000	0.000422
1334.000000	0.000393
1333.000000	0.000359
1332.000000	0.000325
1331.000000	0.000293
1330.000000	0.000267
1329.000000	0.000252
1328.000000	0.000255
1327.000000	0.000277
1326.000000	0.000309
1325.000000	0.000334
1324.000000	0.000342
1323.000000	0.000338
1322.000000	0.000332
1321.000000	0.000327
1320.000000	0.000317
1319.000000	0.000293
1318.000000	0.000262
1317.000000	0.000233
1316.000000	0.000210
1315.000000	0.000187
1314.000000	0.000162
1313.000000	0.000145
1312.000000	0.000148
1311.000000	0.000172
1310.000000	0.000203
1309.000000	0.000220
1308.000000	0.000218
1307.000000	0.000211
1306.000000	0.000221
1305.000000	0.000251
1304.000000	0.000276
1303.000000	0.000270
1302.000000	0.000231
1301.000000	0.000185
1300.000000	0.000158
1299.000000	0.000149
1298.000000	0.000137
1297.000000	0.000107
1296.000000	0.000072
1295.000000	0.000054
1294.000000	0.000061
1293.000000	0.000071
1292.000000	0.000060
1291.000000	0.000027
1290.000000	0.000003
1289.000000	0.000016
1288.000000	0.000062
1287.000000	0.000109
1286.000000	0.000124
1285.000000	0.000106
1284.000000	0.000073
1283.000000	0.000046
1282.000000	0.000035
1281.000000	0.000043
1280.000000	0.000065
1279.000000	0.000086
1278.000000	0.000095
1277.000000	0.000092
1276.000000	0.000086
1275.000000	0.000088
1274.000000	0.000104
1273.000000	0.000131
1272.000000	0.000159
1271.000000	0.000170
1270.000000	0.000161
1269.000000	0.000143
1268.000000	0.000134
1267.000000	0.000135
1266.000000	0.000137
1265.000000	0.000138
1264.000000	0.000152
1263.000000	0.000184
1262.000000	0.000223
1261.000000	0.000257
1260.000000	0.000284
1259.000000	0.000306
1258.000000	0.000313
1257.000000	0.000300
1256.000000	0.000285
1255.000000	0.000293
1254.000000	0.000330
1253.000000	0.000372
1252.000000	0.000400
1251.000000	0.000417
1250.000000	0.000439
1249.000000	0.000474
1248.000000	0.000513
1247.000000	0.000540
1246.000000	0.000549
1245.000000	0.000543
1244.000000	0.000532
1243.000000	0.000533
1242.000000	0.000558
1241.000000	0.000608
1240.000000	0.000672
1239.000000	0.000735
1238.000000	0.000785
1237.000000	0.000817
1236.000000	0.000838
1235.000000	0.000859
1234.000000	0.000892
1233.000000	0.000936
1232.000000	0.000975
1231.000000	0.000986
1230.000000	0.000953
1229.000000	0.000881
1228.000000	0.000787
1227.000000	0.000702
1226.000000	0.000651
1225.000000	0.000642
1224.000000	0.000655
1223.000000	0.000658
1222.000000	0.000631
1221.000000	0.000579
1220.000000	0.000516
1219.000000	0.000455
1218.000000	0.000411
1217.000000	0.000403
1216.000000	0.000434
1215.000000	0.000475
1214.000000	0.000489
1213.000000	0.000467
1212.000000	0.000437
1211.000000	0.000434
1210.000000	0.000461
1209.000000	0.000488
1208.000000	0.000491
1207.000000	0.000467
1206.000000	0.000435
1205.000000	0.000418
1204.000000	0.000422
1203.000000	0.000441
1202.000000	0.000455
1201.000000	0.000452
1200.000000	0.000440
1199.000000	0.000440
1198.000000	0.000463
1197.000000	0.000496
1196.000000	0.000512
1195.000000	0.000493
1194.000000	0.000442
1193.000000	0.000382
1192.000000	0.000336
1191.000000	0.000317
1190.000000	0.000315
1189.000000	0.000308
1188.000000	0.000283
1187.000000	0.000247
1186.000000	0.000219
1185.000000	0.000214
1184.000000	0.000229
1183.000000	0.000251
1182.000000	0.000273
1181.000000	0.000292
1180.000000	0.000302
1179.000000	0.000296
1178.000000	0.000278
1177.000000	0.000265
1176.000000	0.000270
1175.000000	0.000290
1174.000000	0.000304
1173.000000	0.000302
1172.000000	0.000294
1171.000000	0.000301
1170.000000	0.000329
1169.000000	0.000371
1168.000000	0.000414
1167.000000	0.000447
1166.000000	0.000455
1165.000000	0.000431
1164.000000	0.000383
1163.000000	0.000337
1162.000000	0.000308
1161.000000	0.000289
1160.000000	0.000265
1159.000000	0.000240
1158.000000	0.000239
1157.000000	0.000271
1156.000000	0.000308
1155.000000	0.000312
1154.000000	0.000270
1153.000000	0.000201
1152.000000	0.000133
1151.000000	0.000085
1150.000000	0.000056
1149.000000	0.000033
1148.000000	0.000009
1147.000000	-0.000007
1146.000000	0.000005
1145.000000	0.000045
1144.000000	0.000082
1143.000000	0.000073
1142.000000	0.000006
1141.000000	-0.000088
1140.000000	-0.000160
1139.000000	-0.000190
1138.000000	-0.000187
1137.000000	-0.000179
1136.000000	-0.000184
1135.000000	-0.000203
1134.000000	-0.000221
1133.000000	-0.000222
1132.000000	-0.000203
1131.000000	-0.000169
1130.000000	-0.000137
1129.000000	-0.000118
1128.000000	-0.000123
1127.000000	-0.000151
1126.000000	-0.000187
1125.000000	-0.000211
1124.000000	-0.000219
1123.000000	-0.000220
1122.000000	-0.000230
1121.000000	-0.000251
1120.000000	-0.000273
1119.000000	-0.000276
1118.000000	-0.000245
1117.000000	-0.000185
1116.000000	-0.000125
1115.000000	-0.000095
1114.000000	-0.000094
1113.000000	-0.000097
1112.000000	-0.000089
1111.000000	-0.000082
1110.000000	-0.000093
1109.000000	-0.000109
1108.000000	-0.000107
1107.000000	-0.000090
1106.000000	-0.000080
1105.000000	-0.000088
1104.000000	-0.000103
1103.000000	-0.000114
1102.000000	-0.000123
1101.000000	-0.000132
1100.000000	-0.000127
1099.000000	-0.000094
1098.000000	-0.000039
1097.000000	0.000010
1096.000000	0.000031
1095.000000	0.000022
1094.000000	-0.000002
1093.000000	-0.000011
1092.000000	0.000012
1091.000000	0.000059
1090.000000	0.000094
1089.000000	0.000102
1088.000000	0.000095
1087.000000	0.000101
1086.000000	0.000127
1085.000000	0.000162
1084.000000	0.000201
1083.000000	0.000237
1082.000000	0.000249
1081.000000	0.000214
1080.000000	0.000159
1079.000000	0.000144
1078.000000	0.000197
1077.000000	0.000270
1076.000000	0.000290
1075.000000	0.000238
1074.000000	0.000165
1073.000000	0.000118
1072.000000	0.000098
1071.000000	0.000070
1070.000000	0.000019
1069.000000	-0.000033
1068.000000	-0.000051
1067.000000	-0.000020
1066.000000	0.000039
1065.000000	0.000085
1064.000000	0.000089
1063.000000	0.000062
1062.000000	0.000034
1061.000000	0.000025
1060.000000	0.000022
1059.000000	0.000011
1058.000000	-0.000009
1057.000000	-0.000027
1056.000000	-0.000041
1055.000000	-0.000051
1054.000000	-0.000044
1053.000000	-0.000012
1052.000000	0.000032
1051.000000	0.000060
1050.000000	0.000064
1049.000000	0.000055
1048.000000	0.000040
1047.000000	0.000009
1046.000000	-0.000043
1045.000000	-0.000098
1044.000000	-0.000128
1043.000000	-0.000113
1042.000000	-0.000060
1041.000000	0.000006
1040.000000	0.000058
1039.000000	0.000084
1038.000000	0.000095
1037.000000	0.000106
1036.000000	0.000120
1035.000000	0.000129
1034.000000	0.000132
1033.000000	0.000134
1032.000000	0.000134
1031.000000	0.000132
1030.000000	0.000135
1029.000000	0.000147
1028.000000	0.000153
1027.000000	0.000131
1026.000000	0.000095
1025.000000	0.000084
1024.000000	0.000116
1023.000000	0.000159
1022.000000	0.000165
1021.000000	0.000125
1020.000000	0.000071
1019.000000	0.000041
1018.000000	0.000050
1017.000000	0.000086
1016.000000	0.000115
1015.000000	0.000105
1014.000000	0.000045
1013.000000	-0.000042
1012.000000	-0.000122
1011.000000	-0.000172
1010.000000	-0.000191
1009.000000	-0.000195
1008.000000	-0.000199
1007.000000	-0.000204
1006.000000	-0.000200
1005.000000	-0.000195
1004.000000	-0.000237
1003.000000	-0.000372
1002.000000	-0.000559
1001.000000	-0.000680
1000.000000	-0.000643
999.000000	-0.000474
998.000000	-0.000288
997.000000	-0.000173
996.000000	-0.000142
995.000000	-0.000170
994.000000	-0.000227
993.000000	-0.000286
992.000000	-0.000315
991.000000	-0.000305
990.000000	-0.000279
989.000000	-0.000270
988.000000	-0.000290
987.000000	-0.000329
986.000000	-0.000360
985.000000	-0.000358
984.000000	-0.000312
983.000000	-0.000245
982.000000	-0.000203
981.000000	-0.000217
980.000000	-0.000268
979.000000	-0.000309
978.000000	-0.000309
977.000000	-0.000280
976.000000	-0.000264
975.000000	-0.000288
974.000000	-0.000342
973.000000	-0.000387
972.000000	-0.000393
971.000000	-0.000366
970.000000	-0.000325
969.000000	-0.000283
968.000000	-0.000250
967.000000	-0.000241
966.000000	-0.000267
965.000000	-0.000313
964.000000	-0.000359
963.000000	-0.000409
962.000000	-0.000485
961.000000	-0.000581
960.000000	-0.000642
959.000000	-0.000615
958.000000	-0.000506
957.000000	-0.000379
956.000000	-0.000299
955.000000	-0.000286
954.000000	-0.000316
953.000000	-0.000348
952.000000	-0.000346
951.000000	-0.000299
950.000000	-0.000232
949.000000	-0.000193
948.000000	-0.000218
947.000000	-0.000298
946.000000	-0.000381
945.000000	-0.000419
944.000000	-0.000402
943.000000	-0.000361
942.000000	-0.000335
941.000000	-0.000338
940.000000	-0.000359
939.000000	-0.000385
938.000000	-0.000409
937.000000	-0.000429
936.000000	-0.000447
935.000000	-0.000464
934.000000	-0.000481
933.000000	-0.000479
932.000000	-0.000443
931.000000	-0.000377
930.000000	-0.000308
929.000000	-0.000261
928.000000	-0.000243
927.000000	-0.000254
926.000000	-0.000292
925.000000	-0.000345
924.000000	-0.000390
923.000000	-0.000401
922.000000	-0.000380
921.000000	-0.000359
920.000000	-0.000366
919.000000	-0.000397
918.000000	-0.000417
917.000000	-0.000399
916.000000	-0.000350
915.000000	-0.000312
914.000000	-0.000311
913.000000	-0.000341
912.000000	-0.000379
911.000000	-0.000414
910.000000	-0.000448
909.000000	-0.000471
908.000000	-0.000464
907.000000	-0.000425
906.000000	-0.000371
905.000000	-0.000327
904.000000	-0.000312
903.000000	-0.000337
902.000000	-0.000399
901.000000	-0.000471
900.000000	-0.000517
899.000000	-0.000529
898.000000	-0.000531
897.000000	-0.000549
896.000000	-0.000576
895.000000	-0.000592
894.000000	-0.000589
893.000000	-0.000572
892.000000	-0.000546
891.000000	-0.000509
890.000000	-0.000474
889.000000	-0.000464
888.000000	-0.000485
887.000000	-0.000515
886.000000	-0.000509
885.000000	-0.000452
884.000000	-0.000380
883.000000	-0.000354
882.000000	-0.000398
881.000000	-0.000466
880.000000	-0.000484
879.000000	-0.000422
878.000000	-0.000315
877.000000	-0.000227
876.000000	-0.000199
875.000000	-0.000239
874.000000	-0.000321
873.000000	-0.000402
872.000000	-0.000446
871.000000	-0.000454
870.000000	-0.000456
869.000000	-0.000470
868.000000	-0.000490
867.000000	-0.000497
866.000000	-0.000488
865.000000	-0.000468
864.000000	-0.000445
863.000000	-0.000428
862.000000	-0.000435
861.000000	-0.000462
860.000000	-0.000482
859.000000	-0.000465
858.000000	-0.000413
857.000000	-0.000359
856.000000	-0.000339
855.000000	-0.000365
854.000000	-0.000416
853.000000	-0.000454
852.000000	-0.000453
851.000000	-0.000433
850.000000	-0.000432
849.000000	-0.000452
848.000000	-0.000463
847.000000	-0.000448
846.000000	-0.000437
845.000000	-0.000462
844.000000	-0.000512
843.000000	-0.000553
842.000000	-0.000576
841.000000	-0.000593
840.000000	-0.000591
839.000000	-0.000542
838.000000	-0.000454
837.000000	-0.000381
836.000000	-0.000358
835.000000	-0.000375
834.000000	-0.000409
833.000000	-0.000464
832.000000	-0.000546
831.000000	-0.000625
830.000000	-0.000658
829.000000	-0.000636
828.000000	-0.000589
827.000000	-0.000541
826.000000	-0.000489
825.000000	-0.000432
824.000000	-0.000393
823.000000	-0.000401
822.000000	-0.000454
821.000000	-0.000515
820.000000	-0.000547
819.000000	-0.000543
818.000000	-0.000525
817.000000	-0.000522
816.000000	-0.000540
815.000000	-0.000558
814.000000	-0.000554
813.000000	-0.000526
812.000000	-0.000502
811.000000	-0.000512
810.000000	-0.000551
809.000000	-0.000588
808.000000	-0.000597
807.000000	-0.000583
806.000000	-0.000559
805.000000	-0.000528
804.000000	-0.000492
803.000000	-0.000472
802.000000	-0.000491
801.000000	-0.000541
800.000000	-0.000578
799.000000	-0.000568
798.000000	-0.000517
797.000000	-0.000455
796.000000	-0.000419
795.000000	-0.000429
794.000000	-0.000478
793.000000	-0.000528
792.000000	-0.000532
791.000000	-0.000484
790.000000	-0.000416
789.000000	-0.000366
788.000000	-0.000353
787.000000	-0.000384
786.000000	-0.000452
785.000000	-0.000524
784.000000	-0.000544
783.000000	-0.000500
782.000000	-0.000436
781.000000	-0.000409
780.000000	-0.000424
779.000000	-0.000449
778.000000	-0.000460
777.000000	-0.000461
776.000000	-0.000454
775.000000	-0.000429
774.000000	-0.000379
773.000000	-0.000310
772.000000	-0.000241
771.000000	-0.000205
770.000000	-0.000248
769.000000	-0.000378
768.000000	-0.000531
767.000000	-0.000624
766.000000	-0.000636
765.000000	-0.000621
764.000000	-0.000618
763.000000	-0.000606
762.000000	-0.000545
761.000000	-0.000452
760.000000	-0.000383
759.000000	-0.000371
758.000000	-0.000397
757.000000	-0.000423
756.000000	-0.000425
755.000000	-0.000401
754.000000	-0.000371
753.000000	-0.000367
752.000000	-0.000403
751.000000	-0.000458
750.000000	-0.000495
749.000000	-0.000504
748.000000	-0.000501
747.000000	-0.000499
746.000000	-0.000481
745.000000	-0.000433
744.000000	-0.000372
743.000000	-0.000346
742.000000	-0.000383
741.000000	-0.000470
740.000000	-0.000560
739.000000	-0.000611
738.000000	-0.000614
737.000000	-0.000598
736.000000	-0.000598
735.000000	-0.000616
734.000000	-0.000604
733.000000	-0.000503
732.000000	-0.000319
731.000000	-0.000154
730.000000	-0.000122
729.000000	-0.000230
728.000000	-0.000374
727.000000	-0.000454
726.000000	-0.000466
725.000000	-0.000463
724.000000	-0.000475
723.000000	-0.000486
722.000000	-0.000479
721.000000	-0.000459
720.000000	-0.000443
719.000000	-0.000444
718.000000	-0.000463
717.000000	-0.000487
716.000000	-0.000478
715.000000	-0.000414
714.000000	-0.000324
713.000000	-0.000263
712.000000	-0.000251
711.000000	-0.000256
710.000000	-0.000246
709.000000	-0.000211
708.000000	-0.000163
707.000000	-0.000124
706.000000	-0.000134
705.000000	-0.000213
704.000000	-0.000322
703.000000	-0.000392
702.000000	-0.000405
701.000000	-0.000408
700.000000	-0.000425
699.000000	-0.000416
698.000000	-0.000352
697.000000	-0.000277
696.000000	-0.000263
695.000000	-0.000309
694.000000	-0.000342
693.000000	-0.000314
692.000000	-0.000236
691.000000	-0.000153
690.000000	-0.000097
689.000000	-0.000084
688.000000	-0.000118
687.000000	-0.000167
686.000000	-0.000186
685.000000	-0.000151
684.000000	-0.000068
683.000000	0.000032
682.000000	0.000101
681.000000	0.000091
680.000000	-0.000014
679.000000	-0.000173
678.000000	-0.000318
677.000000	-0.000383
676.000000	-0.000346
675.000000	-0.000255
674.000000	-0.000204
673.000000	-0.000267
672.000000	-0.000440
671.000000	-0.000680
670.000000	-0.000952
669.000000	-0.001195
668.000000	-0.001206
667.000000	-0.000842
666.000000	-0.000474
665.000000	-0.000257
664.000000	-0.000092
663.000000	0.000063
662.000000	0.000168
661.000000	0.000160
660.000000	0.000041
659.000000	-0.000124
658.000000	-0.000264
657.000000	-0.000353
656.000000	-0.000398
655.000000	-0.000400
654.000000	-0.000346
653.000000	-0.000241
652.000000	-0.000139
651.000000	-0.000084
650.000000	-0.000068
649.000000	-0.000066
648.000000	-0.000089
647.000000	-0.000145
646.000000	-0.000178
645.000000	-0.000126
644.000000	-0.000019
643.000000	0.000041
642.000000	-0.000013
641.000000	-0.000157
640.000000	-0.000330
639.000000	-0.000470
638.000000	-0.000525
637.000000	-0.000474
636.000000	-0.000363
635.000000	-0.000273
634.000000	-0.000234
633.000000	-0.000212
632.000000	-0.000168
631.000000	-0.000108
630.000000	-0.000052
629.000000	-0.000005
628.000000	0.000039
627.000000	0.000084
626.000000	0.000132
625.000000	0.000162
624.000000	0.000122
623.000000	-0.000008
622.000000	-0.000165
621.000000	-0.000257
620.000000	-0.000273
619.000000	-0.000300
618.000000	-0.000420
617.000000	-0.000618
616.000000	-0.000804
615.000000	-0.000888
614.000000	-0.000827
613.000000	-0.000632
612.000000	-0.000366
611.000000	-0.000126
610.000000	0.000008
609.000000	0.000004
608.000000	-0.000126
607.000000	-0.000324
606.000000	-0.000493
605.000000	-0.000556
604.000000	-0.000518
603.000000	-0.000455
602.000000	-0.000435
601.000000	-0.000465
600.000000	-0.000511
599.000000	-0.000542
598.000000	-0.000535
597.000000	-0.000489
596.000000	-0.000423
595.000000	-0.000362
594.000000	-0.000317
593.000000	-0.000274
592.000000	-0.000228
591.000000	-0.000189
590.000000	-0.000180
589.000000	-0.000222
588.000000	-0.000316
587.000000	-0.000417
586.000000	-0.000464
585.000000	-0.000454
584.000000	-0.000447
583.000000	-0.000464
582.000000	-0.000429
581.000000	-0.000285
580.000000	-0.000130
579.000000	-0.000147
578.000000	-0.000387
577.000000	-0.000692
576.000000	-0.000851
575.000000	-0.000777
574.000000	-0.000538
573.000000	-0.000269
572.000000	-0.000100
571.000000	-0.000116
570.000000	-0.000297
569.000000	-0.000524
568.000000	-0.000685
567.000000	-0.000741
566.000000	-0.000698
565.000000	-0.000566
564.000000	-0.000385
563.000000	-0.000254
562.000000	-0.000253
561.000000	-0.000362
560.000000	-0.000476
559.000000	-0.000497
558.000000	-0.000396
557.000000	-0.000206
556.000000	-0.000003
555.000000	0.000131
554.000000	0.000167
553.000000	0.000137
552.000000	0.000073
551.000000	-0.000029
550.000000	-0.000169
549.000000	-0.000314
548.000000	-0.000430
547.000000	-0.000501
546.000000	-0.000523
545.000000	-0.000492
544.000000	-0.000433
543.000000	-0.000381
542.000000	-0.000314
541.000000	-0.000161
540.000000	0.000078
539.000000	0.000268
538.000000	0.000259
537.000000	0.000054
536.000000	-0.000200
535.000000	-0.000353
534.000000	-0.000356
533.000000	-0.000237
532.000000	-0.000064
531.000000	0.000076
530.000000	0.000133
529.000000	0.000139
528.000000	0.000140
527.000000	0.000108
526.000000	-0.000032
525.000000	-0.000241
524.000000	-0.000359
523.000000	-0.000291
522.000000	-0.000139
521.000000	-0.000100
520.000000	-0.000265
519.000000	-0.000539
518.000000	-0.000742
517.000000	-0.000769
516.000000	-0.000640
515.000000	-0.000447
514.000000	-0.000289
513.000000	-0.000225
512.000000	-0.000243
511.000000	-0.000269
510.000000	-0.000239
509.000000	-0.000169
508.000000	-0.000144
507.000000	-0.000211
506.000000	-0.000309
505.000000	-0.000331
504.000000	-0.000228
503.000000	-0.000065
502.000000	0.000021
501.000000	-0.000071
500.000000	-0.000293
499.000000	-0.000472
498.000000	-0.000477
497.000000	-0.000348
496.000000	-0.000255
495.000000	-0.000321
494.000000	-0.000531
493.000000	-0.000809
492.000000	-0.001091
491.000000	-0.001274
490.000000	-0.001220
489.000000	-0.000904
488.000000	-0.000494
487.000000	-0.000189
486.000000	-0.000036
485.000000	0.000028
484.000000	0.000011
483.000000	-0.000117
482.000000	-0.000283
481.000000	-0.000362
480.000000	-0.000368
479.000000	-0.000424
478.000000	-0.000539
477.000000	-0.000559
476.000000	-0.000394
475.000000	-0.000167
474.000000	-0.000086
473.000000	-0.000258
472.000000	-0.000628
471.000000	-0.001011
470.000000	-0.001189
469.000000	-0.001081
468.000000	-0.000847
467.000000	-0.000804
466.000000	-0.001107
465.000000	-0.001581
464.000000	-0.001972
463.000000	-0.002195
462.000000	-0.002267
461.000000	-0.002186
460.000000	-0.001950
459.000000	-0.001892
458.000000	-0.001676
457.000000	-0.001397
456.000000	-0.001001
455.000000	-0.000567
454.000000	-0.000231
453.000000	-0.000102
452.000000	-0.000263
451.000000	-0.000704
450.000000	-0.001205
