PE IR       SUBTECH     SPECTRUM    ASCII       PEDS        4.00        
   -1
Vierge014_1.ASC
23/07/04
15:09:54.00
23/07/04
15:15:40.00
uco
Sample 014 By uco Date Tuesday, July 04 2023
450.000000
#HDR
-1
-1
#GR
cm-1
A
1.0
0.0
4000.000000
-1.000000
3551
8
0.001782
-0.004131
#DATA
4000.000000	-0.000605
3999.000000	-0.000580
3998.000000	-0.000568
3997.000000	-0.000568
3996.000000	-0.000576
3995.000000	-0.000584
3994.000000	-0.000583
3993.000000	-0.000569
3992.000000	-0.000545
3991.000000	-0.000520
3990.000000	-0.000500
3989.000000	-0.000493
3988.000000	-0.000497
3987.000000	-0.000505
3986.000000	-0.000509
3985.000000	-0.000506
3984.000000	-0.000499
3983.000000	-0.000492
3982.000000	-0.000484
3981.000000	-0.000475
3980.000000	-0.000463
3979.000000	-0.000451
3978.000000	-0.000441
3977.000000	-0.000435
3976.000000	-0.000436
3975.000000	-0.000447
3974.000000	-0.000470
3973.000000	-0.000497
3972.000000	-0.000518
3971.000000	-0.000521
3970.000000	-0.000499
3969.000000	-0.000453
3968.000000	-0.000389
3967.000000	-0.000320
3966.000000	-0.000261
3965.000000	-0.000224
3964.000000	-0.000216
3963.000000	-0.000238
3962.000000	-0.000282
3961.000000	-0.000337
3960.000000	-0.000389
3959.000000	-0.000430
3958.000000	-0.000454
3957.000000	-0.000467
3956.000000	-0.000474
3955.000000	-0.000477
3954.000000	-0.000474
3953.000000	-0.000468
3952.000000	-0.000469
3951.000000	-0.000485
3950.000000	-0.000512
3949.000000	-0.000532
3948.000000	-0.000534
3947.000000	-0.000521
3946.000000	-0.000506
3945.000000	-0.000498
3944.000000	-0.000497
3943.000000	-0.000501
3942.000000	-0.000509
3941.000000	-0.000521
3940.000000	-0.000529
3939.000000	-0.000522
3938.000000	-0.000491
3937.000000	-0.000442
3936.000000	-0.000395
3935.000000	-0.000371
3934.000000	-0.000383
3933.000000	-0.000428
3932.000000	-0.000489
3931.000000	-0.000540
3930.000000	-0.000561
3929.000000	-0.000546
3928.000000	-0.000505
3927.000000	-0.000456
3926.000000	-0.000416
3925.000000	-0.000396
3924.000000	-0.000401
3923.000000	-0.000429
3922.000000	-0.000470
3921.000000	-0.000511
3920.000000	-0.000538
3919.000000	-0.000548
3918.000000	-0.000543
3917.000000	-0.000527
3916.000000	-0.000506
3915.000000	-0.000484
3914.000000	-0.000466
3913.000000	-0.000454
3912.000000	-0.000449
3911.000000	-0.000449
3910.000000	-0.000452
3909.000000	-0.000452
3908.000000	-0.000450
3907.000000	-0.000452
3906.000000	-0.000466
3905.000000	-0.000494
3904.000000	-0.000524
3903.000000	-0.000543
3902.000000	-0.000542
3901.000000	-0.000523
3900.000000	-0.000497
3899.000000	-0.000475
3898.000000	-0.000462
3897.000000	-0.000457
3896.000000	-0.000455
3895.000000	-0.000455
3894.000000	-0.000463
3893.000000	-0.000484
3892.000000	-0.000509
3891.000000	-0.000522
3890.000000	-0.000516
3889.000000	-0.000507
3888.000000	-0.000510
3887.000000	-0.000521
3886.000000	-0.000526
3885.000000	-0.000517
3884.000000	-0.000502
3883.000000	-0.000491
3882.000000	-0.000479
3881.000000	-0.000461
3880.000000	-0.000439
3879.000000	-0.000423
3878.000000	-0.000426
3877.000000	-0.000447
3876.000000	-0.000475
3875.000000	-0.000495
3874.000000	-0.000500
3873.000000	-0.000499
3872.000000	-0.000503
3871.000000	-0.000508
3870.000000	-0.000500
3869.000000	-0.000476
3868.000000	-0.000447
3867.000000	-0.000425
3866.000000	-0.000406
3865.000000	-0.000384
3864.000000	-0.000368
3863.000000	-0.000373
3862.000000	-0.000394
3861.000000	-0.000415
3860.000000	-0.000426
3859.000000	-0.000427
3858.000000	-0.000425
3857.000000	-0.000424
3856.000000	-0.000424
3855.000000	-0.000425
3854.000000	-0.000441
3853.000000	-0.000487
3852.000000	-0.000538
3851.000000	-0.000572
3850.000000	-0.000584
3849.000000	-0.000573
3848.000000	-0.000541
3847.000000	-0.000500
3846.000000	-0.000466
3845.000000	-0.000448
3844.000000	-0.000438
3843.000000	-0.000416
3842.000000	-0.000376
3841.000000	-0.000329
3840.000000	-0.000296
3839.000000	-0.000287
3838.000000	-0.000296
3837.000000	-0.000310
3836.000000	-0.000319
3835.000000	-0.000327
3834.000000	-0.000338
3833.000000	-0.000357
3832.000000	-0.000380
3831.000000	-0.000398
3830.000000	-0.000399
3829.000000	-0.000380
3828.000000	-0.000352
3827.000000	-0.000330
3826.000000	-0.000319
3825.000000	-0.000315
3824.000000	-0.000309
3823.000000	-0.000296
3822.000000	-0.000285
3821.000000	-0.000285
3820.000000	-0.000289
3819.000000	-0.000287
3818.000000	-0.000279
3817.000000	-0.000271
3816.000000	-0.000267
3815.000000	-0.000270
3814.000000	-0.000281
3813.000000	-0.000295
3812.000000	-0.000310
3811.000000	-0.000328
3810.000000	-0.000353
3809.000000	-0.000385
3808.000000	-0.000410
3807.000000	-0.000408
3806.000000	-0.000375
3805.000000	-0.000333
3804.000000	-0.000312
3803.000000	-0.000322
3802.000000	-0.000356
3801.000000	-0.000395
3800.000000	-0.000423
3799.000000	-0.000436
3798.000000	-0.000441
3797.000000	-0.000441
3796.000000	-0.000439
3795.000000	-0.000442
3794.000000	-0.000451
3793.000000	-0.000461
3792.000000	-0.000463
3791.000000	-0.000458
3790.000000	-0.000454
3789.000000	-0.000459
3788.000000	-0.000467
3787.000000	-0.000467
3786.000000	-0.000457
3785.000000	-0.000447
3784.000000	-0.000447
3783.000000	-0.000458
3782.000000	-0.000466
3781.000000	-0.000458
3780.000000	-0.000437
3779.000000	-0.000417
3778.000000	-0.000406
3777.000000	-0.000399
3776.000000	-0.000388
3775.000000	-0.000370
3774.000000	-0.000354
3773.000000	-0.000353
3772.000000	-0.000374
3771.000000	-0.000409
3770.000000	-0.000441
3769.000000	-0.000462
3768.000000	-0.000477
3767.000000	-0.000497
3766.000000	-0.000523
3765.000000	-0.000548
3764.000000	-0.000564
3763.000000	-0.000573
3762.000000	-0.000572
3761.000000	-0.000556
3760.000000	-0.000529
3759.000000	-0.000505
3758.000000	-0.000496
3757.000000	-0.000501
3756.000000	-0.000513
3755.000000	-0.000522
3754.000000	-0.000515
3753.000000	-0.000481
3752.000000	-0.000424
3751.000000	-0.000372
3750.000000	-0.000343
3749.000000	-0.000332
3748.000000	-0.000332
3747.000000	-0.000346
3746.000000	-0.000374
3745.000000	-0.000410
3744.000000	-0.000458
3743.000000	-0.000518
3742.000000	-0.000577
3741.000000	-0.000619
3740.000000	-0.000635
3739.000000	-0.000626
3738.000000	-0.000598
3737.000000	-0.000543
3736.000000	-0.000463
3735.000000	-0.000393
3734.000000	-0.000379
3733.000000	-0.000419
3732.000000	-0.000470
3731.000000	-0.000498
3730.000000	-0.000510
3729.000000	-0.000532
3728.000000	-0.000575
3727.000000	-0.000623
3726.000000	-0.000645
3725.000000	-0.000628
3724.000000	-0.000580
3723.000000	-0.000528
3722.000000	-0.000495
3721.000000	-0.000484
3720.000000	-0.000480
3719.000000	-0.000467
3718.000000	-0.000444
3717.000000	-0.000423
3716.000000	-0.000418
3715.000000	-0.000432
3714.000000	-0.000452
3713.000000	-0.000452
3712.000000	-0.000423
3711.000000	-0.000387
3710.000000	-0.000371
3709.000000	-0.000389
3708.000000	-0.000429
3707.000000	-0.000474
3706.000000	-0.000514
3705.000000	-0.000547
3704.000000	-0.000572
3703.000000	-0.000592
3702.000000	-0.000609
3701.000000	-0.000623
3700.000000	-0.000622
3699.000000	-0.000595
3698.000000	-0.000545
3697.000000	-0.000489
3696.000000	-0.000445
3695.000000	-0.000419
3694.000000	-0.000401
3693.000000	-0.000378
3692.000000	-0.000352
3691.000000	-0.000346
3690.000000	-0.000377
3689.000000	-0.000432
3688.000000	-0.000476
3687.000000	-0.000488
3686.000000	-0.000481
3685.000000	-0.000470
3684.000000	-0.000463
3683.000000	-0.000458
3682.000000	-0.000456
3681.000000	-0.000462
3680.000000	-0.000480
3679.000000	-0.000505
3678.000000	-0.000530
3677.000000	-0.000540
3676.000000	-0.000525
3675.000000	-0.000495
3674.000000	-0.000479
3673.000000	-0.000497
3672.000000	-0.000543
3671.000000	-0.000580
3670.000000	-0.000576
3669.000000	-0.000535
3668.000000	-0.000493
3667.000000	-0.000477
3666.000000	-0.000484
3665.000000	-0.000493
3664.000000	-0.000491
3663.000000	-0.000479
3662.000000	-0.000470
3661.000000	-0.000471
3660.000000	-0.000479
3659.000000	-0.000484
3658.000000	-0.000475
3657.000000	-0.000447
3656.000000	-0.000408
3655.000000	-0.000379
3654.000000	-0.000369
3653.000000	-0.000374
3652.000000	-0.000375
3651.000000	-0.000364
3650.000000	-0.000361
3649.000000	-0.000388
3648.000000	-0.000432
3647.000000	-0.000464
3646.000000	-0.000480
3645.000000	-0.000496
3644.000000	-0.000522
3643.000000	-0.000554
3642.000000	-0.000574
3641.000000	-0.000572
3640.000000	-0.000557
3639.000000	-0.000552
3638.000000	-0.000570
3637.000000	-0.000604
3636.000000	-0.000633
3635.000000	-0.000638
3634.000000	-0.000613
3633.000000	-0.000571
3632.000000	-0.000537
3631.000000	-0.000531
3630.000000	-0.000561
3629.000000	-0.000612
3628.000000	-0.000645
3627.000000	-0.000635
3626.000000	-0.000596
3625.000000	-0.000548
3624.000000	-0.000505
3623.000000	-0.000474
3622.000000	-0.000458
3621.000000	-0.000458
3620.000000	-0.000475
3619.000000	-0.000515
3618.000000	-0.000564
3617.000000	-0.000598
3616.000000	-0.000595
3615.000000	-0.000559
3614.000000	-0.000514
3613.000000	-0.000489
3612.000000	-0.000493
3611.000000	-0.000513
3610.000000	-0.000524
3609.000000	-0.000515
3608.000000	-0.000492
3607.000000	-0.000470
3606.000000	-0.000458
3605.000000	-0.000455
3604.000000	-0.000453
3603.000000	-0.000446
3602.000000	-0.000432
3601.000000	-0.000415
3600.000000	-0.000397
3599.000000	-0.000385
3598.000000	-0.000388
3597.000000	-0.000408
3596.000000	-0.000444
3595.000000	-0.000484
3594.000000	-0.000514
3593.000000	-0.000523
3592.000000	-0.000502
3591.000000	-0.000452
3590.000000	-0.000387
3589.000000	-0.000339
3588.000000	-0.000339
3587.000000	-0.000379
3586.000000	-0.000411
3585.000000	-0.000400
3584.000000	-0.000351
3583.000000	-0.000297
3582.000000	-0.000267
3581.000000	-0.000273
3580.000000	-0.000302
3579.000000	-0.000329
3578.000000	-0.000334
3577.000000	-0.000318
3576.000000	-0.000300
3575.000000	-0.000303
3574.000000	-0.000330
3573.000000	-0.000368
3572.000000	-0.000396
3571.000000	-0.000406
3570.000000	-0.000400
3569.000000	-0.000387
3568.000000	-0.000375
3567.000000	-0.000366
3566.000000	-0.000357
3565.000000	-0.000349
3564.000000	-0.000352
3563.000000	-0.000371
3562.000000	-0.000402
3561.000000	-0.000427
3560.000000	-0.000427
3559.000000	-0.000402
3558.000000	-0.000367
3557.000000	-0.000343
3556.000000	-0.000331
3555.000000	-0.000319
3554.000000	-0.000296
3553.000000	-0.000268
3552.000000	-0.000249
3551.000000	-0.000247
3550.000000	-0.000260
3549.000000	-0.000280
3548.000000	-0.000300
3547.000000	-0.000311
3546.000000	-0.000304
3545.000000	-0.000272
3544.000000	-0.000219
3543.000000	-0.000158
3542.000000	-0.000113
3541.000000	-0.000109
3540.000000	-0.000158
3539.000000	-0.000251
3538.000000	-0.000349
3537.000000	-0.000415
3536.000000	-0.000438
3535.000000	-0.000432
3534.000000	-0.000418
3533.000000	-0.000400
3532.000000	-0.000374
3531.000000	-0.000339
3530.000000	-0.000307
3529.000000	-0.000293
3528.000000	-0.000303
3527.000000	-0.000329
3526.000000	-0.000354
3525.000000	-0.000364
3524.000000	-0.000359
3523.000000	-0.000346
3522.000000	-0.000330
3521.000000	-0.000311
3520.000000	-0.000289
3519.000000	-0.000269
3518.000000	-0.000262
3517.000000	-0.000273
3516.000000	-0.000293
3515.000000	-0.000312
3514.000000	-0.000319
3513.000000	-0.000313
3512.000000	-0.000296
3511.000000	-0.000275
3510.000000	-0.000260
3509.000000	-0.000255
3508.000000	-0.000262
3507.000000	-0.000280
3506.000000	-0.000312
3505.000000	-0.000356
3504.000000	-0.000397
3503.000000	-0.000414
3502.000000	-0.000398
3501.000000	-0.000362
3500.000000	-0.000326
3499.000000	-0.000301
3498.000000	-0.000284
3497.000000	-0.000272
3496.000000	-0.000270
3495.000000	-0.000282
3494.000000	-0.000301
3493.000000	-0.000310
3492.000000	-0.000302
3491.000000	-0.000284
3490.000000	-0.000270
3489.000000	-0.000264
3488.000000	-0.000258
3487.000000	-0.000248
3486.000000	-0.000237
3485.000000	-0.000230
3484.000000	-0.000225
3483.000000	-0.000216
3482.000000	-0.000207
3481.000000	-0.000207
3480.000000	-0.000222
3479.000000	-0.000242
3478.000000	-0.000254
3477.000000	-0.000253
3476.000000	-0.000246
3475.000000	-0.000245
3474.000000	-0.000260
3473.000000	-0.000288
3472.000000	-0.000315
3471.000000	-0.000328
3470.000000	-0.000325
3469.000000	-0.000309
3468.000000	-0.000289
3467.000000	-0.000272
3466.000000	-0.000263
3465.000000	-0.000266
3464.000000	-0.000272
3463.000000	-0.000264
3462.000000	-0.000235
3461.000000	-0.000197
3460.000000	-0.000172
3459.000000	-0.000171
3458.000000	-0.000187
3457.000000	-0.000200
3456.000000	-0.000199
3455.000000	-0.000182
3454.000000	-0.000162
3453.000000	-0.000155
3452.000000	-0.000161
3451.000000	-0.000173
3450.000000	-0.000177
3449.000000	-0.000176
3448.000000	-0.000183
3447.000000	-0.000203
3446.000000	-0.000225
3445.000000	-0.000233
3444.000000	-0.000218
3443.000000	-0.000184
3442.000000	-0.000144
3441.000000	-0.000114
3440.000000	-0.000106
3439.000000	-0.000116
3438.000000	-0.000134
3437.000000	-0.000151
3436.000000	-0.000165
3435.000000	-0.000184
3434.000000	-0.000207
3433.000000	-0.000225
3432.000000	-0.000223
3431.000000	-0.000204
3430.000000	-0.000186
3429.000000	-0.000194
3428.000000	-0.000232
3427.000000	-0.000279
3426.000000	-0.000304
3425.000000	-0.000293
3424.000000	-0.000256
3423.000000	-0.000214
3422.000000	-0.000178
3421.000000	-0.000149
3420.000000	-0.000131
3419.000000	-0.000129
3418.000000	-0.000142
3417.000000	-0.000158
3416.000000	-0.000166
3415.000000	-0.000163
3414.000000	-0.000153
3413.000000	-0.000136
3412.000000	-0.000112
3411.000000	-0.000082
3410.000000	-0.000057
3409.000000	-0.000049
3408.000000	-0.000065
3407.000000	-0.000099
3406.000000	-0.000136
3405.000000	-0.000164
3404.000000	-0.000177
3403.000000	-0.000178
3402.000000	-0.000172
3401.000000	-0.000162
3400.000000	-0.000146
3399.000000	-0.000119
3398.000000	-0.000085
3397.000000	-0.000057
3396.000000	-0.000048
3395.000000	-0.000060
3394.000000	-0.000076
3393.000000	-0.000078
3392.000000	-0.000065
3391.000000	-0.000047
3390.000000	-0.000036
3389.000000	-0.000036
3388.000000	-0.000043
3387.000000	-0.000053
3386.000000	-0.000062
3385.000000	-0.000068
3384.000000	-0.000066
3383.000000	-0.000053
3382.000000	-0.000034
3381.000000	-0.000020
3380.000000	-0.000024
3379.000000	-0.000053
3378.000000	-0.000099
3377.000000	-0.000142
3376.000000	-0.000165
3375.000000	-0.000167
3374.000000	-0.000158
3373.000000	-0.000150
3372.000000	-0.000144
3371.000000	-0.000135
3370.000000	-0.000118
3369.000000	-0.000094
3368.000000	-0.000071
3367.000000	-0.000053
3366.000000	-0.000037
3365.000000	-0.000016
3364.000000	0.000013
3363.000000	0.000041
3362.000000	0.000051
3361.000000	0.000036
3360.000000	0.000006
3359.000000	-0.000022
3358.000000	-0.000034
3357.000000	-0.000033
3356.000000	-0.000036
3355.000000	-0.000060
3354.000000	-0.000101
3353.000000	-0.000136
3352.000000	-0.000135
3351.000000	-0.000092
3350.000000	-0.000030
3349.000000	0.000018
3348.000000	0.000031
3347.000000	0.000018
3346.000000	0.000003
3345.000000	0.000003
3344.000000	0.000018
3343.000000	0.000037
3342.000000	0.000048
3341.000000	0.000048
3340.000000	0.000036
3339.000000	0.000021
3338.000000	0.000010
3337.000000	0.000011
3336.000000	0.000019
3335.000000	0.000026
3334.000000	0.000027
3333.000000	0.000024
3332.000000	0.000020
3331.000000	0.000014
3330.000000	0.000012
3329.000000	0.000018
3328.000000	0.000032
3327.000000	0.000045
3326.000000	0.000049
3325.000000	0.000043
3324.000000	0.000039
3323.000000	0.000043
3322.000000	0.000050
3321.000000	0.000048
3320.000000	0.000033
3319.000000	0.000016
3318.000000	0.000014
3317.000000	0.000030
3316.000000	0.000046
3315.000000	0.000035
3314.000000	-0.000014
3313.000000	-0.000082
3312.000000	-0.000132
3311.000000	-0.000139
3310.000000	-0.000101
3309.000000	-0.000042
3308.000000	0.000010
3307.000000	0.000037
3306.000000	0.000041
3305.000000	0.000034
3304.000000	0.000027
3303.000000	0.000023
3302.000000	0.000021
3301.000000	0.000019
3300.000000	0.000021
3299.000000	0.000028
3298.000000	0.000038
3297.000000	0.000046
3296.000000	0.000052
3295.000000	0.000055
3294.000000	0.000059
3293.000000	0.000069
3292.000000	0.000085
3291.000000	0.000098
3290.000000	0.000097
3289.000000	0.000082
3288.000000	0.000061
3287.000000	0.000046
3286.000000	0.000043
3285.000000	0.000049
3284.000000	0.000060
3283.000000	0.000071
3282.000000	0.000077
3281.000000	0.000076
3280.000000	0.000067
3279.000000	0.000049
3278.000000	0.000026
3277.000000	0.000009
3276.000000	0.000008
3275.000000	0.000020
3274.000000	0.000032
3273.000000	0.000038
3272.000000	0.000042
3271.000000	0.000055
3270.000000	0.000072
3269.000000	0.000085
3268.000000	0.000086
3267.000000	0.000081
3266.000000	0.000073
3265.000000	0.000060
3264.000000	0.000045
3263.000000	0.000040
3262.000000	0.000053
3261.000000	0.000081
3260.000000	0.000107
3259.000000	0.000118
3258.000000	0.000116
3257.000000	0.000110
3256.000000	0.000105
3255.000000	0.000101
3254.000000	0.000096
3253.000000	0.000091
3252.000000	0.000088
3251.000000	0.000082
3250.000000	0.000071
3249.000000	0.000056
3248.000000	0.000042
3247.000000	0.000036
3246.000000	0.000038
3245.000000	0.000050
3244.000000	0.000074
3243.000000	0.000108
3242.000000	0.000137
3241.000000	0.000144
3240.000000	0.000121
3239.000000	0.000074
3238.000000	0.000016
3237.000000	-0.000044
3236.000000	-0.000098
3235.000000	-0.000134
3234.000000	-0.000137
3233.000000	-0.000101
3232.000000	-0.000041
3231.000000	0.000024
3230.000000	0.000080
3229.000000	0.000118
3228.000000	0.000132
3227.000000	0.000120
3226.000000	0.000090
3225.000000	0.000056
3224.000000	0.000026
3223.000000	0.000003
3222.000000	-0.000007
3221.000000	0.000010
3220.000000	0.000058
3219.000000	0.000114
3218.000000	0.000144
3217.000000	0.000128
3216.000000	0.000085
3215.000000	0.000053
3214.000000	0.000053
3213.000000	0.000073
3212.000000	0.000083
3211.000000	0.000066
3210.000000	0.000033
3209.000000	0.000010
3208.000000	0.000007
3207.000000	0.000016
3206.000000	0.000022
3205.000000	0.000017
3204.000000	0.000005
3203.000000	-0.000008
3202.000000	-0.000014
3201.000000	-0.000015
3200.000000	-0.000008
3199.000000	0.000007
3198.000000	0.000033
3197.000000	0.000063
3196.000000	0.000077
3195.000000	0.000060
3194.000000	0.000013
3193.000000	-0.000037
3192.000000	-0.000056
3191.000000	-0.000036
3190.000000	0.000006
3189.000000	0.000040
3188.000000	0.000049
3187.000000	0.000035
3186.000000	0.000012
3185.000000	-0.000002
3184.000000	0.000005
3183.000000	0.000032
3182.000000	0.000069
3181.000000	0.000096
3180.000000	0.000097
3179.000000	0.000067
3178.000000	0.000020
3177.000000	-0.000022
3176.000000	-0.000044
3175.000000	-0.000046
3174.000000	-0.000035
3173.000000	-0.000021
3172.000000	-0.000012
3171.000000	-0.000014
3170.000000	-0.000027
3169.000000	-0.000030
3168.000000	-0.000004
3167.000000	0.000049
3166.000000	0.000099
3165.000000	0.000110
3164.000000	0.000068
3163.000000	-0.000006
3162.000000	-0.000073
3161.000000	-0.000102
3160.000000	-0.000095
3159.000000	-0.000073
3158.000000	-0.000062
3157.000000	-0.000064
3156.000000	-0.000070
3155.000000	-0.000073
3154.000000	-0.000073
3153.000000	-0.000070
3152.000000	-0.000062
3151.000000	-0.000056
3150.000000	-0.000061
3149.000000	-0.000080
3148.000000	-0.000099
3147.000000	-0.000100
3146.000000	-0.000077
3145.000000	-0.000038
3144.000000	0.000006
3143.000000	0.000048
3142.000000	0.000082
3141.000000	0.000100
3140.000000	0.000102
3139.000000	0.000090
3138.000000	0.000069
3137.000000	0.000040
3136.000000	0.000010
3135.000000	-0.000012
3134.000000	-0.000025
3133.000000	-0.000035
3132.000000	-0.000047
3131.000000	-0.000062
3130.000000	-0.000069
3129.000000	-0.000060
3128.000000	-0.000036
3127.000000	-0.000010
3126.000000	0.000004
3125.000000	0.000004
3124.000000	0.000002
3123.000000	0.000004
3122.000000	-0.000001
3121.000000	-0.000028
3120.000000	-0.000072
3119.000000	-0.000102
3118.000000	-0.000089
3117.000000	-0.000041
3116.000000	0.000005
3115.000000	0.000020
3114.000000	0.000001
3113.000000	-0.000029
3112.000000	-0.000050
3111.000000	-0.000051
3110.000000	-0.000036
3109.000000	-0.000014
3108.000000	-0.000001
3107.000000	-0.000009
3106.000000	-0.000035
3105.000000	-0.000061
3104.000000	-0.000068
3103.000000	-0.000056
3102.000000	-0.000041
3101.000000	-0.000038
3100.000000	-0.000043
3099.000000	-0.000046
3098.000000	-0.000036
3097.000000	-0.000018
3096.000000	0.000002
3095.000000	0.000022
3094.000000	0.000042
3093.000000	0.000051
3092.000000	0.000037
3091.000000	-0.000002
3090.000000	-0.000046
3089.000000	-0.000064
3088.000000	-0.000044
3087.000000	-0.000004
3086.000000	0.000016
3085.000000	-0.000000
3084.000000	-0.000036
3083.000000	-0.000055
3082.000000	-0.000034
3081.000000	0.000024
3080.000000	0.000093
3079.000000	0.000143
3078.000000	0.000160
3077.000000	0.000152
3076.000000	0.000138
3075.000000	0.000134
3074.000000	0.000136
3073.000000	0.000133
3072.000000	0.000121
3071.000000	0.000107
3070.000000	0.000098
3069.000000	0.000098
3068.000000	0.000105
3067.000000	0.000111
3066.000000	0.000107
3065.000000	0.000088
3064.000000	0.000058
3063.000000	0.000026
3062.000000	-0.000006
3061.000000	-0.000038
3060.000000	-0.000064
3059.000000	-0.000074
3058.000000	-0.000059
3057.000000	-0.000023
3056.000000	0.000020
3055.000000	0.000055
3054.000000	0.000072
3053.000000	0.000067
3052.000000	0.000049
3051.000000	0.000037
3050.000000	0.000046
3049.000000	0.000073
3048.000000	0.000099
3047.000000	0.000105
3046.000000	0.000085
3045.000000	0.000046
3044.000000	0.000008
3043.000000	-0.000014
3042.000000	-0.000016
3041.000000	-0.000010
3040.000000	-0.000012
3039.000000	-0.000023
3038.000000	-0.000029
3037.000000	-0.000020
3036.000000	-0.000001
3035.000000	0.000013
3034.000000	0.000015
3033.000000	0.000008
3032.000000	0.000005
3031.000000	0.000012
3030.000000	0.000027
3029.000000	0.000038
3028.000000	0.000037
3027.000000	0.000024
3026.000000	0.000006
3025.000000	-0.000007
3024.000000	-0.000011
3023.000000	-0.000009
3022.000000	-0.000007
3021.000000	-0.000009
3020.000000	-0.000016
3019.000000	-0.000026
3018.000000	-0.000032
3017.000000	-0.000029
3016.000000	-0.000016
3015.000000	0.000000
3014.000000	0.000013
3013.000000	0.000019
3012.000000	0.000022
3011.000000	0.000030
3010.000000	0.000042
3009.000000	0.000056
3008.000000	0.000068
3007.000000	0.000081
3006.000000	0.000104
3005.000000	0.000142
3004.000000	0.000191
3003.000000	0.000237
3002.000000	0.000258
3001.000000	0.000235
3000.000000	0.000169
2999.000000	0.000083
2998.000000	0.000013
2997.000000	-0.000020
2996.000000	-0.000020
2995.000000	-0.000005
2994.000000	0.000009
2993.000000	0.000013
2992.000000	0.000006
2991.000000	-0.000013
2990.000000	-0.000033
2989.000000	-0.000042
2988.000000	-0.000033
2987.000000	-0.000016
2986.000000	-0.000001
2985.000000	0.000007
2984.000000	0.000005
2983.000000	-0.000005
2982.000000	-0.000019
2981.000000	-0.000024
2980.000000	-0.000008
2979.000000	0.000023
2978.000000	0.000046
2977.000000	0.000043
2976.000000	0.000018
2975.000000	-0.000005
2974.000000	-0.000006
2973.000000	0.000021
2972.000000	0.000065
2971.000000	0.000110
2970.000000	0.000137
2969.000000	0.000131
2968.000000	0.000092
2967.000000	0.000030
2966.000000	-0.000032
2965.000000	-0.000072
2964.000000	-0.000083
2963.000000	-0.000068
2962.000000	-0.000042
2961.000000	-0.000011
2960.000000	0.000021
2959.000000	0.000050
2958.000000	0.000071
2957.000000	0.000075
2956.000000	0.000062
2955.000000	0.000038
2954.000000	0.000016
2953.000000	0.000003
2952.000000	-0.000001
2951.000000	-0.000002
2950.000000	-0.000002
2949.000000	0.000003
2948.000000	0.000016
2947.000000	0.000029
2946.000000	0.000037
2945.000000	0.000044
2944.000000	0.000062
2943.000000	0.000096
2942.000000	0.000135
2941.000000	0.000160
2940.000000	0.000166
2939.000000	0.000162
2938.000000	0.000152
2937.000000	0.000134
2936.000000	0.000101
2935.000000	0.000058
2934.000000	0.000017
2933.000000	-0.000005
2932.000000	0.000002
2931.000000	0.000038
2930.000000	0.000090
2929.000000	0.000140
2928.000000	0.000170
2927.000000	0.000174
2926.000000	0.000154
2925.000000	0.000121
2924.000000	0.000081
2923.000000	0.000039
2922.000000	-0.000005
2921.000000	-0.000045
2920.000000	-0.000066
2919.000000	-0.000056
2918.000000	-0.000018
2917.000000	0.000027
2916.000000	0.000059
2915.000000	0.000074
2914.000000	0.000082
2913.000000	0.000091
2912.000000	0.000098
2911.000000	0.000092
2910.000000	0.000076
2909.000000	0.000059
2908.000000	0.000049
2907.000000	0.000042
2906.000000	0.000032
2905.000000	0.000022
2904.000000	0.000025
2903.000000	0.000044
2902.000000	0.000069
2901.000000	0.000082
2900.000000	0.000076
2899.000000	0.000058
2898.000000	0.000040
2897.000000	0.000034
2896.000000	0.000043
2895.000000	0.000064
2894.000000	0.000087
2893.000000	0.000104
2892.000000	0.000111
2891.000000	0.000115
2890.000000	0.000123
2889.000000	0.000134
2888.000000	0.000141
2887.000000	0.000134
2886.000000	0.000114
2885.000000	0.000088
2884.000000	0.000065
2883.000000	0.000048
2882.000000	0.000039
2881.000000	0.000045
2880.000000	0.000071
2879.000000	0.000112
2878.000000	0.000153
2877.000000	0.000170
2876.000000	0.000155
2875.000000	0.000121
2874.000000	0.000090
2873.000000	0.000079
2872.000000	0.000088
2871.000000	0.000102
2870.000000	0.000104
2869.000000	0.000089
2868.000000	0.000067
2867.000000	0.000058
2866.000000	0.000075
2865.000000	0.000110
2864.000000	0.000143
2863.000000	0.000154
2862.000000	0.000138
2861.000000	0.000105
2860.000000	0.000068
2859.000000	0.000038
2858.000000	0.000021
2857.000000	0.000018
2856.000000	0.000022
2855.000000	0.000025
2854.000000	0.000028
2853.000000	0.000036
2852.000000	0.000050
2851.000000	0.000068
2850.000000	0.000084
2849.000000	0.000102
2848.000000	0.000124
2847.000000	0.000144
2846.000000	0.000150
2845.000000	0.000129
2844.000000	0.000086
2843.000000	0.000038
2842.000000	0.000008
2841.000000	0.000011
2840.000000	0.000046
2839.000000	0.000092
2838.000000	0.000120
2837.000000	0.000114
2836.000000	0.000086
2835.000000	0.000061
2834.000000	0.000056
2833.000000	0.000070
2832.000000	0.000092
2831.000000	0.000107
2830.000000	0.000106
2829.000000	0.000090
2828.000000	0.000071
2827.000000	0.000059
2826.000000	0.000058
2825.000000	0.000059
2824.000000	0.000054
2823.000000	0.000044
2822.000000	0.000040
2821.000000	0.000054
2820.000000	0.000087
2819.000000	0.000130
2818.000000	0.000168
2817.000000	0.000192
2816.000000	0.000202
2815.000000	0.000204
2814.000000	0.000200
2813.000000	0.000190
2812.000000	0.000168
2811.000000	0.000138
2810.000000	0.000113
2809.000000	0.000106
2808.000000	0.000120
2807.000000	0.000138
2806.000000	0.000139
2805.000000	0.000115
2804.000000	0.000075
2803.000000	0.000041
2802.000000	0.000034
2801.000000	0.000059
2800.000000	0.000101
2799.000000	0.000136
2798.000000	0.000146
2797.000000	0.000132
2796.000000	0.000109
2795.000000	0.000093
2794.000000	0.000086
2793.000000	0.000084
2792.000000	0.000080
2791.000000	0.000069
2790.000000	0.000052
2789.000000	0.000036
2788.000000	0.000034
2787.000000	0.000056
2786.000000	0.000099
2785.000000	0.000145
2784.000000	0.000170
2783.000000	0.000162
2782.000000	0.000129
2781.000000	0.000093
2780.000000	0.000076
2779.000000	0.000080
2778.000000	0.000093
2777.000000	0.000107
2776.000000	0.000130
2775.000000	0.000178
2774.000000	0.000249
2773.000000	0.000315
2772.000000	0.000345
2771.000000	0.000323
2770.000000	0.000263
2769.000000	0.000192
2768.000000	0.000132
2767.000000	0.000083
2766.000000	0.000045
2765.000000	0.000023
2764.000000	0.000031
2763.000000	0.000066
2762.000000	0.000100
2761.000000	0.000107
2760.000000	0.000086
2759.000000	0.000058
2758.000000	0.000049
2757.000000	0.000067
2756.000000	0.000101
2755.000000	0.000132
2754.000000	0.000147
2753.000000	0.000148
2752.000000	0.000148
2751.000000	0.000155
2750.000000	0.000162
2749.000000	0.000153
2748.000000	0.000122
2747.000000	0.000084
2746.000000	0.000059
2745.000000	0.000058
2744.000000	0.000075
2743.000000	0.000092
2742.000000	0.000094
2741.000000	0.000080
2740.000000	0.000061
2739.000000	0.000052
2738.000000	0.000052
2737.000000	0.000050
2736.000000	0.000044
2735.000000	0.000039
2734.000000	0.000040
2733.000000	0.000043
2732.000000	0.000043
2731.000000	0.000043
2730.000000	0.000051
2729.000000	0.000065
2728.000000	0.000076
2727.000000	0.000077
2726.000000	0.000069
2725.000000	0.000057
2724.000000	0.000049
2723.000000	0.000051
2722.000000	0.000064
2721.000000	0.000077
2720.000000	0.000081
2719.000000	0.000081
2718.000000	0.000089
2717.000000	0.000107
2716.000000	0.000121
2715.000000	0.000116
2714.000000	0.000096
2713.000000	0.000075
2712.000000	0.000065
2711.000000	0.000069
2710.000000	0.000081
2709.000000	0.000097
2708.000000	0.000111
2707.000000	0.000121
2706.000000	0.000127
2705.000000	0.000132
2704.000000	0.000138
2703.000000	0.000149
2702.000000	0.000162
2701.000000	0.000171
2700.000000	0.000173
2699.000000	0.000167
2698.000000	0.000161
2697.000000	0.000162
2696.000000	0.000172
2695.000000	0.000188
2694.000000	0.000204
2693.000000	0.000210
2692.000000	0.000202
2691.000000	0.000181
2690.000000	0.000153
2689.000000	0.000127
2688.000000	0.000111
2687.000000	0.000113
2686.000000	0.000134
2685.000000	0.000169
2684.000000	0.000204
2683.000000	0.000222
2682.000000	0.000214
2681.000000	0.000180
2680.000000	0.000140
2679.000000	0.000114
2678.000000	0.000110
2677.000000	0.000111
2676.000000	0.000097
2675.000000	0.000066
2674.000000	0.000042
2673.000000	0.000045
2672.000000	0.000076
2671.000000	0.000124
2670.000000	0.000173
2669.000000	0.000210
2668.000000	0.000223
2667.000000	0.000207
2666.000000	0.000176
2665.000000	0.000152
2664.000000	0.000147
2663.000000	0.000155
2662.000000	0.000168
2661.000000	0.000179
2660.000000	0.000185
2659.000000	0.000181
2658.000000	0.000169
2657.000000	0.000160
2656.000000	0.000162
2655.000000	0.000172
2654.000000	0.000180
2653.000000	0.000179
2652.000000	0.000175
2651.000000	0.000180
2650.000000	0.000201
2649.000000	0.000227
2648.000000	0.000239
2647.000000	0.000220
2646.000000	0.000173
2645.000000	0.000119
2644.000000	0.000080
2643.000000	0.000063
2642.000000	0.000059
2641.000000	0.000059
2640.000000	0.000065
2639.000000	0.000078
2638.000000	0.000096
2637.000000	0.000111
2636.000000	0.000119
2635.000000	0.000118
2634.000000	0.000105
2633.000000	0.000079
2632.000000	0.000049
2631.000000	0.000019
2630.000000	-0.000008
2629.000000	-0.000027
2628.000000	-0.000025
2627.000000	0.000007
2626.000000	0.000056
2625.000000	0.000091
2624.000000	0.000089
2623.000000	0.000055
2622.000000	0.000019
2621.000000	0.000010
2620.000000	0.000034
2619.000000	0.000063
2618.000000	0.000062
2617.000000	0.000025
2616.000000	-0.000020
2615.000000	-0.000038
2614.000000	-0.000027
2613.000000	-0.000014
2612.000000	-0.000025
2611.000000	-0.000056
2610.000000	-0.000090
2609.000000	-0.000106
2608.000000	-0.000093
2607.000000	-0.000054
2606.000000	-0.000012
2605.000000	-0.000000
2604.000000	-0.000027
2603.000000	-0.000072
2602.000000	-0.000107
2601.000000	-0.000119
2600.000000	-0.000110
2599.000000	-0.000084
2598.000000	-0.000048
2597.000000	-0.000014
2596.000000	0.000006
2595.000000	0.000017
2594.000000	0.000029
2593.000000	0.000042
2592.000000	0.000051
2591.000000	0.000052
2590.000000	0.000044
2589.000000	0.000027
2588.000000	0.000001
2587.000000	-0.000025
2586.000000	-0.000047
2585.000000	-0.000072
2584.000000	-0.000106
2583.000000	-0.000142
2582.000000	-0.000177
2581.000000	-0.000234
2580.000000	-0.000339
2579.000000	-0.000470
2578.000000	-0.000554
2577.000000	-0.000528
2576.000000	-0.000400
2575.000000	-0.000242
2574.000000	-0.000122
2573.000000	-0.000069
2572.000000	-0.000070
2571.000000	-0.000091
2570.000000	-0.000099
2569.000000	-0.000073
2568.000000	-0.000021
2567.000000	0.000028
2566.000000	0.000044
2565.000000	0.000022
2564.000000	-0.000008
2563.000000	-0.000007
2562.000000	0.000039
2561.000000	0.000097
2560.000000	0.000116
2559.000000	0.000070
2558.000000	-0.000018
2557.000000	-0.000109
2556.000000	-0.000176
2555.000000	-0.000212
2554.000000	-0.000221
2553.000000	-0.000219
2552.000000	-0.000228
2551.000000	-0.000255
2550.000000	-0.000285
2549.000000	-0.000291
2548.000000	-0.000259
2547.000000	-0.000194
2546.000000	-0.000114
2545.000000	-0.000041
2544.000000	0.000009
2543.000000	0.000030
2542.000000	0.000027
2541.000000	0.000009
2540.000000	-0.000028
2539.000000	-0.000081
2538.000000	-0.000130
2537.000000	-0.000150
2536.000000	-0.000144
2535.000000	-0.000135
2534.000000	-0.000136
2533.000000	-0.000134
2532.000000	-0.000111
2531.000000	-0.000068
2530.000000	-0.000022
2529.000000	0.000008
2528.000000	0.000011
2527.000000	-0.000013
2526.000000	-0.000053
2525.000000	-0.000094
2524.000000	-0.000120
2523.000000	-0.000122
2522.000000	-0.000096
2521.000000	-0.000048
2520.000000	0.000004
2519.000000	0.000036
2518.000000	0.000042
2517.000000	0.000048
2516.000000	0.000084
2515.000000	0.000160
2514.000000	0.000238
2513.000000	0.000261
2512.000000	0.000183
2511.000000	0.000018
2510.000000	-0.000165
2509.000000	-0.000287
2508.000000	-0.000303
2507.000000	-0.000219
2506.000000	-0.000059
2505.000000	0.000145
2504.000000	0.000342
2503.000000	0.000466
2502.000000	0.000473
2501.000000	0.000375
2500.000000	0.000227
2499.000000	0.000079
2498.000000	-0.000048
2497.000000	-0.000151
2496.000000	-0.000218
2495.000000	-0.000242
2494.000000	-0.000225
2493.000000	-0.000183
2492.000000	-0.000126
2491.000000	-0.000055
2490.000000	0.000031
2489.000000	0.000119
2488.000000	0.000177
2487.000000	0.000172
2486.000000	0.000099
2485.000000	-0.000009
2484.000000	-0.000098
2483.000000	-0.000133
2482.000000	-0.000114
2481.000000	-0.000071
2480.000000	-0.000038
2479.000000	-0.000035
2478.000000	-0.000058
2477.000000	-0.000085
2476.000000	-0.000095
2475.000000	-0.000078
2474.000000	-0.000042
2473.000000	-0.000002
2472.000000	0.000020
2471.000000	0.000001
2470.000000	-0.000063
2469.000000	-0.000154
2468.000000	-0.000240
2467.000000	-0.000301
2466.000000	-0.000338
2465.000000	-0.000350
2464.000000	-0.000325
2463.000000	-0.000257
2462.000000	-0.000174
2461.000000	-0.000118
2460.000000	-0.000115
2459.000000	-0.000147
2458.000000	-0.000169
2457.000000	-0.000154
2456.000000	-0.000101
2455.000000	-0.000033
2454.000000	0.000028
2453.000000	0.000068
2452.000000	0.000083
2451.000000	0.000068
2450.000000	0.000030
2449.000000	-0.000011
2448.000000	-0.000024
2447.000000	0.000000
2446.000000	0.000043
2445.000000	0.000074
2444.000000	0.000082
2443.000000	0.000083
2442.000000	0.000089
2441.000000	0.000104
2440.000000	0.000118
2439.000000	0.000121
2438.000000	0.000099
2437.000000	0.000045
2436.000000	-0.000028
2435.000000	-0.000087
2434.000000	-0.000105
2433.000000	-0.000087
2432.000000	-0.000067
2431.000000	-0.000071
2430.000000	-0.000095
2429.000000	-0.000120
2428.000000	-0.000134
2427.000000	-0.000143
2426.000000	-0.000158
2425.000000	-0.000175
2424.000000	-0.000171
2423.000000	-0.000124
2422.000000	-0.000040
2421.000000	0.000039
2420.000000	0.000071
2419.000000	0.000047
2418.000000	-0.000002
2417.000000	-0.000038
2416.000000	-0.000043
2415.000000	-0.000018
2414.000000	0.000023
2413.000000	0.000061
2412.000000	0.000083
2411.000000	0.000084
2410.000000	0.000070
2409.000000	0.000047
2408.000000	0.000010
2407.000000	-0.000045
2406.000000	-0.000105
2405.000000	-0.000146
2404.000000	-0.000151
2403.000000	-0.000124
2402.000000	-0.000087
2401.000000	-0.000064
2400.000000	-0.000065
2399.000000	-0.000082
2398.000000	-0.000092
2397.000000	-0.000080
2396.000000	-0.000045
2395.000000	-0.000004
2394.000000	0.000018
2393.000000	0.000004
2392.000000	-0.000044
2391.000000	-0.000099
2390.000000	-0.000128
2389.000000	-0.000116
2388.000000	-0.000086
2387.000000	-0.000079
2386.000000	-0.000118
2385.000000	-0.000183
2384.000000	-0.000236
2383.000000	-0.000254
2382.000000	-0.000244
2381.000000	-0.000235
2380.000000	-0.000251
2379.000000	-0.000300
2378.000000	-0.000362
2377.000000	-0.000396
2376.000000	-0.000369
2375.000000	-0.000284
2374.000000	-0.000187
2373.000000	-0.000126
2372.000000	-0.000117
2371.000000	-0.000132
2370.000000	-0.000124
2369.000000	-0.000078
2368.000000	-0.000016
2367.000000	0.000023
2366.000000	0.000016
2365.000000	-0.000028
2364.000000	-0.000075
2363.000000	-0.000098
2362.000000	-0.000102
2361.000000	-0.000114
2360.000000	-0.000142
2359.000000	-0.000166
2358.000000	-0.000170
2357.000000	-0.000157
2356.000000	-0.000123
2355.000000	-0.000060
2354.000000	-0.000005
2353.000000	-0.000010
2352.000000	-0.000064
2351.000000	-0.000091
2350.000000	-0.000056
2349.000000	0.000006
2348.000000	0.000041
2347.000000	0.000020
2346.000000	-0.000030
2345.000000	-0.000050
2344.000000	-0.000017
2343.000000	0.000035
2342.000000	0.000061
2341.000000	0.000031
2340.000000	-0.000047
2339.000000	-0.000121
2338.000000	-0.000138
2337.000000	-0.000091
2336.000000	-0.000025
2335.000000	-0.000001
2334.000000	-0.000048
2333.000000	-0.000145
2332.000000	-0.000225
2331.000000	-0.000231
2330.000000	-0.000167
2329.000000	-0.000084
2328.000000	-0.000028
2327.000000	-0.000004
2326.000000	0.000004
2325.000000	0.000008
2324.000000	0.000006
2323.000000	-0.000004
2322.000000	-0.000005
2321.000000	0.000025
2320.000000	0.000084
2319.000000	0.000140
2318.000000	0.000157
2317.000000	0.000122
2316.000000	0.000045
2315.000000	-0.000050
2314.000000	-0.000128
2313.000000	-0.000155
2312.000000	-0.000123
2311.000000	-0.000062
2310.000000	-0.000013
2309.000000	0.000013
2308.000000	0.000038
2307.000000	0.000080
2306.000000	0.000127
2305.000000	0.000160
2304.000000	0.000170
2303.000000	0.000166
2302.000000	0.000156
2301.000000	0.000140
2300.000000	0.000110
2299.000000	0.000059
2298.000000	-0.000001
2297.000000	-0.000035
2296.000000	-0.000014
2295.000000	0.000047
2294.000000	0.000097
2293.000000	0.000103
2292.000000	0.000080
2291.000000	0.000068
2290.000000	0.000080
2289.000000	0.000102
2288.000000	0.000119
2287.000000	0.000128
2286.000000	0.000129
2285.000000	0.000122
2284.000000	0.000107
2283.000000	0.000085
2282.000000	0.000055
2281.000000	0.000015
2280.000000	-0.000014
2279.000000	-0.000009
2278.000000	0.000025
2277.000000	0.000046
2276.000000	0.000011
2275.000000	-0.000087
2274.000000	-0.000222
2273.000000	-0.000326
2272.000000	-0.000323
2271.000000	-0.000176
2270.000000	0.000050
2269.000000	0.000221
2268.000000	0.000252
2267.000000	0.000174
2266.000000	0.000086
2265.000000	0.000031
2264.000000	-0.000026
2263.000000	-0.000118
2262.000000	-0.000208
2261.000000	-0.000226
2260.000000	-0.000147
2259.000000	-0.000020
2258.000000	0.000093
2257.000000	0.000169
2256.000000	0.000224
2255.000000	0.000267
2254.000000	0.000281
2253.000000	0.000247
2252.000000	0.000169
2251.000000	0.000066
2250.000000	-0.000053
2249.000000	-0.000185
2248.000000	-0.000306
2247.000000	-0.000377
2246.000000	-0.000381
2245.000000	-0.000335
2244.000000	-0.000263
2243.000000	-0.000185
2242.000000	-0.000119
2241.000000	-0.000084
2240.000000	-0.000072
2239.000000	-0.000041
2238.000000	0.000034
2237.000000	0.000137
2236.000000	0.000225
2235.000000	0.000266
2234.000000	0.000237
2233.000000	0.000116
2232.000000	-0.000078
2231.000000	-0.000258
2230.000000	-0.000336
2229.000000	-0.000314
2228.000000	-0.000270
2227.000000	-0.000254
2226.000000	-0.000238
2225.000000	-0.000179
2224.000000	-0.000094
2223.000000	-0.000033
2222.000000	-0.000018
2221.000000	-0.000039
2220.000000	-0.000104
2219.000000	-0.000241
2218.000000	-0.000443
2217.000000	-0.000642
2216.000000	-0.000747
2215.000000	-0.000720
2214.000000	-0.000598
2213.000000	-0.000474
2212.000000	-0.000440
2211.000000	-0.000527
2210.000000	-0.000668
2209.000000	-0.000728
2208.000000	-0.000618
2207.000000	-0.000389
2206.000000	-0.000186
2205.000000	-0.000110
2204.000000	-0.000120
2203.000000	-0.000110
2202.000000	-0.000053
2201.000000	-0.000027
2200.000000	-0.000090
2199.000000	-0.000203
2198.000000	-0.000294
2197.000000	-0.000362
2196.000000	-0.000459
2195.000000	-0.000588
2194.000000	-0.000690
2193.000000	-0.000723
2192.000000	-0.000702
2191.000000	-0.000638
2190.000000	-0.000505
2189.000000	-0.000297
2188.000000	-0.000098
2187.000000	-0.000020
2186.000000	-0.000086
2185.000000	-0.000213
2184.000000	-0.000302
2183.000000	-0.000339
2182.000000	-0.000366
2181.000000	-0.000385
2180.000000	-0.000323
2179.000000	-0.000122
2178.000000	0.000166
2177.000000	0.000391
2176.000000	0.000445
2175.000000	0.000354
2174.000000	0.000229
2173.000000	0.000137
2172.000000	0.000061
2171.000000	-0.000037
2170.000000	-0.000151
2169.000000	-0.000243
2168.000000	-0.000286
2167.000000	-0.000304
2166.000000	-0.000355
2165.000000	-0.000468
2164.000000	-0.000563
2163.000000	-0.000448
2162.000000	0.000013
2161.000000	0.000735
2160.000000	0.001422
2159.000000	0.001782
2158.000000	0.001718
2157.000000	0.001298
2156.000000	0.000657
2155.000000	-0.000041
2154.000000	-0.000593
2153.000000	-0.000836
2152.000000	-0.000770
2151.000000	-0.000572
2150.000000	-0.000476
2149.000000	-0.000589
2148.000000	-0.000811
2147.000000	-0.000919
2146.000000	-0.000777
2145.000000	-0.000454
2144.000000	-0.000140
2143.000000	0.000031
2142.000000	0.000029
2141.000000	-0.000123
2140.000000	-0.000357
2139.000000	-0.000517
2138.000000	-0.000446
2137.000000	-0.000161
2136.000000	0.000111
2135.000000	0.000148
2134.000000	-0.000040
2133.000000	-0.000259
2132.000000	-0.000351
2131.000000	-0.000313
2130.000000	-0.000210
2129.000000	-0.000092
2128.000000	0.000011
2127.000000	0.000060
2126.000000	0.000022
2125.000000	-0.000097
2124.000000	-0.000245
2123.000000	-0.000361
2122.000000	-0.000395
2121.000000	-0.000313
2120.000000	-0.000107
2119.000000	0.000191
2118.000000	0.000500
2117.000000	0.000699
2116.000000	0.000694
2115.000000	0.000500
2114.000000	0.000248
2113.000000	0.000088
2112.000000	0.000068
2111.000000	0.000118
2110.000000	0.000147
2109.000000	0.000124
2108.000000	0.000078
2107.000000	0.000049
2106.000000	0.000052
2105.000000	0.000074
2104.000000	0.000088
2103.000000	0.000075
2102.000000	0.000042
2101.000000	0.000007
2100.000000	-0.000023
2099.000000	-0.000055
2098.000000	-0.000085
2097.000000	-0.000097
2096.000000	-0.000088
2095.000000	-0.000072
2094.000000	-0.000057
2093.000000	-0.000039
2092.000000	-0.000028
2091.000000	-0.000057
2090.000000	-0.000136
2089.000000	-0.000220
2088.000000	-0.000255
2087.000000	-0.000239
2086.000000	-0.000210
2085.000000	-0.000187
2084.000000	-0.000171
2083.000000	-0.000177
2082.000000	-0.000212
2081.000000	-0.000211
2080.000000	-0.000060
2079.000000	0.000244
2078.000000	0.000510
2077.000000	0.000505
2076.000000	0.000211
2075.000000	-0.000148
2074.000000	-0.000337
2073.000000	-0.000320
2072.000000	-0.000225
2071.000000	-0.000173
2070.000000	-0.000196
2069.000000	-0.000275
2068.000000	-0.000376
2067.000000	-0.000446
2066.000000	-0.000452
2065.000000	-0.000428
2064.000000	-0.000446
2063.000000	-0.000515
2062.000000	-0.000565
2061.000000	-0.000530
2060.000000	-0.000428
2059.000000	-0.000325
2058.000000	-0.000263
2057.000000	-0.000251
2056.000000	-0.000282
2055.000000	-0.000338
2054.000000	-0.000387
2053.000000	-0.000390
2052.000000	-0.000317
2051.000000	-0.000151
2050.000000	0.000103
2049.000000	0.000389
2048.000000	0.000604
2047.000000	0.000674
2046.000000	0.000578
2045.000000	0.000328
2044.000000	-0.000025
2043.000000	-0.000365
2042.000000	-0.000540
2041.000000	-0.000471
2040.000000	-0.000215
2039.000000	0.000107
2038.000000	0.000392
2037.000000	0.000545
2036.000000	0.000482
2035.000000	0.000219
2034.000000	-0.000112
2033.000000	-0.000392
2032.000000	-0.000621
2031.000000	-0.000839
2030.000000	-0.001002
2029.000000	-0.001018
2028.000000	-0.000889
2027.000000	-0.000702
2026.000000	-0.000521
2025.000000	-0.000361
2024.000000	-0.000273
2023.000000	-0.000323
2022.000000	-0.000488
2021.000000	-0.000638
2020.000000	-0.000649
2019.000000	-0.000502
2018.000000	-0.000275
2017.000000	-0.000094
2016.000000	-0.000057
2015.000000	-0.000154
2014.000000	-0.000265
2013.000000	-0.000288
2012.000000	-0.000227
2011.000000	-0.000136
2010.000000	-0.000007
2009.000000	0.000196
2008.000000	0.000415
2007.000000	0.000508
2006.000000	0.000370
2005.000000	-0.000016
2004.000000	-0.000611
2003.000000	-0.001284
2002.000000	-0.001766
2001.000000	-0.001785
2000.000000	-0.001346
1999.000000	-0.000764
1998.000000	-0.000359
1997.000000	-0.000182
1996.000000	-0.000071
1995.000000	0.000110
1994.000000	0.000348
1993.000000	0.000529
1992.000000	0.000529
1991.000000	0.000318
1990.000000	0.000027
1989.000000	-0.000118
1988.000000	0.000008
1987.000000	0.000287
1986.000000	0.000478
1985.000000	0.000449
1984.000000	0.000256
1983.000000	0.000020
1982.000000	-0.000169
1981.000000	-0.000229
1980.000000	-0.000090
1979.000000	0.000207
1978.000000	0.000464
1977.000000	0.000473
1976.000000	0.000220
1975.000000	-0.000107
1974.000000	-0.000311
1973.000000	-0.000335
1972.000000	-0.000282
1971.000000	-0.000298
1970.000000	-0.000377
1969.000000	-0.000332
1968.000000	-0.000001
1967.000000	0.000501
1966.000000	0.000865
1965.000000	0.000941
1964.000000	0.000888
1963.000000	0.000901
1962.000000	0.000958
1961.000000	0.000888
1960.000000	0.000618
1959.000000	0.000231
1958.000000	-0.000170
1957.000000	-0.000519
1956.000000	-0.000734
1955.000000	-0.000732
1954.000000	-0.000530
1953.000000	-0.000258
1952.000000	-0.000037
1951.000000	0.000097
1950.000000	0.000157
1949.000000	0.000153
1948.000000	0.000116
1947.000000	0.000093
1946.000000	0.000090
1945.000000	0.000046
1944.000000	-0.000066
1943.000000	-0.000177
1942.000000	-0.000191
1941.000000	-0.000130
1940.000000	-0.000102
1939.000000	-0.000164
1938.000000	-0.000263
1937.000000	-0.000306
1936.000000	-0.000250
1935.000000	-0.000148
1934.000000	-0.000106
1933.000000	-0.000190
1932.000000	-0.000348
1931.000000	-0.000446
1930.000000	-0.000405
1929.000000	-0.000276
1928.000000	-0.000165
1927.000000	-0.000116
1926.000000	-0.000111
1925.000000	-0.000152
1924.000000	-0.000267
1923.000000	-0.000420
1922.000000	-0.000501
1921.000000	-0.000439
1920.000000	-0.000282
1919.000000	-0.000137
1918.000000	-0.000069
1917.000000	-0.000055
1916.000000	-0.000029
1915.000000	0.000042
1914.000000	0.000117
1913.000000	0.000118
1912.000000	-0.000003
1911.000000	-0.000204
1910.000000	-0.000371
1909.000000	-0.000414
1908.000000	-0.000330
1907.000000	-0.000185
1906.000000	-0.000064
1905.000000	-0.000032
1904.000000	-0.000102
1903.000000	-0.000212
1902.000000	-0.000273
1901.000000	-0.000254
1900.000000	-0.000195
1899.000000	-0.000140
1898.000000	-0.000102
1897.000000	-0.000099
1896.000000	-0.000164
1895.000000	-0.000281
1894.000000	-0.000363
1893.000000	-0.000352
1892.000000	-0.000300
1891.000000	-0.000300
1890.000000	-0.000380
1889.000000	-0.000494
1888.000000	-0.000598
1887.000000	-0.000674
1886.000000	-0.000689
1885.000000	-0.000612
1884.000000	-0.000475
1883.000000	-0.000369
1882.000000	-0.000341
1881.000000	-0.000355
1880.000000	-0.000341
1879.000000	-0.000275
1878.000000	-0.000183
1877.000000	-0.000110
1876.000000	-0.000094
1875.000000	-0.000140
1874.000000	-0.000211
1873.000000	-0.000259
1872.000000	-0.000271
1871.000000	-0.000267
1870.000000	-0.000251
1869.000000	-0.000200
1868.000000	-0.000111
1867.000000	-0.000041
1866.000000	-0.000037
1865.000000	-0.000093
1864.000000	-0.000171
1863.000000	-0.000240
1862.000000	-0.000297
1861.000000	-0.000354
1860.000000	-0.000417
1859.000000	-0.000467
1858.000000	-0.000464
1857.000000	-0.000398
1856.000000	-0.000315
1855.000000	-0.000271
1854.000000	-0.000270
1853.000000	-0.000274
1852.000000	-0.000274
1851.000000	-0.000323
1850.000000	-0.000464
1849.000000	-0.000657
1848.000000	-0.000800
1847.000000	-0.000814
1846.000000	-0.000696
1845.000000	-0.000503
1844.000000	-0.000316
1843.000000	-0.000194
1842.000000	-0.000132
1841.000000	-0.000104
1840.000000	-0.000104
1839.000000	-0.000138
1838.000000	-0.000185
1837.000000	-0.000210
1836.000000	-0.000195
1835.000000	-0.000159
1834.000000	-0.000132
1833.000000	-0.000132
1832.000000	-0.000164
1831.000000	-0.000224
1830.000000	-0.000288
1829.000000	-0.000313
1828.000000	-0.000284
1827.000000	-0.000226
1826.000000	-0.000168
1825.000000	-0.000126
1824.000000	-0.000113
1823.000000	-0.000136
1822.000000	-0.000185
1821.000000	-0.000233
1820.000000	-0.000259
1819.000000	-0.000262
1818.000000	-0.000259
1817.000000	-0.000262
1816.000000	-0.000266
1815.000000	-0.000264
1814.000000	-0.000246
1813.000000	-0.000204
1812.000000	-0.000139
1811.000000	-0.000082
1810.000000	-0.000079
1809.000000	-0.000150
1808.000000	-0.000264
1807.000000	-0.000368
1806.000000	-0.000419
1805.000000	-0.000417
1804.000000	-0.000395
1803.000000	-0.000384
1802.000000	-0.000377
1801.000000	-0.000346
1800.000000	-0.000296
1799.000000	-0.000261
1798.000000	-0.000258
1797.000000	-0.000262
1796.000000	-0.000248
1795.000000	-0.000226
1794.000000	-0.000221
1793.000000	-0.000237
1792.000000	-0.000247
1791.000000	-0.000239
1790.000000	-0.000234
1789.000000	-0.000252
1788.000000	-0.000291
1787.000000	-0.000337
1786.000000	-0.000371
1785.000000	-0.000378
1784.000000	-0.000372
1783.000000	-0.000374
1782.000000	-0.000390
1781.000000	-0.000393
1780.000000	-0.000362
1779.000000	-0.000312
1778.000000	-0.000288
1777.000000	-0.000316
1776.000000	-0.000388
1775.000000	-0.000477
1774.000000	-0.000564
1773.000000	-0.000635
1772.000000	-0.000672
1771.000000	-0.000670
1770.000000	-0.000634
1769.000000	-0.000561
1768.000000	-0.000464
1767.000000	-0.000380
1766.000000	-0.000336
1765.000000	-0.000325
1764.000000	-0.000320
1763.000000	-0.000310
1762.000000	-0.000301
1761.000000	-0.000299
1760.000000	-0.000299
1759.000000	-0.000287
1758.000000	-0.000263
1757.000000	-0.000234
1756.000000	-0.000209
1755.000000	-0.000192
1754.000000	-0.000177
1753.000000	-0.000159
1752.000000	-0.000129
1751.000000	-0.000081
1750.000000	-0.000020
1749.000000	0.000038
1748.000000	0.000076
1747.000000	0.000082
1746.000000	0.000053
1745.000000	0.000001
1744.000000	-0.000052
1743.000000	-0.000087
1742.000000	-0.000098
1741.000000	-0.000093
1740.000000	-0.000090
1739.000000	-0.000102
1738.000000	-0.000128
1737.000000	-0.000153
1736.000000	-0.000159
1735.000000	-0.000144
1734.000000	-0.000116
1733.000000	-0.000116
1732.000000	-0.000161
1731.000000	-0.000227
1730.000000	-0.000296
1729.000000	-0.000358
1728.000000	-0.000399
1727.000000	-0.000415
1726.000000	-0.000412
1725.000000	-0.000405
1724.000000	-0.000403
1723.000000	-0.000397
1722.000000	-0.000381
1721.000000	-0.000359
1720.000000	-0.000351
1719.000000	-0.000371
1718.000000	-0.000408
1717.000000	-0.000430
1716.000000	-0.000434
1715.000000	-0.000439
1714.000000	-0.000439
1713.000000	-0.000423
1712.000000	-0.000391
1711.000000	-0.000348
1710.000000	-0.000302
1709.000000	-0.000268
1708.000000	-0.000260
1707.000000	-0.000273
1706.000000	-0.000282
1705.000000	-0.000261
1704.000000	-0.000224
1703.000000	-0.000200
1702.000000	-0.000195
1701.000000	-0.000184
1700.000000	-0.000148
1699.000000	-0.000136
1698.000000	-0.000177
1697.000000	-0.000237
1696.000000	-0.000271
1695.000000	-0.000258
1694.000000	-0.000205
1693.000000	-0.000122
1692.000000	-0.000030
1691.000000	0.000046
1690.000000	0.000094
1689.000000	0.000127
1688.000000	0.000162
1687.000000	0.000192
1686.000000	0.000202
1685.000000	0.000202
1684.000000	0.000223
1683.000000	0.000237
1682.000000	0.000226
1681.000000	0.000233
1680.000000	0.000279
1679.000000	0.000345
1678.000000	0.000397
1677.000000	0.000432
1676.000000	0.000478
1675.000000	0.000547
1674.000000	0.000602
1673.000000	0.000618
1672.000000	0.000616
1671.000000	0.000622
1670.000000	0.000646
1669.000000	0.000678
1668.000000	0.000706
1667.000000	0.000736
1666.000000	0.000773
1665.000000	0.000811
1664.000000	0.000840
1663.000000	0.000866
1662.000000	0.000905
1661.000000	0.000957
1660.000000	0.001004
1659.000000	0.001022
1658.000000	0.001001
1657.000000	0.000963
1656.000000	0.000941
1655.000000	0.000952
1654.000000	0.001020
1653.000000	0.001154
1652.000000	0.001244
1651.000000	0.001256
1650.000000	0.001252
1649.000000	0.001246
1648.000000	0.001237
1647.000000	0.001231
1646.000000	0.001236
1645.000000	0.001246
1644.000000	0.001264
1643.000000	0.001293
1642.000000	0.001316
1641.000000	0.001316
1640.000000	0.001289
1639.000000	0.001249
1638.000000	0.001214
1637.000000	0.001192
1636.000000	0.001200
1635.000000	0.001236
1634.000000	0.001272
1633.000000	0.001295
1632.000000	0.001307
1631.000000	0.001307
1630.000000	0.001302
1629.000000	0.001303
1628.000000	0.001305
1627.000000	0.001299
1626.000000	0.001282
1625.000000	0.001258
1624.000000	0.001234
1623.000000	0.001206
1622.000000	0.001173
1621.000000	0.001142
1620.000000	0.001123
1619.000000	0.001107
1618.000000	0.001063
1617.000000	0.000973
1616.000000	0.000873
1615.000000	0.000816
1614.000000	0.000808
1613.000000	0.000814
1612.000000	0.000806
1611.000000	0.000780
1610.000000	0.000755
1609.000000	0.000732
1608.000000	0.000691
1607.000000	0.000622
1606.000000	0.000548
1605.000000	0.000501
1604.000000	0.000496
1603.000000	0.000518
1602.000000	0.000532
1601.000000	0.000508
1600.000000	0.000451
1599.000000	0.000397
1598.000000	0.000381
1597.000000	0.000409
1596.000000	0.000449
1595.000000	0.000465
1594.000000	0.000442
1593.000000	0.000389
1592.000000	0.000331
1591.000000	0.000297
1590.000000	0.000304
1589.000000	0.000341
1588.000000	0.000383
1587.000000	0.000405
1586.000000	0.000405
1585.000000	0.000392
1584.000000	0.000380
1583.000000	0.000381
1582.000000	0.000395
1581.000000	0.000417
1580.000000	0.000442
1579.000000	0.000469
1578.000000	0.000496
1577.000000	0.000510
1576.000000	0.000501
1575.000000	0.000478
1574.000000	0.000465
1573.000000	0.000471
1572.000000	0.000493
1571.000000	0.000520
1570.000000	0.000549
1569.000000	0.000568
1568.000000	0.000572
1567.000000	0.000575
1566.000000	0.000598
1565.000000	0.000642
1564.000000	0.000691
1563.000000	0.000731
1562.000000	0.000759
1561.000000	0.000765
1560.000000	0.000737
1559.000000	0.000742
1558.000000	0.000825
1557.000000	0.000882
1556.000000	0.000903
1555.000000	0.000913
1554.000000	0.000926
1553.000000	0.000953
1552.000000	0.000991
1551.000000	0.001017
1550.000000	0.001013
1549.000000	0.000982
1548.000000	0.000949
1547.000000	0.000935
1546.000000	0.000939
1545.000000	0.000958
1544.000000	0.000996
1543.000000	0.001046
1542.000000	0.001082
1541.000000	0.001079
1540.000000	0.001050
1539.000000	0.001029
1538.000000	0.001021
1537.000000	0.001024
1536.000000	0.001030
1535.000000	0.001032
1534.000000	0.001035
1533.000000	0.001053
1532.000000	0.001075
1531.000000	0.001086
1530.000000	0.001090
1529.000000	0.001091
1528.000000	0.001088
1527.000000	0.001080
1526.000000	0.001071
1525.000000	0.001066
1524.000000	0.001064
1523.000000	0.001049
1522.000000	0.001011
1521.000000	0.000960
1520.000000	0.000912
1519.000000	0.000869
1518.000000	0.000835
1517.000000	0.000816
1516.000000	0.000809
1515.000000	0.000803
1514.000000	0.000790
1513.000000	0.000776
1512.000000	0.000759
1511.000000	0.000734
1510.000000	0.000701
1509.000000	0.000677
1508.000000	0.000693
1507.000000	0.000755
1506.000000	0.000770
1505.000000	0.000692
1504.000000	0.000612
1503.000000	0.000586
1502.000000	0.000602
1501.000000	0.000627
1500.000000	0.000628
1499.000000	0.000593
1498.000000	0.000528
1497.000000	0.000454
1496.000000	0.000390
1495.000000	0.000345
1494.000000	0.000315
1493.000000	0.000293
1492.000000	0.000273
1491.000000	0.000255
1490.000000	0.000250
1489.000000	0.000255
1488.000000	0.000253
1487.000000	0.000233
1486.000000	0.000208
1485.000000	0.000190
1484.000000	0.000180
1483.000000	0.000171
1482.000000	0.000168
1481.000000	0.000177
1480.000000	0.000198
1479.000000	0.000220
1478.000000	0.000240
1477.000000	0.000263
1476.000000	0.000287
1475.000000	0.000300
1474.000000	0.000292
1473.000000	0.000277
1472.000000	0.000274
1471.000000	0.000275
1470.000000	0.000272
1469.000000	0.000285
1468.000000	0.000336
1467.000000	0.000441
1466.000000	0.000592
1465.000000	0.000741
1464.000000	0.000817
1463.000000	0.000801
1462.000000	0.000745
1461.000000	0.000701
1460.000000	0.000686
1459.000000	0.000683
1458.000000	0.000677
1457.000000	0.000670
1456.000000	0.000663
1455.000000	0.000641
1454.000000	0.000614
1453.000000	0.000596
1452.000000	0.000601
1451.000000	0.000626
1450.000000	0.000655
1449.000000	0.000670
1448.000000	0.000662
1447.000000	0.000636
1446.000000	0.000606
1445.000000	0.000588
1444.000000	0.000585
1443.000000	0.000590
1442.000000	0.000600
1441.000000	0.000618
1440.000000	0.000640
1439.000000	0.000648
1438.000000	0.000622
1437.000000	0.000570
1436.000000	0.000531
1435.000000	0.000525
1434.000000	0.000538
1433.000000	0.000559
1432.000000	0.000586
1431.000000	0.000609
1430.000000	0.000604
1429.000000	0.000562
1428.000000	0.000506
1427.000000	0.000477
1426.000000	0.000487
1425.000000	0.000515
1424.000000	0.000530
1423.000000	0.000520
1422.000000	0.000495
1421.000000	0.000467
1420.000000	0.000439
1419.000000	0.000422
1418.000000	0.000426
1417.000000	0.000437
1416.000000	0.000440
1415.000000	0.000430
1414.000000	0.000419
1413.000000	0.000419
1412.000000	0.000433
1411.000000	0.000451
1410.000000	0.000469
1409.000000	0.000496
1408.000000	0.000531
1407.000000	0.000559
1406.000000	0.000560
1405.000000	0.000541
1404.000000	0.000528
1403.000000	0.000531
1402.000000	0.000540
1401.000000	0.000544
1400.000000	0.000539
1399.000000	0.000526
1398.000000	0.000502
1397.000000	0.000469
1396.000000	0.000446
1395.000000	0.000453
1394.000000	0.000492
1393.000000	0.000538
1392.000000	0.000568
1391.000000	0.000578
1390.000000	0.000577
1389.000000	0.000583
1388.000000	0.000605
1387.000000	0.000629
1386.000000	0.000632
1385.000000	0.000608
1384.000000	0.000571
1383.000000	0.000532
1382.000000	0.000492
1381.000000	0.000446
1380.000000	0.000395
1379.000000	0.000340
1378.000000	0.000291
1377.000000	0.000259
1376.000000	0.000249
1375.000000	0.000258
1374.000000	0.000277
1373.000000	0.000295
1372.000000	0.000305
1371.000000	0.000307
1370.000000	0.000305
1369.000000	0.000308
1368.000000	0.000320
1367.000000	0.000331
1366.000000	0.000325
1365.000000	0.000290
1364.000000	0.000234
1363.000000	0.000177
1362.000000	0.000138
1361.000000	0.000126
1360.000000	0.000137
1359.000000	0.000165
1358.000000	0.000201
1357.000000	0.000235
1356.000000	0.000258
1355.000000	0.000266
1354.000000	0.000259
1353.000000	0.000240
1352.000000	0.000224
1351.000000	0.000226
1350.000000	0.000254
1349.000000	0.000298
1348.000000	0.000330
1347.000000	0.000334
1346.000000	0.000315
1345.000000	0.000294
1344.000000	0.000285
1343.000000	0.000290
1342.000000	0.000302
1341.000000	0.000318
1340.000000	0.000339
1339.000000	0.000361
1338.000000	0.000377
1337.000000	0.000384
1336.000000	0.000382
1335.000000	0.000366
1334.000000	0.000333
1333.000000	0.000289
1332.000000	0.000248
1331.000000	0.000222
1330.000000	0.000214
1329.000000	0.000220
1328.000000	0.000239
1327.000000	0.000270
1326.000000	0.000303
1325.000000	0.000322
1324.000000	0.000313
1323.000000	0.000282
1322.000000	0.000246
1321.000000	0.000220
1320.000000	0.000204
1319.000000	0.000193
1318.000000	0.000180
1317.000000	0.000171
1316.000000	0.000170
1315.000000	0.000175
1314.000000	0.000174
1313.000000	0.000162
1312.000000	0.000144
1311.000000	0.000134
1310.000000	0.000136
1309.000000	0.000145
1308.000000	0.000151
1307.000000	0.000155
1306.000000	0.000165
1305.000000	0.000180
1304.000000	0.000189
1303.000000	0.000176
1302.000000	0.000137
1301.000000	0.000086
1300.000000	0.000044
1299.000000	0.000022
1298.000000	0.000015
1297.000000	0.000014
1296.000000	0.000014
1295.000000	0.000018
1294.000000	0.000025
1293.000000	0.000025
1292.000000	0.000008
1291.000000	-0.000022
1290.000000	-0.000043
1289.000000	-0.000034
1288.000000	0.000009
1287.000000	0.000064
1286.000000	0.000103
1285.000000	0.000109
1284.000000	0.000083
1283.000000	0.000041
1282.000000	0.000006
1281.000000	-0.000007
1280.000000	-0.000001
1279.000000	0.000009
1278.000000	0.000009
1277.000000	0.000001
1276.000000	-0.000002
1275.000000	0.000011
1274.000000	0.000044
1273.000000	0.000088
1272.000000	0.000127
1271.000000	0.000145
1270.000000	0.000141
1269.000000	0.000132
1268.000000	0.000130
1267.000000	0.000133
1266.000000	0.000130
1265.000000	0.000120
1264.000000	0.000114
1263.000000	0.000126
1262.000000	0.000160
1261.000000	0.000209
1260.000000	0.000258
1259.000000	0.000287
1258.000000	0.000281
1257.000000	0.000249
1256.000000	0.000221
1255.000000	0.000224
1254.000000	0.000258
1253.000000	0.000301
1252.000000	0.000333
1251.000000	0.000358
1250.000000	0.000386
1249.000000	0.000421
1248.000000	0.000454
1247.000000	0.000472
1246.000000	0.000472
1245.000000	0.000460
1244.000000	0.000446
1243.000000	0.000440
1242.000000	0.000452
1241.000000	0.000490
1240.000000	0.000555
1239.000000	0.000633
1238.000000	0.000698
1237.000000	0.000735
1236.000000	0.000756
1235.000000	0.000781
1234.000000	0.000818
1233.000000	0.000847
1232.000000	0.000848
1231.000000	0.000817
1230.000000	0.000773
1229.000000	0.000733
1228.000000	0.000698
1227.000000	0.000662
1226.000000	0.000619
1225.000000	0.000578
1224.000000	0.000545
1223.000000	0.000519
1222.000000	0.000493
1221.000000	0.000459
1220.000000	0.000407
1219.000000	0.000338
1218.000000	0.000278
1217.000000	0.000263
1216.000000	0.000305
1215.000000	0.000368
1214.000000	0.000401
1213.000000	0.000383
1212.000000	0.000343
1211.000000	0.000320
1210.000000	0.000330
1209.000000	0.000357
1208.000000	0.000378
1207.000000	0.000385
1206.000000	0.000381
1205.000000	0.000377
1204.000000	0.000385
1203.000000	0.000405
1202.000000	0.000424
1201.000000	0.000426
1200.000000	0.000414
1199.000000	0.000408
1198.000000	0.000424
1197.000000	0.000451
1196.000000	0.000461
1195.000000	0.000435
1194.000000	0.000378
1193.000000	0.000313
1192.000000	0.000264
1191.000000	0.000240
1190.000000	0.000233
1189.000000	0.000223
1188.000000	0.000198
1187.000000	0.000169
1186.000000	0.000155
1185.000000	0.000161
1184.000000	0.000177
1183.000000	0.000186
1182.000000	0.000189
1181.000000	0.000195
1180.000000	0.000198
1179.000000	0.000184
1178.000000	0.000152
1177.000000	0.000127
1176.000000	0.000133
1175.000000	0.000166
1174.000000	0.000199
1173.000000	0.000211
1172.000000	0.000210
1171.000000	0.000216
1170.000000	0.000236
1169.000000	0.000262
1168.000000	0.000287
1167.000000	0.000304
1166.000000	0.000299
1165.000000	0.000262
1164.000000	0.000211
1163.000000	0.000182
1162.000000	0.000191
1161.000000	0.000211
1160.000000	0.000207
1159.000000	0.000185
1158.000000	0.000182
1157.000000	0.000216
1156.000000	0.000253
1155.000000	0.000253
1154.000000	0.000210
1153.000000	0.000148
1152.000000	0.000094
1151.000000	0.000060
1150.000000	0.000045
1149.000000	0.000039
1148.000000	0.000029
1147.000000	0.000018
1146.000000	0.000025
1145.000000	0.000055
1144.000000	0.000078
1143.000000	0.000051
1142.000000	-0.000032
1141.000000	-0.000125
1140.000000	-0.000180
1139.000000	-0.000187
1138.000000	-0.000176
1137.000000	-0.000179
1136.000000	-0.000209
1135.000000	-0.000259
1134.000000	-0.000307
1133.000000	-0.000327
1132.000000	-0.000309
1131.000000	-0.000264
1130.000000	-0.000222
1129.000000	-0.000209
1128.000000	-0.000232
1127.000000	-0.000276
1126.000000	-0.000310
1125.000000	-0.000316
1124.000000	-0.000299
1123.000000	-0.000280
1122.000000	-0.000276
1121.000000	-0.000288
1120.000000	-0.000307
1119.000000	-0.000316
1118.000000	-0.000290
1117.000000	-0.000226
1116.000000	-0.000158
1115.000000	-0.000130
1114.000000	-0.000152
1113.000000	-0.000194
1112.000000	-0.000224
1111.000000	-0.000239
1110.000000	-0.000242
1109.000000	-0.000227
1108.000000	-0.000187
1107.000000	-0.000146
1106.000000	-0.000133
1105.000000	-0.000142
1104.000000	-0.000148
1103.000000	-0.000143
1102.000000	-0.000142
1101.000000	-0.000148
1100.000000	-0.000141
1099.000000	-0.000104
1098.000000	-0.000047
1097.000000	0.000007
1096.000000	0.000042
1095.000000	0.000051
1094.000000	0.000036
1093.000000	0.000013
1092.000000	0.000003
1091.000000	0.000007
1090.000000	0.000007
1089.000000	-0.000001
1088.000000	0.000005
1087.000000	0.000048
1086.000000	0.000120
1085.000000	0.000197
1084.000000	0.000259
1083.000000	0.000293
1082.000000	0.000281
1081.000000	0.000219
1080.000000	0.000148
1079.000000	0.000130
1078.000000	0.000182
1077.000000	0.000251
1076.000000	0.000261
1075.000000	0.000193
1074.000000	0.000093
1073.000000	0.000018
1072.000000	-0.000015
1071.000000	-0.000030
1070.000000	-0.000059
1069.000000	-0.000097
1068.000000	-0.000107
1067.000000	-0.000065
1066.000000	0.000002
1065.000000	0.000034
1064.000000	-0.000001
1063.000000	-0.000068
1062.000000	-0.000114
1061.000000	-0.000121
1060.000000	-0.000108
1059.000000	-0.000097
1058.000000	-0.000087
1057.000000	-0.000072
1056.000000	-0.000053
1055.000000	-0.000027
1054.000000	0.000014
1053.000000	0.000060
1052.000000	0.000084
1051.000000	0.000070
1050.000000	0.000040
1049.000000	0.000021
1048.000000	0.000011
1047.000000	-0.000016
1046.000000	-0.000072
1045.000000	-0.000141
1044.000000	-0.000192
1043.000000	-0.000208
1042.000000	-0.000187
1041.000000	-0.000142
1040.000000	-0.000099
1039.000000	-0.000074
1038.000000	-0.000064
1037.000000	-0.000055
1036.000000	-0.000033
1035.000000	0.000007
1034.000000	0.000063
1033.000000	0.000116
1032.000000	0.000140
1031.000000	0.000121
1030.000000	0.000082
1029.000000	0.000046
1028.000000	0.000017
1027.000000	-0.000014
1026.000000	-0.000033
1025.000000	-0.000009
1024.000000	0.000055
1023.000000	0.000117
1022.000000	0.000128
1021.000000	0.000079
1020.000000	-0.000002
1019.000000	-0.000069
1018.000000	-0.000088
1017.000000	-0.000054
1016.000000	-0.000006
1015.000000	0.000009
1014.000000	-0.000025
1013.000000	-0.000073
1012.000000	-0.000102
1011.000000	-0.000108
1010.000000	-0.000115
1009.000000	-0.000144
1008.000000	-0.000190
1007.000000	-0.000231
1006.000000	-0.000239
1005.000000	-0.000222
1004.000000	-0.000234
1003.000000	-0.000327
1002.000000	-0.000471
1001.000000	-0.000560
1000.000000	-0.000507
999.000000	-0.000342
998.000000	-0.000181
997.000000	-0.000111
996.000000	-0.000133
995.000000	-0.000202
994.000000	-0.000273
993.000000	-0.000318
992.000000	-0.000325
991.000000	-0.000305
990.000000	-0.000290
989.000000	-0.000304
988.000000	-0.000347
987.000000	-0.000394
986.000000	-0.000418
985.000000	-0.000400
984.000000	-0.000349
983.000000	-0.000302
982.000000	-0.000296
981.000000	-0.000337
980.000000	-0.000386
979.000000	-0.000400
978.000000	-0.000371
977.000000	-0.000321
976.000000	-0.000283
975.000000	-0.000278
974.000000	-0.000310
973.000000	-0.000362
972.000000	-0.000408
971.000000	-0.000425
970.000000	-0.000400
969.000000	-0.000340
968.000000	-0.000273
967.000000	-0.000233
966.000000	-0.000238
965.000000	-0.000265
964.000000	-0.000288
963.000000	-0.000313
962.000000	-0.000372
961.000000	-0.000467
960.000000	-0.000540
959.000000	-0.000534
958.000000	-0.000447
957.000000	-0.000339
956.000000	-0.000269
955.000000	-0.000252
954.000000	-0.000271
953.000000	-0.000302
952.000000	-0.000327
951.000000	-0.000334
950.000000	-0.000327
949.000000	-0.000327
948.000000	-0.000353
947.000000	-0.000397
946.000000	-0.000433
945.000000	-0.000444
944.000000	-0.000433
943.000000	-0.000422
942.000000	-0.000424
941.000000	-0.000442
940.000000	-0.000472
939.000000	-0.000510
938.000000	-0.000539
937.000000	-0.000545
936.000000	-0.000522
935.000000	-0.000486
934.000000	-0.000461
933.000000	-0.000452
932.000000	-0.000449
931.000000	-0.000434
930.000000	-0.000403
929.000000	-0.000361
928.000000	-0.000323
927.000000	-0.000306
926.000000	-0.000313
925.000000	-0.000329
924.000000	-0.000334
923.000000	-0.000323
922.000000	-0.000309
921.000000	-0.000310
920.000000	-0.000335
919.000000	-0.000371
918.000000	-0.000396
917.000000	-0.000391
916.000000	-0.000358
915.000000	-0.000328
914.000000	-0.000329
913.000000	-0.000365
912.000000	-0.000416
911.000000	-0.000458
910.000000	-0.000485
909.000000	-0.000499
908.000000	-0.000501
907.000000	-0.000485
906.000000	-0.000453
905.000000	-0.000416
904.000000	-0.000397
903.000000	-0.000414
902.000000	-0.000467
901.000000	-0.000529
900.000000	-0.000563
899.000000	-0.000554
898.000000	-0.000522
897.000000	-0.000511
896.000000	-0.000539
895.000000	-0.000589
894.000000	-0.000626
893.000000	-0.000632
892.000000	-0.000616
891.000000	-0.000595
890.000000	-0.000577
889.000000	-0.000567
888.000000	-0.000576
887.000000	-0.000606
886.000000	-0.000628
885.000000	-0.000604
884.000000	-0.000536
883.000000	-0.000469
882.000000	-0.000442
881.000000	-0.000444
880.000000	-0.000428
879.000000	-0.000365
878.000000	-0.000272
877.000000	-0.000196
876.000000	-0.000182
875.000000	-0.000247
874.000000	-0.000361
873.000000	-0.000457
872.000000	-0.000482
871.000000	-0.000443
870.000000	-0.000390
869.000000	-0.000365
868.000000	-0.000376
867.000000	-0.000410
866.000000	-0.000453
865.000000	-0.000490
864.000000	-0.000510
863.000000	-0.000507
862.000000	-0.000483
861.000000	-0.000447
860.000000	-0.000408
859.000000	-0.000382
858.000000	-0.000375
857.000000	-0.000375
856.000000	-0.000375
855.000000	-0.000386
854.000000	-0.000420
853.000000	-0.000462
852.000000	-0.000476
851.000000	-0.000451
850.000000	-0.000413
849.000000	-0.000388
848.000000	-0.000380
847.000000	-0.000388
846.000000	-0.000411
845.000000	-0.000447
844.000000	-0.000480
843.000000	-0.000502
842.000000	-0.000516
841.000000	-0.000516
840.000000	-0.000485
839.000000	-0.000423
838.000000	-0.000372
837.000000	-0.000367
836.000000	-0.000398
835.000000	-0.000427
834.000000	-0.000446
833.000000	-0.000486
832.000000	-0.000569
831.000000	-0.000662
830.000000	-0.000713
829.000000	-0.000700
828.000000	-0.000646
827.000000	-0.000587
826.000000	-0.000533
825.000000	-0.000477
824.000000	-0.000423
823.000000	-0.000390
822.000000	-0.000398
821.000000	-0.000439
820.000000	-0.000480
819.000000	-0.000494
818.000000	-0.000478
817.000000	-0.000455
816.000000	-0.000444
815.000000	-0.000440
814.000000	-0.000425
813.000000	-0.000393
812.000000	-0.000373
811.000000	-0.000403
810.000000	-0.000486
809.000000	-0.000586
808.000000	-0.000657
807.000000	-0.000687
806.000000	-0.000681
805.000000	-0.000645
804.000000	-0.000587
803.000000	-0.000530
802.000000	-0.000499
801.000000	-0.000493
800.000000	-0.000488
799.000000	-0.000473
798.000000	-0.000460
797.000000	-0.000462
796.000000	-0.000475
795.000000	-0.000492
794.000000	-0.000507
793.000000	-0.000502
792.000000	-0.000457
791.000000	-0.000379
790.000000	-0.000302
789.000000	-0.000258
788.000000	-0.000259
787.000000	-0.000305
786.000000	-0.000384
785.000000	-0.000451
784.000000	-0.000451
783.000000	-0.000376
782.000000	-0.000291
781.000000	-0.000271
780.000000	-0.000328
779.000000	-0.000419
778.000000	-0.000504
777.000000	-0.000569
776.000000	-0.000603
775.000000	-0.000592
774.000000	-0.000531
773.000000	-0.000430
772.000000	-0.000316
771.000000	-0.000241
770.000000	-0.000267
769.000000	-0.000402
768.000000	-0.000560
767.000000	-0.000627
766.000000	-0.000581
765.000000	-0.000503
764.000000	-0.000473
763.000000	-0.000492
762.000000	-0.000511
761.000000	-0.000507
760.000000	-0.000488
759.000000	-0.000461
758.000000	-0.000429
757.000000	-0.000409
756.000000	-0.000412
755.000000	-0.000427
754.000000	-0.000431
753.000000	-0.000422
752.000000	-0.000415
751.000000	-0.000415
750.000000	-0.000412
749.000000	-0.000407
748.000000	-0.000428
747.000000	-0.000482
746.000000	-0.000543
745.000000	-0.000571
744.000000	-0.000562
743.000000	-0.000549
742.000000	-0.000563
741.000000	-0.000604
740.000000	-0.000642
739.000000	-0.000648
738.000000	-0.000620
737.000000	-0.000585
736.000000	-0.000576
735.000000	-0.000601
734.000000	-0.000621
733.000000	-0.000579
732.000000	-0.000456
731.000000	-0.000315
730.000000	-0.000253
729.000000	-0.000300
728.000000	-0.000395
727.000000	-0.000453
726.000000	-0.000453
725.000000	-0.000433
724.000000	-0.000428
723.000000	-0.000435
722.000000	-0.000435
721.000000	-0.000424
720.000000	-0.000410
719.000000	-0.000398
718.000000	-0.000393
717.000000	-0.000392
716.000000	-0.000375
715.000000	-0.000320
714.000000	-0.000236
713.000000	-0.000164
712.000000	-0.000128
711.000000	-0.000113
710.000000	-0.000094
709.000000	-0.000079
708.000000	-0.000087
707.000000	-0.000120
706.000000	-0.000160
705.000000	-0.000193
704.000000	-0.000222
703.000000	-0.000264
702.000000	-0.000336
701.000000	-0.000436
700.000000	-0.000527
699.000000	-0.000553
698.000000	-0.000498
697.000000	-0.000413
696.000000	-0.000364
695.000000	-0.000353
694.000000	-0.000327
693.000000	-0.000257
692.000000	-0.000171
691.000000	-0.000119
690.000000	-0.000117
689.000000	-0.000155
688.000000	-0.000219
687.000000	-0.000301
686.000000	-0.000384
685.000000	-0.000441
684.000000	-0.000445
683.000000	-0.000388
682.000000	-0.000301
681.000000	-0.000235
680.000000	-0.000232
679.000000	-0.000298
678.000000	-0.000400
677.000000	-0.000473
676.000000	-0.000460
675.000000	-0.000374
674.000000	-0.000298
673.000000	-0.000312
672.000000	-0.000431
671.000000	-0.000631
670.000000	-0.000898
669.000000	-0.001195
668.000000	-0.001318
667.000000	-0.001050
666.000000	-0.000699
665.000000	-0.000478
664.000000	-0.000340
663.000000	-0.000235
662.000000	-0.000151
661.000000	-0.000106
660.000000	-0.000133
659.000000	-0.000233
658.000000	-0.000363
657.000000	-0.000457
656.000000	-0.000484
655.000000	-0.000457
654.000000	-0.000389
653.000000	-0.000276
652.000000	-0.000131
651.000000	0.000009
650.000000	0.000106
649.000000	0.000132
648.000000	0.000067
647.000000	-0.000064
646.000000	-0.000163
645.000000	-0.000147
644.000000	-0.000050
643.000000	0.000014
642.000000	-0.000038
641.000000	-0.000198
640.000000	-0.000413
639.000000	-0.000614
638.000000	-0.000715
637.000000	-0.000663
636.000000	-0.000513
635.000000	-0.000399
634.000000	-0.000395
633.000000	-0.000438
632.000000	-0.000430
631.000000	-0.000351
630.000000	-0.000256
629.000000	-0.000189
628.000000	-0.000157
627.000000	-0.000143
626.000000	-0.000130
625.000000	-0.000114
624.000000	-0.000120
623.000000	-0.000166
622.000000	-0.000230
621.000000	-0.000265
620.000000	-0.000274
619.000000	-0.000320
618.000000	-0.000457
617.000000	-0.000654
616.000000	-0.000810
615.000000	-0.000833
614.000000	-0.000696
613.000000	-0.000444
612.000000	-0.000179
611.000000	0.000001
610.000000	0.000051
609.000000	-0.000025
608.000000	-0.000202
607.000000	-0.000434
606.000000	-0.000624
605.000000	-0.000677
604.000000	-0.000595
603.000000	-0.000481
602.000000	-0.000434
601.000000	-0.000474
600.000000	-0.000557
599.000000	-0.000623
598.000000	-0.000619
597.000000	-0.000528
596.000000	-0.000395
595.000000	-0.000295
594.000000	-0.000239
593.000000	-0.000174
592.000000	-0.000068
591.000000	0.000028
590.000000	0.000046
589.000000	-0.000021
588.000000	-0.000120
587.000000	-0.000201
586.000000	-0.000240
585.000000	-0.000252
584.000000	-0.000288
583.000000	-0.000370
582.000000	-0.000443
581.000000	-0.000428
580.000000	-0.000356
579.000000	-0.000361
578.000000	-0.000517
577.000000	-0.000727
576.000000	-0.000824
575.000000	-0.000752
574.000000	-0.000594
573.000000	-0.000466
572.000000	-0.000429
571.000000	-0.000471
570.000000	-0.000516
569.000000	-0.000496
568.000000	-0.000436
567.000000	-0.000438
566.000000	-0.000537
565.000000	-0.000633
564.000000	-0.000628
563.000000	-0.000555
562.000000	-0.000524
561.000000	-0.000564
560.000000	-0.000619
559.000000	-0.000646
558.000000	-0.000643
557.000000	-0.000583
556.000000	-0.000409
555.000000	-0.000130
554.000000	0.000131
553.000000	0.000236
552.000000	0.000125
551.000000	-0.000143
550.000000	-0.000418
549.000000	-0.000543
548.000000	-0.000490
547.000000	-0.000375
546.000000	-0.000329
545.000000	-0.000358
544.000000	-0.000381
543.000000	-0.000349
542.000000	-0.000243
541.000000	-0.000031
540.000000	0.000269
539.000000	0.000483
538.000000	0.000407
537.000000	0.000053
536.000000	-0.000327
535.000000	-0.000499
534.000000	-0.000441
533.000000	-0.000261
532.000000	-0.000042
531.000000	0.000160
530.000000	0.000257
529.000000	0.000199
528.000000	0.000031
527.000000	-0.000170
526.000000	-0.000360
525.000000	-0.000492
524.000000	-0.000484
523.000000	-0.000298
522.000000	-0.000034
521.000000	0.000155
520.000000	0.000203
519.000000	0.000145
518.000000	0.000014
517.000000	-0.000193
516.000000	-0.000428
515.000000	-0.000589
514.000000	-0.000633
513.000000	-0.000627
512.000000	-0.000641
511.000000	-0.000651
510.000000	-0.000586
509.000000	-0.000438
508.000000	-0.000271
507.000000	-0.000155
506.000000	-0.000114
505.000000	-0.000137
504.000000	-0.000189
503.000000	-0.000214
502.000000	-0.000192
501.000000	-0.000200
500.000000	-0.000338
499.000000	-0.000569
498.000000	-0.000728
497.000000	-0.000704
496.000000	-0.000578
495.000000	-0.000526
494.000000	-0.000619
493.000000	-0.000779
492.000000	-0.000913
491.000000	-0.000985
490.000000	-0.000985
489.000000	-0.000901
488.000000	-0.000769
487.000000	-0.000656
486.000000	-0.000574
485.000000	-0.000458
484.000000	-0.000279
483.000000	-0.000104
482.000000	-0.000012
481.000000	-0.000035
480.000000	-0.000202
479.000000	-0.000525
478.000000	-0.000884
477.000000	-0.001037
476.000000	-0.000862
475.000000	-0.000548
474.000000	-0.000445
473.000000	-0.000741
472.000000	-0.001289
471.000000	-0.001772
470.000000	-0.002015
469.000000	-0.002065
468.000000	-0.002075
467.000000	-0.002207
466.000000	-0.002512
465.000000	-0.002914
464.000000	-0.003324
463.000000	-0.003712
462.000000	-0.004026
461.000000	-0.004131
460.000000	-0.003920
459.000000	-0.003412
458.000000	-0.002761
457.000000	-0.002168
456.000000	-0.001759
455.000000	-0.001576
454.000000	-0.001588
453.000000	-0.001682
452.000000	-0.001755
451.000000	-0.001850
450.000000	-0.002093
