PE IR       SUBTECH     SPECTRUM    ASCII       PEDS        4.00        
   -1
Vierge009_1.ASC
23/07/04
15:05:46.00
23/07/04
15:15:40.00
uco
Sample 009 By uco Date Tuesday, July 04 2023
450.000000
#HDR
-1
-1
#GR
cm-1
A
1.0
0.0
4000.000000
-1.000000
3551
8
0.001302
-0.002044
#DATA
4000.000000	-0.000521
3999.000000	-0.000487
3998.000000	-0.000468
3997.000000	-0.000471
3996.000000	-0.000491
3995.000000	-0.000499
3994.000000	-0.000512
3993.000000	-0.000509
3992.000000	-0.000497
3991.000000	-0.000480
3990.000000	-0.000464
3989.000000	-0.000450
3988.000000	-0.000439
3987.000000	-0.000435
3986.000000	-0.000436
3985.000000	-0.000443
3984.000000	-0.000455
3983.000000	-0.000471
3982.000000	-0.000485
3981.000000	-0.000487
3980.000000	-0.000476
3979.000000	-0.000454
3978.000000	-0.000431
3977.000000	-0.000418
3976.000000	-0.000418
3975.000000	-0.000430
3974.000000	-0.000447
3973.000000	-0.000460
3972.000000	-0.000462
3971.000000	-0.000452
3970.000000	-0.000430
3969.000000	-0.000398
3968.000000	-0.000354
3967.000000	-0.000303
3966.000000	-0.000257
3965.000000	-0.000229
3964.000000	-0.000228
3963.000000	-0.000251
3962.000000	-0.000291
3961.000000	-0.000336
3960.000000	-0.000375
3959.000000	-0.000404
3958.000000	-0.000418
3957.000000	-0.000424
3956.000000	-0.000424
3955.000000	-0.000423
3954.000000	-0.000419
3953.000000	-0.000417
3952.000000	-0.000427
3951.000000	-0.000452
3950.000000	-0.000484
3949.000000	-0.000503
3948.000000	-0.000497
3947.000000	-0.000469
3946.000000	-0.000438
3945.000000	-0.000416
3944.000000	-0.000408
3943.000000	-0.000409
3942.000000	-0.000415
3941.000000	-0.000425
3940.000000	-0.000438
3939.000000	-0.000442
3938.000000	-0.000432
3937.000000	-0.000409
3936.000000	-0.000388
3935.000000	-0.000385
3934.000000	-0.000406
3933.000000	-0.000442
3932.000000	-0.000477
3931.000000	-0.000496
3930.000000	-0.000488
3929.000000	-0.000458
3928.000000	-0.000418
3927.000000	-0.000388
3926.000000	-0.000378
3925.000000	-0.000380
3924.000000	-0.000378
3923.000000	-0.000370
3922.000000	-0.000367
3921.000000	-0.000377
3920.000000	-0.000400
3919.000000	-0.000427
3918.000000	-0.000447
3917.000000	-0.000449
3916.000000	-0.000432
3915.000000	-0.000409
3914.000000	-0.000395
3913.000000	-0.000397
3912.000000	-0.000411
3911.000000	-0.000429
3910.000000	-0.000447
3909.000000	-0.000460
3908.000000	-0.000466
3907.000000	-0.000470
3906.000000	-0.000480
3905.000000	-0.000498
3904.000000	-0.000515
3903.000000	-0.000520
3902.000000	-0.000512
3901.000000	-0.000499
3900.000000	-0.000487
3899.000000	-0.000478
3898.000000	-0.000470
3897.000000	-0.000460
3896.000000	-0.000444
3895.000000	-0.000422
3894.000000	-0.000405
3893.000000	-0.000403
3892.000000	-0.000416
3891.000000	-0.000424
3890.000000	-0.000416
3889.000000	-0.000415
3888.000000	-0.000448
3887.000000	-0.000507
3886.000000	-0.000547
3885.000000	-0.000530
3884.000000	-0.000469
3883.000000	-0.000414
3882.000000	-0.000388
3881.000000	-0.000381
3880.000000	-0.000376
3879.000000	-0.000366
3878.000000	-0.000369
3877.000000	-0.000398
3876.000000	-0.000448
3875.000000	-0.000484
3874.000000	-0.000477
3873.000000	-0.000443
3872.000000	-0.000425
3871.000000	-0.000448
3870.000000	-0.000480
3869.000000	-0.000478
3868.000000	-0.000448
3867.000000	-0.000423
3866.000000	-0.000414
3865.000000	-0.000400
3864.000000	-0.000380
3863.000000	-0.000372
3862.000000	-0.000386
3861.000000	-0.000406
3860.000000	-0.000413
3859.000000	-0.000397
3858.000000	-0.000360
3857.000000	-0.000314
3856.000000	-0.000283
3855.000000	-0.000289
3854.000000	-0.000319
3853.000000	-0.000345
3852.000000	-0.000360
3851.000000	-0.000383
3850.000000	-0.000413
3849.000000	-0.000431
3848.000000	-0.000427
3847.000000	-0.000410
3846.000000	-0.000400
3845.000000	-0.000405
3844.000000	-0.000412
3843.000000	-0.000397
3842.000000	-0.000351
3841.000000	-0.000297
3840.000000	-0.000263
3839.000000	-0.000256
3838.000000	-0.000259
3837.000000	-0.000255
3836.000000	-0.000250
3835.000000	-0.000260
3834.000000	-0.000294
3833.000000	-0.000351
3832.000000	-0.000410
3831.000000	-0.000448
3830.000000	-0.000454
3829.000000	-0.000436
3828.000000	-0.000412
3827.000000	-0.000395
3826.000000	-0.000384
3825.000000	-0.000378
3824.000000	-0.000388
3823.000000	-0.000420
3822.000000	-0.000448
3821.000000	-0.000432
3820.000000	-0.000363
3819.000000	-0.000285
3818.000000	-0.000241
3817.000000	-0.000237
3816.000000	-0.000241
3815.000000	-0.000227
3814.000000	-0.000215
3813.000000	-0.000229
3812.000000	-0.000264
3811.000000	-0.000294
3810.000000	-0.000313
3809.000000	-0.000331
3808.000000	-0.000352
3807.000000	-0.000352
3806.000000	-0.000314
3805.000000	-0.000267
3804.000000	-0.000259
3803.000000	-0.000313
3802.000000	-0.000392
3801.000000	-0.000431
3800.000000	-0.000416
3799.000000	-0.000389
3798.000000	-0.000380
3797.000000	-0.000381
3796.000000	-0.000373
3795.000000	-0.000356
3794.000000	-0.000346
3793.000000	-0.000352
3792.000000	-0.000364
3791.000000	-0.000376
3790.000000	-0.000391
3789.000000	-0.000414
3788.000000	-0.000441
3787.000000	-0.000457
3786.000000	-0.000458
3785.000000	-0.000446
3784.000000	-0.000434
3783.000000	-0.000427
3782.000000	-0.000427
3781.000000	-0.000431
3780.000000	-0.000432
3779.000000	-0.000425
3778.000000	-0.000406
3777.000000	-0.000380
3776.000000	-0.000354
3775.000000	-0.000335
3774.000000	-0.000327
3773.000000	-0.000338
3772.000000	-0.000371
3771.000000	-0.000414
3770.000000	-0.000439
3769.000000	-0.000440
3768.000000	-0.000436
3767.000000	-0.000448
3766.000000	-0.000472
3765.000000	-0.000492
3764.000000	-0.000500
3763.000000	-0.000513
3762.000000	-0.000537
3761.000000	-0.000551
3760.000000	-0.000533
3759.000000	-0.000493
3758.000000	-0.000460
3757.000000	-0.000441
3756.000000	-0.000424
3755.000000	-0.000400
3754.000000	-0.000363
3753.000000	-0.000310
3752.000000	-0.000253
3751.000000	-0.000222
3750.000000	-0.000231
3749.000000	-0.000247
3748.000000	-0.000243
3747.000000	-0.000245
3746.000000	-0.000287
3745.000000	-0.000362
3744.000000	-0.000418
3743.000000	-0.000440
3742.000000	-0.000460
3741.000000	-0.000491
3740.000000	-0.000510
3739.000000	-0.000502
3738.000000	-0.000474
3737.000000	-0.000421
3736.000000	-0.000330
3735.000000	-0.000229
3734.000000	-0.000188
3733.000000	-0.000229
3732.000000	-0.000302
3731.000000	-0.000347
3730.000000	-0.000357
3729.000000	-0.000367
3728.000000	-0.000400
3727.000000	-0.000442
3726.000000	-0.000459
3725.000000	-0.000437
3724.000000	-0.000394
3723.000000	-0.000358
3722.000000	-0.000347
3721.000000	-0.000361
3720.000000	-0.000382
3719.000000	-0.000393
3718.000000	-0.000385
3717.000000	-0.000366
3716.000000	-0.000359
3715.000000	-0.000383
3714.000000	-0.000433
3713.000000	-0.000472
3712.000000	-0.000465
3711.000000	-0.000414
3710.000000	-0.000362
3709.000000	-0.000343
3708.000000	-0.000360
3707.000000	-0.000394
3706.000000	-0.000430
3705.000000	-0.000462
3704.000000	-0.000490
3703.000000	-0.000512
3702.000000	-0.000523
3701.000000	-0.000523
3700.000000	-0.000506
3699.000000	-0.000474
3698.000000	-0.000438
3697.000000	-0.000408
3696.000000	-0.000390
3695.000000	-0.000389
3694.000000	-0.000397
3693.000000	-0.000400
3692.000000	-0.000388
3691.000000	-0.000365
3690.000000	-0.000351
3689.000000	-0.000351
3688.000000	-0.000352
3687.000000	-0.000342
3686.000000	-0.000331
3685.000000	-0.000330
3684.000000	-0.000340
3683.000000	-0.000356
3682.000000	-0.000381
3681.000000	-0.000412
3680.000000	-0.000434
3679.000000	-0.000439
3678.000000	-0.000447
3677.000000	-0.000480
3676.000000	-0.000520
3675.000000	-0.000529
3674.000000	-0.000508
3673.000000	-0.000496
3672.000000	-0.000516
3671.000000	-0.000542
3670.000000	-0.000527
3669.000000	-0.000476
3668.000000	-0.000435
3667.000000	-0.000429
3666.000000	-0.000444
3665.000000	-0.000456
3664.000000	-0.000458
3663.000000	-0.000456
3662.000000	-0.000456
3661.000000	-0.000453
3660.000000	-0.000440
3659.000000	-0.000423
3658.000000	-0.000412
3657.000000	-0.000402
3656.000000	-0.000377
3655.000000	-0.000335
3654.000000	-0.000294
3653.000000	-0.000274
3652.000000	-0.000280
3651.000000	-0.000300
3650.000000	-0.000328
3649.000000	-0.000369
3648.000000	-0.000412
3647.000000	-0.000434
3646.000000	-0.000432
3645.000000	-0.000420
3644.000000	-0.000417
3643.000000	-0.000419
3642.000000	-0.000410
3641.000000	-0.000377
3640.000000	-0.000335
3639.000000	-0.000315
3638.000000	-0.000331
3637.000000	-0.000374
3636.000000	-0.000420
3635.000000	-0.000448
3634.000000	-0.000446
3633.000000	-0.000422
3632.000000	-0.000405
3631.000000	-0.000428
3630.000000	-0.000485
3629.000000	-0.000527
3628.000000	-0.000512
3627.000000	-0.000461
3626.000000	-0.000414
3625.000000	-0.000388
3624.000000	-0.000373
3623.000000	-0.000364
3622.000000	-0.000367
3621.000000	-0.000386
3620.000000	-0.000417
3619.000000	-0.000450
3618.000000	-0.000473
3617.000000	-0.000477
3616.000000	-0.000460
3615.000000	-0.000431
3614.000000	-0.000409
3613.000000	-0.000408
3612.000000	-0.000430
3611.000000	-0.000459
3610.000000	-0.000474
3609.000000	-0.000463
3608.000000	-0.000429
3607.000000	-0.000390
3606.000000	-0.000364
3605.000000	-0.000352
3604.000000	-0.000348
3603.000000	-0.000345
3602.000000	-0.000344
3601.000000	-0.000349
3600.000000	-0.000360
3599.000000	-0.000375
3598.000000	-0.000387
3597.000000	-0.000395
3596.000000	-0.000398
3595.000000	-0.000402
3594.000000	-0.000409
3593.000000	-0.000413
3592.000000	-0.000407
3591.000000	-0.000384
3590.000000	-0.000352
3589.000000	-0.000329
3588.000000	-0.000328
3587.000000	-0.000347
3586.000000	-0.000365
3585.000000	-0.000358
3584.000000	-0.000330
3583.000000	-0.000299
3582.000000	-0.000283
3581.000000	-0.000288
3580.000000	-0.000304
3579.000000	-0.000314
3578.000000	-0.000307
3577.000000	-0.000283
3576.000000	-0.000261
3575.000000	-0.000258
3574.000000	-0.000281
3573.000000	-0.000316
3572.000000	-0.000343
3571.000000	-0.000354
3570.000000	-0.000355
3569.000000	-0.000354
3568.000000	-0.000347
3567.000000	-0.000328
3566.000000	-0.000301
3565.000000	-0.000284
3564.000000	-0.000289
3563.000000	-0.000318
3562.000000	-0.000360
3561.000000	-0.000392
3560.000000	-0.000396
3559.000000	-0.000369
3558.000000	-0.000329
3557.000000	-0.000293
3556.000000	-0.000268
3555.000000	-0.000248
3554.000000	-0.000227
3553.000000	-0.000210
3552.000000	-0.000204
3551.000000	-0.000210
3550.000000	-0.000223
3549.000000	-0.000238
3548.000000	-0.000251
3547.000000	-0.000255
3546.000000	-0.000245
3545.000000	-0.000217
3544.000000	-0.000175
3543.000000	-0.000129
3542.000000	-0.000097
3541.000000	-0.000097
3540.000000	-0.000140
3539.000000	-0.000212
3538.000000	-0.000283
3537.000000	-0.000326
3536.000000	-0.000335
3535.000000	-0.000327
3534.000000	-0.000318
3533.000000	-0.000306
3532.000000	-0.000284
3531.000000	-0.000255
3530.000000	-0.000235
3529.000000	-0.000237
3528.000000	-0.000258
3527.000000	-0.000283
3526.000000	-0.000298
3525.000000	-0.000303
3524.000000	-0.000307
3523.000000	-0.000317
3522.000000	-0.000330
3521.000000	-0.000338
3520.000000	-0.000330
3519.000000	-0.000305
3518.000000	-0.000273
3517.000000	-0.000249
3516.000000	-0.000242
3515.000000	-0.000250
3514.000000	-0.000262
3513.000000	-0.000270
3512.000000	-0.000267
3511.000000	-0.000259
3510.000000	-0.000252
3509.000000	-0.000253
3508.000000	-0.000263
3507.000000	-0.000282
3506.000000	-0.000309
3505.000000	-0.000339
3504.000000	-0.000363
3503.000000	-0.000369
3502.000000	-0.000355
3501.000000	-0.000332
3500.000000	-0.000314
3499.000000	-0.000308
3498.000000	-0.000313
3497.000000	-0.000322
3496.000000	-0.000329
3495.000000	-0.000332
3494.000000	-0.000331
3493.000000	-0.000323
3492.000000	-0.000308
3491.000000	-0.000292
3490.000000	-0.000275
3489.000000	-0.000256
3488.000000	-0.000233
3487.000000	-0.000209
3486.000000	-0.000189
3485.000000	-0.000173
3484.000000	-0.000156
3483.000000	-0.000137
3482.000000	-0.000120
3481.000000	-0.000117
3480.000000	-0.000130
3479.000000	-0.000151
3478.000000	-0.000172
3477.000000	-0.000188
3476.000000	-0.000197
3475.000000	-0.000204
3474.000000	-0.000216
3473.000000	-0.000238
3472.000000	-0.000266
3471.000000	-0.000285
3470.000000	-0.000288
3469.000000	-0.000276
3468.000000	-0.000261
3467.000000	-0.000250
3466.000000	-0.000245
3465.000000	-0.000245
3464.000000	-0.000244
3463.000000	-0.000236
3462.000000	-0.000216
3461.000000	-0.000189
3460.000000	-0.000171
3459.000000	-0.000172
3458.000000	-0.000187
3457.000000	-0.000196
3456.000000	-0.000182
3455.000000	-0.000147
3454.000000	-0.000109
3453.000000	-0.000089
3452.000000	-0.000091
3451.000000	-0.000102
3450.000000	-0.000115
3449.000000	-0.000134
3448.000000	-0.000168
3447.000000	-0.000210
3446.000000	-0.000239
3445.000000	-0.000241
3444.000000	-0.000214
3443.000000	-0.000168
3442.000000	-0.000120
3441.000000	-0.000087
3440.000000	-0.000086
3439.000000	-0.000113
3438.000000	-0.000151
3437.000000	-0.000179
3436.000000	-0.000191
3435.000000	-0.000195
3434.000000	-0.000196
3433.000000	-0.000185
3432.000000	-0.000150
3431.000000	-0.000100
3430.000000	-0.000067
3429.000000	-0.000087
3428.000000	-0.000160
3427.000000	-0.000245
3426.000000	-0.000293
3425.000000	-0.000287
3424.000000	-0.000249
3423.000000	-0.000204
3422.000000	-0.000160
3421.000000	-0.000111
3420.000000	-0.000069
3419.000000	-0.000051
3418.000000	-0.000067
3417.000000	-0.000100
3416.000000	-0.000129
3415.000000	-0.000144
3414.000000	-0.000151
3413.000000	-0.000155
3412.000000	-0.000153
3411.000000	-0.000142
3410.000000	-0.000124
3409.000000	-0.000109
3408.000000	-0.000106
3407.000000	-0.000115
3406.000000	-0.000126
3405.000000	-0.000132
3404.000000	-0.000133
3403.000000	-0.000139
3402.000000	-0.000149
3401.000000	-0.000158
3400.000000	-0.000157
3399.000000	-0.000141
3398.000000	-0.000116
3397.000000	-0.000090
3396.000000	-0.000075
3395.000000	-0.000073
3394.000000	-0.000076
3393.000000	-0.000069
3392.000000	-0.000049
3391.000000	-0.000027
3390.000000	-0.000020
3389.000000	-0.000030
3388.000000	-0.000049
3387.000000	-0.000067
3386.000000	-0.000079
3385.000000	-0.000084
3384.000000	-0.000075
3383.000000	-0.000049
3382.000000	-0.000015
3381.000000	0.000007
3380.000000	-0.000006
3379.000000	-0.000056
3378.000000	-0.000119
3377.000000	-0.000162
3376.000000	-0.000171
3375.000000	-0.000155
3374.000000	-0.000137
3373.000000	-0.000129
3372.000000	-0.000126
3371.000000	-0.000113
3370.000000	-0.000084
3369.000000	-0.000045
3368.000000	-0.000011
3367.000000	0.000005
3366.000000	0.000007
3365.000000	0.000010
3364.000000	0.000027
3363.000000	0.000052
3362.000000	0.000066
3361.000000	0.000058
3360.000000	0.000030
3359.000000	-0.000003
3358.000000	-0.000027
3357.000000	-0.000041
3356.000000	-0.000056
3355.000000	-0.000085
3354.000000	-0.000126
3353.000000	-0.000158
3352.000000	-0.000158
3351.000000	-0.000122
3350.000000	-0.000071
3349.000000	-0.000031
3348.000000	-0.000013
3347.000000	-0.000011
3346.000000	-0.000012
3345.000000	-0.000007
3344.000000	0.000008
3343.000000	0.000026
3342.000000	0.000038
3341.000000	0.000038
3340.000000	0.000028
3339.000000	0.000019
3338.000000	0.000027
3337.000000	0.000053
3336.000000	0.000084
3335.000000	0.000103
3334.000000	0.000099
3333.000000	0.000076
3332.000000	0.000045
3331.000000	0.000017
3330.000000	0.000003
3329.000000	0.000010
3328.000000	0.000033
3327.000000	0.000063
3326.000000	0.000085
3325.000000	0.000097
3324.000000	0.000100
3323.000000	0.000099
3322.000000	0.000091
3321.000000	0.000073
3320.000000	0.000045
3319.000000	0.000022
3318.000000	0.000017
3317.000000	0.000034
3316.000000	0.000054
3315.000000	0.000046
3314.000000	-0.000006
3313.000000	-0.000084
3312.000000	-0.000147
3311.000000	-0.000160
3310.000000	-0.000112
3309.000000	-0.000026
3308.000000	0.000060
3307.000000	0.000110
3306.000000	0.000116
3305.000000	0.000097
3304.000000	0.000082
3303.000000	0.000084
3302.000000	0.000098
3301.000000	0.000112
3300.000000	0.000118
3299.000000	0.000110
3298.000000	0.000093
3297.000000	0.000076
3296.000000	0.000067
3295.000000	0.000067
3294.000000	0.000073
3293.000000	0.000082
3292.000000	0.000092
3291.000000	0.000098
3290.000000	0.000097
3289.000000	0.000089
3288.000000	0.000081
3287.000000	0.000079
3286.000000	0.000080
3285.000000	0.000082
3284.000000	0.000087
3283.000000	0.000094
3282.000000	0.000102
3281.000000	0.000108
3280.000000	0.000110
3279.000000	0.000107
3278.000000	0.000099
3277.000000	0.000090
3276.000000	0.000084
3275.000000	0.000081
3274.000000	0.000071
3273.000000	0.000055
3272.000000	0.000044
3271.000000	0.000048
3270.000000	0.000060
3269.000000	0.000065
3268.000000	0.000062
3267.000000	0.000061
3266.000000	0.000070
3265.000000	0.000083
3264.000000	0.000088
3263.000000	0.000079
3262.000000	0.000064
3261.000000	0.000056
3260.000000	0.000064
3259.000000	0.000084
3258.000000	0.000105
3257.000000	0.000113
3256.000000	0.000102
3255.000000	0.000083
3254.000000	0.000069
3253.000000	0.000070
3252.000000	0.000084
3251.000000	0.000099
3250.000000	0.000108
3249.000000	0.000107
3248.000000	0.000096
3247.000000	0.000076
3246.000000	0.000054
3245.000000	0.000047
3244.000000	0.000067
3243.000000	0.000111
3242.000000	0.000152
3241.000000	0.000163
3240.000000	0.000139
3239.000000	0.000098
3238.000000	0.000053
3237.000000	0.000004
3236.000000	-0.000052
3235.000000	-0.000103
3234.000000	-0.000125
3233.000000	-0.000110
3232.000000	-0.000068
3231.000000	-0.000017
3230.000000	0.000030
3229.000000	0.000074
3228.000000	0.000107
3227.000000	0.000122
3226.000000	0.000115
3225.000000	0.000091
3224.000000	0.000059
3223.000000	0.000028
3222.000000	0.000011
3221.000000	0.000018
3220.000000	0.000049
3219.000000	0.000086
3218.000000	0.000104
3217.000000	0.000097
3216.000000	0.000082
3215.000000	0.000082
3214.000000	0.000102
3213.000000	0.000127
3212.000000	0.000134
3211.000000	0.000115
3210.000000	0.000081
3209.000000	0.000054
3208.000000	0.000050
3207.000000	0.000063
3206.000000	0.000077
3205.000000	0.000073
3204.000000	0.000049
3203.000000	0.000017
3202.000000	-0.000009
3201.000000	-0.000022
3200.000000	-0.000020
3199.000000	-0.000005
3198.000000	0.000021
3197.000000	0.000052
3196.000000	0.000069
3195.000000	0.000052
3194.000000	-0.000004
3193.000000	-0.000072
3192.000000	-0.000115
3191.000000	-0.000109
3190.000000	-0.000064
3189.000000	-0.000008
3188.000000	0.000032
3187.000000	0.000044
3186.000000	0.000034
3185.000000	0.000014
3184.000000	0.000000
3183.000000	0.000000
3182.000000	0.000013
3181.000000	0.000033
3180.000000	0.000047
3179.000000	0.000047
3178.000000	0.000031
3177.000000	0.000007
3176.000000	-0.000016
3175.000000	-0.000031
3174.000000	-0.000039
3173.000000	-0.000037
3172.000000	-0.000030
3171.000000	-0.000028
3170.000000	-0.000037
3169.000000	-0.000046
3168.000000	-0.000031
3167.000000	0.000015
3166.000000	0.000069
3165.000000	0.000096
3164.000000	0.000081
3163.000000	0.000043
3162.000000	0.000006
3161.000000	-0.000015
3160.000000	-0.000027
3159.000000	-0.000043
3158.000000	-0.000066
3157.000000	-0.000087
3156.000000	-0.000095
3155.000000	-0.000088
3154.000000	-0.000070
3153.000000	-0.000047
3152.000000	-0.000021
3151.000000	-0.000000
3150.000000	-0.000001
3149.000000	-0.000028
3148.000000	-0.000066
3147.000000	-0.000087
3146.000000	-0.000075
3145.000000	-0.000039
3144.000000	0.000002
3143.000000	0.000035
3142.000000	0.000060
3141.000000	0.000080
3140.000000	0.000096
3139.000000	0.000107
3138.000000	0.000109
3137.000000	0.000101
3136.000000	0.000090
3135.000000	0.000084
3134.000000	0.000082
3133.000000	0.000070
3132.000000	0.000039
3131.000000	-0.000004
3130.000000	-0.000035
3129.000000	-0.000031
3128.000000	0.000005
3127.000000	0.000048
3126.000000	0.000073
3125.000000	0.000074
3124.000000	0.000059
3123.000000	0.000039
3122.000000	0.000013
3121.000000	-0.000022
3120.000000	-0.000059
3119.000000	-0.000075
3118.000000	-0.000057
3117.000000	-0.000008
3116.000000	0.000042
3115.000000	0.000064
3114.000000	0.000051
3113.000000	0.000024
3112.000000	0.000010
3111.000000	0.000022
3110.000000	0.000048
3109.000000	0.000072
3108.000000	0.000082
3107.000000	0.000075
3106.000000	0.000055
3105.000000	0.000031
3104.000000	0.000019
3103.000000	0.000025
3102.000000	0.000040
3101.000000	0.000049
3100.000000	0.000043
3099.000000	0.000027
3098.000000	0.000009
3097.000000	-0.000002
3096.000000	0.000000
3095.000000	0.000016
3094.000000	0.000036
3093.000000	0.000049
3092.000000	0.000047
3091.000000	0.000030
3090.000000	0.000013
3089.000000	0.000011
3088.000000	0.000031
3087.000000	0.000058
3086.000000	0.000068
3085.000000	0.000054
3084.000000	0.000033
3083.000000	0.000028
3082.000000	0.000046
3081.000000	0.000081
3080.000000	0.000122
3079.000000	0.000157
3078.000000	0.000178
3077.000000	0.000179
3076.000000	0.000165
3075.000000	0.000147
3074.000000	0.000130
3073.000000	0.000114
3072.000000	0.000099
3071.000000	0.000088
3070.000000	0.000084
3069.000000	0.000087
3068.000000	0.000096
3067.000000	0.000106
3066.000000	0.000104
3065.000000	0.000081
3064.000000	0.000040
3063.000000	-0.000004
3062.000000	-0.000035
3061.000000	-0.000053
3060.000000	-0.000059
3059.000000	-0.000048
3058.000000	-0.000014
3057.000000	0.000037
3056.000000	0.000087
3055.000000	0.000124
3054.000000	0.000140
3053.000000	0.000138
3052.000000	0.000121
3051.000000	0.000099
3050.000000	0.000086
3049.000000	0.000091
3048.000000	0.000109
3047.000000	0.000125
3046.000000	0.000124
3045.000000	0.000105
3044.000000	0.000082
3043.000000	0.000071
3042.000000	0.000075
3041.000000	0.000083
3040.000000	0.000077
3039.000000	0.000055
3038.000000	0.000031
3037.000000	0.000023
3036.000000	0.000036
3035.000000	0.000056
3034.000000	0.000064
3033.000000	0.000050
3032.000000	0.000024
3031.000000	0.000003
3030.000000	-0.000002
3029.000000	0.000006
3028.000000	0.000016
3027.000000	0.000020
3026.000000	0.000017
3025.000000	0.000012
3024.000000	0.000009
3023.000000	0.000010
3022.000000	0.000015
3021.000000	0.000020
3020.000000	0.000020
3019.000000	0.000011
3018.000000	-0.000002
3017.000000	-0.000008
3016.000000	0.000000
3015.000000	0.000018
3014.000000	0.000029
3013.000000	0.000025
3012.000000	0.000011
3011.000000	0.000002
3010.000000	0.000009
3009.000000	0.000029
3008.000000	0.000055
3007.000000	0.000079
3006.000000	0.000105
3005.000000	0.000139
3004.000000	0.000187
3003.000000	0.000243
3002.000000	0.000281
3001.000000	0.000277
3000.000000	0.000224
2999.000000	0.000143
2998.000000	0.000068
2997.000000	0.000027
2996.000000	0.000024
2995.000000	0.000043
2994.000000	0.000067
2993.000000	0.000080
2992.000000	0.000078
2991.000000	0.000063
2990.000000	0.000047
2989.000000	0.000039
2988.000000	0.000040
2987.000000	0.000043
2986.000000	0.000041
2985.000000	0.000033
2984.000000	0.000021
2983.000000	0.000008
2982.000000	0.000002
2981.000000	0.000012
2980.000000	0.000039
2979.000000	0.000073
2978.000000	0.000099
2977.000000	0.000107
2976.000000	0.000101
2975.000000	0.000091
2974.000000	0.000084
2973.000000	0.000087
2972.000000	0.000105
2971.000000	0.000128
2970.000000	0.000140
2969.000000	0.000126
2968.000000	0.000083
2967.000000	0.000026
2966.000000	-0.000022
2965.000000	-0.000045
2964.000000	-0.000036
2963.000000	-0.000002
2962.000000	0.000039
2961.000000	0.000074
2960.000000	0.000092
2959.000000	0.000093
2958.000000	0.000083
2957.000000	0.000068
2956.000000	0.000056
2955.000000	0.000051
2954.000000	0.000050
2953.000000	0.000045
2952.000000	0.000035
2951.000000	0.000024
2950.000000	0.000021
2949.000000	0.000030
2948.000000	0.000046
2947.000000	0.000065
2946.000000	0.000082
2945.000000	0.000099
2944.000000	0.000118
2943.000000	0.000143
2942.000000	0.000166
2941.000000	0.000184
2940.000000	0.000194
2939.000000	0.000196
2938.000000	0.000187
2937.000000	0.000162
2936.000000	0.000121
2935.000000	0.000076
2934.000000	0.000047
2933.000000	0.000045
2932.000000	0.000071
2931.000000	0.000110
2930.000000	0.000150
2929.000000	0.000187
2928.000000	0.000214
2927.000000	0.000224
2926.000000	0.000207
2925.000000	0.000165
2924.000000	0.000114
2923.000000	0.000070
2922.000000	0.000038
2921.000000	0.000019
2920.000000	0.000015
2919.000000	0.000028
2918.000000	0.000055
2917.000000	0.000082
2916.000000	0.000102
2915.000000	0.000118
2914.000000	0.000135
2913.000000	0.000151
2912.000000	0.000152
2911.000000	0.000131
2910.000000	0.000094
2909.000000	0.000065
2908.000000	0.000056
2907.000000	0.000065
2906.000000	0.000073
2905.000000	0.000074
2904.000000	0.000077
2903.000000	0.000092
2902.000000	0.000113
2901.000000	0.000122
2900.000000	0.000111
2899.000000	0.000092
2898.000000	0.000078
2897.000000	0.000081
2896.000000	0.000101
2895.000000	0.000134
2894.000000	0.000168
2893.000000	0.000190
2892.000000	0.000195
2891.000000	0.000191
2890.000000	0.000185
2889.000000	0.000175
2888.000000	0.000159
2887.000000	0.000139
2886.000000	0.000125
2885.000000	0.000120
2884.000000	0.000118
2883.000000	0.000108
2882.000000	0.000090
2881.000000	0.000077
2880.000000	0.000087
2879.000000	0.000123
2878.000000	0.000169
2877.000000	0.000193
2876.000000	0.000183
2875.000000	0.000157
2874.000000	0.000146
2873.000000	0.000163
2872.000000	0.000194
2871.000000	0.000206
2870.000000	0.000181
2869.000000	0.000128
2868.000000	0.000078
2867.000000	0.000059
2866.000000	0.000078
2865.000000	0.000118
2864.000000	0.000154
2863.000000	0.000170
2862.000000	0.000166
2861.000000	0.000147
2860.000000	0.000119
2859.000000	0.000088
2858.000000	0.000059
2857.000000	0.000041
2856.000000	0.000039
2855.000000	0.000053
2854.000000	0.000076
2853.000000	0.000103
2852.000000	0.000125
2851.000000	0.000142
2850.000000	0.000155
2849.000000	0.000171
2848.000000	0.000187
2847.000000	0.000191
2846.000000	0.000172
2845.000000	0.000130
2844.000000	0.000081
2843.000000	0.000045
2842.000000	0.000038
2841.000000	0.000066
2840.000000	0.000116
2839.000000	0.000164
2838.000000	0.000183
2837.000000	0.000163
2836.000000	0.000123
2835.000000	0.000095
2834.000000	0.000098
2833.000000	0.000132
2832.000000	0.000172
2831.000000	0.000191
2830.000000	0.000174
2829.000000	0.000133
2828.000000	0.000092
2827.000000	0.000070
2826.000000	0.000066
2825.000000	0.000065
2824.000000	0.000061
2823.000000	0.000061
2822.000000	0.000074
2821.000000	0.000103
2820.000000	0.000139
2819.000000	0.000173
2818.000000	0.000194
2817.000000	0.000200
2816.000000	0.000198
2815.000000	0.000196
2814.000000	0.000195
2813.000000	0.000188
2812.000000	0.000167
2811.000000	0.000134
2810.000000	0.000105
2809.000000	0.000095
2808.000000	0.000109
2807.000000	0.000136
2806.000000	0.000152
2805.000000	0.000145
2804.000000	0.000121
2803.000000	0.000106
2802.000000	0.000117
2801.000000	0.000151
2800.000000	0.000188
2799.000000	0.000206
2798.000000	0.000198
2797.000000	0.000174
2796.000000	0.000150
2795.000000	0.000138
2794.000000	0.000136
2793.000000	0.000134
2792.000000	0.000125
2791.000000	0.000106
2790.000000	0.000080
2789.000000	0.000056
2788.000000	0.000047
2787.000000	0.000061
2786.000000	0.000097
2785.000000	0.000141
2784.000000	0.000175
2783.000000	0.000185
2782.000000	0.000171
2781.000000	0.000144
2780.000000	0.000125
2779.000000	0.000126
2778.000000	0.000140
2777.000000	0.000157
2776.000000	0.000182
2775.000000	0.000229
2774.000000	0.000298
2773.000000	0.000360
2772.000000	0.000377
2771.000000	0.000335
2770.000000	0.000259
2769.000000	0.000185
2768.000000	0.000135
2767.000000	0.000107
2766.000000	0.000093
2765.000000	0.000089
2764.000000	0.000097
2763.000000	0.000114
2762.000000	0.000124
2761.000000	0.000113
2760.000000	0.000084
2759.000000	0.000061
2758.000000	0.000067
2757.000000	0.000103
2756.000000	0.000152
2755.000000	0.000190
2754.000000	0.000206
2753.000000	0.000205
2752.000000	0.000202
2751.000000	0.000204
2750.000000	0.000205
2749.000000	0.000192
2748.000000	0.000162
2747.000000	0.000122
2746.000000	0.000086
2745.000000	0.000064
2744.000000	0.000058
2743.000000	0.000062
2742.000000	0.000070
2741.000000	0.000078
2740.000000	0.000083
2739.000000	0.000088
2738.000000	0.000089
2737.000000	0.000086
2736.000000	0.000082
2735.000000	0.000080
2734.000000	0.000080
2733.000000	0.000080
2732.000000	0.000083
2731.000000	0.000097
2730.000000	0.000124
2729.000000	0.000152
2728.000000	0.000162
2727.000000	0.000145
2726.000000	0.000110
2725.000000	0.000077
2724.000000	0.000064
2723.000000	0.000073
2722.000000	0.000091
2721.000000	0.000104
2720.000000	0.000108
2719.000000	0.000113
2718.000000	0.000131
2717.000000	0.000154
2716.000000	0.000169
2715.000000	0.000169
2714.000000	0.000157
2713.000000	0.000143
2712.000000	0.000135
2711.000000	0.000136
2710.000000	0.000145
2709.000000	0.000156
2708.000000	0.000163
2707.000000	0.000163
2706.000000	0.000158
2705.000000	0.000150
2704.000000	0.000140
2703.000000	0.000131
2702.000000	0.000129
2701.000000	0.000133
2700.000000	0.000141
2699.000000	0.000151
2698.000000	0.000164
2697.000000	0.000181
2696.000000	0.000198
2695.000000	0.000211
2694.000000	0.000214
2693.000000	0.000211
2692.000000	0.000205
2691.000000	0.000200
2690.000000	0.000193
2689.000000	0.000180
2688.000000	0.000161
2687.000000	0.000144
2686.000000	0.000141
2685.000000	0.000155
2684.000000	0.000176
2683.000000	0.000190
2682.000000	0.000183
2681.000000	0.000156
2680.000000	0.000124
2679.000000	0.000105
2678.000000	0.000105
2677.000000	0.000108
2676.000000	0.000093
2675.000000	0.000059
2674.000000	0.000027
2673.000000	0.000020
2672.000000	0.000047
2671.000000	0.000095
2670.000000	0.000148
2669.000000	0.000186
2668.000000	0.000199
2667.000000	0.000189
2666.000000	0.000172
2665.000000	0.000165
2664.000000	0.000171
2663.000000	0.000181
2662.000000	0.000192
2661.000000	0.000208
2660.000000	0.000231
2659.000000	0.000249
2658.000000	0.000253
2657.000000	0.000244
2656.000000	0.000234
2655.000000	0.000229
2654.000000	0.000225
2653.000000	0.000215
2652.000000	0.000200
2651.000000	0.000187
2650.000000	0.000186
2649.000000	0.000195
2648.000000	0.000201
2647.000000	0.000187
2646.000000	0.000145
2645.000000	0.000088
2644.000000	0.000041
2643.000000	0.000019
2642.000000	0.000017
2641.000000	0.000026
2640.000000	0.000042
2639.000000	0.000066
2638.000000	0.000096
2637.000000	0.000123
2636.000000	0.000136
2635.000000	0.000128
2634.000000	0.000102
2633.000000	0.000069
2632.000000	0.000049
2631.000000	0.000049
2630.000000	0.000060
2629.000000	0.000066
2628.000000	0.000065
2627.000000	0.000067
2626.000000	0.000077
2625.000000	0.000082
2624.000000	0.000067
2623.000000	0.000030
2622.000000	-0.000009
2621.000000	-0.000023
2620.000000	-0.000005
2619.000000	0.000027
2618.000000	0.000042
2617.000000	0.000025
2616.000000	-0.000011
2615.000000	-0.000036
2614.000000	-0.000041
2613.000000	-0.000038
2612.000000	-0.000046
2611.000000	-0.000069
2610.000000	-0.000092
2609.000000	-0.000094
2608.000000	-0.000071
2607.000000	-0.000033
2606.000000	-0.000009
2605.000000	-0.000021
2604.000000	-0.000061
2603.000000	-0.000100
2602.000000	-0.000118
2601.000000	-0.000121
2600.000000	-0.000121
2599.000000	-0.000113
2598.000000	-0.000083
2597.000000	-0.000029
2596.000000	0.000038
2595.000000	0.000098
2594.000000	0.000133
2593.000000	0.000129
2592.000000	0.000095
2591.000000	0.000057
2590.000000	0.000042
2589.000000	0.000053
2588.000000	0.000072
2587.000000	0.000082
2586.000000	0.000072
2585.000000	0.000034
2584.000000	-0.000025
2583.000000	-0.000077
2582.000000	-0.000108
2581.000000	-0.000149
2580.000000	-0.000240
2579.000000	-0.000368
2578.000000	-0.000456
2577.000000	-0.000431
2576.000000	-0.000303
2575.000000	-0.000147
2574.000000	-0.000036
2573.000000	0.000004
2572.000000	-0.000013
2571.000000	-0.000056
2570.000000	-0.000093
2569.000000	-0.000100
2568.000000	-0.000070
2567.000000	-0.000017
2566.000000	0.000034
2565.000000	0.000065
2564.000000	0.000077
2563.000000	0.000085
2562.000000	0.000100
2561.000000	0.000109
2560.000000	0.000092
2559.000000	0.000046
2558.000000	-0.000011
2557.000000	-0.000061
2556.000000	-0.000097
2555.000000	-0.000116
2554.000000	-0.000110
2553.000000	-0.000085
2552.000000	-0.000068
2551.000000	-0.000080
2550.000000	-0.000115
2549.000000	-0.000151
2548.000000	-0.000168
2547.000000	-0.000158
2546.000000	-0.000120
2545.000000	-0.000059
2544.000000	0.000003
2543.000000	0.000043
2542.000000	0.000050
2541.000000	0.000030
2540.000000	-0.000010
2539.000000	-0.000060
2538.000000	-0.000100
2537.000000	-0.000111
2536.000000	-0.000100
2535.000000	-0.000089
2534.000000	-0.000090
2533.000000	-0.000092
2532.000000	-0.000076
2531.000000	-0.000035
2530.000000	0.000021
2529.000000	0.000064
2528.000000	0.000068
2527.000000	0.000021
2526.000000	-0.000056
2525.000000	-0.000127
2524.000000	-0.000169
2523.000000	-0.000179
2522.000000	-0.000159
2521.000000	-0.000109
2520.000000	-0.000045
2519.000000	-0.000001
2518.000000	0.000009
2517.000000	0.000010
2516.000000	0.000046
2515.000000	0.000124
2514.000000	0.000204
2513.000000	0.000227
2512.000000	0.000164
2511.000000	0.000033
2510.000000	-0.000114
2509.000000	-0.000218
2508.000000	-0.000236
2507.000000	-0.000161
2506.000000	-0.000007
2505.000000	0.000188
2504.000000	0.000372
2503.000000	0.000484
2502.000000	0.000487
2501.000000	0.000392
2500.000000	0.000251
2499.000000	0.000114
2498.000000	0.000001
2497.000000	-0.000085
2496.000000	-0.000140
2495.000000	-0.000157
2494.000000	-0.000140
2493.000000	-0.000106
2492.000000	-0.000072
2491.000000	-0.000040
2490.000000	-0.000007
2489.000000	0.000024
2488.000000	0.000039
2487.000000	0.000021
2486.000000	-0.000027
2485.000000	-0.000086
2484.000000	-0.000124
2483.000000	-0.000128
2482.000000	-0.000100
2481.000000	-0.000062
2480.000000	-0.000039
2479.000000	-0.000050
2478.000000	-0.000093
2477.000000	-0.000143
2476.000000	-0.000163
2475.000000	-0.000133
2474.000000	-0.000069
2473.000000	-0.000010
2472.000000	0.000011
2471.000000	-0.000013
2470.000000	-0.000067
2469.000000	-0.000125
2468.000000	-0.000170
2467.000000	-0.000199
2466.000000	-0.000223
2465.000000	-0.000243
2464.000000	-0.000240
2463.000000	-0.000192
2462.000000	-0.000113
2461.000000	-0.000046
2460.000000	-0.000030
2459.000000	-0.000054
2458.000000	-0.000080
2457.000000	-0.000083
2456.000000	-0.000069
2455.000000	-0.000050
2454.000000	-0.000027
2453.000000	0.000002
2452.000000	0.000026
2451.000000	0.000030
2450.000000	0.000014
2449.000000	-0.000003
2448.000000	0.000003
2447.000000	0.000032
2446.000000	0.000062
2445.000000	0.000071
2444.000000	0.000057
2443.000000	0.000048
2442.000000	0.000069
2441.000000	0.000114
2440.000000	0.000157
2439.000000	0.000173
2438.000000	0.000156
2437.000000	0.000110
2436.000000	0.000045
2435.000000	-0.000022
2434.000000	-0.000065
2433.000000	-0.000072
2432.000000	-0.000058
2431.000000	-0.000055
2430.000000	-0.000076
2429.000000	-0.000107
2428.000000	-0.000121
2427.000000	-0.000113
2426.000000	-0.000105
2425.000000	-0.000118
2424.000000	-0.000136
2423.000000	-0.000120
2422.000000	-0.000048
2421.000000	0.000051
2420.000000	0.000121
2419.000000	0.000126
2418.000000	0.000077
2417.000000	0.000014
2416.000000	-0.000026
2415.000000	-0.000023
2414.000000	0.000017
2413.000000	0.000070
2412.000000	0.000102
2411.000000	0.000105
2410.000000	0.000093
2409.000000	0.000083
2408.000000	0.000071
2407.000000	0.000038
2406.000000	-0.000019
2405.000000	-0.000075
2404.000000	-0.000101
2403.000000	-0.000092
2402.000000	-0.000069
2401.000000	-0.000058
2400.000000	-0.000075
2399.000000	-0.000106
2398.000000	-0.000125
2397.000000	-0.000110
2396.000000	-0.000068
2395.000000	-0.000021
2394.000000	0.000008
2393.000000	0.000016
2392.000000	0.000009
2391.000000	0.000001
2390.000000	0.000006
2389.000000	0.000028
2388.000000	0.000056
2387.000000	0.000067
2386.000000	0.000051
2385.000000	0.000021
2384.000000	0.000004
2383.000000	0.000015
2382.000000	0.000040
2381.000000	0.000053
2380.000000	0.000031
2379.000000	-0.000028
2378.000000	-0.000104
2377.000000	-0.000156
2376.000000	-0.000144
2375.000000	-0.000060
2374.000000	0.000059
2373.000000	0.000149
2372.000000	0.000174
2371.000000	0.000150
2370.000000	0.000127
2369.000000	0.000136
2368.000000	0.000174
2367.000000	0.000207
2366.000000	0.000202
2365.000000	0.000159
2364.000000	0.000115
2363.000000	0.000117
2362.000000	0.000167
2361.000000	0.000215
2360.000000	0.000224
2359.000000	0.000206
2358.000000	0.000192
2357.000000	0.000199
2356.000000	0.000226
2355.000000	0.000273
2354.000000	0.000312
2353.000000	0.000299
2352.000000	0.000246
2351.000000	0.000219
2350.000000	0.000255
2349.000000	0.000315
2348.000000	0.000347
2347.000000	0.000330
2346.000000	0.000300
2345.000000	0.000307
2344.000000	0.000354
2343.000000	0.000409
2342.000000	0.000429
2341.000000	0.000380
2340.000000	0.000275
2339.000000	0.000185
2338.000000	0.000181
2337.000000	0.000258
2336.000000	0.000339
2335.000000	0.000350
2334.000000	0.000282
2333.000000	0.000183
2332.000000	0.000114
2331.000000	0.000102
2330.000000	0.000140
2329.000000	0.000192
2328.000000	0.000229
2327.000000	0.000245
2326.000000	0.000257
2325.000000	0.000276
2324.000000	0.000295
2323.000000	0.000294
2322.000000	0.000277
2321.000000	0.000280
2320.000000	0.000324
2319.000000	0.000382
2318.000000	0.000400
2317.000000	0.000356
2316.000000	0.000275
2315.000000	0.000202
2314.000000	0.000171
2313.000000	0.000185
2312.000000	0.000229
2311.000000	0.000273
2310.000000	0.000296
2309.000000	0.000301
2308.000000	0.000312
2307.000000	0.000345
2306.000000	0.000385
2305.000000	0.000404
2304.000000	0.000391
2303.000000	0.000359
2302.000000	0.000329
2301.000000	0.000308
2300.000000	0.000281
2299.000000	0.000235
2298.000000	0.000175
2297.000000	0.000132
2296.000000	0.000137
2295.000000	0.000185
2294.000000	0.000236
2293.000000	0.000242
2292.000000	0.000199
2291.000000	0.000153
2290.000000	0.000151
2289.000000	0.000201
2288.000000	0.000261
2287.000000	0.000286
2286.000000	0.000266
2285.000000	0.000222
2284.000000	0.000180
2283.000000	0.000144
2282.000000	0.000111
2281.000000	0.000084
2280.000000	0.000069
2279.000000	0.000069
2278.000000	0.000082
2277.000000	0.000096
2276.000000	0.000092
2275.000000	0.000042
2274.000000	-0.000060
2273.000000	-0.000178
2272.000000	-0.000243
2271.000000	-0.000213
2270.000000	-0.000113
2269.000000	-0.000014
2268.000000	0.000042
2267.000000	0.000067
2266.000000	0.000094
2265.000000	0.000115
2264.000000	0.000089
2263.000000	0.000005
2262.000000	-0.000088
2261.000000	-0.000119
2260.000000	-0.000065
2259.000000	0.000025
2258.000000	0.000086
2257.000000	0.000105
2256.000000	0.000115
2255.000000	0.000150
2254.000000	0.000206
2253.000000	0.000247
2252.000000	0.000241
2251.000000	0.000164
2250.000000	0.000006
2249.000000	-0.000215
2248.000000	-0.000436
2247.000000	-0.000575
2246.000000	-0.000583
2245.000000	-0.000473
2244.000000	-0.000301
2243.000000	-0.000134
2242.000000	-0.000029
2241.000000	-0.000015
2240.000000	-0.000069
2239.000000	-0.000117
2238.000000	-0.000090
2237.000000	0.000012
2236.000000	0.000129
2235.000000	0.000204
2234.000000	0.000219
2233.000000	0.000183
2232.000000	0.000107
2231.000000	0.000002
2230.000000	-0.000108
2229.000000	-0.000204
2228.000000	-0.000265
2227.000000	-0.000254
2226.000000	-0.000136
2225.000000	0.000071
2224.000000	0.000279
2223.000000	0.000400
2222.000000	0.000423
2221.000000	0.000388
2220.000000	0.000293
2219.000000	0.000089
2218.000000	-0.000223
2217.000000	-0.000528
2216.000000	-0.000685
2215.000000	-0.000659
2214.000000	-0.000538
2213.000000	-0.000439
2212.000000	-0.000427
2211.000000	-0.000507
2210.000000	-0.000625
2209.000000	-0.000669
2208.000000	-0.000551
2207.000000	-0.000312
2206.000000	-0.000118
2205.000000	-0.000087
2204.000000	-0.000158
2203.000000	-0.000167
2202.000000	-0.000056
2201.000000	0.000068
2200.000000	0.000088
2199.000000	0.000007
2198.000000	-0.000108
2197.000000	-0.000251
2196.000000	-0.000448
2195.000000	-0.000658
2194.000000	-0.000777
2193.000000	-0.000756
2192.000000	-0.000652
2191.000000	-0.000525
2190.000000	-0.000355
2189.000000	-0.000113
2188.000000	0.000129
2187.000000	0.000226
2186.000000	0.000114
2185.000000	-0.000117
2184.000000	-0.000313
2183.000000	-0.000392
2182.000000	-0.000383
2181.000000	-0.000329
2180.000000	-0.000223
2179.000000	-0.000046
2178.000000	0.000152
2177.000000	0.000264
2176.000000	0.000244
2175.000000	0.000151
2174.000000	0.000073
2173.000000	0.000019
2172.000000	-0.000059
2171.000000	-0.000164
2170.000000	-0.000231
2169.000000	-0.000212
2168.000000	-0.000135
2167.000000	-0.000078
2166.000000	-0.000103
2165.000000	-0.000209
2164.000000	-0.000321
2163.000000	-0.000305
2162.000000	-0.000057
2161.000000	0.000398
2160.000000	0.000887
2159.000000	0.001202
2158.000000	0.001204
2157.000000	0.000852
2156.000000	0.000213
2155.000000	-0.000515
2154.000000	-0.001063
2153.000000	-0.001241
2152.000000	-0.001087
2151.000000	-0.000833
2150.000000	-0.000723
2149.000000	-0.000840
2148.000000	-0.001067
2147.000000	-0.001185
2146.000000	-0.001049
2145.000000	-0.000700
2144.000000	-0.000322
2143.000000	-0.000085
2142.000000	-0.000045
2141.000000	-0.000165
2140.000000	-0.000352
2139.000000	-0.000471
2138.000000	-0.000411
2137.000000	-0.000194
2136.000000	0.000010
2135.000000	0.000034
2134.000000	-0.000114
2133.000000	-0.000283
2132.000000	-0.000343
2131.000000	-0.000283
2130.000000	-0.000160
2129.000000	-0.000027
2128.000000	0.000072
2127.000000	0.000084
2126.000000	-0.000023
2125.000000	-0.000213
2124.000000	-0.000392
2123.000000	-0.000473
2122.000000	-0.000428
2121.000000	-0.000282
2120.000000	-0.000072
2119.000000	0.000178
2118.000000	0.000425
2117.000000	0.000585
2116.000000	0.000573
2115.000000	0.000390
2114.000000	0.000160
2113.000000	0.000034
2112.000000	0.000054
2111.000000	0.000130
2110.000000	0.000153
2109.000000	0.000096
2108.000000	0.000028
2107.000000	0.000028
2106.000000	0.000110
2105.000000	0.000215
2104.000000	0.000258
2103.000000	0.000214
2102.000000	0.000136
2101.000000	0.000093
2100.000000	0.000087
2099.000000	0.000059
2098.000000	-0.000024
2097.000000	-0.000117
2096.000000	-0.000160
2095.000000	-0.000143
2094.000000	-0.000119
2093.000000	-0.000137
2092.000000	-0.000207
2091.000000	-0.000305
2090.000000	-0.000386
2089.000000	-0.000408
2088.000000	-0.000369
2087.000000	-0.000306
2086.000000	-0.000259
2085.000000	-0.000236
2084.000000	-0.000238
2083.000000	-0.000274
2082.000000	-0.000322
2081.000000	-0.000276
2080.000000	-0.000039
2079.000000	0.000329
2078.000000	0.000596
2077.000000	0.000563
2076.000000	0.000270
2075.000000	-0.000050
2074.000000	-0.000203
2073.000000	-0.000187
2072.000000	-0.000132
2071.000000	-0.000152
2070.000000	-0.000267
2069.000000	-0.000419
2068.000000	-0.000525
2067.000000	-0.000543
2066.000000	-0.000499
2065.000000	-0.000456
2064.000000	-0.000424
2063.000000	-0.000357
2062.000000	-0.000229
2061.000000	-0.000079
2060.000000	0.000039
2059.000000	0.000121
2058.000000	0.000176
2057.000000	0.000177
2056.000000	0.000093
2055.000000	-0.000051
2054.000000	-0.000191
2053.000000	-0.000283
2052.000000	-0.000310
2051.000000	-0.000240
2050.000000	-0.000056
2049.000000	0.000162
2048.000000	0.000279
2047.000000	0.000244
2046.000000	0.000111
2045.000000	-0.000089
2044.000000	-0.000385
2043.000000	-0.000724
2042.000000	-0.000915
2041.000000	-0.000783
2040.000000	-0.000367
2039.000000	0.000118
2038.000000	0.000481
2037.000000	0.000637
2036.000000	0.000591
2035.000000	0.000409
2034.000000	0.000162
2033.000000	-0.000141
2032.000000	-0.000525
2031.000000	-0.000915
2030.000000	-0.001124
2029.000000	-0.001048
2028.000000	-0.000817
2027.000000	-0.000638
2026.000000	-0.000547
2025.000000	-0.000441
2024.000000	-0.000298
2023.000000	-0.000216
2022.000000	-0.000256
2021.000000	-0.000367
2020.000000	-0.000481
2019.000000	-0.000578
2018.000000	-0.000640
2017.000000	-0.000623
2016.000000	-0.000536
2015.000000	-0.000448
2014.000000	-0.000402
2013.000000	-0.000378
2012.000000	-0.000354
2011.000000	-0.000325
2010.000000	-0.000267
2009.000000	-0.000142
2008.000000	0.000018
2007.000000	0.000103
2006.000000	0.000025
2005.000000	-0.000238
2004.000000	-0.000667
2003.000000	-0.001198
2002.000000	-0.001658
2001.000000	-0.001808
2000.000000	-0.001546
1999.000000	-0.001011
1998.000000	-0.000450
1997.000000	-0.000025
1996.000000	0.000237
1995.000000	0.000388
1994.000000	0.000486
1993.000000	0.000537
1992.000000	0.000483
1991.000000	0.000269
1990.000000	-0.000020
1989.000000	-0.000171
1988.000000	-0.000051
1987.000000	0.000227
1986.000000	0.000414
1985.000000	0.000362
1984.000000	0.000116
1983.000000	-0.000191
1982.000000	-0.000432
1981.000000	-0.000490
1980.000000	-0.000292
1979.000000	0.000073
1978.000000	0.000347
1977.000000	0.000317
1976.000000	0.000019
1975.000000	-0.000321
1974.000000	-0.000508
1973.000000	-0.000500
1972.000000	-0.000398
1971.000000	-0.000345
1970.000000	-0.000368
1969.000000	-0.000300
1968.000000	0.000055
1967.000000	0.000645
1966.000000	0.001144
1965.000000	0.001296
1964.000000	0.001174
1963.000000	0.001009
1962.000000	0.000880
1961.000000	0.000690
1960.000000	0.000375
1959.000000	0.000013
1958.000000	-0.000291
1957.000000	-0.000494
1956.000000	-0.000576
1955.000000	-0.000506
1954.000000	-0.000305
1953.000000	-0.000070
1952.000000	0.000094
1951.000000	0.000159
1950.000000	0.000147
1949.000000	0.000091
1948.000000	0.000039
1947.000000	0.000038
1946.000000	0.000079
1945.000000	0.000089
1944.000000	0.000028
1943.000000	-0.000040
1942.000000	-0.000041
1941.000000	-0.000009
1940.000000	-0.000043
1939.000000	-0.000154
1938.000000	-0.000252
1937.000000	-0.000253
1936.000000	-0.000168
1935.000000	-0.000081
1934.000000	-0.000059
1933.000000	-0.000110
1932.000000	-0.000177
1931.000000	-0.000194
1930.000000	-0.000149
1929.000000	-0.000112
1928.000000	-0.000148
1927.000000	-0.000242
1926.000000	-0.000317
1925.000000	-0.000346
1924.000000	-0.000380
1923.000000	-0.000454
1922.000000	-0.000521
1921.000000	-0.000503
1920.000000	-0.000385
1919.000000	-0.000220
1918.000000	-0.000077
1917.000000	0.000015
1916.000000	0.000078
1915.000000	0.000143
1914.000000	0.000203
1913.000000	0.000196
1912.000000	0.000065
1911.000000	-0.000163
1910.000000	-0.000383
1909.000000	-0.000483
1908.000000	-0.000432
1907.000000	-0.000280
1906.000000	-0.000110
1905.000000	-0.000002
1904.000000	0.000002
1903.000000	-0.000064
1902.000000	-0.000125
1901.000000	-0.000137
1900.000000	-0.000113
1899.000000	-0.000089
1898.000000	-0.000078
1897.000000	-0.000097
1896.000000	-0.000173
1895.000000	-0.000292
1894.000000	-0.000382
1893.000000	-0.000387
1892.000000	-0.000336
1891.000000	-0.000308
1890.000000	-0.000348
1889.000000	-0.000441
1888.000000	-0.000551
1887.000000	-0.000636
1886.000000	-0.000648
1885.000000	-0.000557
1884.000000	-0.000405
1883.000000	-0.000291
1882.000000	-0.000264
1881.000000	-0.000291
1880.000000	-0.000302
1879.000000	-0.000258
1878.000000	-0.000163
1877.000000	-0.000061
1876.000000	-0.000008
1875.000000	-0.000034
1874.000000	-0.000116
1873.000000	-0.000199
1872.000000	-0.000256
1871.000000	-0.000288
1870.000000	-0.000294
1869.000000	-0.000249
1868.000000	-0.000158
1867.000000	-0.000080
1866.000000	-0.000057
1865.000000	-0.000079
1864.000000	-0.000116
1863.000000	-0.000153
1862.000000	-0.000196
1861.000000	-0.000252
1860.000000	-0.000312
1859.000000	-0.000351
1858.000000	-0.000337
1857.000000	-0.000268
1856.000000	-0.000185
1855.000000	-0.000139
1854.000000	-0.000140
1853.000000	-0.000164
1852.000000	-0.000201
1851.000000	-0.000284
1850.000000	-0.000437
1849.000000	-0.000612
1848.000000	-0.000714
1847.000000	-0.000686
1846.000000	-0.000551
1845.000000	-0.000383
1844.000000	-0.000251
1843.000000	-0.000169
1842.000000	-0.000110
1841.000000	-0.000068
1840.000000	-0.000069
1839.000000	-0.000127
1838.000000	-0.000211
1837.000000	-0.000260
1836.000000	-0.000246
1835.000000	-0.000193
1834.000000	-0.000142
1833.000000	-0.000116
1832.000000	-0.000124
1831.000000	-0.000160
1830.000000	-0.000198
1829.000000	-0.000200
1828.000000	-0.000164
1827.000000	-0.000115
1826.000000	-0.000073
1825.000000	-0.000040
1824.000000	-0.000018
1823.000000	-0.000020
1822.000000	-0.000054
1821.000000	-0.000110
1820.000000	-0.000165
1819.000000	-0.000201
1818.000000	-0.000209
1817.000000	-0.000199
1816.000000	-0.000186
1815.000000	-0.000180
1814.000000	-0.000168
1813.000000	-0.000127
1812.000000	-0.000061
1811.000000	-0.000017
1810.000000	-0.000044
1809.000000	-0.000141
1808.000000	-0.000252
1807.000000	-0.000315
1806.000000	-0.000309
1805.000000	-0.000268
1804.000000	-0.000243
1803.000000	-0.000262
1802.000000	-0.000300
1801.000000	-0.000312
1800.000000	-0.000285
1799.000000	-0.000251
1798.000000	-0.000231
1797.000000	-0.000211
1796.000000	-0.000177
1795.000000	-0.000142
1794.000000	-0.000128
1793.000000	-0.000135
1792.000000	-0.000138
1791.000000	-0.000125
1790.000000	-0.000114
1789.000000	-0.000124
1788.000000	-0.000155
1787.000000	-0.000197
1786.000000	-0.000230
1785.000000	-0.000241
1784.000000	-0.000242
1783.000000	-0.000262
1782.000000	-0.000301
1781.000000	-0.000319
1780.000000	-0.000280
1779.000000	-0.000203
1778.000000	-0.000147
1777.000000	-0.000148
1776.000000	-0.000206
1775.000000	-0.000305
1774.000000	-0.000434
1773.000000	-0.000575
1772.000000	-0.000672
1771.000000	-0.000683
1770.000000	-0.000622
1769.000000	-0.000517
1768.000000	-0.000392
1767.000000	-0.000281
1766.000000	-0.000214
1765.000000	-0.000191
1764.000000	-0.000193
1763.000000	-0.000204
1762.000000	-0.000214
1761.000000	-0.000216
1760.000000	-0.000203
1759.000000	-0.000173
1758.000000	-0.000132
1757.000000	-0.000091
1756.000000	-0.000061
1755.000000	-0.000041
1754.000000	-0.000022
1753.000000	0.000003
1752.000000	0.000032
1751.000000	0.000050
1750.000000	0.000051
1749.000000	0.000046
1748.000000	0.000056
1747.000000	0.000081
1746.000000	0.000102
1745.000000	0.000100
1744.000000	0.000073
1743.000000	0.000036
1742.000000	0.000005
1741.000000	-0.000016
1740.000000	-0.000032
1739.000000	-0.000045
1738.000000	-0.000050
1737.000000	-0.000044
1736.000000	-0.000031
1735.000000	-0.000021
1734.000000	-0.000023
1733.000000	-0.000040
1732.000000	-0.000075
1731.000000	-0.000120
1730.000000	-0.000171
1729.000000	-0.000218
1728.000000	-0.000247
1727.000000	-0.000254
1726.000000	-0.000244
1725.000000	-0.000231
1724.000000	-0.000230
1723.000000	-0.000239
1722.000000	-0.000248
1721.000000	-0.000257
1720.000000	-0.000281
1719.000000	-0.000323
1718.000000	-0.000356
1717.000000	-0.000338
1716.000000	-0.000296
1715.000000	-0.000275
1714.000000	-0.000271
1713.000000	-0.000260
1712.000000	-0.000236
1711.000000	-0.000209
1710.000000	-0.000189
1709.000000	-0.000177
1708.000000	-0.000174
1707.000000	-0.000179
1706.000000	-0.000182
1705.000000	-0.000170
1704.000000	-0.000151
1703.000000	-0.000139
1702.000000	-0.000127
1701.000000	-0.000088
1700.000000	-0.000022
1699.000000	0.000001
1698.000000	-0.000053
1697.000000	-0.000141
1696.000000	-0.000202
1695.000000	-0.000203
1694.000000	-0.000155
1693.000000	-0.000083
1692.000000	-0.000004
1691.000000	0.000061
1690.000000	0.000106
1689.000000	0.000143
1688.000000	0.000184
1687.000000	0.000227
1686.000000	0.000266
1685.000000	0.000301
1684.000000	0.000336
1683.000000	0.000345
1682.000000	0.000322
1681.000000	0.000313
1680.000000	0.000347
1679.000000	0.000402
1678.000000	0.000441
1677.000000	0.000457
1676.000000	0.000480
1675.000000	0.000532
1674.000000	0.000587
1673.000000	0.000621
1672.000000	0.000639
1671.000000	0.000655
1670.000000	0.000668
1669.000000	0.000681
1668.000000	0.000699
1667.000000	0.000727
1666.000000	0.000769
1665.000000	0.000820
1664.000000	0.000868
1663.000000	0.000903
1662.000000	0.000929
1661.000000	0.000957
1660.000000	0.000984
1659.000000	0.000994
1658.000000	0.000980
1657.000000	0.000954
1656.000000	0.000934
1655.000000	0.000925
1654.000000	0.000944
1653.000000	0.001038
1652.000000	0.001148
1651.000000	0.001192
1650.000000	0.001203
1649.000000	0.001195
1648.000000	0.001175
1647.000000	0.001165
1646.000000	0.001186
1645.000000	0.001217
1644.000000	0.001246
1643.000000	0.001275
1642.000000	0.001294
1641.000000	0.001292
1640.000000	0.001270
1639.000000	0.001240
1638.000000	0.001212
1637.000000	0.001192
1636.000000	0.001199
1635.000000	0.001239
1634.000000	0.001274
1633.000000	0.001280
1632.000000	0.001270
1631.000000	0.001261
1630.000000	0.001265
1629.000000	0.001284
1628.000000	0.001302
1627.000000	0.001295
1626.000000	0.001258
1625.000000	0.001207
1624.000000	0.001164
1623.000000	0.001139
1622.000000	0.001128
1621.000000	0.001116
1620.000000	0.001102
1619.000000	0.001080
1618.000000	0.001031
1617.000000	0.000940
1616.000000	0.000844
1615.000000	0.000798
1614.000000	0.000805
1613.000000	0.000828
1612.000000	0.000832
1611.000000	0.000807
1610.000000	0.000770
1609.000000	0.000732
1608.000000	0.000690
1607.000000	0.000636
1606.000000	0.000584
1605.000000	0.000552
1604.000000	0.000548
1603.000000	0.000563
1602.000000	0.000577
1601.000000	0.000569
1600.000000	0.000532
1599.000000	0.000482
1598.000000	0.000453
1597.000000	0.000466
1596.000000	0.000504
1595.000000	0.000525
1594.000000	0.000501
1593.000000	0.000439
1592.000000	0.000371
1591.000000	0.000336
1590.000000	0.000351
1589.000000	0.000401
1588.000000	0.000450
1587.000000	0.000468
1586.000000	0.000453
1585.000000	0.000423
1584.000000	0.000403
1583.000000	0.000405
1582.000000	0.000428
1581.000000	0.000463
1580.000000	0.000497
1579.000000	0.000526
1578.000000	0.000546
1577.000000	0.000555
1576.000000	0.000550
1575.000000	0.000535
1574.000000	0.000521
1573.000000	0.000519
1572.000000	0.000532
1571.000000	0.000557
1570.000000	0.000590
1569.000000	0.000619
1568.000000	0.000628
1567.000000	0.000627
1566.000000	0.000644
1565.000000	0.000692
1564.000000	0.000761
1563.000000	0.000825
1562.000000	0.000868
1561.000000	0.000880
1560.000000	0.000837
1559.000000	0.000786
1558.000000	0.000836
1557.000000	0.000891
1556.000000	0.000908
1555.000000	0.000911
1554.000000	0.000915
1553.000000	0.000925
1552.000000	0.000940
1551.000000	0.000950
1550.000000	0.000943
1549.000000	0.000922
1548.000000	0.000900
1547.000000	0.000889
1546.000000	0.000890
1545.000000	0.000903
1544.000000	0.000934
1543.000000	0.000983
1542.000000	0.001037
1541.000000	0.001076
1540.000000	0.001098
1539.000000	0.001098
1538.000000	0.001070
1537.000000	0.001041
1536.000000	0.001029
1535.000000	0.001029
1534.000000	0.001033
1533.000000	0.001044
1532.000000	0.001049
1531.000000	0.001042
1530.000000	0.001032
1529.000000	0.001028
1528.000000	0.001027
1527.000000	0.001024
1526.000000	0.001018
1525.000000	0.001015
1524.000000	0.001012
1523.000000	0.000996
1522.000000	0.000961
1521.000000	0.000925
1520.000000	0.000899
1519.000000	0.000870
1518.000000	0.000834
1517.000000	0.000800
1516.000000	0.000781
1515.000000	0.000773
1514.000000	0.000767
1513.000000	0.000761
1512.000000	0.000753
1511.000000	0.000730
1510.000000	0.000692
1509.000000	0.000653
1508.000000	0.000640
1507.000000	0.000663
1506.000000	0.000672
1505.000000	0.000619
1504.000000	0.000568
1503.000000	0.000569
1502.000000	0.000610
1501.000000	0.000652
1500.000000	0.000662
1499.000000	0.000627
1498.000000	0.000561
1497.000000	0.000499
1496.000000	0.000464
1495.000000	0.000444
1494.000000	0.000415
1493.000000	0.000372
1492.000000	0.000321
1491.000000	0.000280
1490.000000	0.000260
1489.000000	0.000258
1488.000000	0.000260
1487.000000	0.000257
1486.000000	0.000252
1485.000000	0.000240
1484.000000	0.000221
1483.000000	0.000201
1482.000000	0.000196
1481.000000	0.000210
1480.000000	0.000231
1479.000000	0.000245
1478.000000	0.000252
1477.000000	0.000264
1476.000000	0.000289
1475.000000	0.000318
1474.000000	0.000337
1473.000000	0.000341
1472.000000	0.000335
1471.000000	0.000322
1470.000000	0.000312
1469.000000	0.000327
1468.000000	0.000387
1467.000000	0.000505
1466.000000	0.000673
1465.000000	0.000838
1464.000000	0.000918
1463.000000	0.000887
1462.000000	0.000808
1461.000000	0.000746
1460.000000	0.000727
1459.000000	0.000735
1458.000000	0.000738
1457.000000	0.000718
1456.000000	0.000668
1455.000000	0.000603
1454.000000	0.000555
1453.000000	0.000544
1452.000000	0.000567
1451.000000	0.000604
1450.000000	0.000630
1449.000000	0.000630
1448.000000	0.000606
1447.000000	0.000575
1446.000000	0.000554
1445.000000	0.000555
1444.000000	0.000577
1443.000000	0.000606
1442.000000	0.000631
1441.000000	0.000650
1440.000000	0.000664
1439.000000	0.000667
1438.000000	0.000652
1437.000000	0.000624
1436.000000	0.000603
1435.000000	0.000587
1434.000000	0.000571
1433.000000	0.000567
1432.000000	0.000583
1431.000000	0.000606
1430.000000	0.000604
1429.000000	0.000560
1428.000000	0.000501
1427.000000	0.000470
1426.000000	0.000482
1425.000000	0.000520
1424.000000	0.000549
1423.000000	0.000554
1422.000000	0.000540
1421.000000	0.000525
1420.000000	0.000513
1419.000000	0.000508
1418.000000	0.000508
1417.000000	0.000505
1416.000000	0.000487
1415.000000	0.000452
1414.000000	0.000411
1413.000000	0.000380
1412.000000	0.000373
1411.000000	0.000387
1410.000000	0.000412
1409.000000	0.000439
1408.000000	0.000466
1407.000000	0.000483
1406.000000	0.000487
1405.000000	0.000485
1404.000000	0.000493
1403.000000	0.000518
1402.000000	0.000557
1401.000000	0.000598
1400.000000	0.000626
1399.000000	0.000617
1398.000000	0.000569
1397.000000	0.000507
1396.000000	0.000462
1395.000000	0.000457
1394.000000	0.000485
1393.000000	0.000523
1392.000000	0.000549
1391.000000	0.000558
1390.000000	0.000560
1389.000000	0.000571
1388.000000	0.000601
1387.000000	0.000636
1386.000000	0.000650
1385.000000	0.000638
1384.000000	0.000610
1383.000000	0.000574
1382.000000	0.000527
1381.000000	0.000473
1380.000000	0.000418
1379.000000	0.000365
1378.000000	0.000317
1377.000000	0.000282
1376.000000	0.000268
1375.000000	0.000276
1374.000000	0.000294
1373.000000	0.000312
1372.000000	0.000327
1371.000000	0.000342
1370.000000	0.000353
1369.000000	0.000355
1368.000000	0.000349
1367.000000	0.000336
1366.000000	0.000317
1365.000000	0.000289
1364.000000	0.000248
1363.000000	0.000197
1362.000000	0.000151
1361.000000	0.000130
1360.000000	0.000141
1359.000000	0.000174
1358.000000	0.000206
1357.000000	0.000226
1356.000000	0.000236
1355.000000	0.000243
1354.000000	0.000242
1353.000000	0.000228
1352.000000	0.000214
1351.000000	0.000223
1350.000000	0.000265
1349.000000	0.000316
1348.000000	0.000342
1347.000000	0.000334
1346.000000	0.000312
1345.000000	0.000304
1344.000000	0.000318
1343.000000	0.000335
1342.000000	0.000338
1341.000000	0.000323
1340.000000	0.000308
1339.000000	0.000308
1338.000000	0.000328
1337.000000	0.000358
1336.000000	0.000383
1335.000000	0.000389
1334.000000	0.000369
1333.000000	0.000328
1332.000000	0.000281
1331.000000	0.000243
1330.000000	0.000223
1329.000000	0.000219
1328.000000	0.000227
1327.000000	0.000240
1326.000000	0.000257
1325.000000	0.000273
1324.000000	0.000284
1323.000000	0.000285
1322.000000	0.000278
1321.000000	0.000268
1320.000000	0.000255
1319.000000	0.000241
1318.000000	0.000223
1317.000000	0.000203
1316.000000	0.000182
1315.000000	0.000164
1314.000000	0.000148
1313.000000	0.000139
1312.000000	0.000145
1311.000000	0.000165
1310.000000	0.000191
1309.000000	0.000207
1308.000000	0.000204
1307.000000	0.000191
1306.000000	0.000187
1305.000000	0.000201
1304.000000	0.000216
1303.000000	0.000205
1302.000000	0.000162
1301.000000	0.000110
1300.000000	0.000078
1299.000000	0.000069
1298.000000	0.000064
1297.000000	0.000050
1296.000000	0.000036
1295.000000	0.000037
1294.000000	0.000054
1293.000000	0.000069
1292.000000	0.000061
1291.000000	0.000032
1290.000000	0.000003
1289.000000	-0.000003
1288.000000	0.000021
1287.000000	0.000063
1286.000000	0.000101
1285.000000	0.000122
1284.000000	0.000118
1283.000000	0.000093
1282.000000	0.000058
1281.000000	0.000031
1280.000000	0.000024
1279.000000	0.000039
1278.000000	0.000066
1277.000000	0.000086
1276.000000	0.000091
1275.000000	0.000084
1274.000000	0.000088
1273.000000	0.000117
1272.000000	0.000161
1271.000000	0.000195
1270.000000	0.000204
1269.000000	0.000197
1268.000000	0.000190
1267.000000	0.000183
1266.000000	0.000171
1265.000000	0.000160
1264.000000	0.000162
1263.000000	0.000183
1262.000000	0.000211
1261.000000	0.000235
1260.000000	0.000251
1259.000000	0.000249
1258.000000	0.000225
1257.000000	0.000197
1256.000000	0.000201
1255.000000	0.000250
1254.000000	0.000316
1253.000000	0.000359
1252.000000	0.000367
1251.000000	0.000366
1250.000000	0.000381
1249.000000	0.000417
1248.000000	0.000455
1247.000000	0.000477
1246.000000	0.000474
1245.000000	0.000450
1244.000000	0.000421
1243.000000	0.000404
1242.000000	0.000416
1241.000000	0.000458
1240.000000	0.000524
1239.000000	0.000594
1238.000000	0.000648
1237.000000	0.000678
1236.000000	0.000693
1235.000000	0.000713
1234.000000	0.000751
1233.000000	0.000801
1232.000000	0.000838
1231.000000	0.000840
1230.000000	0.000802
1229.000000	0.000736
1228.000000	0.000659
1227.000000	0.000586
1226.000000	0.000529
1225.000000	0.000497
1224.000000	0.000484
1223.000000	0.000479
1222.000000	0.000471
1221.000000	0.000456
1220.000000	0.000430
1219.000000	0.000388
1218.000000	0.000340
1217.000000	0.000316
1216.000000	0.000338
1215.000000	0.000386
1214.000000	0.000414
1213.000000	0.000400
1212.000000	0.000369
1211.000000	0.000354
1210.000000	0.000363
1209.000000	0.000373
1208.000000	0.000367
1207.000000	0.000347
1206.000000	0.000325
1205.000000	0.000311
1204.000000	0.000315
1203.000000	0.000338
1202.000000	0.000365
1201.000000	0.000372
1200.000000	0.000359
1199.000000	0.000350
1198.000000	0.000370
1197.000000	0.000407
1196.000000	0.000426
1195.000000	0.000401
1194.000000	0.000337
1193.000000	0.000268
1192.000000	0.000223
1191.000000	0.000212
1190.000000	0.000219
1189.000000	0.000219
1188.000000	0.000204
1187.000000	0.000184
1186.000000	0.000182
1185.000000	0.000204
1184.000000	0.000236
1183.000000	0.000256
1182.000000	0.000260
1181.000000	0.000254
1180.000000	0.000244
1179.000000	0.000225
1178.000000	0.000195
1177.000000	0.000164
1176.000000	0.000149
1175.000000	0.000154
1174.000000	0.000167
1173.000000	0.000172
1172.000000	0.000168
1171.000000	0.000168
1170.000000	0.000177
1169.000000	0.000194
1168.000000	0.000214
1167.000000	0.000231
1166.000000	0.000234
1165.000000	0.000223
1164.000000	0.000211
1163.000000	0.000220
1162.000000	0.000247
1161.000000	0.000261
1160.000000	0.000240
1159.000000	0.000198
1158.000000	0.000176
1157.000000	0.000192
1156.000000	0.000218
1155.000000	0.000219
1154.000000	0.000183
1153.000000	0.000131
1152.000000	0.000085
1151.000000	0.000055
1150.000000	0.000036
1149.000000	0.000016
1148.000000	-0.000010
1147.000000	-0.000027
1146.000000	-0.000016
1145.000000	0.000025
1144.000000	0.000063
1143.000000	0.000057
1142.000000	0.000003
1141.000000	-0.000065
1140.000000	-0.000109
1139.000000	-0.000121
1138.000000	-0.000121
1137.000000	-0.000130
1136.000000	-0.000154
1135.000000	-0.000184
1134.000000	-0.000208
1133.000000	-0.000217
1132.000000	-0.000207
1131.000000	-0.000182
1130.000000	-0.000150
1129.000000	-0.000128
1128.000000	-0.000128
1127.000000	-0.000149
1126.000000	-0.000169
1125.000000	-0.000170
1124.000000	-0.000160
1123.000000	-0.000166
1122.000000	-0.000202
1121.000000	-0.000253
1120.000000	-0.000289
1119.000000	-0.000285
1118.000000	-0.000232
1117.000000	-0.000147
1116.000000	-0.000073
1115.000000	-0.000052
1114.000000	-0.000083
1113.000000	-0.000126
1112.000000	-0.000150
1111.000000	-0.000161
1110.000000	-0.000172
1109.000000	-0.000177
1108.000000	-0.000157
1107.000000	-0.000116
1106.000000	-0.000077
1105.000000	-0.000052
1104.000000	-0.000037
1103.000000	-0.000030
1102.000000	-0.000040
1101.000000	-0.000059
1100.000000	-0.000068
1099.000000	-0.000054
1098.000000	-0.000026
1097.000000	-0.000003
1096.000000	0.000005
1095.000000	-0.000008
1094.000000	-0.000037
1093.000000	-0.000056
1092.000000	-0.000033
1091.000000	0.000025
1090.000000	0.000074
1089.000000	0.000075
1088.000000	0.000038
1087.000000	0.000001
1086.000000	-0.000008
1085.000000	0.000018
1084.000000	0.000076
1083.000000	0.000145
1082.000000	0.000185
1081.000000	0.000169
1080.000000	0.000125
1079.000000	0.000114
1078.000000	0.000162
1077.000000	0.000231
1076.000000	0.000257
1075.000000	0.000221
1074.000000	0.000152
1073.000000	0.000087
1072.000000	0.000038
1071.000000	0.000002
1070.000000	-0.000025
1069.000000	-0.000032
1068.000000	-0.000005
1067.000000	0.000056
1066.000000	0.000126
1065.000000	0.000165
1064.000000	0.000154
1063.000000	0.000109
1062.000000	0.000064
1061.000000	0.000035
1060.000000	0.000014
1059.000000	-0.000008
1058.000000	-0.000032
1057.000000	-0.000053
1056.000000	-0.000064
1055.000000	-0.000057
1054.000000	-0.000020
1053.000000	0.000040
1052.000000	0.000093
1051.000000	0.000112
1050.000000	0.000094
1049.000000	0.000060
1048.000000	0.000029
1047.000000	0.000006
1046.000000	-0.000013
1045.000000	-0.000033
1044.000000	-0.000054
1043.000000	-0.000070
1042.000000	-0.000075
1041.000000	-0.000067
1040.000000	-0.000056
1039.000000	-0.000052
1038.000000	-0.000056
1037.000000	-0.000059
1036.000000	-0.000052
1035.000000	-0.000032
1034.000000	-0.000002
1033.000000	0.000024
1032.000000	0.000033
1031.000000	0.000020
1030.000000	0.000001
1029.000000	-0.000006
1028.000000	-0.000005
1027.000000	-0.000010
1026.000000	-0.000020
1025.000000	-0.000012
1024.000000	0.000030
1023.000000	0.000083
1022.000000	0.000112
1021.000000	0.000104
1020.000000	0.000075
1019.000000	0.000053
1018.000000	0.000052
1017.000000	0.000067
1016.000000	0.000087
1015.000000	0.000093
1014.000000	0.000070
1013.000000	0.000018
1012.000000	-0.000047
1011.000000	-0.000103
1010.000000	-0.000139
1009.000000	-0.000164
1008.000000	-0.000186
1007.000000	-0.000197
1006.000000	-0.000187
1005.000000	-0.000172
1004.000000	-0.000207
1003.000000	-0.000326
1002.000000	-0.000487
1001.000000	-0.000586
1000.000000	-0.000554
999.000000	-0.000421
998.000000	-0.000278
997.000000	-0.000193
996.000000	-0.000177
995.000000	-0.000205
994.000000	-0.000255
993.000000	-0.000303
992.000000	-0.000325
991.000000	-0.000318
990.000000	-0.000302
989.000000	-0.000304
988.000000	-0.000325
987.000000	-0.000343
986.000000	-0.000336
985.000000	-0.000304
984.000000	-0.000263
983.000000	-0.000237
982.000000	-0.000236
981.000000	-0.000255
980.000000	-0.000271
979.000000	-0.000265
978.000000	-0.000237
977.000000	-0.000209
976.000000	-0.000208
975.000000	-0.000243
974.000000	-0.000300
973.000000	-0.000355
972.000000	-0.000392
971.000000	-0.000406
970.000000	-0.000384
969.000000	-0.000320
968.000000	-0.000238
967.000000	-0.000189
966.000000	-0.000206
965.000000	-0.000261
964.000000	-0.000309
963.000000	-0.000342
962.000000	-0.000398
961.000000	-0.000486
960.000000	-0.000550
959.000000	-0.000522
958.000000	-0.000401
957.000000	-0.000263
956.000000	-0.000189
955.000000	-0.000205
954.000000	-0.000275
953.000000	-0.000341
952.000000	-0.000361
951.000000	-0.000327
950.000000	-0.000266
949.000000	-0.000222
948.000000	-0.000227
947.000000	-0.000274
946.000000	-0.000326
945.000000	-0.000347
944.000000	-0.000336
943.000000	-0.000322
942.000000	-0.000333
941.000000	-0.000368
940.000000	-0.000407
939.000000	-0.000433
938.000000	-0.000443
937.000000	-0.000443
936.000000	-0.000437
935.000000	-0.000430
934.000000	-0.000423
933.000000	-0.000408
932.000000	-0.000376
931.000000	-0.000329
930.000000	-0.000282
929.000000	-0.000258
928.000000	-0.000268
927.000000	-0.000308
926.000000	-0.000360
925.000000	-0.000396
924.000000	-0.000398
923.000000	-0.000380
922.000000	-0.000368
921.000000	-0.000382
920.000000	-0.000415
919.000000	-0.000440
918.000000	-0.000433
917.000000	-0.000389
916.000000	-0.000331
915.000000	-0.000295
914.000000	-0.000307
913.000000	-0.000362
912.000000	-0.000435
911.000000	-0.000499
910.000000	-0.000544
909.000000	-0.000556
908.000000	-0.000522
907.000000	-0.000447
906.000000	-0.000364
905.000000	-0.000311
904.000000	-0.000301
903.000000	-0.000325
902.000000	-0.000369
901.000000	-0.000417
900.000000	-0.000449
899.000000	-0.000458
898.000000	-0.000456
897.000000	-0.000469
896.000000	-0.000505
895.000000	-0.000543
894.000000	-0.000563
893.000000	-0.000559
892.000000	-0.000533
891.000000	-0.000487
890.000000	-0.000427
889.000000	-0.000385
888.000000	-0.000393
887.000000	-0.000441
886.000000	-0.000475
885.000000	-0.000448
884.000000	-0.000380
883.000000	-0.000335
882.000000	-0.000352
881.000000	-0.000400
880.000000	-0.000411
879.000000	-0.000358
878.000000	-0.000275
877.000000	-0.000218
876.000000	-0.000220
875.000000	-0.000278
874.000000	-0.000365
873.000000	-0.000448
872.000000	-0.000499
871.000000	-0.000504
870.000000	-0.000479
869.000000	-0.000451
868.000000	-0.000444
867.000000	-0.000462
866.000000	-0.000487
865.000000	-0.000499
864.000000	-0.000481
863.000000	-0.000440
862.000000	-0.000396
861.000000	-0.000371
860.000000	-0.000373
859.000000	-0.000391
858.000000	-0.000402
857.000000	-0.000396
856.000000	-0.000384
855.000000	-0.000392
854.000000	-0.000421
853.000000	-0.000444
852.000000	-0.000431
851.000000	-0.000390
850.000000	-0.000354
849.000000	-0.000344
848.000000	-0.000349
847.000000	-0.000361
846.000000	-0.000383
845.000000	-0.000414
844.000000	-0.000434
843.000000	-0.000435
842.000000	-0.000435
841.000000	-0.000447
840.000000	-0.000457
839.000000	-0.000445
838.000000	-0.000423
837.000000	-0.000423
836.000000	-0.000449
835.000000	-0.000468
834.000000	-0.000464
833.000000	-0.000461
832.000000	-0.000487
831.000000	-0.000539
830.000000	-0.000585
829.000000	-0.000599
828.000000	-0.000566
827.000000	-0.000490
826.000000	-0.000398
825.000000	-0.000333
824.000000	-0.000325
823.000000	-0.000359
822.000000	-0.000404
821.000000	-0.000440
820.000000	-0.000470
819.000000	-0.000496
818.000000	-0.000513
817.000000	-0.000523
816.000000	-0.000530
815.000000	-0.000531
814.000000	-0.000510
813.000000	-0.000464
812.000000	-0.000414
811.000000	-0.000391
810.000000	-0.000403
809.000000	-0.000438
808.000000	-0.000477
807.000000	-0.000508
806.000000	-0.000525
805.000000	-0.000523
804.000000	-0.000511
803.000000	-0.000508
802.000000	-0.000522
801.000000	-0.000536
800.000000	-0.000521
799.000000	-0.000470
798.000000	-0.000410
797.000000	-0.000381
796.000000	-0.000407
795.000000	-0.000473
794.000000	-0.000539
793.000000	-0.000554
792.000000	-0.000491
791.000000	-0.000373
790.000000	-0.000258
789.000000	-0.000198
788.000000	-0.000209
787.000000	-0.000272
786.000000	-0.000352
785.000000	-0.000413
784.000000	-0.000432
783.000000	-0.000405
782.000000	-0.000358
781.000000	-0.000325
780.000000	-0.000331
779.000000	-0.000375
778.000000	-0.000434
777.000000	-0.000467
776.000000	-0.000444
775.000000	-0.000370
774.000000	-0.000285
773.000000	-0.000221
772.000000	-0.000180
771.000000	-0.000168
770.000000	-0.000214
769.000000	-0.000341
768.000000	-0.000505
767.000000	-0.000616
766.000000	-0.000626
765.000000	-0.000572
764.000000	-0.000519
763.000000	-0.000491
762.000000	-0.000470
761.000000	-0.000448
760.000000	-0.000439
759.000000	-0.000448
758.000000	-0.000454
757.000000	-0.000436
756.000000	-0.000394
755.000000	-0.000346
754.000000	-0.000309
753.000000	-0.000298
752.000000	-0.000320
751.000000	-0.000364
750.000000	-0.000410
749.000000	-0.000445
748.000000	-0.000473
747.000000	-0.000498
746.000000	-0.000515
745.000000	-0.000512
744.000000	-0.000489
743.000000	-0.000460
742.000000	-0.000440
741.000000	-0.000431
740.000000	-0.000431
739.000000	-0.000439
738.000000	-0.000459
737.000000	-0.000493
736.000000	-0.000547
735.000000	-0.000613
734.000000	-0.000649
733.000000	-0.000597
732.000000	-0.000451
731.000000	-0.000292
730.000000	-0.000234
729.000000	-0.000301
728.000000	-0.000407
727.000000	-0.000455
726.000000	-0.000436
725.000000	-0.000413
724.000000	-0.000419
723.000000	-0.000431
722.000000	-0.000424
721.000000	-0.000406
720.000000	-0.000403
719.000000	-0.000417
718.000000	-0.000427
717.000000	-0.000421
716.000000	-0.000390
715.000000	-0.000329
714.000000	-0.000249
713.000000	-0.000176
712.000000	-0.000133
711.000000	-0.000125
710.000000	-0.000148
709.000000	-0.000196
708.000000	-0.000244
707.000000	-0.000261
706.000000	-0.000247
705.000000	-0.000241
704.000000	-0.000276
703.000000	-0.000342
702.000000	-0.000398
701.000000	-0.000416
700.000000	-0.000381
699.000000	-0.000296
698.000000	-0.000187
697.000000	-0.000111
696.000000	-0.000114
695.000000	-0.000187
694.000000	-0.000279
693.000000	-0.000356
692.000000	-0.000412
691.000000	-0.000448
690.000000	-0.000462
689.000000	-0.000456
688.000000	-0.000448
687.000000	-0.000442
686.000000	-0.000432
685.000000	-0.000420
684.000000	-0.000412
683.000000	-0.000402
682.000000	-0.000379
681.000000	-0.000346
680.000000	-0.000325
679.000000	-0.000330
678.000000	-0.000354
677.000000	-0.000357
676.000000	-0.000309
675.000000	-0.000236
674.000000	-0.000204
673.000000	-0.000264
672.000000	-0.000424
671.000000	-0.000667
670.000000	-0.000972
669.000000	-0.001277
668.000000	-0.001409
667.000000	-0.001130
666.000000	-0.000715
665.000000	-0.000459
664.000000	-0.000347
663.000000	-0.000301
662.000000	-0.000261
661.000000	-0.000219
660.000000	-0.000212
659.000000	-0.000279
658.000000	-0.000415
657.000000	-0.000556
656.000000	-0.000613
655.000000	-0.000553
654.000000	-0.000410
653.000000	-0.000257
652.000000	-0.000148
651.000000	-0.000093
650.000000	-0.000071
649.000000	-0.000083
648.000000	-0.000152
647.000000	-0.000256
646.000000	-0.000302
645.000000	-0.000226
644.000000	-0.000089
643.000000	-0.000027
642.000000	-0.000111
641.000000	-0.000297
640.000000	-0.000491
639.000000	-0.000625
638.000000	-0.000664
637.000000	-0.000610
636.000000	-0.000514
635.000000	-0.000449
634.000000	-0.000448
633.000000	-0.000475
632.000000	-0.000480
631.000000	-0.000448
630.000000	-0.000404
629.000000	-0.000372
628.000000	-0.000347
627.000000	-0.000289
626.000000	-0.000166
625.000000	-0.000018
624.000000	0.000055
623.000000	0.000006
622.000000	-0.000092
621.000000	-0.000131
620.000000	-0.000111
619.000000	-0.000139
618.000000	-0.000289
617.000000	-0.000519
616.000000	-0.000724
615.000000	-0.000829
614.000000	-0.000794
613.000000	-0.000601
612.000000	-0.000285
611.000000	0.000034
610.000000	0.000208
609.000000	0.000168
608.000000	-0.000051
607.000000	-0.000341
606.000000	-0.000566
605.000000	-0.000629
604.000000	-0.000526
603.000000	-0.000342
602.000000	-0.000182
601.000000	-0.000099
600.000000	-0.000099
599.000000	-0.000158
598.000000	-0.000236
597.000000	-0.000288
596.000000	-0.000301
595.000000	-0.000290
594.000000	-0.000270
593.000000	-0.000236
592.000000	-0.000195
591.000000	-0.000180
590.000000	-0.000212
589.000000	-0.000274
588.000000	-0.000320
587.000000	-0.000319
586.000000	-0.000281
585.000000	-0.000253
584.000000	-0.000279
583.000000	-0.000337
582.000000	-0.000336
581.000000	-0.000234
580.000000	-0.000143
579.000000	-0.000239
578.000000	-0.000544
577.000000	-0.000844
576.000000	-0.000896
575.000000	-0.000669
574.000000	-0.000360
573.000000	-0.000180
572.000000	-0.000196
571.000000	-0.000331
570.000000	-0.000454
569.000000	-0.000481
568.000000	-0.000439
567.000000	-0.000426
566.000000	-0.000488
565.000000	-0.000554
564.000000	-0.000541
563.000000	-0.000460
562.000000	-0.000383
561.000000	-0.000326
560.000000	-0.000240
559.000000	-0.000106
558.000000	0.000025
557.000000	0.000118
556.000000	0.000192
555.000000	0.000270
554.000000	0.000330
553.000000	0.000337
552.000000	0.000289
551.000000	0.000208
550.000000	0.000127
549.000000	0.000078
548.000000	0.000065
547.000000	0.000051
546.000000	-0.000012
545.000000	-0.000140
544.000000	-0.000317
543.000000	-0.000505
542.000000	-0.000624
541.000000	-0.000557
540.000000	-0.000267
539.000000	0.000081
538.000000	0.000224
537.000000	0.000076
536.000000	-0.000171
535.000000	-0.000274
534.000000	-0.000199
533.000000	-0.000086
532.000000	-0.000034
531.000000	-0.000015
530.000000	0.000038
529.000000	0.000136
528.000000	0.000243
527.000000	0.000296
526.000000	0.000218
525.000000	-0.000000
524.000000	-0.000245
523.000000	-0.000365
522.000000	-0.000300
521.000000	-0.000125
520.000000	0.000029
519.000000	0.000060
518.000000	-0.000055
517.000000	-0.000235
516.000000	-0.000348
515.000000	-0.000327
514.000000	-0.000249
513.000000	-0.000236
512.000000	-0.000297
511.000000	-0.000337
510.000000	-0.000308
509.000000	-0.000281
508.000000	-0.000314
507.000000	-0.000343
506.000000	-0.000284
505.000000	-0.000181
504.000000	-0.000144
503.000000	-0.000198
502.000000	-0.000290
501.000000	-0.000419
500.000000	-0.000620
499.000000	-0.000822
498.000000	-0.000852
497.000000	-0.000638
496.000000	-0.000320
495.000000	-0.000126
494.000000	-0.000180
493.000000	-0.000443
492.000000	-0.000774
491.000000	-0.000984
490.000000	-0.000932
489.000000	-0.000646
488.000000	-0.000298
487.000000	-0.000025
486.000000	0.000178
485.000000	0.000361
484.000000	0.000472
483.000000	0.000419
482.000000	0.000235
481.000000	0.000048
480.000000	-0.000109
479.000000	-0.000309
478.000000	-0.000565
477.000000	-0.000740
476.000000	-0.000702
475.000000	-0.000491
474.000000	-0.000291
473.000000	-0.000283
472.000000	-0.000487
471.000000	-0.000747
470.000000	-0.000900
469.000000	-0.000952
468.000000	-0.001054
467.000000	-0.001322
466.000000	-0.001671
465.000000	-0.001913
464.000000	-0.001991
463.000000	-0.002009
462.000000	-0.002044
461.000000	-0.002037
460.000000	-0.001930
459.000000	-0.001788
458.000000	-0.001710
457.000000	-0.001648
456.000000	-0.001455
455.000000	-0.001158
454.000000	-0.000732
453.000000	-0.000411
452.000000	-0.000272
451.000000	-0.000335
450.000000	-0.000542
