PE IR       SUBTECH     SPECTRUM    ASCII       PEDS        4.00        
   -1
Vierge013_1.ASC
23/07/04
15:09:16.00
23/07/04
15:15:40.00
uco
Sample 013 By uco Date Tuesday, July 04 2023
450.000000
#HDR
-1
-1
#GR
cm-1
A
1.0
0.0
4000.000000
-1.000000
3551
8
0.001388
-0.002317
#DATA
4000.000000	-0.000536
3999.000000	-0.000520
3998.000000	-0.000507
3997.000000	-0.000499
3996.000000	-0.000496
3995.000000	-0.000491
3994.000000	-0.000477
3993.000000	-0.000451
3992.000000	-0.000418
3991.000000	-0.000389
3990.000000	-0.000375
3989.000000	-0.000379
3988.000000	-0.000398
3987.000000	-0.000418
3986.000000	-0.000429
3985.000000	-0.000429
3984.000000	-0.000421
3983.000000	-0.000411
3982.000000	-0.000407
3981.000000	-0.000410
3980.000000	-0.000415
3979.000000	-0.000415
3978.000000	-0.000401
3977.000000	-0.000374
3976.000000	-0.000348
3975.000000	-0.000340
3974.000000	-0.000358
3973.000000	-0.000389
3972.000000	-0.000413
3971.000000	-0.000411
3970.000000	-0.000381
3969.000000	-0.000329
3968.000000	-0.000268
3967.000000	-0.000211
3966.000000	-0.000168
3965.000000	-0.000146
3964.000000	-0.000148
3963.000000	-0.000173
3962.000000	-0.000214
3961.000000	-0.000262
3960.000000	-0.000305
3959.000000	-0.000335
3958.000000	-0.000351
3957.000000	-0.000358
3956.000000	-0.000365
3955.000000	-0.000371
3954.000000	-0.000373
3953.000000	-0.000369
3952.000000	-0.000367
3951.000000	-0.000381
3950.000000	-0.000413
3949.000000	-0.000448
3948.000000	-0.000472
3947.000000	-0.000477
3946.000000	-0.000467
3945.000000	-0.000450
3944.000000	-0.000430
3943.000000	-0.000414
3942.000000	-0.000410
3941.000000	-0.000421
3940.000000	-0.000439
3939.000000	-0.000448
3938.000000	-0.000437
3937.000000	-0.000408
3936.000000	-0.000376
3935.000000	-0.000358
3934.000000	-0.000362
3933.000000	-0.000385
3932.000000	-0.000415
3931.000000	-0.000439
3930.000000	-0.000443
3929.000000	-0.000426
3928.000000	-0.000393
3927.000000	-0.000358
3926.000000	-0.000333
3925.000000	-0.000322
3924.000000	-0.000322
3923.000000	-0.000334
3922.000000	-0.000357
3921.000000	-0.000389
3920.000000	-0.000420
3919.000000	-0.000440
3918.000000	-0.000446
3917.000000	-0.000439
3916.000000	-0.000428
3915.000000	-0.000419
3914.000000	-0.000417
3913.000000	-0.000420
3912.000000	-0.000425
3911.000000	-0.000425
3910.000000	-0.000415
3909.000000	-0.000393
3908.000000	-0.000366
3907.000000	-0.000345
3906.000000	-0.000339
3905.000000	-0.000347
3904.000000	-0.000362
3903.000000	-0.000371
3902.000000	-0.000373
3901.000000	-0.000371
3900.000000	-0.000373
3899.000000	-0.000383
3898.000000	-0.000400
3897.000000	-0.000416
3896.000000	-0.000424
3895.000000	-0.000420
3894.000000	-0.000407
3893.000000	-0.000396
3892.000000	-0.000393
3891.000000	-0.000398
3890.000000	-0.000407
3889.000000	-0.000421
3888.000000	-0.000442
3887.000000	-0.000462
3886.000000	-0.000466
3885.000000	-0.000451
3884.000000	-0.000430
3883.000000	-0.000411
3882.000000	-0.000392
3881.000000	-0.000374
3880.000000	-0.000361
3879.000000	-0.000362
3878.000000	-0.000380
3877.000000	-0.000412
3876.000000	-0.000446
3875.000000	-0.000467
3874.000000	-0.000468
3873.000000	-0.000460
3872.000000	-0.000455
3871.000000	-0.000451
3870.000000	-0.000431
3869.000000	-0.000391
3868.000000	-0.000352
3867.000000	-0.000329
3866.000000	-0.000319
3865.000000	-0.000310
3864.000000	-0.000307
3863.000000	-0.000322
3862.000000	-0.000349
3861.000000	-0.000370
3860.000000	-0.000375
3859.000000	-0.000369
3858.000000	-0.000365
3857.000000	-0.000375
3856.000000	-0.000397
3855.000000	-0.000419
3854.000000	-0.000430
3853.000000	-0.000436
3852.000000	-0.000443
3851.000000	-0.000449
3850.000000	-0.000448
3849.000000	-0.000434
3848.000000	-0.000408
3847.000000	-0.000384
3846.000000	-0.000378
3845.000000	-0.000394
3844.000000	-0.000415
3843.000000	-0.000419
3842.000000	-0.000398
3841.000000	-0.000365
3840.000000	-0.000336
3839.000000	-0.000318
3838.000000	-0.000309
3837.000000	-0.000307
3836.000000	-0.000311
3835.000000	-0.000321
3834.000000	-0.000334
3833.000000	-0.000348
3832.000000	-0.000360
3831.000000	-0.000363
3830.000000	-0.000353
3829.000000	-0.000330
3828.000000	-0.000303
3827.000000	-0.000285
3826.000000	-0.000287
3825.000000	-0.000309
3824.000000	-0.000344
3823.000000	-0.000379
3822.000000	-0.000395
3821.000000	-0.000387
3820.000000	-0.000363
3819.000000	-0.000340
3818.000000	-0.000327
3817.000000	-0.000320
3816.000000	-0.000299
3815.000000	-0.000261
3814.000000	-0.000222
3813.000000	-0.000199
3812.000000	-0.000198
3811.000000	-0.000215
3810.000000	-0.000248
3809.000000	-0.000294
3808.000000	-0.000337
3807.000000	-0.000352
3806.000000	-0.000330
3805.000000	-0.000300
3804.000000	-0.000301
3803.000000	-0.000347
3802.000000	-0.000413
3801.000000	-0.000451
3800.000000	-0.000441
3799.000000	-0.000404
3798.000000	-0.000374
3797.000000	-0.000363
3796.000000	-0.000362
3795.000000	-0.000360
3794.000000	-0.000353
3793.000000	-0.000344
3792.000000	-0.000341
3791.000000	-0.000350
3790.000000	-0.000373
3789.000000	-0.000403
3788.000000	-0.000429
3787.000000	-0.000441
3786.000000	-0.000439
3785.000000	-0.000430
3784.000000	-0.000420
3783.000000	-0.000409
3782.000000	-0.000395
3781.000000	-0.000377
3780.000000	-0.000359
3779.000000	-0.000348
3778.000000	-0.000344
3777.000000	-0.000337
3776.000000	-0.000322
3775.000000	-0.000302
3774.000000	-0.000290
3773.000000	-0.000302
3772.000000	-0.000343
3771.000000	-0.000398
3770.000000	-0.000442
3769.000000	-0.000464
3768.000000	-0.000469
3767.000000	-0.000472
3766.000000	-0.000475
3765.000000	-0.000476
3764.000000	-0.000477
3763.000000	-0.000484
3762.000000	-0.000498
3761.000000	-0.000505
3760.000000	-0.000498
3759.000000	-0.000488
3758.000000	-0.000488
3757.000000	-0.000495
3756.000000	-0.000501
3755.000000	-0.000503
3754.000000	-0.000501
3753.000000	-0.000495
3752.000000	-0.000488
3751.000000	-0.000489
3750.000000	-0.000493
3749.000000	-0.000485
3748.000000	-0.000465
3747.000000	-0.000452
3746.000000	-0.000455
3745.000000	-0.000462
3744.000000	-0.000463
3743.000000	-0.000462
3742.000000	-0.000472
3741.000000	-0.000493
3740.000000	-0.000517
3739.000000	-0.000540
3738.000000	-0.000554
3737.000000	-0.000538
3736.000000	-0.000481
3735.000000	-0.000411
3734.000000	-0.000382
3733.000000	-0.000408
3732.000000	-0.000452
3731.000000	-0.000475
3730.000000	-0.000474
3729.000000	-0.000468
3728.000000	-0.000472
3727.000000	-0.000481
3726.000000	-0.000481
3725.000000	-0.000460
3724.000000	-0.000419
3723.000000	-0.000371
3722.000000	-0.000334
3721.000000	-0.000325
3720.000000	-0.000341
3719.000000	-0.000366
3718.000000	-0.000384
3717.000000	-0.000390
3716.000000	-0.000393
3715.000000	-0.000406
3714.000000	-0.000427
3713.000000	-0.000436
3712.000000	-0.000420
3711.000000	-0.000392
3710.000000	-0.000378
3709.000000	-0.000385
3708.000000	-0.000408
3707.000000	-0.000435
3706.000000	-0.000464
3705.000000	-0.000495
3704.000000	-0.000520
3703.000000	-0.000533
3702.000000	-0.000532
3701.000000	-0.000517
3700.000000	-0.000488
3699.000000	-0.000444
3698.000000	-0.000395
3697.000000	-0.000361
3696.000000	-0.000358
3695.000000	-0.000389
3694.000000	-0.000436
3693.000000	-0.000476
3692.000000	-0.000494
3691.000000	-0.000494
3690.000000	-0.000488
3689.000000	-0.000484
3688.000000	-0.000476
3687.000000	-0.000455
3686.000000	-0.000424
3685.000000	-0.000394
3684.000000	-0.000376
3683.000000	-0.000375
3682.000000	-0.000392
3681.000000	-0.000417
3680.000000	-0.000434
3679.000000	-0.000443
3678.000000	-0.000461
3677.000000	-0.000503
3676.000000	-0.000555
3675.000000	-0.000584
3674.000000	-0.000578
3673.000000	-0.000556
3672.000000	-0.000533
3671.000000	-0.000500
3670.000000	-0.000443
3669.000000	-0.000385
3668.000000	-0.000354
3667.000000	-0.000359
3666.000000	-0.000381
3665.000000	-0.000397
3664.000000	-0.000396
3663.000000	-0.000382
3662.000000	-0.000368
3661.000000	-0.000362
3660.000000	-0.000364
3659.000000	-0.000370
3658.000000	-0.000375
3657.000000	-0.000371
3656.000000	-0.000351
3655.000000	-0.000321
3654.000000	-0.000295
3653.000000	-0.000280
3652.000000	-0.000273
3651.000000	-0.000267
3650.000000	-0.000268
3649.000000	-0.000282
3648.000000	-0.000293
3647.000000	-0.000290
3646.000000	-0.000285
3645.000000	-0.000298
3644.000000	-0.000334
3643.000000	-0.000377
3642.000000	-0.000400
3641.000000	-0.000391
3640.000000	-0.000369
3639.000000	-0.000363
3638.000000	-0.000390
3637.000000	-0.000437
3636.000000	-0.000476
3635.000000	-0.000482
3634.000000	-0.000451
3633.000000	-0.000401
3632.000000	-0.000367
3631.000000	-0.000375
3630.000000	-0.000429
3629.000000	-0.000500
3628.000000	-0.000543
3627.000000	-0.000535
3626.000000	-0.000499
3625.000000	-0.000463
3624.000000	-0.000441
3623.000000	-0.000434
3622.000000	-0.000436
3621.000000	-0.000436
3620.000000	-0.000423
3619.000000	-0.000407
3618.000000	-0.000402
3617.000000	-0.000402
3616.000000	-0.000395
3615.000000	-0.000375
3614.000000	-0.000356
3613.000000	-0.000357
3612.000000	-0.000385
3611.000000	-0.000429
3610.000000	-0.000473
3609.000000	-0.000505
3608.000000	-0.000519
3607.000000	-0.000511
3606.000000	-0.000477
3605.000000	-0.000425
3604.000000	-0.000368
3603.000000	-0.000326
3602.000000	-0.000312
3601.000000	-0.000323
3600.000000	-0.000343
3599.000000	-0.000356
3598.000000	-0.000359
3597.000000	-0.000359
3596.000000	-0.000367
3595.000000	-0.000389
3594.000000	-0.000421
3593.000000	-0.000446
3592.000000	-0.000441
3591.000000	-0.000398
3590.000000	-0.000331
3589.000000	-0.000269
3588.000000	-0.000246
3587.000000	-0.000264
3586.000000	-0.000290
3585.000000	-0.000288
3584.000000	-0.000255
3583.000000	-0.000209
3582.000000	-0.000174
3581.000000	-0.000162
3580.000000	-0.000164
3579.000000	-0.000164
3578.000000	-0.000150
3577.000000	-0.000131
3576.000000	-0.000123
3575.000000	-0.000137
3574.000000	-0.000172
3573.000000	-0.000220
3572.000000	-0.000270
3571.000000	-0.000312
3570.000000	-0.000334
3569.000000	-0.000325
3568.000000	-0.000284
3567.000000	-0.000227
3566.000000	-0.000181
3565.000000	-0.000164
3564.000000	-0.000178
3563.000000	-0.000219
3562.000000	-0.000277
3561.000000	-0.000332
3560.000000	-0.000366
3559.000000	-0.000363
3558.000000	-0.000330
3557.000000	-0.000285
3556.000000	-0.000243
3555.000000	-0.000205
3554.000000	-0.000167
3553.000000	-0.000131
3552.000000	-0.000108
3551.000000	-0.000104
3550.000000	-0.000117
3549.000000	-0.000140
3548.000000	-0.000169
3547.000000	-0.000202
3546.000000	-0.000227
3545.000000	-0.000232
3544.000000	-0.000210
3543.000000	-0.000169
3542.000000	-0.000128
3541.000000	-0.000109
3540.000000	-0.000124
3539.000000	-0.000170
3538.000000	-0.000225
3537.000000	-0.000269
3536.000000	-0.000292
3535.000000	-0.000299
3534.000000	-0.000293
3533.000000	-0.000270
3532.000000	-0.000231
3531.000000	-0.000186
3530.000000	-0.000158
3529.000000	-0.000163
3528.000000	-0.000203
3527.000000	-0.000256
3526.000000	-0.000297
3525.000000	-0.000309
3524.000000	-0.000295
3523.000000	-0.000270
3522.000000	-0.000245
3521.000000	-0.000224
3520.000000	-0.000207
3519.000000	-0.000201
3518.000000	-0.000206
3517.000000	-0.000215
3516.000000	-0.000218
3515.000000	-0.000213
3514.000000	-0.000204
3513.000000	-0.000193
3512.000000	-0.000177
3511.000000	-0.000155
3510.000000	-0.000131
3509.000000	-0.000113
3508.000000	-0.000106
3507.000000	-0.000115
3506.000000	-0.000143
3505.000000	-0.000190
3504.000000	-0.000242
3503.000000	-0.000272
3502.000000	-0.000262
3501.000000	-0.000221
3500.000000	-0.000179
3499.000000	-0.000163
3498.000000	-0.000176
3497.000000	-0.000201
3496.000000	-0.000221
3495.000000	-0.000230
3494.000000	-0.000230
3493.000000	-0.000224
3492.000000	-0.000217
3491.000000	-0.000212
3490.000000	-0.000208
3489.000000	-0.000196
3488.000000	-0.000170
3487.000000	-0.000138
3486.000000	-0.000112
3485.000000	-0.000095
3484.000000	-0.000078
3483.000000	-0.000059
3482.000000	-0.000053
3481.000000	-0.000072
3480.000000	-0.000115
3479.000000	-0.000160
3478.000000	-0.000190
3477.000000	-0.000195
3476.000000	-0.000177
3475.000000	-0.000150
3474.000000	-0.000135
3473.000000	-0.000145
3472.000000	-0.000176
3471.000000	-0.000210
3470.000000	-0.000233
3469.000000	-0.000244
3468.000000	-0.000245
3467.000000	-0.000237
3466.000000	-0.000222
3465.000000	-0.000207
3464.000000	-0.000192
3463.000000	-0.000170
3462.000000	-0.000140
3461.000000	-0.000110
3460.000000	-0.000093
3459.000000	-0.000095
3458.000000	-0.000109
3457.000000	-0.000119
3456.000000	-0.000114
3455.000000	-0.000095
3454.000000	-0.000073
3453.000000	-0.000058
3452.000000	-0.000051
3451.000000	-0.000044
3450.000000	-0.000032
3449.000000	-0.000023
3448.000000	-0.000027
3447.000000	-0.000046
3446.000000	-0.000067
3445.000000	-0.000075
3444.000000	-0.000059
3443.000000	-0.000024
3442.000000	0.000018
3441.000000	0.000051
3440.000000	0.000062
3439.000000	0.000048
3438.000000	0.000017
3437.000000	-0.000019
3436.000000	-0.000055
3435.000000	-0.000089
3434.000000	-0.000113
3433.000000	-0.000118
3432.000000	-0.000093
3431.000000	-0.000047
3430.000000	-0.000007
3429.000000	-0.000007
3428.000000	-0.000055
3427.000000	-0.000125
3426.000000	-0.000178
3425.000000	-0.000194
3424.000000	-0.000183
3423.000000	-0.000162
3422.000000	-0.000137
3421.000000	-0.000102
3420.000000	-0.000062
3419.000000	-0.000037
3418.000000	-0.000039
3417.000000	-0.000060
3416.000000	-0.000077
3415.000000	-0.000078
3414.000000	-0.000067
3413.000000	-0.000057
3412.000000	-0.000049
3411.000000	-0.000041
3410.000000	-0.000027
3409.000000	-0.000012
3408.000000	-0.000006
3407.000000	-0.000012
3406.000000	-0.000023
3405.000000	-0.000029
3404.000000	-0.000027
3403.000000	-0.000022
3402.000000	-0.000019
3401.000000	-0.000016
3400.000000	-0.000010
3399.000000	0.000005
3398.000000	0.000027
3397.000000	0.000044
3396.000000	0.000044
3395.000000	0.000024
3394.000000	-0.000001
3393.000000	-0.000011
3392.000000	-0.000000
3391.000000	0.000020
3390.000000	0.000036
3389.000000	0.000045
3388.000000	0.000052
3387.000000	0.000057
3386.000000	0.000055
3385.000000	0.000040
3384.000000	0.000024
3383.000000	0.000019
3382.000000	0.000031
3381.000000	0.000047
3380.000000	0.000045
3379.000000	0.000017
3378.000000	-0.000024
3377.000000	-0.000051
3376.000000	-0.000049
3375.000000	-0.000029
3374.000000	-0.000016
3373.000000	-0.000022
3372.000000	-0.000032
3371.000000	-0.000024
3370.000000	0.000006
3369.000000	0.000042
3368.000000	0.000065
3367.000000	0.000075
3366.000000	0.000088
3365.000000	0.000117
3364.000000	0.000155
3363.000000	0.000183
3362.000000	0.000180
3361.000000	0.000149
3360.000000	0.000110
3359.000000	0.000081
3358.000000	0.000070
3357.000000	0.000065
3356.000000	0.000048
3355.000000	0.000014
3354.000000	-0.000029
3353.000000	-0.000055
3352.000000	-0.000041
3351.000000	0.000010
3350.000000	0.000069
3349.000000	0.000102
3348.000000	0.000098
3347.000000	0.000073
3346.000000	0.000051
3345.000000	0.000045
3344.000000	0.000055
3343.000000	0.000071
3342.000000	0.000081
3341.000000	0.000076
3340.000000	0.000060
3339.000000	0.000043
3338.000000	0.000042
3337.000000	0.000062
3336.000000	0.000105
3335.000000	0.000160
3334.000000	0.000209
3333.000000	0.000231
3332.000000	0.000214
3331.000000	0.000169
3330.000000	0.000126
3329.000000	0.000106
3328.000000	0.000107
3327.000000	0.000115
3326.000000	0.000120
3325.000000	0.000125
3324.000000	0.000136
3323.000000	0.000147
3322.000000	0.000149
3321.000000	0.000142
3320.000000	0.000132
3319.000000	0.000132
3318.000000	0.000149
3317.000000	0.000173
3316.000000	0.000182
3315.000000	0.000153
3314.000000	0.000079
3313.000000	-0.000017
3312.000000	-0.000093
3311.000000	-0.000115
3310.000000	-0.000076
3309.000000	0.000003
3308.000000	0.000089
3307.000000	0.000152
3306.000000	0.000181
3305.000000	0.000185
3304.000000	0.000179
3303.000000	0.000175
3302.000000	0.000177
3301.000000	0.000181
3300.000000	0.000183
3299.000000	0.000179
3298.000000	0.000167
3297.000000	0.000149
3296.000000	0.000131
3295.000000	0.000122
3294.000000	0.000128
3293.000000	0.000149
3292.000000	0.000176
3291.000000	0.000194
3290.000000	0.000193
3289.000000	0.000177
3288.000000	0.000162
3287.000000	0.000156
3286.000000	0.000164
3285.000000	0.000183
3284.000000	0.000206
3283.000000	0.000227
3282.000000	0.000232
3281.000000	0.000218
3280.000000	0.000192
3279.000000	0.000167
3278.000000	0.000151
3277.000000	0.000147
3276.000000	0.000148
3275.000000	0.000151
3274.000000	0.000149
3273.000000	0.000141
3272.000000	0.000132
3271.000000	0.000128
3270.000000	0.000132
3269.000000	0.000136
3268.000000	0.000136
3267.000000	0.000130
3266.000000	0.000120
3265.000000	0.000107
3264.000000	0.000092
3263.000000	0.000084
3262.000000	0.000092
3261.000000	0.000115
3260.000000	0.000144
3259.000000	0.000173
3258.000000	0.000198
3257.000000	0.000218
3256.000000	0.000228
3255.000000	0.000223
3254.000000	0.000208
3253.000000	0.000195
3252.000000	0.000190
3251.000000	0.000192
3250.000000	0.000194
3249.000000	0.000190
3248.000000	0.000176
3247.000000	0.000156
3246.000000	0.000138
3245.000000	0.000134
3244.000000	0.000151
3243.000000	0.000178
3242.000000	0.000193
3241.000000	0.000183
3240.000000	0.000155
3239.000000	0.000128
3238.000000	0.000107
3237.000000	0.000082
3236.000000	0.000040
3235.000000	-0.000010
3234.000000	-0.000042
3233.000000	-0.000032
3232.000000	0.000017
3231.000000	0.000082
3230.000000	0.000137
3229.000000	0.000167
3228.000000	0.000170
3227.000000	0.000150
3226.000000	0.000119
3225.000000	0.000092
3224.000000	0.000077
3223.000000	0.000074
3222.000000	0.000080
3221.000000	0.000098
3220.000000	0.000131
3219.000000	0.000172
3218.000000	0.000201
3217.000000	0.000205
3216.000000	0.000186
3215.000000	0.000166
3214.000000	0.000165
3213.000000	0.000185
3212.000000	0.000208
3211.000000	0.000215
3210.000000	0.000198
3209.000000	0.000170
3208.000000	0.000145
3207.000000	0.000129
3206.000000	0.000121
3205.000000	0.000113
3204.000000	0.000105
3203.000000	0.000100
3202.000000	0.000103
3201.000000	0.000110
3200.000000	0.000119
3199.000000	0.000126
3198.000000	0.000131
3197.000000	0.000134
3196.000000	0.000128
3195.000000	0.000107
3194.000000	0.000073
3193.000000	0.000039
3192.000000	0.000021
3191.000000	0.000024
3190.000000	0.000040
3189.000000	0.000059
3188.000000	0.000075
3187.000000	0.000086
3186.000000	0.000093
3185.000000	0.000103
3184.000000	0.000122
3183.000000	0.000148
3182.000000	0.000173
3181.000000	0.000185
3180.000000	0.000177
3179.000000	0.000153
3178.000000	0.000123
3177.000000	0.000098
3176.000000	0.000086
3175.000000	0.000088
3174.000000	0.000098
3173.000000	0.000108
3172.000000	0.000111
3171.000000	0.000102
3170.000000	0.000087
3169.000000	0.000083
3168.000000	0.000107
3167.000000	0.000154
3166.000000	0.000195
3165.000000	0.000200
3164.000000	0.000160
3163.000000	0.000097
3162.000000	0.000042
3161.000000	0.000016
3160.000000	0.000019
3159.000000	0.000038
3158.000000	0.000056
3157.000000	0.000061
3156.000000	0.000056
3155.000000	0.000045
3154.000000	0.000031
3153.000000	0.000020
3152.000000	0.000016
3151.000000	0.000016
3150.000000	0.000010
3149.000000	-0.000010
3148.000000	-0.000034
3147.000000	-0.000042
3146.000000	-0.000027
3145.000000	0.000000
3144.000000	0.000027
3143.000000	0.000055
3142.000000	0.000091
3141.000000	0.000135
3140.000000	0.000179
3139.000000	0.000211
3138.000000	0.000221
3137.000000	0.000206
3136.000000	0.000173
3135.000000	0.000135
3134.000000	0.000109
3133.000000	0.000101
3132.000000	0.000101
3131.000000	0.000096
3130.000000	0.000088
3129.000000	0.000086
3128.000000	0.000094
3127.000000	0.000103
3126.000000	0.000103
3125.000000	0.000092
3124.000000	0.000077
3123.000000	0.000060
3122.000000	0.000034
3121.000000	-0.000003
3120.000000	-0.000043
3119.000000	-0.000061
3118.000000	-0.000036
3117.000000	0.000021
3116.000000	0.000075
3115.000000	0.000093
3114.000000	0.000074
3113.000000	0.000043
3112.000000	0.000027
3111.000000	0.000034
3110.000000	0.000055
3109.000000	0.000080
3108.000000	0.000100
3107.000000	0.000101
3106.000000	0.000078
3105.000000	0.000045
3104.000000	0.000026
3103.000000	0.000032
3102.000000	0.000053
3101.000000	0.000070
3100.000000	0.000076
3099.000000	0.000077
3098.000000	0.000077
3097.000000	0.000076
3096.000000	0.000075
3095.000000	0.000080
3094.000000	0.000091
3093.000000	0.000103
3092.000000	0.000105
3091.000000	0.000096
3090.000000	0.000086
3089.000000	0.000087
3088.000000	0.000103
3087.000000	0.000122
3086.000000	0.000127
3085.000000	0.000113
3084.000000	0.000086
3083.000000	0.000063
3082.000000	0.000059
3081.000000	0.000076
3080.000000	0.000109
3079.000000	0.000144
3078.000000	0.000167
3077.000000	0.000172
3076.000000	0.000166
3075.000000	0.000158
3074.000000	0.000154
3073.000000	0.000157
3072.000000	0.000169
3071.000000	0.000186
3070.000000	0.000201
3069.000000	0.000206
3068.000000	0.000200
3067.000000	0.000195
3066.000000	0.000195
3065.000000	0.000194
3064.000000	0.000179
3063.000000	0.000151
3062.000000	0.000117
3061.000000	0.000086
3060.000000	0.000064
3059.000000	0.000056
3058.000000	0.000067
3057.000000	0.000096
3056.000000	0.000137
3055.000000	0.000177
3054.000000	0.000200
3053.000000	0.000198
3052.000000	0.000177
3051.000000	0.000158
3050.000000	0.000157
3049.000000	0.000173
3048.000000	0.000190
3047.000000	0.000197
3046.000000	0.000191
3045.000000	0.000178
3044.000000	0.000163
3043.000000	0.000149
3042.000000	0.000140
3041.000000	0.000133
3040.000000	0.000123
3039.000000	0.000106
3038.000000	0.000092
3037.000000	0.000093
3036.000000	0.000109
3035.000000	0.000126
3034.000000	0.000129
3033.000000	0.000113
3032.000000	0.000085
3031.000000	0.000063
3030.000000	0.000059
3029.000000	0.000073
3028.000000	0.000091
3027.000000	0.000095
3026.000000	0.000081
3025.000000	0.000061
3024.000000	0.000056
3023.000000	0.000073
3022.000000	0.000101
3021.000000	0.000122
3020.000000	0.000123
3019.000000	0.000106
3018.000000	0.000087
3017.000000	0.000079
3016.000000	0.000086
3015.000000	0.000101
3014.000000	0.000114
3013.000000	0.000120
3012.000000	0.000120
3011.000000	0.000124
3010.000000	0.000138
3009.000000	0.000158
3008.000000	0.000174
3007.000000	0.000178
3006.000000	0.000174
3005.000000	0.000179
3004.000000	0.000211
3003.000000	0.000267
3002.000000	0.000322
3001.000000	0.000342
3000.000000	0.000309
2999.000000	0.000238
2998.000000	0.000167
2997.000000	0.000128
2996.000000	0.000121
2995.000000	0.000130
2994.000000	0.000141
2993.000000	0.000147
2992.000000	0.000146
2991.000000	0.000135
2990.000000	0.000117
2989.000000	0.000102
2988.000000	0.000100
2987.000000	0.000114
2986.000000	0.000137
2985.000000	0.000155
2984.000000	0.000160
2983.000000	0.000148
2982.000000	0.000126
2981.000000	0.000107
2980.000000	0.000102
2979.000000	0.000111
2978.000000	0.000121
2977.000000	0.000126
2976.000000	0.000127
2975.000000	0.000128
2974.000000	0.000132
2973.000000	0.000139
2972.000000	0.000149
2971.000000	0.000163
2970.000000	0.000176
2969.000000	0.000176
2968.000000	0.000155
2967.000000	0.000115
2966.000000	0.000072
2965.000000	0.000045
2964.000000	0.000037
2963.000000	0.000042
2962.000000	0.000051
2961.000000	0.000065
2960.000000	0.000091
2959.000000	0.000125
2958.000000	0.000150
2957.000000	0.000153
2956.000000	0.000138
2955.000000	0.000121
2954.000000	0.000113
2953.000000	0.000115
2952.000000	0.000118
2951.000000	0.000115
2950.000000	0.000108
2949.000000	0.000105
2948.000000	0.000109
2947.000000	0.000117
2946.000000	0.000119
2945.000000	0.000118
2944.000000	0.000127
2943.000000	0.000155
2942.000000	0.000193
2941.000000	0.000222
2940.000000	0.000229
2939.000000	0.000219
2938.000000	0.000200
2937.000000	0.000178
2936.000000	0.000156
2935.000000	0.000135
2934.000000	0.000118
2933.000000	0.000110
2932.000000	0.000114
2931.000000	0.000131
2930.000000	0.000161
2929.000000	0.000198
2928.000000	0.000229
2927.000000	0.000240
2926.000000	0.000229
2925.000000	0.000203
2924.000000	0.000175
2923.000000	0.000150
2922.000000	0.000128
2921.000000	0.000110
2920.000000	0.000103
2919.000000	0.000112
2918.000000	0.000136
2917.000000	0.000161
2916.000000	0.000175
2915.000000	0.000176
2914.000000	0.000175
2913.000000	0.000180
2912.000000	0.000188
2911.000000	0.000190
2910.000000	0.000183
2909.000000	0.000172
2908.000000	0.000164
2907.000000	0.000158
2906.000000	0.000148
2905.000000	0.000140
2904.000000	0.000144
2903.000000	0.000162
2902.000000	0.000180
2901.000000	0.000185
2900.000000	0.000176
2899.000000	0.000164
2898.000000	0.000156
2897.000000	0.000155
2896.000000	0.000163
2895.000000	0.000182
2894.000000	0.000208
2893.000000	0.000227
2892.000000	0.000232
2891.000000	0.000231
2890.000000	0.000235
2889.000000	0.000243
2888.000000	0.000242
2887.000000	0.000226
2886.000000	0.000203
2885.000000	0.000187
2884.000000	0.000183
2883.000000	0.000184
2882.000000	0.000188
2881.000000	0.000200
2880.000000	0.000224
2879.000000	0.000261
2878.000000	0.000293
2877.000000	0.000304
2876.000000	0.000287
2875.000000	0.000257
2874.000000	0.000239
2873.000000	0.000249
2872.000000	0.000273
2871.000000	0.000283
2870.000000	0.000259
2869.000000	0.000203
2868.000000	0.000144
2867.000000	0.000113
2866.000000	0.000122
2865.000000	0.000157
2864.000000	0.000194
2863.000000	0.000215
2862.000000	0.000222
2861.000000	0.000219
2860.000000	0.000205
2859.000000	0.000179
2858.000000	0.000145
2857.000000	0.000114
2856.000000	0.000091
2855.000000	0.000080
2854.000000	0.000087
2853.000000	0.000115
2852.000000	0.000153
2851.000000	0.000180
2850.000000	0.000192
2849.000000	0.000197
2848.000000	0.000205
2847.000000	0.000210
2846.000000	0.000199
2845.000000	0.000171
2844.000000	0.000136
2843.000000	0.000114
2842.000000	0.000117
2841.000000	0.000150
2840.000000	0.000200
2839.000000	0.000237
2838.000000	0.000240
2837.000000	0.000208
2836.000000	0.000168
2835.000000	0.000145
2834.000000	0.000150
2833.000000	0.000180
2832.000000	0.000219
2831.000000	0.000246
2830.000000	0.000247
2829.000000	0.000222
2828.000000	0.000187
2827.000000	0.000156
2826.000000	0.000136
2825.000000	0.000128
2824.000000	0.000130
2823.000000	0.000134
2822.000000	0.000137
2821.000000	0.000147
2820.000000	0.000172
2819.000000	0.000213
2818.000000	0.000254
2817.000000	0.000279
2816.000000	0.000285
2815.000000	0.000281
2814.000000	0.000276
2813.000000	0.000266
2812.000000	0.000250
2811.000000	0.000227
2810.000000	0.000205
2809.000000	0.000191
2808.000000	0.000187
2807.000000	0.000185
2806.000000	0.000169
2805.000000	0.000138
2804.000000	0.000104
2803.000000	0.000091
2802.000000	0.000110
2801.000000	0.000153
2800.000000	0.000199
2799.000000	0.000228
2798.000000	0.000233
2797.000000	0.000218
2796.000000	0.000194
2795.000000	0.000173
2794.000000	0.000161
2793.000000	0.000156
2792.000000	0.000154
2791.000000	0.000146
2790.000000	0.000132
2789.000000	0.000119
2788.000000	0.000122
2787.000000	0.000152
2786.000000	0.000199
2785.000000	0.000246
2784.000000	0.000272
2783.000000	0.000271
2782.000000	0.000247
2781.000000	0.000212
2780.000000	0.000182
2779.000000	0.000170
2778.000000	0.000175
2777.000000	0.000195
2776.000000	0.000234
2775.000000	0.000299
2774.000000	0.000385
2773.000000	0.000463
2772.000000	0.000492
2771.000000	0.000452
2770.000000	0.000362
2769.000000	0.000264
2768.000000	0.000191
2767.000000	0.000147
2766.000000	0.000121
2765.000000	0.000113
2764.000000	0.000131
2763.000000	0.000174
2762.000000	0.000216
2761.000000	0.000230
2760.000000	0.000206
2759.000000	0.000167
2758.000000	0.000142
2757.000000	0.000150
2756.000000	0.000181
2755.000000	0.000213
2754.000000	0.000229
2753.000000	0.000231
2752.000000	0.000236
2751.000000	0.000250
2750.000000	0.000264
2749.000000	0.000259
2748.000000	0.000232
2747.000000	0.000195
2746.000000	0.000166
2745.000000	0.000156
2744.000000	0.000160
2743.000000	0.000167
2742.000000	0.000167
2741.000000	0.000161
2740.000000	0.000163
2739.000000	0.000179
2738.000000	0.000199
2737.000000	0.000204
2736.000000	0.000192
2735.000000	0.000173
2734.000000	0.000157
2733.000000	0.000144
2732.000000	0.000137
2731.000000	0.000146
2730.000000	0.000174
2729.000000	0.000209
2728.000000	0.000231
2727.000000	0.000231
2726.000000	0.000211
2725.000000	0.000185
2724.000000	0.000168
2723.000000	0.000170
2722.000000	0.000188
2721.000000	0.000203
2720.000000	0.000203
2719.000000	0.000191
2718.000000	0.000184
2717.000000	0.000192
2716.000000	0.000206
2715.000000	0.000210
2714.000000	0.000198
2713.000000	0.000177
2712.000000	0.000158
2711.000000	0.000149
2710.000000	0.000151
2709.000000	0.000160
2708.000000	0.000173
2707.000000	0.000190
2706.000000	0.000212
2705.000000	0.000238
2704.000000	0.000263
2703.000000	0.000281
2702.000000	0.000286
2701.000000	0.000280
2700.000000	0.000268
2699.000000	0.000261
2698.000000	0.000266
2697.000000	0.000283
2696.000000	0.000302
2695.000000	0.000314
2694.000000	0.000317
2693.000000	0.000316
2692.000000	0.000317
2691.000000	0.000315
2690.000000	0.000302
2689.000000	0.000274
2688.000000	0.000240
2687.000000	0.000218
2686.000000	0.000224
2685.000000	0.000254
2684.000000	0.000290
2683.000000	0.000310
2682.000000	0.000304
2681.000000	0.000278
2680.000000	0.000248
2679.000000	0.000231
2678.000000	0.000232
2677.000000	0.000237
2676.000000	0.000224
2675.000000	0.000187
2674.000000	0.000145
2673.000000	0.000127
2672.000000	0.000147
2671.000000	0.000192
2670.000000	0.000239
2669.000000	0.000267
2668.000000	0.000268
2667.000000	0.000250
2666.000000	0.000230
2665.000000	0.000223
2664.000000	0.000233
2663.000000	0.000249
2662.000000	0.000258
2661.000000	0.000260
2660.000000	0.000262
2659.000000	0.000273
2658.000000	0.000293
2657.000000	0.000316
2656.000000	0.000339
2655.000000	0.000354
2654.000000	0.000356
2653.000000	0.000344
2652.000000	0.000323
2651.000000	0.000302
2650.000000	0.000288
2649.000000	0.000281
2648.000000	0.000273
2647.000000	0.000254
2646.000000	0.000221
2645.000000	0.000185
2644.000000	0.000165
2643.000000	0.000167
2642.000000	0.000179
2641.000000	0.000194
2640.000000	0.000213
2639.000000	0.000237
2638.000000	0.000260
2637.000000	0.000264
2636.000000	0.000245
2635.000000	0.000209
2634.000000	0.000170
2633.000000	0.000137
2632.000000	0.000110
2631.000000	0.000091
2630.000000	0.000081
2629.000000	0.000083
2628.000000	0.000097
2627.000000	0.000118
2626.000000	0.000135
2625.000000	0.000134
2624.000000	0.000110
2623.000000	0.000070
2622.000000	0.000033
2621.000000	0.000020
2620.000000	0.000042
2619.000000	0.000081
2618.000000	0.000107
2617.000000	0.000105
2616.000000	0.000092
2615.000000	0.000094
2614.000000	0.000113
2613.000000	0.000127
2612.000000	0.000114
2611.000000	0.000074
2610.000000	0.000030
2609.000000	0.000007
2608.000000	0.000022
2607.000000	0.000066
2606.000000	0.000104
2605.000000	0.000101
2604.000000	0.000057
2603.000000	0.000003
2602.000000	-0.000029
2601.000000	-0.000030
2600.000000	-0.000009
2599.000000	0.000022
2598.000000	0.000049
2597.000000	0.000061
2596.000000	0.000065
2595.000000	0.000081
2594.000000	0.000117
2593.000000	0.000157
2592.000000	0.000177
2591.000000	0.000174
2590.000000	0.000159
2589.000000	0.000139
2588.000000	0.000112
2587.000000	0.000082
2586.000000	0.000059
2585.000000	0.000044
2584.000000	0.000032
2583.000000	0.000015
2582.000000	-0.000022
2581.000000	-0.000104
2580.000000	-0.000241
2579.000000	-0.000392
2578.000000	-0.000479
2577.000000	-0.000447
2576.000000	-0.000308
2575.000000	-0.000137
2574.000000	-0.000006
2573.000000	0.000054
2572.000000	0.000055
2571.000000	0.000028
2570.000000	0.000006
2569.000000	0.000008
2568.000000	0.000035
2567.000000	0.000072
2566.000000	0.000096
2565.000000	0.000093
2564.000000	0.000076
2563.000000	0.000076
2562.000000	0.000107
2561.000000	0.000147
2560.000000	0.000161
2559.000000	0.000138
2558.000000	0.000097
2557.000000	0.000055
2556.000000	0.000019
2555.000000	-0.000009
2554.000000	-0.000021
2553.000000	-0.000021
2552.000000	-0.000021
2551.000000	-0.000037
2550.000000	-0.000065
2549.000000	-0.000083
2548.000000	-0.000073
2547.000000	-0.000030
2546.000000	0.000031
2545.000000	0.000091
2544.000000	0.000133
2543.000000	0.000154
2542.000000	0.000162
2541.000000	0.000161
2540.000000	0.000144
2539.000000	0.000109
2538.000000	0.000067
2537.000000	0.000034
2536.000000	0.000017
2535.000000	0.000009
2534.000000	0.000001
2533.000000	-0.000006
2532.000000	-0.000002
2531.000000	0.000020
2530.000000	0.000062
2529.000000	0.000106
2528.000000	0.000121
2527.000000	0.000090
2526.000000	0.000024
2525.000000	-0.000047
2524.000000	-0.000095
2523.000000	-0.000106
2522.000000	-0.000072
2521.000000	0.000004
2520.000000	0.000096
2519.000000	0.000165
2518.000000	0.000188
2517.000000	0.000186
2516.000000	0.000204
2515.000000	0.000259
2514.000000	0.000319
2513.000000	0.000326
2512.000000	0.000246
2511.000000	0.000102
2510.000000	-0.000048
2509.000000	-0.000150
2508.000000	-0.000183
2507.000000	-0.000142
2506.000000	-0.000021
2505.000000	0.000177
2504.000000	0.000407
2503.000000	0.000582
2502.000000	0.000628
2501.000000	0.000537
2500.000000	0.000362
2499.000000	0.000167
2498.000000	-0.000008
2497.000000	-0.000138
2496.000000	-0.000199
2495.000000	-0.000183
2494.000000	-0.000120
2493.000000	-0.000055
2492.000000	-0.000006
2491.000000	0.000042
2490.000000	0.000105
2489.000000	0.000163
2488.000000	0.000181
2487.000000	0.000138
2486.000000	0.000056
2485.000000	-0.000022
2484.000000	-0.000059
2483.000000	-0.000051
2482.000000	-0.000019
2481.000000	0.000013
2480.000000	0.000028
2479.000000	0.000027
2478.000000	0.000013
2477.000000	-0.000006
2476.000000	-0.000015
2475.000000	-0.000002
2474.000000	0.000034
2473.000000	0.000070
2472.000000	0.000075
2471.000000	0.000033
2470.000000	-0.000049
2469.000000	-0.000139
2468.000000	-0.000201
2467.000000	-0.000223
2466.000000	-0.000217
2465.000000	-0.000203
2464.000000	-0.000177
2463.000000	-0.000126
2462.000000	-0.000052
2461.000000	0.000012
2460.000000	0.000038
2459.000000	0.000032
2458.000000	0.000025
2457.000000	0.000040
2456.000000	0.000071
2455.000000	0.000099
2454.000000	0.000109
2453.000000	0.000101
2452.000000	0.000082
2451.000000	0.000063
2450.000000	0.000052
2449.000000	0.000059
2448.000000	0.000094
2447.000000	0.000153
2446.000000	0.000218
2445.000000	0.000251
2444.000000	0.000235
2443.000000	0.000187
2442.000000	0.000147
2441.000000	0.000137
2440.000000	0.000150
2439.000000	0.000172
2438.000000	0.000191
2437.000000	0.000190
2436.000000	0.000151
2435.000000	0.000075
2434.000000	-0.000004
2433.000000	-0.000050
2432.000000	-0.000060
2431.000000	-0.000061
2430.000000	-0.000079
2429.000000	-0.000108
2428.000000	-0.000129
2427.000000	-0.000132
2426.000000	-0.000125
2425.000000	-0.000119
2424.000000	-0.000104
2423.000000	-0.000058
2422.000000	0.000025
2421.000000	0.000115
2420.000000	0.000165
2419.000000	0.000155
2418.000000	0.000105
2417.000000	0.000054
2416.000000	0.000033
2415.000000	0.000052
2414.000000	0.000106
2413.000000	0.000177
2412.000000	0.000242
2411.000000	0.000284
2410.000000	0.000300
2409.000000	0.000292
2408.000000	0.000252
2407.000000	0.000173
2406.000000	0.000073
2405.000000	-0.000009
2404.000000	-0.000042
2403.000000	-0.000026
2402.000000	0.000012
2401.000000	0.000038
2400.000000	0.000035
2399.000000	0.000010
2398.000000	-0.000014
2397.000000	-0.000019
2396.000000	-0.000003
2395.000000	0.000021
2394.000000	0.000036
2393.000000	0.000032
2392.000000	0.000012
2391.000000	-0.000012
2390.000000	-0.000017
2389.000000	0.000007
2388.000000	0.000044
2387.000000	0.000061
2386.000000	0.000037
2385.000000	-0.000010
2384.000000	-0.000045
2383.000000	-0.000051
2382.000000	-0.000038
2381.000000	-0.000026
2380.000000	-0.000035
2379.000000	-0.000071
2378.000000	-0.000124
2377.000000	-0.000164
2376.000000	-0.000158
2375.000000	-0.000101
2374.000000	-0.000030
2373.000000	0.000003
2372.000000	-0.000018
2371.000000	-0.000055
2370.000000	-0.000060
2369.000000	-0.000023
2368.000000	0.000026
2367.000000	0.000044
2366.000000	0.000013
2365.000000	-0.000050
2364.000000	-0.000103
2363.000000	-0.000106
2362.000000	-0.000058
2361.000000	-0.000004
2360.000000	0.000020
2359.000000	0.000014
2358.000000	-0.000003
2357.000000	-0.000021
2356.000000	-0.000020
2355.000000	0.000017
2354.000000	0.000061
2353.000000	0.000059
2352.000000	0.000013
2351.000000	-0.000018
2350.000000	-0.000005
2349.000000	0.000031
2348.000000	0.000049
2347.000000	0.000034
2346.000000	0.000023
2345.000000	0.000062
2344.000000	0.000140
2343.000000	0.000204
2342.000000	0.000213
2341.000000	0.000163
2340.000000	0.000082
2339.000000	0.000026
2338.000000	0.000031
2337.000000	0.000089
2336.000000	0.000149
2335.000000	0.000161
2334.000000	0.000106
2333.000000	0.000013
2332.000000	-0.000066
2331.000000	-0.000085
2330.000000	-0.000042
2329.000000	0.000032
2328.000000	0.000105
2327.000000	0.000171
2326.000000	0.000235
2325.000000	0.000294
2324.000000	0.000332
2323.000000	0.000336
2322.000000	0.000321
2321.000000	0.000321
2320.000000	0.000352
2319.000000	0.000389
2318.000000	0.000395
2317.000000	0.000354
2316.000000	0.000280
2315.000000	0.000202
2314.000000	0.000148
2313.000000	0.000135
2312.000000	0.000156
2311.000000	0.000185
2310.000000	0.000196
2309.000000	0.000189
2308.000000	0.000187
2307.000000	0.000203
2306.000000	0.000227
2305.000000	0.000238
2304.000000	0.000234
2303.000000	0.000232
2302.000000	0.000242
2301.000000	0.000257
2300.000000	0.000255
2299.000000	0.000220
2298.000000	0.000170
2297.000000	0.000140
2296.000000	0.000146
2295.000000	0.000165
2294.000000	0.000162
2293.000000	0.000128
2292.000000	0.000090
2291.000000	0.000083
2290.000000	0.000114
2289.000000	0.000164
2288.000000	0.000205
2287.000000	0.000222
2286.000000	0.000217
2285.000000	0.000203
2284.000000	0.000191
2283.000000	0.000174
2282.000000	0.000140
2281.000000	0.000093
2280.000000	0.000062
2279.000000	0.000068
2278.000000	0.000100
2277.000000	0.000121
2276.000000	0.000097
2275.000000	0.000015
2274.000000	-0.000112
2273.000000	-0.000243
2272.000000	-0.000305
2271.000000	-0.000250
2270.000000	-0.000100
2269.000000	0.000062
2268.000000	0.000165
2267.000000	0.000195
2266.000000	0.000172
2265.000000	0.000103
2264.000000	-0.000014
2263.000000	-0.000149
2262.000000	-0.000240
2261.000000	-0.000239
2260.000000	-0.000158
2259.000000	-0.000055
2258.000000	0.000028
2257.000000	0.000104
2256.000000	0.000210
2255.000000	0.000355
2254.000000	0.000497
2253.000000	0.000572
2252.000000	0.000539
2251.000000	0.000402
2250.000000	0.000192
2249.000000	-0.000038
2248.000000	-0.000231
2247.000000	-0.000344
2246.000000	-0.000370
2245.000000	-0.000327
2244.000000	-0.000236
2243.000000	-0.000126
2242.000000	-0.000042
2241.000000	-0.000019
2240.000000	-0.000031
2239.000000	-0.000006
2238.000000	0.000098
2237.000000	0.000238
2236.000000	0.000335
2235.000000	0.000353
2234.000000	0.000306
2233.000000	0.000215
2232.000000	0.000090
2231.000000	-0.000036
2230.000000	-0.000119
2229.000000	-0.000147
2228.000000	-0.000147
2227.000000	-0.000133
2226.000000	-0.000078
2225.000000	0.000027
2224.000000	0.000138
2223.000000	0.000210
2222.000000	0.000251
2221.000000	0.000285
2220.000000	0.000274
2219.000000	0.000130
2218.000000	-0.000158
2217.000000	-0.000466
2216.000000	-0.000622
2215.000000	-0.000553
2214.000000	-0.000331
2213.000000	-0.000107
2212.000000	-0.000012
2211.000000	-0.000089
2210.000000	-0.000258
2209.000000	-0.000369
2208.000000	-0.000320
2207.000000	-0.000161
2206.000000	-0.000045
2205.000000	-0.000059
2204.000000	-0.000138
2203.000000	-0.000154
2202.000000	-0.000076
2201.000000	-0.000002
2200.000000	-0.000032
2199.000000	-0.000168
2198.000000	-0.000350
2197.000000	-0.000538
2196.000000	-0.000706
2195.000000	-0.000800
2194.000000	-0.000763
2193.000000	-0.000616
2192.000000	-0.000460
2191.000000	-0.000372
2190.000000	-0.000323
2189.000000	-0.000246
2188.000000	-0.000159
2187.000000	-0.000163
2186.000000	-0.000309
2185.000000	-0.000510
2184.000000	-0.000622
2183.000000	-0.000608
2182.000000	-0.000545
2181.000000	-0.000495
2180.000000	-0.000415
2179.000000	-0.000242
2178.000000	-0.000016
2177.000000	0.000127
2176.000000	0.000093
2175.000000	-0.000084
2174.000000	-0.000299
2173.000000	-0.000469
2172.000000	-0.000557
2171.000000	-0.000548
2170.000000	-0.000450
2169.000000	-0.000319
2168.000000	-0.000239
2167.000000	-0.000263
2166.000000	-0.000375
2165.000000	-0.000505
2164.000000	-0.000559
2163.000000	-0.000474
2162.000000	-0.000246
2161.000000	0.000087
2160.000000	0.000499
2159.000000	0.000958
2158.000000	0.001321
2157.000000	0.001340
2156.000000	0.000894
2155.000000	0.000158
2154.000000	-0.000494
2153.000000	-0.000770
2152.000000	-0.000660
2151.000000	-0.000417
2150.000000	-0.000334
2149.000000	-0.000509
2148.000000	-0.000775
2147.000000	-0.000867
2146.000000	-0.000683
2145.000000	-0.000358
2144.000000	-0.000103
2143.000000	-0.000001
2142.000000	-0.000013
2141.000000	-0.000093
2140.000000	-0.000210
2139.000000	-0.000272
2138.000000	-0.000168
2137.000000	0.000085
2136.000000	0.000299
2135.000000	0.000289
2134.000000	0.000070
2133.000000	-0.000177
2132.000000	-0.000292
2131.000000	-0.000243
2130.000000	-0.000089
2129.000000	0.000093
2128.000000	0.000231
2127.000000	0.000268
2126.000000	0.000191
2125.000000	0.000032
2124.000000	-0.000151
2123.000000	-0.000303
2122.000000	-0.000375
2121.000000	-0.000329
2120.000000	-0.000150
2119.000000	0.000131
2118.000000	0.000427
2117.000000	0.000620
2116.000000	0.000630
2115.000000	0.000481
2114.000000	0.000295
2113.000000	0.000194
2112.000000	0.000197
2111.000000	0.000227
2110.000000	0.000201
2109.000000	0.000110
2108.000000	0.000009
2107.000000	-0.000042
2106.000000	-0.000030
2105.000000	0.000001
2104.000000	-0.000004
2103.000000	-0.000054
2102.000000	-0.000106
2101.000000	-0.000122
2100.000000	-0.000128
2099.000000	-0.000179
2098.000000	-0.000271
2097.000000	-0.000329
2096.000000	-0.000293
2095.000000	-0.000189
2094.000000	-0.000098
2093.000000	-0.000077
2092.000000	-0.000134
2091.000000	-0.000236
2090.000000	-0.000333
2089.000000	-0.000376
2088.000000	-0.000346
2087.000000	-0.000276
2086.000000	-0.000216
2085.000000	-0.000187
2084.000000	-0.000190
2083.000000	-0.000218
2082.000000	-0.000239
2081.000000	-0.000166
2080.000000	0.000074
2079.000000	0.000427
2078.000000	0.000690
2077.000000	0.000667
2076.000000	0.000363
2075.000000	-0.000022
2074.000000	-0.000266
2073.000000	-0.000297
2072.000000	-0.000211
2071.000000	-0.000156
2070.000000	-0.000216
2069.000000	-0.000362
2068.000000	-0.000494
2067.000000	-0.000540
2066.000000	-0.000513
2065.000000	-0.000467
2064.000000	-0.000416
2063.000000	-0.000334
2062.000000	-0.000227
2061.000000	-0.000148
2060.000000	-0.000124
2059.000000	-0.000119
2058.000000	-0.000105
2057.000000	-0.000115
2056.000000	-0.000182
2055.000000	-0.000266
2054.000000	-0.000289
2053.000000	-0.000236
2052.000000	-0.000140
2051.000000	-0.000003
2050.000000	0.000184
2049.000000	0.000345
2048.000000	0.000339
2047.000000	0.000125
2046.000000	-0.000169
2045.000000	-0.000408
2044.000000	-0.000585
2043.000000	-0.000740
2042.000000	-0.000814
2041.000000	-0.000689
2040.000000	-0.000339
2039.000000	0.000123
2038.000000	0.000530
2037.000000	0.000728
2036.000000	0.000633
2035.000000	0.000288
2034.000000	-0.000160
2033.000000	-0.000567
2032.000000	-0.000880
2031.000000	-0.001072
2030.000000	-0.001086
2029.000000	-0.000908
2028.000000	-0.000660
2027.000000	-0.000496
2026.000000	-0.000429
2025.000000	-0.000364
2024.000000	-0.000274
2023.000000	-0.000240
2022.000000	-0.000322
2021.000000	-0.000472
2020.000000	-0.000592
2019.000000	-0.000623
2018.000000	-0.000574
2017.000000	-0.000505
2016.000000	-0.000484
2015.000000	-0.000514
2014.000000	-0.000524
2013.000000	-0.000474
2012.000000	-0.000413
2011.000000	-0.000373
2010.000000	-0.000271
2009.000000	-0.000023
2008.000000	0.000269
2007.000000	0.000368
2006.000000	0.000148
2005.000000	-0.000329
2004.000000	-0.000953
2003.000000	-0.001629
2002.000000	-0.002174
2001.000000	-0.002317
2000.000000	-0.001950
1999.000000	-0.001289
1998.000000	-0.000692
1997.000000	-0.000354
1996.000000	-0.000218
1995.000000	-0.000108
1994.000000	0.000096
1993.000000	0.000372
1992.000000	0.000566
1991.000000	0.000528
1990.000000	0.000283
1989.000000	0.000027
1988.000000	-0.000071
1987.000000	-0.000035
1986.000000	-0.000011
1985.000000	-0.000077
1984.000000	-0.000191
1983.000000	-0.000280
1982.000000	-0.000294
1981.000000	-0.000176
1980.000000	0.000102
1979.000000	0.000429
1978.000000	0.000560
1977.000000	0.000323
1976.000000	-0.000193
1975.000000	-0.000705
1974.000000	-0.000964
1973.000000	-0.000894
1972.000000	-0.000629
1971.000000	-0.000395
1970.000000	-0.000296
1969.000000	-0.000188
1968.000000	0.000138
1967.000000	0.000640
1966.000000	0.001017
1965.000000	0.001069
1964.000000	0.000926
1963.000000	0.000831
1962.000000	0.000835
1961.000000	0.000789
1960.000000	0.000571
1959.000000	0.000196
1958.000000	-0.000256
1957.000000	-0.000683
1956.000000	-0.000933
1955.000000	-0.000878
1954.000000	-0.000545
1953.000000	-0.000131
1952.000000	0.000165
1951.000000	0.000274
1950.000000	0.000243
1949.000000	0.000146
1948.000000	0.000049
1947.000000	-0.000002
1946.000000	-0.000016
1945.000000	-0.000046
1944.000000	-0.000106
1943.000000	-0.000137
1942.000000	-0.000095
1941.000000	-0.000033
1940.000000	-0.000044
1939.000000	-0.000140
1938.000000	-0.000248
1937.000000	-0.000285
1936.000000	-0.000222
1935.000000	-0.000108
1934.000000	-0.000039
1933.000000	-0.000089
1932.000000	-0.000226
1931.000000	-0.000340
1930.000000	-0.000360
1929.000000	-0.000332
1928.000000	-0.000339
1927.000000	-0.000384
1926.000000	-0.000409
1925.000000	-0.000403
1924.000000	-0.000422
1923.000000	-0.000493
1922.000000	-0.000555
1921.000000	-0.000534
1920.000000	-0.000427
1919.000000	-0.000277
1918.000000	-0.000128
1917.000000	-0.000010
1916.000000	0.000061
1915.000000	0.000096
1914.000000	0.000109
1913.000000	0.000081
1912.000000	-0.000030
1911.000000	-0.000238
1910.000000	-0.000472
1909.000000	-0.000613
1908.000000	-0.000584
1907.000000	-0.000401
1906.000000	-0.000161
1905.000000	0.000017
1904.000000	0.000060
1903.000000	-0.000002
1902.000000	-0.000076
1901.000000	-0.000100
1900.000000	-0.000091
1899.000000	-0.000095
1898.000000	-0.000124
1897.000000	-0.000171
1896.000000	-0.000232
1895.000000	-0.000299
1894.000000	-0.000334
1893.000000	-0.000311
1892.000000	-0.000257
1891.000000	-0.000235
1890.000000	-0.000293
1889.000000	-0.000424
1888.000000	-0.000577
1887.000000	-0.000675
1886.000000	-0.000647
1885.000000	-0.000485
1884.000000	-0.000274
1883.000000	-0.000136
1882.000000	-0.000123
1881.000000	-0.000185
1880.000000	-0.000238
1879.000000	-0.000232
1878.000000	-0.000167
1877.000000	-0.000082
1876.000000	-0.000033
1875.000000	-0.000057
1874.000000	-0.000134
1873.000000	-0.000217
1872.000000	-0.000275
1871.000000	-0.000311
1870.000000	-0.000324
1869.000000	-0.000294
1868.000000	-0.000224
1867.000000	-0.000159
1866.000000	-0.000131
1865.000000	-0.000131
1864.000000	-0.000139
1863.000000	-0.000155
1862.000000	-0.000194
1861.000000	-0.000269
1860.000000	-0.000365
1859.000000	-0.000435
1858.000000	-0.000438
1857.000000	-0.000374
1856.000000	-0.000301
1855.000000	-0.000272
1854.000000	-0.000281
1853.000000	-0.000288
1852.000000	-0.000289
1851.000000	-0.000341
1850.000000	-0.000485
1849.000000	-0.000679
1848.000000	-0.000812
1847.000000	-0.000796
1846.000000	-0.000628
1845.000000	-0.000387
1844.000000	-0.000193
1843.000000	-0.000108
1842.000000	-0.000088
1841.000000	-0.000078
1840.000000	-0.000073
1839.000000	-0.000096
1838.000000	-0.000146
1837.000000	-0.000187
1836.000000	-0.000192
1835.000000	-0.000171
1834.000000	-0.000146
1833.000000	-0.000134
1832.000000	-0.000140
1831.000000	-0.000167
1830.000000	-0.000206
1829.000000	-0.000227
1828.000000	-0.000211
1827.000000	-0.000164
1826.000000	-0.000103
1825.000000	-0.000046
1824.000000	-0.000014
1823.000000	-0.000015
1822.000000	-0.000041
1821.000000	-0.000072
1820.000000	-0.000090
1819.000000	-0.000096
1818.000000	-0.000102
1817.000000	-0.000117
1816.000000	-0.000143
1815.000000	-0.000169
1814.000000	-0.000179
1813.000000	-0.000159
1812.000000	-0.000114
1811.000000	-0.000075
1810.000000	-0.000085
1809.000000	-0.000157
1808.000000	-0.000266
1807.000000	-0.000364
1806.000000	-0.000406
1805.000000	-0.000391
1804.000000	-0.000355
1803.000000	-0.000334
1802.000000	-0.000323
1801.000000	-0.000286
1800.000000	-0.000219
1799.000000	-0.000169
1798.000000	-0.000164
1797.000000	-0.000179
1796.000000	-0.000177
1795.000000	-0.000151
1794.000000	-0.000127
1793.000000	-0.000129
1792.000000	-0.000147
1791.000000	-0.000164
1790.000000	-0.000174
1789.000000	-0.000187
1788.000000	-0.000210
1787.000000	-0.000243
1786.000000	-0.000274
1785.000000	-0.000290
1784.000000	-0.000297
1783.000000	-0.000311
1782.000000	-0.000329
1781.000000	-0.000328
1780.000000	-0.000293
1779.000000	-0.000242
1778.000000	-0.000205
1777.000000	-0.000199
1776.000000	-0.000223
1775.000000	-0.000275
1774.000000	-0.000362
1773.000000	-0.000487
1772.000000	-0.000613
1771.000000	-0.000685
1770.000000	-0.000679
1769.000000	-0.000605
1768.000000	-0.000487
1767.000000	-0.000370
1766.000000	-0.000289
1765.000000	-0.000241
1764.000000	-0.000210
1763.000000	-0.000190
1762.000000	-0.000187
1761.000000	-0.000196
1760.000000	-0.000202
1759.000000	-0.000192
1758.000000	-0.000166
1757.000000	-0.000132
1756.000000	-0.000104
1755.000000	-0.000085
1754.000000	-0.000070
1753.000000	-0.000055
1752.000000	-0.000042
1751.000000	-0.000030
1750.000000	-0.000012
1749.000000	0.000021
1748.000000	0.000061
1747.000000	0.000087
1746.000000	0.000086
1745.000000	0.000058
1744.000000	0.000017
1743.000000	-0.000017
1742.000000	-0.000034
1741.000000	-0.000031
1740.000000	-0.000019
1739.000000	-0.000019
1738.000000	-0.000041
1737.000000	-0.000077
1736.000000	-0.000112
1735.000000	-0.000139
1734.000000	-0.000142
1733.000000	-0.000126
1732.000000	-0.000122
1731.000000	-0.000142
1730.000000	-0.000184
1729.000000	-0.000240
1728.000000	-0.000292
1727.000000	-0.000323
1726.000000	-0.000334
1725.000000	-0.000333
1724.000000	-0.000329
1723.000000	-0.000322
1722.000000	-0.000311
1721.000000	-0.000300
1720.000000	-0.000305
1719.000000	-0.000330
1718.000000	-0.000359
1717.000000	-0.000355
1716.000000	-0.000331
1715.000000	-0.000321
1714.000000	-0.000320
1713.000000	-0.000307
1712.000000	-0.000279
1711.000000	-0.000247
1710.000000	-0.000221
1709.000000	-0.000205
1708.000000	-0.000197
1707.000000	-0.000196
1706.000000	-0.000192
1705.000000	-0.000178
1704.000000	-0.000161
1703.000000	-0.000155
1702.000000	-0.000159
1701.000000	-0.000159
1700.000000	-0.000146
1699.000000	-0.000147
1698.000000	-0.000180
1697.000000	-0.000219
1696.000000	-0.000236
1695.000000	-0.000219
1694.000000	-0.000165
1693.000000	-0.000081
1692.000000	0.000015
1691.000000	0.000088
1690.000000	0.000124
1689.000000	0.000146
1688.000000	0.000184
1687.000000	0.000236
1686.000000	0.000283
1685.000000	0.000308
1684.000000	0.000311
1683.000000	0.000290
1682.000000	0.000262
1681.000000	0.000268
1680.000000	0.000321
1679.000000	0.000395
1678.000000	0.000454
1677.000000	0.000491
1676.000000	0.000515
1675.000000	0.000531
1674.000000	0.000538
1673.000000	0.000549
1672.000000	0.000579
1671.000000	0.000629
1670.000000	0.000682
1669.000000	0.000729
1668.000000	0.000773
1667.000000	0.000819
1666.000000	0.000868
1665.000000	0.000923
1664.000000	0.000978
1663.000000	0.001029
1662.000000	0.001070
1661.000000	0.001102
1660.000000	0.001120
1659.000000	0.001108
1658.000000	0.001062
1657.000000	0.001005
1656.000000	0.000971
1655.000000	0.000980
1654.000000	0.001041
1653.000000	0.001163
1652.000000	0.001265
1651.000000	0.001294
1650.000000	0.001288
1649.000000	0.001273
1648.000000	0.001258
1647.000000	0.001261
1646.000000	0.001288
1645.000000	0.001318
1644.000000	0.001343
1643.000000	0.001369
1642.000000	0.001388
1641.000000	0.001387
1640.000000	0.001362
1639.000000	0.001328
1638.000000	0.001296
1637.000000	0.001272
1636.000000	0.001260
1635.000000	0.001265
1634.000000	0.001277
1633.000000	0.001285
1632.000000	0.001293
1631.000000	0.001307
1630.000000	0.001331
1629.000000	0.001363
1628.000000	0.001387
1627.000000	0.001386
1626.000000	0.001362
1625.000000	0.001331
1624.000000	0.001305
1623.000000	0.001282
1622.000000	0.001252
1621.000000	0.001220
1620.000000	0.001202
1619.000000	0.001198
1618.000000	0.001175
1617.000000	0.001096
1616.000000	0.000979
1615.000000	0.000890
1614.000000	0.000858
1613.000000	0.000860
1612.000000	0.000863
1611.000000	0.000851
1610.000000	0.000829
1609.000000	0.000797
1608.000000	0.000745
1607.000000	0.000672
1606.000000	0.000599
1605.000000	0.000553
1604.000000	0.000545
1603.000000	0.000568
1602.000000	0.000595
1601.000000	0.000599
1600.000000	0.000569
1599.000000	0.000525
1598.000000	0.000497
1597.000000	0.000500
1596.000000	0.000523
1595.000000	0.000540
1594.000000	0.000529
1593.000000	0.000485
1592.000000	0.000421
1591.000000	0.000371
1590.000000	0.000366
1589.000000	0.000406
1588.000000	0.000458
1587.000000	0.000486
1586.000000	0.000484
1585.000000	0.000471
1584.000000	0.000469
1583.000000	0.000482
1582.000000	0.000503
1581.000000	0.000518
1580.000000	0.000526
1579.000000	0.000535
1578.000000	0.000555
1577.000000	0.000574
1576.000000	0.000570
1575.000000	0.000539
1574.000000	0.000507
1573.000000	0.000503
1572.000000	0.000536
1571.000000	0.000601
1570.000000	0.000671
1569.000000	0.000708
1568.000000	0.000704
1567.000000	0.000689
1566.000000	0.000696
1565.000000	0.000733
1564.000000	0.000788
1563.000000	0.000842
1562.000000	0.000881
1561.000000	0.000886
1560.000000	0.000826
1559.000000	0.000764
1558.000000	0.000825
1557.000000	0.000911
1556.000000	0.000959
1555.000000	0.000984
1554.000000	0.001005
1553.000000	0.001029
1552.000000	0.001055
1551.000000	0.001067
1550.000000	0.001051
1549.000000	0.001022
1548.000000	0.001009
1547.000000	0.001026
1546.000000	0.001066
1545.000000	0.001111
1544.000000	0.001153
1543.000000	0.001189
1542.000000	0.001198
1541.000000	0.001160
1540.000000	0.001099
1539.000000	0.001069
1538.000000	0.001068
1537.000000	0.001077
1536.000000	0.001088
1535.000000	0.001099
1534.000000	0.001109
1533.000000	0.001121
1532.000000	0.001129
1531.000000	0.001125
1530.000000	0.001114
1529.000000	0.001104
1528.000000	0.001099
1527.000000	0.001102
1526.000000	0.001114
1525.000000	0.001132
1524.000000	0.001148
1523.000000	0.001145
1522.000000	0.001110
1521.000000	0.001058
1520.000000	0.001020
1519.000000	0.000996
1518.000000	0.000967
1517.000000	0.000916
1516.000000	0.000848
1515.000000	0.000793
1514.000000	0.000769
1513.000000	0.000773
1512.000000	0.000785
1511.000000	0.000780
1510.000000	0.000751
1509.000000	0.000712
1508.000000	0.000685
1507.000000	0.000686
1506.000000	0.000694
1505.000000	0.000676
1504.000000	0.000659
1503.000000	0.000672
1502.000000	0.000705
1501.000000	0.000728
1500.000000	0.000717
1499.000000	0.000669
1498.000000	0.000602
1497.000000	0.000541
1496.000000	0.000501
1495.000000	0.000473
1494.000000	0.000442
1493.000000	0.000403
1492.000000	0.000355
1491.000000	0.000304
1490.000000	0.000263
1489.000000	0.000245
1488.000000	0.000237
1487.000000	0.000227
1486.000000	0.000220
1485.000000	0.000224
1484.000000	0.000235
1483.000000	0.000246
1482.000000	0.000259
1481.000000	0.000275
1480.000000	0.000291
1479.000000	0.000297
1478.000000	0.000292
1477.000000	0.000289
1476.000000	0.000296
1475.000000	0.000312
1474.000000	0.000331
1473.000000	0.000353
1472.000000	0.000368
1471.000000	0.000363
1470.000000	0.000348
1469.000000	0.000355
1468.000000	0.000410
1467.000000	0.000519
1466.000000	0.000672
1465.000000	0.000821
1464.000000	0.000900
1463.000000	0.000887
1462.000000	0.000827
1461.000000	0.000775
1460.000000	0.000754
1459.000000	0.000750
1458.000000	0.000733
1457.000000	0.000693
1456.000000	0.000646
1455.000000	0.000604
1454.000000	0.000578
1453.000000	0.000580
1452.000000	0.000612
1451.000000	0.000654
1450.000000	0.000685
1449.000000	0.000696
1448.000000	0.000693
1447.000000	0.000686
1446.000000	0.000681
1445.000000	0.000684
1444.000000	0.000692
1443.000000	0.000692
1442.000000	0.000680
1441.000000	0.000669
1440.000000	0.000676
1439.000000	0.000699
1438.000000	0.000709
1437.000000	0.000686
1436.000000	0.000647
1435.000000	0.000621
1434.000000	0.000613
1433.000000	0.000617
1432.000000	0.000633
1431.000000	0.000650
1430.000000	0.000649
1429.000000	0.000617
1428.000000	0.000574
1427.000000	0.000554
1426.000000	0.000568
1425.000000	0.000593
1424.000000	0.000600
1423.000000	0.000585
1422.000000	0.000565
1421.000000	0.000544
1420.000000	0.000510
1419.000000	0.000465
1418.000000	0.000439
1417.000000	0.000445
1416.000000	0.000465
1415.000000	0.000474
1414.000000	0.000469
1413.000000	0.000465
1412.000000	0.000474
1411.000000	0.000492
1410.000000	0.000509
1409.000000	0.000526
1408.000000	0.000548
1407.000000	0.000565
1406.000000	0.000564
1405.000000	0.000554
1404.000000	0.000558
1403.000000	0.000580
1402.000000	0.000607
1401.000000	0.000627
1400.000000	0.000637
1399.000000	0.000638
1398.000000	0.000619
1397.000000	0.000581
1396.000000	0.000540
1395.000000	0.000520
1394.000000	0.000530
1393.000000	0.000556
1392.000000	0.000582
1391.000000	0.000600
1390.000000	0.000613
1389.000000	0.000631
1388.000000	0.000660
1387.000000	0.000690
1386.000000	0.000700
1385.000000	0.000682
1384.000000	0.000646
1383.000000	0.000607
1382.000000	0.000571
1381.000000	0.000534
1380.000000	0.000488
1379.000000	0.000430
1378.000000	0.000366
1377.000000	0.000317
1376.000000	0.000297
1375.000000	0.000309
1374.000000	0.000334
1373.000000	0.000354
1372.000000	0.000364
1371.000000	0.000374
1370.000000	0.000390
1369.000000	0.000410
1368.000000	0.000423
1367.000000	0.000422
1366.000000	0.000402
1365.000000	0.000369
1364.000000	0.000327
1363.000000	0.000276
1362.000000	0.000222
1361.000000	0.000179
1360.000000	0.000165
1359.000000	0.000184
1358.000000	0.000222
1357.000000	0.000260
1356.000000	0.000287
1355.000000	0.000305
1354.000000	0.000310
1353.000000	0.000300
1352.000000	0.000289
1351.000000	0.000296
1350.000000	0.000330
1349.000000	0.000375
1348.000000	0.000401
1347.000000	0.000394
1346.000000	0.000367
1345.000000	0.000340
1344.000000	0.000329
1343.000000	0.000332
1342.000000	0.000341
1341.000000	0.000349
1340.000000	0.000356
1339.000000	0.000364
1338.000000	0.000374
1337.000000	0.000377
1336.000000	0.000372
1335.000000	0.000360
1334.000000	0.000347
1333.000000	0.000334
1332.000000	0.000322
1331.000000	0.000310
1330.000000	0.000297
1329.000000	0.000284
1328.000000	0.000276
1327.000000	0.000283
1326.000000	0.000305
1325.000000	0.000324
1324.000000	0.000325
1323.000000	0.000309
1322.000000	0.000292
1321.000000	0.000286
1320.000000	0.000284
1319.000000	0.000272
1318.000000	0.000251
1317.000000	0.000233
1316.000000	0.000224
1315.000000	0.000222
1314.000000	0.000219
1313.000000	0.000220
1312.000000	0.000232
1311.000000	0.000259
1310.000000	0.000283
1309.000000	0.000285
1308.000000	0.000262
1307.000000	0.000235
1306.000000	0.000233
1305.000000	0.000255
1304.000000	0.000275
1303.000000	0.000265
1302.000000	0.000230
1301.000000	0.000194
1300.000000	0.000174
1299.000000	0.000167
1298.000000	0.000159
1297.000000	0.000145
1296.000000	0.000130
1295.000000	0.000122
1294.000000	0.000116
1293.000000	0.000106
1292.000000	0.000084
1291.000000	0.000057
1290.000000	0.000035
1289.000000	0.000031
1288.000000	0.000050
1287.000000	0.000086
1286.000000	0.000121
1285.000000	0.000138
1284.000000	0.000129
1283.000000	0.000106
1282.000000	0.000086
1281.000000	0.000080
1280.000000	0.000086
1279.000000	0.000097
1278.000000	0.000105
1277.000000	0.000110
1276.000000	0.000111
1275.000000	0.000115
1274.000000	0.000127
1273.000000	0.000149
1272.000000	0.000172
1271.000000	0.000188
1270.000000	0.000198
1269.000000	0.000207
1268.000000	0.000213
1267.000000	0.000214
1266.000000	0.000215
1265.000000	0.000223
1264.000000	0.000239
1263.000000	0.000255
1262.000000	0.000266
1261.000000	0.000276
1260.000000	0.000288
1259.000000	0.000297
1258.000000	0.000299
1257.000000	0.000298
1256.000000	0.000304
1255.000000	0.000324
1254.000000	0.000349
1253.000000	0.000372
1252.000000	0.000388
1251.000000	0.000403
1250.000000	0.000427
1249.000000	0.000464
1248.000000	0.000505
1247.000000	0.000536
1246.000000	0.000549
1245.000000	0.000549
1244.000000	0.000542
1243.000000	0.000538
1242.000000	0.000549
1241.000000	0.000588
1240.000000	0.000655
1239.000000	0.000724
1238.000000	0.000765
1237.000000	0.000772
1236.000000	0.000767
1235.000000	0.000782
1234.000000	0.000826
1233.000000	0.000882
1232.000000	0.000923
1231.000000	0.000928
1230.000000	0.000895
1229.000000	0.000837
1228.000000	0.000766
1227.000000	0.000699
1226.000000	0.000650
1225.000000	0.000624
1224.000000	0.000611
1223.000000	0.000591
1222.000000	0.000553
1221.000000	0.000504
1220.000000	0.000453
1219.000000	0.000407
1218.000000	0.000379
1217.000000	0.000388
1216.000000	0.000437
1215.000000	0.000492
1214.000000	0.000504
1213.000000	0.000461
1212.000000	0.000401
1211.000000	0.000371
1210.000000	0.000382
1209.000000	0.000407
1208.000000	0.000415
1207.000000	0.000400
1206.000000	0.000381
1205.000000	0.000379
1204.000000	0.000402
1203.000000	0.000439
1202.000000	0.000466
1201.000000	0.000473
1200.000000	0.000465
1199.000000	0.000464
1198.000000	0.000480
1197.000000	0.000499
1196.000000	0.000497
1195.000000	0.000465
1194.000000	0.000412
1193.000000	0.000362
1192.000000	0.000330
1191.000000	0.000321
1190.000000	0.000328
1189.000000	0.000336
1188.000000	0.000332
1187.000000	0.000311
1186.000000	0.000288
1185.000000	0.000276
1184.000000	0.000275
1183.000000	0.000274
1182.000000	0.000270
1181.000000	0.000271
1180.000000	0.000279
1179.000000	0.000279
1178.000000	0.000259
1177.000000	0.000236
1176.000000	0.000239
1175.000000	0.000272
1174.000000	0.000308
1173.000000	0.000320
1172.000000	0.000311
1171.000000	0.000306
1170.000000	0.000312
1169.000000	0.000319
1168.000000	0.000318
1167.000000	0.000316
1166.000000	0.000314
1165.000000	0.000306
1164.000000	0.000289
1163.000000	0.000280
1162.000000	0.000295
1161.000000	0.000321
1160.000000	0.000327
1159.000000	0.000304
1158.000000	0.000279
1157.000000	0.000276
1156.000000	0.000284
1155.000000	0.000266
1154.000000	0.000211
1153.000000	0.000141
1152.000000	0.000092
1151.000000	0.000075
1150.000000	0.000075
1149.000000	0.000069
1148.000000	0.000046
1147.000000	0.000023
1146.000000	0.000029
1145.000000	0.000073
1144.000000	0.000121
1143.000000	0.000123
1142.000000	0.000063
1141.000000	-0.000021
1140.000000	-0.000084
1139.000000	-0.000112
1138.000000	-0.000123
1137.000000	-0.000139
1136.000000	-0.000163
1135.000000	-0.000190
1134.000000	-0.000210
1133.000000	-0.000211
1132.000000	-0.000183
1131.000000	-0.000137
1130.000000	-0.000098
1129.000000	-0.000093
1128.000000	-0.000128
1127.000000	-0.000184
1126.000000	-0.000231
1125.000000	-0.000245
1124.000000	-0.000224
1123.000000	-0.000183
1122.000000	-0.000150
1121.000000	-0.000147
1120.000000	-0.000170
1119.000000	-0.000191
1118.000000	-0.000179
1117.000000	-0.000132
1116.000000	-0.000088
1115.000000	-0.000083
1114.000000	-0.000110
1113.000000	-0.000125
1112.000000	-0.000104
1111.000000	-0.000067
1110.000000	-0.000047
1109.000000	-0.000044
1108.000000	-0.000037
1107.000000	-0.000019
1106.000000	-0.000006
1105.000000	-0.000012
1104.000000	-0.000034
1103.000000	-0.000065
1102.000000	-0.000091
1101.000000	-0.000097
1100.000000	-0.000074
1099.000000	-0.000029
1098.000000	0.000015
1097.000000	0.000049
1096.000000	0.000070
1095.000000	0.000075
1094.000000	0.000070
1093.000000	0.000075
1092.000000	0.000110
1091.000000	0.000156
1090.000000	0.000172
1089.000000	0.000145
1088.000000	0.000105
1087.000000	0.000085
1086.000000	0.000091
1085.000000	0.000112
1084.000000	0.000153
1083.000000	0.000204
1082.000000	0.000229
1081.000000	0.000196
1080.000000	0.000136
1079.000000	0.000115
1078.000000	0.000164
1077.000000	0.000238
1076.000000	0.000275
1075.000000	0.000257
1074.000000	0.000210
1073.000000	0.000166
1072.000000	0.000133
1071.000000	0.000100
1070.000000	0.000056
1069.000000	0.000011
1068.000000	-0.000004
1067.000000	0.000029
1066.000000	0.000090
1065.000000	0.000129
1064.000000	0.000119
1063.000000	0.000084
1062.000000	0.000062
1061.000000	0.000060
1060.000000	0.000061
1059.000000	0.000049
1058.000000	0.000028
1057.000000	0.000011
1056.000000	0.000008
1055.000000	0.000030
1054.000000	0.000074
1053.000000	0.000120
1052.000000	0.000142
1051.000000	0.000139
1050.000000	0.000131
1049.000000	0.000130
1048.000000	0.000124
1047.000000	0.000095
1046.000000	0.000045
1045.000000	-0.000005
1044.000000	-0.000037
1043.000000	-0.000044
1042.000000	-0.000035
1041.000000	-0.000029
1040.000000	-0.000037
1039.000000	-0.000049
1038.000000	-0.000044
1037.000000	-0.000011
1036.000000	0.000036
1035.000000	0.000079
1034.000000	0.000108
1033.000000	0.000119
1032.000000	0.000115
1031.000000	0.000105
1030.000000	0.000099
1029.000000	0.000095
1028.000000	0.000078
1027.000000	0.000052
1026.000000	0.000046
1025.000000	0.000086
1024.000000	0.000152
1023.000000	0.000196
1022.000000	0.000190
1021.000000	0.000144
1020.000000	0.000089
1019.000000	0.000059
1018.000000	0.000076
1017.000000	0.000134
1016.000000	0.000188
1015.000000	0.000184
1014.000000	0.000110
1013.000000	0.000008
1012.000000	-0.000071
1011.000000	-0.000104
1010.000000	-0.000100
1009.000000	-0.000082
1008.000000	-0.000071
1007.000000	-0.000072
1006.000000	-0.000078
1005.000000	-0.000097
1004.000000	-0.000170
1003.000000	-0.000324
1002.000000	-0.000505
1001.000000	-0.000597
1000.000000	-0.000530
999.000000	-0.000362
998.000000	-0.000216
997.000000	-0.000163
996.000000	-0.000184
995.000000	-0.000224
994.000000	-0.000256
993.000000	-0.000274
992.000000	-0.000269
991.000000	-0.000240
990.000000	-0.000212
989.000000	-0.000219
988.000000	-0.000272
987.000000	-0.000340
986.000000	-0.000377
985.000000	-0.000360
984.000000	-0.000302
983.000000	-0.000240
982.000000	-0.000206
981.000000	-0.000211
980.000000	-0.000239
979.000000	-0.000264
978.000000	-0.000263
977.000000	-0.000238
976.000000	-0.000210
975.000000	-0.000201
974.000000	-0.000215
973.000000	-0.000242
972.000000	-0.000275
971.000000	-0.000311
970.000000	-0.000329
969.000000	-0.000309
968.000000	-0.000259
967.000000	-0.000223
966.000000	-0.000227
965.000000	-0.000255
964.000000	-0.000279
963.000000	-0.000311
962.000000	-0.000387
961.000000	-0.000496
960.000000	-0.000574
959.000000	-0.000562
958.000000	-0.000472
957.000000	-0.000361
956.000000	-0.000277
955.000000	-0.000232
954.000000	-0.000218
953.000000	-0.000223
952.000000	-0.000226
951.000000	-0.000211
950.000000	-0.000183
949.000000	-0.000168
948.000000	-0.000191
947.000000	-0.000248
946.000000	-0.000303
945.000000	-0.000326
944.000000	-0.000313
943.000000	-0.000290
942.000000	-0.000288
941.000000	-0.000315
940.000000	-0.000358
939.000000	-0.000396
938.000000	-0.000411
937.000000	-0.000402
936.000000	-0.000384
935.000000	-0.000371
934.000000	-0.000371
933.000000	-0.000377
932.000000	-0.000376
931.000000	-0.000356
930.000000	-0.000311
929.000000	-0.000255
928.000000	-0.000214
927.000000	-0.000212
926.000000	-0.000237
925.000000	-0.000256
924.000000	-0.000246
923.000000	-0.000225
922.000000	-0.000231
921.000000	-0.000277
920.000000	-0.000347
919.000000	-0.000406
918.000000	-0.000428
917.000000	-0.000404
916.000000	-0.000354
915.000000	-0.000315
914.000000	-0.000315
913.000000	-0.000347
912.000000	-0.000387
911.000000	-0.000421
910.000000	-0.000446
909.000000	-0.000463
908.000000	-0.000459
907.000000	-0.000421
906.000000	-0.000348
905.000000	-0.000268
904.000000	-0.000225
903.000000	-0.000252
902.000000	-0.000335
901.000000	-0.000418
900.000000	-0.000456
899.000000	-0.000455
898.000000	-0.000456
897.000000	-0.000480
896.000000	-0.000517
895.000000	-0.000550
894.000000	-0.000575
893.000000	-0.000588
892.000000	-0.000575
891.000000	-0.000529
890.000000	-0.000464
889.000000	-0.000413
888.000000	-0.000403
887.000000	-0.000429
886.000000	-0.000451
885.000000	-0.000431
884.000000	-0.000377
883.000000	-0.000343
882.000000	-0.000367
881.000000	-0.000416
880.000000	-0.000417
879.000000	-0.000345
878.000000	-0.000240
877.000000	-0.000162
876.000000	-0.000140
875.000000	-0.000176
874.000000	-0.000251
873.000000	-0.000324
872.000000	-0.000354
871.000000	-0.000344
870.000000	-0.000340
869.000000	-0.000376
868.000000	-0.000432
867.000000	-0.000467
866.000000	-0.000471
865.000000	-0.000465
864.000000	-0.000462
863.000000	-0.000459
862.000000	-0.000451
861.000000	-0.000435
860.000000	-0.000407
859.000000	-0.000365
858.000000	-0.000313
857.000000	-0.000262
856.000000	-0.000226
855.000000	-0.000231
854.000000	-0.000292
853.000000	-0.000387
852.000000	-0.000459
851.000000	-0.000471
850.000000	-0.000445
849.000000	-0.000428
848.000000	-0.000436
847.000000	-0.000456
846.000000	-0.000477
845.000000	-0.000496
844.000000	-0.000505
843.000000	-0.000492
842.000000	-0.000467
841.000000	-0.000450
840.000000	-0.000441
839.000000	-0.000425
838.000000	-0.000408
837.000000	-0.000411
836.000000	-0.000431
835.000000	-0.000439
834.000000	-0.000424
833.000000	-0.000425
832.000000	-0.000480
831.000000	-0.000572
830.000000	-0.000641
829.000000	-0.000641
828.000000	-0.000580
827.000000	-0.000489
826.000000	-0.000397
825.000000	-0.000328
824.000000	-0.000301
823.000000	-0.000319
822.000000	-0.000362
821.000000	-0.000397
820.000000	-0.000404
819.000000	-0.000388
818.000000	-0.000367
817.000000	-0.000360
816.000000	-0.000369
815.000000	-0.000383
814.000000	-0.000393
813.000000	-0.000405
812.000000	-0.000436
811.000000	-0.000493
810.000000	-0.000561
809.000000	-0.000613
808.000000	-0.000631
807.000000	-0.000609
806.000000	-0.000553
805.000000	-0.000473
804.000000	-0.000395
803.000000	-0.000356
802.000000	-0.000368
801.000000	-0.000408
800.000000	-0.000431
799.000000	-0.000414
798.000000	-0.000373
797.000000	-0.000346
796.000000	-0.000357
795.000000	-0.000410
794.000000	-0.000481
793.000000	-0.000528
792.000000	-0.000517
791.000000	-0.000451
790.000000	-0.000366
789.000000	-0.000312
788.000000	-0.000318
787.000000	-0.000383
786.000000	-0.000473
785.000000	-0.000536
784.000000	-0.000531
783.000000	-0.000461
782.000000	-0.000370
781.000000	-0.000313
780.000000	-0.000320
779.000000	-0.000386
778.000000	-0.000474
777.000000	-0.000527
776.000000	-0.000500
775.000000	-0.000404
774.000000	-0.000299
773.000000	-0.000235
772.000000	-0.000209
771.000000	-0.000203
770.000000	-0.000236
769.000000	-0.000335
768.000000	-0.000478
767.000000	-0.000588
766.000000	-0.000612
765.000000	-0.000573
764.000000	-0.000533
763.000000	-0.000518
762.000000	-0.000513
761.000000	-0.000503
760.000000	-0.000498
759.000000	-0.000502
758.000000	-0.000496
757.000000	-0.000461
756.000000	-0.000401
755.000000	-0.000346
754.000000	-0.000327
753.000000	-0.000353
752.000000	-0.000412
751.000000	-0.000481
750.000000	-0.000533
749.000000	-0.000558
748.000000	-0.000565
747.000000	-0.000567
746.000000	-0.000561
745.000000	-0.000536
744.000000	-0.000494
743.000000	-0.000459
742.000000	-0.000459
741.000000	-0.000494
740.000000	-0.000538
739.000000	-0.000557
738.000000	-0.000539
737.000000	-0.000504
736.000000	-0.000492
735.000000	-0.000528
734.000000	-0.000581
733.000000	-0.000583
732.000000	-0.000503
731.000000	-0.000396
730.000000	-0.000353
729.000000	-0.000400
728.000000	-0.000478
727.000000	-0.000519
726.000000	-0.000519
725.000000	-0.000511
724.000000	-0.000518
723.000000	-0.000529
722.000000	-0.000528
721.000000	-0.000512
720.000000	-0.000487
719.000000	-0.000461
718.000000	-0.000437
717.000000	-0.000410
716.000000	-0.000366
715.000000	-0.000300
714.000000	-0.000235
713.000000	-0.000203
712.000000	-0.000211
711.000000	-0.000248
710.000000	-0.000293
709.000000	-0.000325
708.000000	-0.000322
707.000000	-0.000283
706.000000	-0.000246
705.000000	-0.000245
704.000000	-0.000269
703.000000	-0.000276
702.000000	-0.000256
701.000000	-0.000247
700.000000	-0.000273
699.000000	-0.000313
698.000000	-0.000333
697.000000	-0.000335
696.000000	-0.000345
695.000000	-0.000367
694.000000	-0.000375
693.000000	-0.000347
692.000000	-0.000288
691.000000	-0.000224
690.000000	-0.000178
689.000000	-0.000161
688.000000	-0.000172
687.000000	-0.000202
686.000000	-0.000242
685.000000	-0.000285
684.000000	-0.000312
683.000000	-0.000311
682.000000	-0.000292
681.000000	-0.000278
680.000000	-0.000281
679.000000	-0.000300
678.000000	-0.000329
677.000000	-0.000345
676.000000	-0.000309
675.000000	-0.000232
674.000000	-0.000189
673.000000	-0.000255
672.000000	-0.000430
671.000000	-0.000654
670.000000	-0.000889
669.000000	-0.001106
668.000000	-0.001147
667.000000	-0.000870
666.000000	-0.000579
665.000000	-0.000413
664.000000	-0.000300
663.000000	-0.000210
662.000000	-0.000150
661.000000	-0.000131
660.000000	-0.000149
659.000000	-0.000202
658.000000	-0.000290
657.000000	-0.000391
656.000000	-0.000469
655.000000	-0.000495
654.000000	-0.000458
653.000000	-0.000368
652.000000	-0.000254
651.000000	-0.000145
650.000000	-0.000051
649.000000	0.000019
648.000000	0.000036
647.000000	-0.000007
646.000000	-0.000056
645.000000	-0.000041
644.000000	0.000035
643.000000	0.000092
642.000000	0.000050
641.000000	-0.000112
640.000000	-0.000342
639.000000	-0.000549
638.000000	-0.000634
637.000000	-0.000568
636.000000	-0.000427
635.000000	-0.000327
634.000000	-0.000307
633.000000	-0.000313
632.000000	-0.000284
631.000000	-0.000222
630.000000	-0.000160
629.000000	-0.000114
628.000000	-0.000087
627.000000	-0.000085
626.000000	-0.000104
625.000000	-0.000125
624.000000	-0.000153
623.000000	-0.000207
622.000000	-0.000287
621.000000	-0.000355
620.000000	-0.000389
619.000000	-0.000416
618.000000	-0.000482
617.000000	-0.000590
616.000000	-0.000692
615.000000	-0.000722
614.000000	-0.000635
613.000000	-0.000428
612.000000	-0.000161
611.000000	0.000059
610.000000	0.000128
609.000000	0.000010
608.000000	-0.000251
607.000000	-0.000543
606.000000	-0.000729
605.000000	-0.000739
604.000000	-0.000619
603.000000	-0.000483
602.000000	-0.000404
601.000000	-0.000380
600.000000	-0.000393
599.000000	-0.000449
598.000000	-0.000542
597.000000	-0.000613
596.000000	-0.000601
595.000000	-0.000508
594.000000	-0.000382
593.000000	-0.000261
592.000000	-0.000162
591.000000	-0.000114
590.000000	-0.000150
589.000000	-0.000269
588.000000	-0.000415
587.000000	-0.000516
586.000000	-0.000534
585.000000	-0.000496
584.000000	-0.000459
583.000000	-0.000440
582.000000	-0.000392
581.000000	-0.000286
580.000000	-0.000204
579.000000	-0.000292
578.000000	-0.000582
577.000000	-0.000913
576.000000	-0.001057
575.000000	-0.000942
574.000000	-0.000704
573.000000	-0.000518
572.000000	-0.000429
571.000000	-0.000357
570.000000	-0.000237
569.000000	-0.000116
568.000000	-0.000109
567.000000	-0.000256
566.000000	-0.000447
565.000000	-0.000525
564.000000	-0.000444
563.000000	-0.000291
562.000000	-0.000160
561.000000	-0.000069
560.000000	-0.000018
559.000000	-0.000053
558.000000	-0.000192
557.000000	-0.000346
556.000000	-0.000379
555.000000	-0.000259
554.000000	-0.000088
553.000000	0.000023
552.000000	0.000041
551.000000	-0.000010
550.000000	-0.000106
549.000000	-0.000217
548.000000	-0.000305
547.000000	-0.000352
546.000000	-0.000380
545.000000	-0.000427
544.000000	-0.000500
543.000000	-0.000551
542.000000	-0.000497
541.000000	-0.000288
540.000000	0.000017
539.000000	0.000247
538.000000	0.000260
537.000000	0.000088
536.000000	-0.000109
535.000000	-0.000224
534.000000	-0.000283
533.000000	-0.000351
532.000000	-0.000417
531.000000	-0.000420
530.000000	-0.000336
529.000000	-0.000187
528.000000	-0.000007
527.000000	0.000155
526.000000	0.000218
525.000000	0.000147
524.000000	0.000027
523.000000	-0.000010
522.000000	0.000061
521.000000	0.000135
520.000000	0.000090
519.000000	-0.000079
518.000000	-0.000269
517.000000	-0.000393
516.000000	-0.000469
515.000000	-0.000559
514.000000	-0.000661
513.000000	-0.000703
512.000000	-0.000631
511.000000	-0.000485
510.000000	-0.000374
509.000000	-0.000379
508.000000	-0.000477
507.000000	-0.000562
506.000000	-0.000525
505.000000	-0.000350
504.000000	-0.000104
503.000000	0.000117
502.000000	0.000239
501.000000	0.000220
500.000000	0.000056
499.000000	-0.000183
498.000000	-0.000353
497.000000	-0.000318
496.000000	-0.000091
495.000000	0.000121
494.000000	0.000092
493.000000	-0.000206
492.000000	-0.000583
491.000000	-0.000815
490.000000	-0.000835
489.000000	-0.000728
488.000000	-0.000607
487.000000	-0.000524
486.000000	-0.000478
485.000000	-0.000448
484.000000	-0.000422
483.000000	-0.000376
482.000000	-0.000253
481.000000	-0.000034
480.000000	0.000190
479.000000	0.000255
478.000000	0.000094
477.000000	-0.000144
476.000000	-0.000222
475.000000	-0.000074
474.000000	0.000092
473.000000	-0.000006
472.000000	-0.000402
471.000000	-0.000806
470.000000	-0.000940
469.000000	-0.000814
468.000000	-0.000646
467.000000	-0.000628
466.000000	-0.000788
465.000000	-0.001039
464.000000	-0.001309
463.000000	-0.001569
462.000000	-0.001753
461.000000	-0.001777
460.000000	-0.001631
459.000000	-0.001390
458.000000	-0.001147
457.000000	-0.000947
456.000000	-0.000778
455.000000	-0.000697
454.000000	-0.000487
453.000000	-0.000298
452.000000	-0.000183
451.000000	-0.000205
450.000000	-0.000326
