PE IR       SUBTECH     SPECTRUM    ASCII       PEDS        4.00        
   -1
3G-N10-C027_1.ASC
22/02/24
10:02:14.00
22/02/24
10:18:11.00
uco
Sample 027 By uco Date Thursday, February 24 2022
450.000000
#HDR
-1
-1
#GR
cm-1
A
1.0
0.0
4000.000000
-1.000000
3551
8
0.036467
0.003631
#DATA
4000.000000	0.003919
3999.000000	0.003938
3998.000000	0.003958
3997.000000	0.003976
3996.000000	0.003983
3995.000000	0.003982
3994.000000	0.003981
3993.000000	0.003987
3992.000000	0.004004
3991.000000	0.004025
3990.000000	0.004042
3989.000000	0.004045
3988.000000	0.004030
3987.000000	0.004007
3986.000000	0.003988
3985.000000	0.003984
3984.000000	0.003999
3983.000000	0.004026
3982.000000	0.004056
3981.000000	0.004085
3980.000000	0.004113
3979.000000	0.004138
3978.000000	0.004156
3977.000000	0.004159
3976.000000	0.004147
3975.000000	0.004121
3974.000000	0.004090
3973.000000	0.004058
3972.000000	0.004027
3971.000000	0.004000
3970.000000	0.003985
3969.000000	0.003994
3968.000000	0.004030
3967.000000	0.004086
3966.000000	0.004141
3965.000000	0.004179
3964.000000	0.004194
3963.000000	0.004189
3962.000000	0.004172
3961.000000	0.004148
3960.000000	0.004121
3959.000000	0.004093
3958.000000	0.004072
3957.000000	0.004069
3956.000000	0.004088
3955.000000	0.004124
3954.000000	0.004161
3953.000000	0.004183
3952.000000	0.004186
3951.000000	0.004178
3950.000000	0.004170
3949.000000	0.004165
3948.000000	0.004154
3947.000000	0.004123
3946.000000	0.004070
3945.000000	0.004010
3944.000000	0.003968
3943.000000	0.003967
3942.000000	0.004006
3941.000000	0.004069
3940.000000	0.004132
3939.000000	0.004175
3938.000000	0.004191
3937.000000	0.004184
3936.000000	0.004165
3935.000000	0.004146
3934.000000	0.004132
3933.000000	0.004124
3932.000000	0.004118
3931.000000	0.004111
3930.000000	0.004104
3929.000000	0.004101
3928.000000	0.004103
3927.000000	0.004111
3926.000000	0.004125
3925.000000	0.004141
3924.000000	0.004152
3923.000000	0.004155
3922.000000	0.004151
3921.000000	0.004142
3920.000000	0.004133
3919.000000	0.004127
3918.000000	0.004123
3917.000000	0.004121
3916.000000	0.004117
3915.000000	0.004112
3914.000000	0.004105
3913.000000	0.004099
3912.000000	0.004094
3911.000000	0.004092
3910.000000	0.004098
3909.000000	0.004116
3908.000000	0.004144
3907.000000	0.004174
3906.000000	0.004197
3905.000000	0.004207
3904.000000	0.004207
3903.000000	0.004204
3902.000000	0.004204
3901.000000	0.004208
3900.000000	0.004213
3899.000000	0.004214
3898.000000	0.004211
3897.000000	0.004206
3896.000000	0.004202
3895.000000	0.004197
3894.000000	0.004189
3893.000000	0.004177
3892.000000	0.004166
3891.000000	0.004163
3890.000000	0.004165
3889.000000	0.004168
3888.000000	0.004166
3887.000000	0.004157
3886.000000	0.004144
3885.000000	0.004135
3884.000000	0.004135
3883.000000	0.004146
3882.000000	0.004165
3881.000000	0.004190
3880.000000	0.004209
3879.000000	0.004214
3878.000000	0.004200
3877.000000	0.004173
3876.000000	0.004146
3875.000000	0.004133
3874.000000	0.004146
3873.000000	0.004178
3872.000000	0.004208
3871.000000	0.004222
3870.000000	0.004222
3869.000000	0.004222
3868.000000	0.004229
3867.000000	0.004242
3866.000000	0.004253
3865.000000	0.004255
3864.000000	0.004243
3863.000000	0.004215
3862.000000	0.004181
3861.000000	0.004151
3860.000000	0.004135
3859.000000	0.004130
3858.000000	0.004133
3857.000000	0.004139
3856.000000	0.004149
3855.000000	0.004161
3854.000000	0.004182
3853.000000	0.004207
3852.000000	0.004220
3851.000000	0.004219
3850.000000	0.004214
3849.000000	0.004212
3848.000000	0.004209
3847.000000	0.004200
3846.000000	0.004182
3845.000000	0.004162
3844.000000	0.004153
3843.000000	0.004159
3842.000000	0.004173
3841.000000	0.004183
3840.000000	0.004181
3839.000000	0.004174
3838.000000	0.004170
3837.000000	0.004170
3836.000000	0.004167
3835.000000	0.004160
3834.000000	0.004151
3833.000000	0.004144
3832.000000	0.004142
3831.000000	0.004143
3830.000000	0.004143
3829.000000	0.004138
3828.000000	0.004130
3827.000000	0.004127
3826.000000	0.004143
3825.000000	0.004182
3824.000000	0.004236
3823.000000	0.004283
3822.000000	0.004304
3821.000000	0.004297
3820.000000	0.004273
3819.000000	0.004240
3818.000000	0.004202
3817.000000	0.004163
3816.000000	0.004128
3815.000000	0.004103
3814.000000	0.004096
3813.000000	0.004108
3812.000000	0.004137
3811.000000	0.004173
3810.000000	0.004201
3809.000000	0.004211
3808.000000	0.004208
3807.000000	0.004209
3806.000000	0.004222
3805.000000	0.004239
3804.000000	0.004241
3803.000000	0.004219
3802.000000	0.004178
3801.000000	0.004138
3800.000000	0.004113
3799.000000	0.004101
3798.000000	0.004098
3797.000000	0.004102
3796.000000	0.004114
3795.000000	0.004131
3794.000000	0.004147
3793.000000	0.004157
3792.000000	0.004159
3791.000000	0.004149
3790.000000	0.004128
3789.000000	0.004100
3788.000000	0.004074
3787.000000	0.004057
3786.000000	0.004051
3785.000000	0.004057
3784.000000	0.004069
3783.000000	0.004088
3782.000000	0.004110
3781.000000	0.004131
3780.000000	0.004149
3779.000000	0.004158
3778.000000	0.004158
3777.000000	0.004149
3776.000000	0.004132
3775.000000	0.004114
3774.000000	0.004104
3773.000000	0.004106
3772.000000	0.004116
3771.000000	0.004125
3770.000000	0.004129
3769.000000	0.004130
3768.000000	0.004128
3767.000000	0.004121
3766.000000	0.004107
3765.000000	0.004089
3764.000000	0.004073
3763.000000	0.004062
3762.000000	0.004050
3761.000000	0.004035
3760.000000	0.004022
3759.000000	0.004022
3758.000000	0.004042
3757.000000	0.004074
3756.000000	0.004100
3755.000000	0.004107
3754.000000	0.004097
3753.000000	0.004091
3752.000000	0.004110
3751.000000	0.004155
3750.000000	0.004194
3749.000000	0.004205
3748.000000	0.004193
3747.000000	0.004178
3746.000000	0.004173
3745.000000	0.004171
3744.000000	0.004152
3743.000000	0.004105
3742.000000	0.004044
3741.000000	0.003994
3740.000000	0.003970
3739.000000	0.003973
3738.000000	0.003989
3737.000000	0.004001
3736.000000	0.003999
3735.000000	0.003982
3734.000000	0.003961
3733.000000	0.003949
3732.000000	0.003957
3731.000000	0.003977
3730.000000	0.003992
3729.000000	0.003993
3728.000000	0.003985
3727.000000	0.003983
3726.000000	0.003993
3725.000000	0.004006
3724.000000	0.004005
3723.000000	0.003983
3722.000000	0.003953
3721.000000	0.003930
3720.000000	0.003922
3719.000000	0.003923
3718.000000	0.003922
3717.000000	0.003917
3716.000000	0.003914
3715.000000	0.003922
3714.000000	0.003947
3713.000000	0.003990
3712.000000	0.004041
3711.000000	0.004086
3710.000000	0.004107
3709.000000	0.004099
3708.000000	0.004073
3707.000000	0.004045
3706.000000	0.004026
3705.000000	0.004012
3704.000000	0.003989
3703.000000	0.003950
3702.000000	0.003903
3701.000000	0.003873
3700.000000	0.003871
3699.000000	0.003896
3698.000000	0.003933
3697.000000	0.003969
3696.000000	0.003998
3695.000000	0.004021
3694.000000	0.004043
3693.000000	0.004063
3692.000000	0.004076
3691.000000	0.004077
3690.000000	0.004067
3689.000000	0.004053
3688.000000	0.004040
3687.000000	0.004035
3686.000000	0.004037
3685.000000	0.004042
3684.000000	0.004045
3683.000000	0.004046
3682.000000	0.004054
3681.000000	0.004077
3680.000000	0.004120
3679.000000	0.004178
3678.000000	0.004238
3677.000000	0.004279
3676.000000	0.004294
3675.000000	0.004285
3674.000000	0.004260
3673.000000	0.004231
3672.000000	0.004211
3671.000000	0.004207
3670.000000	0.004216
3669.000000	0.004223
3668.000000	0.004213
3667.000000	0.004189
3666.000000	0.004164
3665.000000	0.004150
3664.000000	0.004146
3663.000000	0.004142
3662.000000	0.004134
3661.000000	0.004125
3660.000000	0.004120
3659.000000	0.004125
3658.000000	0.004139
3657.000000	0.004166
3656.000000	0.004208
3655.000000	0.004269
3654.000000	0.004347
3653.000000	0.004426
3652.000000	0.004478
3651.000000	0.004475
3650.000000	0.004423
3649.000000	0.004365
3648.000000	0.004340
3647.000000	0.004349
3646.000000	0.004372
3645.000000	0.004392
3644.000000	0.004405
3643.000000	0.004414
3642.000000	0.004428
3641.000000	0.004448
3640.000000	0.004474
3639.000000	0.004499
3638.000000	0.004521
3637.000000	0.004537
3636.000000	0.004545
3635.000000	0.004546
3634.000000	0.004546
3633.000000	0.004555
3632.000000	0.004579
3631.000000	0.004619
3630.000000	0.004670
3629.000000	0.004714
3628.000000	0.004733
3627.000000	0.004719
3626.000000	0.004693
3625.000000	0.004674
3624.000000	0.004670
3623.000000	0.004675
3622.000000	0.004681
3621.000000	0.004693
3620.000000	0.004722
3619.000000	0.004769
3618.000000	0.004816
3617.000000	0.004850
3616.000000	0.004870
3615.000000	0.004888
3614.000000	0.004916
3613.000000	0.004952
3612.000000	0.004991
3611.000000	0.005026
3610.000000	0.005056
3609.000000	0.005081
3608.000000	0.005098
3607.000000	0.005110
3606.000000	0.005116
3605.000000	0.005116
3604.000000	0.005106
3603.000000	0.005090
3602.000000	0.005077
3601.000000	0.005081
3600.000000	0.005106
3599.000000	0.005146
3598.000000	0.005196
3597.000000	0.005252
3596.000000	0.005308
3595.000000	0.005350
3594.000000	0.005371
3593.000000	0.005382
3592.000000	0.005399
3591.000000	0.005431
3590.000000	0.005473
3589.000000	0.005512
3588.000000	0.005550
3587.000000	0.005592
3586.000000	0.005636
3585.000000	0.005666
3584.000000	0.005675
3583.000000	0.005667
3582.000000	0.005656
3581.000000	0.005655
3580.000000	0.005670
3579.000000	0.005706
3578.000000	0.005762
3577.000000	0.005834
3576.000000	0.005912
3575.000000	0.005984
3574.000000	0.006042
3573.000000	0.006083
3572.000000	0.006109
3571.000000	0.006134
3570.000000	0.006171
3569.000000	0.006224
3568.000000	0.006280
3567.000000	0.006322
3566.000000	0.006344
3565.000000	0.006355
3564.000000	0.006365
3563.000000	0.006377
3562.000000	0.006386
3561.000000	0.006392
3560.000000	0.006405
3559.000000	0.006435
3558.000000	0.006485
3557.000000	0.006552
3556.000000	0.006628
3555.000000	0.006701
3554.000000	0.006764
3553.000000	0.006810
3552.000000	0.006836
3551.000000	0.006845
3550.000000	0.006846
3549.000000	0.006853
3548.000000	0.006877
3547.000000	0.006922
3546.000000	0.006979
3545.000000	0.007030
3544.000000	0.007064
3543.000000	0.007080
3542.000000	0.007090
3541.000000	0.007098
3540.000000	0.007107
3539.000000	0.007120
3538.000000	0.007148
3537.000000	0.007198
3536.000000	0.007262
3535.000000	0.007319
3534.000000	0.007354
3533.000000	0.007369
3532.000000	0.007384
3531.000000	0.007416
3530.000000	0.007469
3529.000000	0.007532
3528.000000	0.007592
3527.000000	0.007639
3526.000000	0.007678
3525.000000	0.007715
3524.000000	0.007750
3523.000000	0.007777
3522.000000	0.007794
3521.000000	0.007812
3520.000000	0.007840
3519.000000	0.007882
3518.000000	0.007933
3517.000000	0.007978
3516.000000	0.008007
3515.000000	0.008019
3514.000000	0.008025
3513.000000	0.008042
3512.000000	0.008080
3511.000000	0.008135
3510.000000	0.008192
3509.000000	0.008235
3508.000000	0.008262
3507.000000	0.008278
3506.000000	0.008294
3505.000000	0.008313
3504.000000	0.008337
3503.000000	0.008366
3502.000000	0.008396
3501.000000	0.008420
3500.000000	0.008433
3499.000000	0.008441
3498.000000	0.008453
3497.000000	0.008482
3496.000000	0.008529
3495.000000	0.008583
3494.000000	0.008632
3493.000000	0.008665
3492.000000	0.008683
3491.000000	0.008695
3490.000000	0.008711
3489.000000	0.008735
3488.000000	0.008764
3487.000000	0.008797
3486.000000	0.008835
3485.000000	0.008879
3484.000000	0.008922
3483.000000	0.008956
3482.000000	0.008980
3481.000000	0.009000
3480.000000	0.009020
3479.000000	0.009036
3478.000000	0.009044
3477.000000	0.009045
3476.000000	0.009046
3475.000000	0.009057
3474.000000	0.009085
3473.000000	0.009132
3472.000000	0.009189
3471.000000	0.009247
3470.000000	0.009298
3469.000000	0.009340
3468.000000	0.009373
3467.000000	0.009396
3466.000000	0.009408
3465.000000	0.009416
3464.000000	0.009428
3463.000000	0.009450
3462.000000	0.009478
3461.000000	0.009500
3460.000000	0.009508
3459.000000	0.009508
3458.000000	0.009520
3457.000000	0.009558
3456.000000	0.009619
3455.000000	0.009680
3454.000000	0.009718
3453.000000	0.009729
3452.000000	0.009721
3451.000000	0.009708
3450.000000	0.009701
3449.000000	0.009707
3448.000000	0.009730
3447.000000	0.009771
3446.000000	0.009830
3445.000000	0.009902
3444.000000	0.009976
3443.000000	0.010034
3442.000000	0.010065
3441.000000	0.010069
3440.000000	0.010061
3439.000000	0.010060
3438.000000	0.010074
3437.000000	0.010103
3436.000000	0.010137
3435.000000	0.010167
3434.000000	0.010187
3433.000000	0.010203
3432.000000	0.010229
3431.000000	0.010277
3430.000000	0.010347
3429.000000	0.010425
3428.000000	0.010487
3427.000000	0.010517
3426.000000	0.010516
3425.000000	0.010502
3424.000000	0.010496
3423.000000	0.010502
3422.000000	0.010516
3421.000000	0.010533
3420.000000	0.010556
3419.000000	0.010589
3418.000000	0.010630
3417.000000	0.010674
3416.000000	0.010715
3415.000000	0.010750
3414.000000	0.010778
3413.000000	0.010794
3412.000000	0.010799
3411.000000	0.010795
3410.000000	0.010796
3409.000000	0.010814
3408.000000	0.010852
3407.000000	0.010902
3406.000000	0.010953
3405.000000	0.010992
3404.000000	0.011021
3403.000000	0.011045
3402.000000	0.011068
3401.000000	0.011091
3400.000000	0.011111
3399.000000	0.011132
3398.000000	0.011158
3397.000000	0.011193
3396.000000	0.011234
3395.000000	0.011275
3394.000000	0.011310
3393.000000	0.011338
3392.000000	0.011360
3391.000000	0.011373
3390.000000	0.011379
3389.000000	0.011383
3388.000000	0.011395
3387.000000	0.011428
3386.000000	0.011482
3385.000000	0.011547
3384.000000	0.011608
3383.000000	0.011657
3382.000000	0.011687
3381.000000	0.011696
3380.000000	0.011687
3379.000000	0.011680
3378.000000	0.011692
3377.000000	0.011730
3376.000000	0.011782
3375.000000	0.011836
3374.000000	0.011886
3373.000000	0.011936
3372.000000	0.011986
3371.000000	0.012036
3370.000000	0.012080
3369.000000	0.012116
3368.000000	0.012147
3367.000000	0.012177
3366.000000	0.012210
3365.000000	0.012249
3364.000000	0.012291
3363.000000	0.012338
3362.000000	0.012391
3361.000000	0.012452
3360.000000	0.012519
3359.000000	0.012580
3358.000000	0.012628
3357.000000	0.012664
3356.000000	0.012696
3355.000000	0.012736
3354.000000	0.012788
3353.000000	0.012847
3352.000000	0.012904
3351.000000	0.012955
3350.000000	0.013003
3349.000000	0.013055
3348.000000	0.013116
3347.000000	0.013187
3346.000000	0.013260
3345.000000	0.013323
3344.000000	0.013368
3343.000000	0.013401
3342.000000	0.013435
3341.000000	0.013477
3340.000000	0.013528
3339.000000	0.013582
3338.000000	0.013636
3337.000000	0.013689
3336.000000	0.013741
3335.000000	0.013793
3334.000000	0.013848
3333.000000	0.013909
3332.000000	0.013969
3331.000000	0.014024
3330.000000	0.014067
3329.000000	0.014101
3328.000000	0.014127
3327.000000	0.014148
3326.000000	0.014172
3325.000000	0.014202
3324.000000	0.014240
3323.000000	0.014282
3322.000000	0.014328
3321.000000	0.014382
3320.000000	0.014443
3319.000000	0.014508
3318.000000	0.014570
3317.000000	0.014627
3316.000000	0.014676
3315.000000	0.014717
3314.000000	0.014750
3313.000000	0.014773
3312.000000	0.014789
3311.000000	0.014802
3310.000000	0.014814
3309.000000	0.014821
3308.000000	0.014821
3307.000000	0.014819
3306.000000	0.014825
3305.000000	0.014849
3304.000000	0.014890
3303.000000	0.014941
3302.000000	0.014991
3301.000000	0.015028
3300.000000	0.015043
3299.000000	0.015036
3298.000000	0.015014
3297.000000	0.014995
3296.000000	0.014991
3295.000000	0.015000
3294.000000	0.015012
3293.000000	0.015021
3292.000000	0.015029
3291.000000	0.015045
3290.000000	0.015068
3289.000000	0.015093
3288.000000	0.015114
3287.000000	0.015127
3286.000000	0.015130
3285.000000	0.015117
3284.000000	0.015092
3283.000000	0.015061
3282.000000	0.015032
3281.000000	0.015006
3280.000000	0.014983
3279.000000	0.014968
3278.000000	0.014969
3277.000000	0.014977
3276.000000	0.014977
3275.000000	0.014958
3274.000000	0.014926
3273.000000	0.014897
3272.000000	0.014880
3271.000000	0.014871
3270.000000	0.014862
3269.000000	0.014849
3268.000000	0.014830
3267.000000	0.014806
3266.000000	0.014776
3265.000000	0.014742
3264.000000	0.014712
3263.000000	0.014691
3262.000000	0.014684
3261.000000	0.014683
3260.000000	0.014677
3259.000000	0.014663
3258.000000	0.014645
3257.000000	0.014628
3256.000000	0.014613
3255.000000	0.014591
3254.000000	0.014554
3253.000000	0.014502
3252.000000	0.014442
3251.000000	0.014389
3250.000000	0.014350
3249.000000	0.014324
3248.000000	0.014303
3247.000000	0.014283
3246.000000	0.014266
3245.000000	0.014254
3244.000000	0.014247
3243.000000	0.014235
3242.000000	0.014211
3241.000000	0.014174
3240.000000	0.014127
3239.000000	0.014075
3238.000000	0.014027
3237.000000	0.013994
3236.000000	0.013979
3235.000000	0.013974
3234.000000	0.013963
3233.000000	0.013938
3232.000000	0.013900
3231.000000	0.013856
3230.000000	0.013815
3229.000000	0.013778
3228.000000	0.013747
3227.000000	0.013725
3226.000000	0.013712
3225.000000	0.013702
3224.000000	0.013688
3223.000000	0.013668
3222.000000	0.013651
3221.000000	0.013639
3220.000000	0.013633
3219.000000	0.013630
3218.000000	0.013626
3217.000000	0.013618
3216.000000	0.013606
3215.000000	0.013586
3214.000000	0.013560
3213.000000	0.013525
3212.000000	0.013479
3211.000000	0.013422
3210.000000	0.013366
3209.000000	0.013326
3208.000000	0.013310
3207.000000	0.013313
3206.000000	0.013321
3205.000000	0.013320
3204.000000	0.013301
3203.000000	0.013264
3202.000000	0.013220
3201.000000	0.013180
3200.000000	0.013152
3199.000000	0.013128
3198.000000	0.013095
3197.000000	0.013054
3196.000000	0.013016
3195.000000	0.012993
3194.000000	0.012986
3193.000000	0.012981
3192.000000	0.012964
3191.000000	0.012924
3190.000000	0.012864
3189.000000	0.012804
3188.000000	0.012761
3187.000000	0.012740
3186.000000	0.012724
3185.000000	0.012693
3184.000000	0.012643
3183.000000	0.012585
3182.000000	0.012537
3181.000000	0.012507
3180.000000	0.012491
3179.000000	0.012481
3178.000000	0.012463
3177.000000	0.012429
3176.000000	0.012381
3175.000000	0.012335
3174.000000	0.012304
3173.000000	0.012289
3172.000000	0.012280
3171.000000	0.012266
3170.000000	0.012242
3169.000000	0.012206
3168.000000	0.012154
3167.000000	0.012089
3166.000000	0.012020
3165.000000	0.011959
3164.000000	0.011913
3163.000000	0.011885
3162.000000	0.011871
3161.000000	0.011861
3160.000000	0.011847
3159.000000	0.011824
3158.000000	0.011790
3157.000000	0.011744
3156.000000	0.011687
3155.000000	0.011626
3154.000000	0.011574
3153.000000	0.011546
3152.000000	0.011547
3151.000000	0.011567
3150.000000	0.011582
3149.000000	0.011573
3148.000000	0.011538
3147.000000	0.011495
3146.000000	0.011461
3145.000000	0.011442
3144.000000	0.011424
3143.000000	0.011394
3142.000000	0.011353
3141.000000	0.011312
3140.000000	0.011280
3139.000000	0.011259
3138.000000	0.011241
3137.000000	0.011217
3136.000000	0.011187
3135.000000	0.011151
3134.000000	0.011109
3133.000000	0.011057
3132.000000	0.011002
3131.000000	0.010957
3130.000000	0.010936
3129.000000	0.010936
3128.000000	0.010944
3127.000000	0.010946
3126.000000	0.010939
3125.000000	0.010928
3124.000000	0.010917
3123.000000	0.010899
3122.000000	0.010871
3121.000000	0.010837
3120.000000	0.010809
3119.000000	0.010801
3118.000000	0.010811
3117.000000	0.010827
3116.000000	0.010837
3115.000000	0.010838
3114.000000	0.010837
3113.000000	0.010839
3112.000000	0.010847
3111.000000	0.010862
3110.000000	0.010882
3109.000000	0.010904
3108.000000	0.010916
3107.000000	0.010915
3106.000000	0.010908
3105.000000	0.010911
3104.000000	0.010931
3103.000000	0.010960
3102.000000	0.010983
3101.000000	0.010992
3100.000000	0.010992
3099.000000	0.010994
3098.000000	0.011007
3097.000000	0.011032
3096.000000	0.011063
3095.000000	0.011086
3094.000000	0.011094
3093.000000	0.011089
3092.000000	0.011083
3091.000000	0.011094
3090.000000	0.011129
3089.000000	0.011178
3088.000000	0.011221
3087.000000	0.011241
3086.000000	0.011239
3085.000000	0.011225
3084.000000	0.011211
3083.000000	0.011201
3082.000000	0.011198
3081.000000	0.011203
3080.000000	0.011220
3079.000000	0.011252
3078.000000	0.011290
3077.000000	0.011320
3076.000000	0.011330
3075.000000	0.011318
3074.000000	0.011295
3073.000000	0.011272
3072.000000	0.011257
3071.000000	0.011250
3070.000000	0.011249
3069.000000	0.011247
3068.000000	0.011242
3067.000000	0.011230
3066.000000	0.011214
3065.000000	0.011199
3064.000000	0.011192
3063.000000	0.011196
3062.000000	0.011207
3061.000000	0.011213
3060.000000	0.011201
3059.000000	0.011164
3058.000000	0.011108
3057.000000	0.011049
3056.000000	0.011008
3055.000000	0.010993
3054.000000	0.010996
3053.000000	0.010993
3052.000000	0.010967
3051.000000	0.010920
3050.000000	0.010870
3049.000000	0.010833
3048.000000	0.010813
3047.000000	0.010805
3046.000000	0.010802
3045.000000	0.010793
3044.000000	0.010765
3043.000000	0.010717
3042.000000	0.010662
3041.000000	0.010615
3040.000000	0.010581
3039.000000	0.010556
3038.000000	0.010534
3037.000000	0.010515
3036.000000	0.010496
3035.000000	0.010473
3034.000000	0.010442
3033.000000	0.010402
3032.000000	0.010361
3031.000000	0.010326
3030.000000	0.010301
3029.000000	0.010281
3028.000000	0.010256
3027.000000	0.010218
3026.000000	0.010171
3025.000000	0.010124
3024.000000	0.010083
3023.000000	0.010050
3022.000000	0.010028
3021.000000	0.010017
3020.000000	0.010010
3019.000000	0.009993
3018.000000	0.009954
3017.000000	0.009900
3016.000000	0.009846
3015.000000	0.009808
3014.000000	0.009792
3013.000000	0.009788
3012.000000	0.009784
3011.000000	0.009774
3010.000000	0.009760
3009.000000	0.009742
3008.000000	0.009720
3007.000000	0.009695
3006.000000	0.009671
3005.000000	0.009660
3004.000000	0.009667
3003.000000	0.009690
3002.000000	0.009716
3001.000000	0.009736
3000.000000	0.009750
2999.000000	0.009761
2998.000000	0.009770
2997.000000	0.009776
2996.000000	0.009783
2995.000000	0.009798
2994.000000	0.009827
2993.000000	0.009870
2992.000000	0.009916
2991.000000	0.009954
2990.000000	0.009984
2989.000000	0.010008
2988.000000	0.010032
2987.000000	0.010058
2986.000000	0.010088
2985.000000	0.010123
2984.000000	0.010160
2983.000000	0.010197
2982.000000	0.010230
2981.000000	0.010258
2980.000000	0.010283
2979.000000	0.010311
2978.000000	0.010345
2977.000000	0.010379
2976.000000	0.010406
2975.000000	0.010421
2974.000000	0.010429
2973.000000	0.010436
2972.000000	0.010444
2971.000000	0.010456
2970.000000	0.010477
2969.000000	0.010514
2968.000000	0.010566
2967.000000	0.010624
2966.000000	0.010677
2965.000000	0.010728
2964.000000	0.010783
2963.000000	0.010845
2962.000000	0.010903
2961.000000	0.010943
2960.000000	0.010956
2959.000000	0.010952
2958.000000	0.010945
2957.000000	0.010942
2956.000000	0.010937
2955.000000	0.010922
2954.000000	0.010899
2953.000000	0.010881
2952.000000	0.010881
2951.000000	0.010895
2950.000000	0.010914
2949.000000	0.010930
2948.000000	0.010941
2947.000000	0.010953
2946.000000	0.010972
2945.000000	0.011000
2944.000000	0.011036
2943.000000	0.011073
2942.000000	0.011103
2941.000000	0.011120
2940.000000	0.011129
2939.000000	0.011146
2938.000000	0.011176
2937.000000	0.011214
2936.000000	0.011241
2935.000000	0.011254
2934.000000	0.011269
2933.000000	0.011309
2932.000000	0.011381
2931.000000	0.011459
2930.000000	0.011507
2929.000000	0.011505
2928.000000	0.011471
2927.000000	0.011445
2926.000000	0.011454
2925.000000	0.011495
2924.000000	0.011541
2923.000000	0.011569
2922.000000	0.011573
2921.000000	0.011555
2920.000000	0.011526
2919.000000	0.011496
2918.000000	0.011467
2917.000000	0.011429
2916.000000	0.011372
2915.000000	0.011296
2914.000000	0.011211
2913.000000	0.011123
2912.000000	0.011029
2911.000000	0.010924
2910.000000	0.010816
2909.000000	0.010720
2908.000000	0.010644
2907.000000	0.010588
2906.000000	0.010542
2905.000000	0.010492
2904.000000	0.010429
2903.000000	0.010358
2902.000000	0.010292
2901.000000	0.010239
2900.000000	0.010199
2899.000000	0.010167
2898.000000	0.010144
2897.000000	0.010130
2896.000000	0.010124
2895.000000	0.010118
2894.000000	0.010107
2893.000000	0.010092
2892.000000	0.010076
2891.000000	0.010059
2890.000000	0.010041
2889.000000	0.010032
2888.000000	0.010037
2887.000000	0.010052
2886.000000	0.010066
2885.000000	0.010072
2884.000000	0.010064
2883.000000	0.010052
2882.000000	0.010048
2881.000000	0.010060
2880.000000	0.010086
2879.000000	0.010114
2878.000000	0.010136
2877.000000	0.010147
2876.000000	0.010149
2875.000000	0.010142
2874.000000	0.010127
2873.000000	0.010108
2872.000000	0.010084
2871.000000	0.010055
2870.000000	0.010016
2869.000000	0.009972
2868.000000	0.009928
2867.000000	0.009891
2866.000000	0.009869
2865.000000	0.009862
2864.000000	0.009861
2863.000000	0.009853
2862.000000	0.009829
2861.000000	0.009790
2860.000000	0.009745
2859.000000	0.009707
2858.000000	0.009683
2857.000000	0.009673
2856.000000	0.009672
2855.000000	0.009675
2854.000000	0.009680
2853.000000	0.009697
2852.000000	0.009725
2851.000000	0.009752
2850.000000	0.009754
2849.000000	0.009719
2848.000000	0.009653
2847.000000	0.009575
2846.000000	0.009500
2845.000000	0.009431
2844.000000	0.009362
2843.000000	0.009283
2842.000000	0.009194
2841.000000	0.009112
2840.000000	0.009053
2839.000000	0.009025
2838.000000	0.009012
2837.000000	0.008995
2836.000000	0.008969
2835.000000	0.008941
2834.000000	0.008928
2833.000000	0.008936
2832.000000	0.008957
2831.000000	0.008972
2830.000000	0.008972
2829.000000	0.008956
2828.000000	0.008931
2827.000000	0.008902
2826.000000	0.008876
2825.000000	0.008854
2824.000000	0.008838
2823.000000	0.008822
2822.000000	0.008804
2821.000000	0.008786
2820.000000	0.008774
2819.000000	0.008770
2818.000000	0.008764
2817.000000	0.008749
2816.000000	0.008724
2815.000000	0.008695
2814.000000	0.008662
2813.000000	0.008625
2812.000000	0.008582
2811.000000	0.008540
2810.000000	0.008509
2809.000000	0.008498
2808.000000	0.008507
2807.000000	0.008529
2806.000000	0.008549
2805.000000	0.008561
2804.000000	0.008563
2803.000000	0.008561
2802.000000	0.008556
2801.000000	0.008542
2800.000000	0.008516
2799.000000	0.008485
2798.000000	0.008461
2797.000000	0.008446
2796.000000	0.008438
2795.000000	0.008425
2794.000000	0.008406
2793.000000	0.008381
2792.000000	0.008360
2791.000000	0.008352
2790.000000	0.008358
2789.000000	0.008367
2788.000000	0.008362
2787.000000	0.008340
2786.000000	0.008308
2785.000000	0.008280
2784.000000	0.008264
2783.000000	0.008258
2782.000000	0.008259
2781.000000	0.008261
2780.000000	0.008261
2779.000000	0.008253
2778.000000	0.008237
2777.000000	0.008215
2776.000000	0.008193
2775.000000	0.008175
2774.000000	0.008166
2773.000000	0.008167
2772.000000	0.008173
2771.000000	0.008172
2770.000000	0.008153
2769.000000	0.008115
2768.000000	0.008072
2767.000000	0.008042
2766.000000	0.008033
2765.000000	0.008039
2764.000000	0.008050
2763.000000	0.008059
2762.000000	0.008066
2761.000000	0.008068
2760.000000	0.008057
2759.000000	0.008034
2758.000000	0.008011
2757.000000	0.008000
2756.000000	0.007998
2755.000000	0.007991
2754.000000	0.007971
2753.000000	0.007946
2752.000000	0.007933
2751.000000	0.007931
2750.000000	0.007927
2749.000000	0.007912
2748.000000	0.007887
2747.000000	0.007861
2746.000000	0.007843
2745.000000	0.007836
2744.000000	0.007838
2743.000000	0.007845
2742.000000	0.007854
2741.000000	0.007865
2740.000000	0.007880
2739.000000	0.007894
2738.000000	0.007896
2737.000000	0.007876
2736.000000	0.007844
2735.000000	0.007818
2734.000000	0.007807
2733.000000	0.007806
2732.000000	0.007802
2731.000000	0.007795
2730.000000	0.007787
2729.000000	0.007781
2728.000000	0.007778
2727.000000	0.007774
2726.000000	0.007768
2725.000000	0.007757
2724.000000	0.007739
2723.000000	0.007718
2722.000000	0.007700
2721.000000	0.007689
2720.000000	0.007682
2719.000000	0.007674
2718.000000	0.007659
2717.000000	0.007636
2716.000000	0.007611
2715.000000	0.007596
2714.000000	0.007595
2713.000000	0.007601
2712.000000	0.007602
2711.000000	0.007595
2710.000000	0.007581
2709.000000	0.007567
2708.000000	0.007554
2707.000000	0.007543
2706.000000	0.007536
2705.000000	0.007534
2704.000000	0.007540
2703.000000	0.007557
2702.000000	0.007580
2701.000000	0.007599
2700.000000	0.007599
2699.000000	0.007579
2698.000000	0.007548
2697.000000	0.007522
2696.000000	0.007508
2695.000000	0.007503
2694.000000	0.007501
2693.000000	0.007496
2692.000000	0.007490
2691.000000	0.007487
2690.000000	0.007486
2689.000000	0.007483
2688.000000	0.007471
2687.000000	0.007458
2686.000000	0.007452
2685.000000	0.007457
2684.000000	0.007470
2683.000000	0.007483
2682.000000	0.007490
2681.000000	0.007490
2680.000000	0.007484
2679.000000	0.007477
2678.000000	0.007472
2677.000000	0.007470
2676.000000	0.007464
2675.000000	0.007451
2674.000000	0.007430
2673.000000	0.007407
2672.000000	0.007387
2671.000000	0.007372
2670.000000	0.007367
2669.000000	0.007368
2668.000000	0.007373
2667.000000	0.007375
2666.000000	0.007371
2665.000000	0.007361
2664.000000	0.007353
2663.000000	0.007355
2662.000000	0.007371
2661.000000	0.007390
2660.000000	0.007396
2659.000000	0.007382
2658.000000	0.007356
2657.000000	0.007330
2656.000000	0.007310
2655.000000	0.007295
2654.000000	0.007282
2653.000000	0.007273
2652.000000	0.007264
2651.000000	0.007252
2650.000000	0.007236
2649.000000	0.007219
2648.000000	0.007201
2647.000000	0.007179
2646.000000	0.007146
2645.000000	0.007104
2644.000000	0.007061
2643.000000	0.007029
2642.000000	0.007013
2641.000000	0.007009
2640.000000	0.007008
2639.000000	0.007005
2638.000000	0.006995
2637.000000	0.006978
2636.000000	0.006953
2635.000000	0.006925
2634.000000	0.006902
2633.000000	0.006886
2632.000000	0.006868
2631.000000	0.006840
2630.000000	0.006807
2629.000000	0.006783
2628.000000	0.006775
2627.000000	0.006781
2626.000000	0.006786
2625.000000	0.006777
2624.000000	0.006756
2623.000000	0.006728
2622.000000	0.006701
2621.000000	0.006678
2620.000000	0.006658
2619.000000	0.006643
2618.000000	0.006635
2617.000000	0.006630
2616.000000	0.006619
2615.000000	0.006601
2614.000000	0.006580
2613.000000	0.006564
2612.000000	0.006555
2611.000000	0.006549
2610.000000	0.006543
2609.000000	0.006535
2608.000000	0.006526
2607.000000	0.006518
2606.000000	0.006508
2605.000000	0.006491
2604.000000	0.006460
2603.000000	0.006423
2602.000000	0.006396
2601.000000	0.006392
2600.000000	0.006406
2599.000000	0.006419
2598.000000	0.006422
2597.000000	0.006416
2596.000000	0.006411
2595.000000	0.006414
2594.000000	0.006418
2593.000000	0.006407
2592.000000	0.006374
2591.000000	0.006331
2590.000000	0.006302
2589.000000	0.006296
2588.000000	0.006298
2587.000000	0.006291
2586.000000	0.006274
2585.000000	0.006258
2584.000000	0.006249
2583.000000	0.006247
2582.000000	0.006247
2581.000000	0.006244
2580.000000	0.006230
2579.000000	0.006208
2578.000000	0.006189
2577.000000	0.006185
2576.000000	0.006186
2575.000000	0.006175
2574.000000	0.006150
2573.000000	0.006125
2572.000000	0.006117
2571.000000	0.006127
2570.000000	0.006145
2569.000000	0.006160
2568.000000	0.006166
2567.000000	0.006160
2566.000000	0.006144
2565.000000	0.006122
2564.000000	0.006103
2563.000000	0.006099
2562.000000	0.006112
2561.000000	0.006125
2560.000000	0.006114
2559.000000	0.006078
2558.000000	0.006041
2557.000000	0.006032
2556.000000	0.006051
2555.000000	0.006074
2554.000000	0.006081
2553.000000	0.006076
2552.000000	0.006071
2551.000000	0.006072
2550.000000	0.006074
2549.000000	0.006064
2548.000000	0.006033
2547.000000	0.005990
2546.000000	0.005957
2545.000000	0.005952
2544.000000	0.005969
2543.000000	0.005993
2542.000000	0.006009
2541.000000	0.006015
2540.000000	0.006012
2539.000000	0.006006
2538.000000	0.006006
2537.000000	0.006012
2536.000000	0.006011
2535.000000	0.005991
2534.000000	0.005959
2533.000000	0.005936
2532.000000	0.005933
2531.000000	0.005939
2530.000000	0.005937
2529.000000	0.005927
2528.000000	0.005917
2527.000000	0.005921
2526.000000	0.005946
2525.000000	0.005993
2524.000000	0.006046
2523.000000	0.006083
2522.000000	0.006093
2521.000000	0.006083
2520.000000	0.006061
2519.000000	0.006031
2518.000000	0.005987
2517.000000	0.005934
2516.000000	0.005891
2515.000000	0.005875
2514.000000	0.005889
2513.000000	0.005917
2512.000000	0.005932
2511.000000	0.005922
2510.000000	0.005891
2509.000000	0.005860
2508.000000	0.005846
2507.000000	0.005849
2506.000000	0.005861
2505.000000	0.005878
2504.000000	0.005898
2503.000000	0.005922
2502.000000	0.005937
2501.000000	0.005931
2500.000000	0.005904
2499.000000	0.005871
2498.000000	0.005845
2497.000000	0.005824
2496.000000	0.005792
2495.000000	0.005751
2494.000000	0.005725
2493.000000	0.005733
2492.000000	0.005765
2491.000000	0.005795
2490.000000	0.005813
2489.000000	0.005832
2488.000000	0.005860
2487.000000	0.005880
2486.000000	0.005869
2485.000000	0.005819
2484.000000	0.005747
2483.000000	0.005688
2482.000000	0.005668
2481.000000	0.005687
2480.000000	0.005729
2479.000000	0.005769
2478.000000	0.005798
2477.000000	0.005817
2476.000000	0.005833
2475.000000	0.005853
2474.000000	0.005876
2473.000000	0.005893
2472.000000	0.005894
2471.000000	0.005878
2470.000000	0.005855
2469.000000	0.005830
2468.000000	0.005799
2467.000000	0.005759
2466.000000	0.005718
2465.000000	0.005685
2464.000000	0.005658
2463.000000	0.005633
2462.000000	0.005618
2461.000000	0.005623
2460.000000	0.005650
2459.000000	0.005690
2458.000000	0.005735
2457.000000	0.005778
2456.000000	0.005806
2455.000000	0.005814
2454.000000	0.005812
2453.000000	0.005821
2452.000000	0.005842
2451.000000	0.005858
2450.000000	0.005848
2449.000000	0.005818
2448.000000	0.005787
2447.000000	0.005772
2446.000000	0.005771
2445.000000	0.005777
2444.000000	0.005777
2443.000000	0.005767
2442.000000	0.005752
2441.000000	0.005740
2440.000000	0.005730
2439.000000	0.005715
2438.000000	0.005693
2437.000000	0.005667
2436.000000	0.005651
2435.000000	0.005658
2434.000000	0.005695
2433.000000	0.005752
2432.000000	0.005803
2431.000000	0.005825
2430.000000	0.005813
2429.000000	0.005782
2428.000000	0.005743
2427.000000	0.005701
2426.000000	0.005667
2425.000000	0.005656
2424.000000	0.005661
2423.000000	0.005660
2422.000000	0.005640
2421.000000	0.005624
2420.000000	0.005640
2419.000000	0.005686
2418.000000	0.005732
2417.000000	0.005745
2416.000000	0.005723
2415.000000	0.005686
2414.000000	0.005657
2413.000000	0.005648
2412.000000	0.005656
2411.000000	0.005670
2410.000000	0.005676
2409.000000	0.005668
2408.000000	0.005654
2407.000000	0.005648
2406.000000	0.005655
2405.000000	0.005663
2404.000000	0.005658
2403.000000	0.005642
2402.000000	0.005633
2401.000000	0.005641
2400.000000	0.005660
2399.000000	0.005665
2398.000000	0.005646
2397.000000	0.005610
2396.000000	0.005582
2395.000000	0.005584
2394.000000	0.005619
2393.000000	0.005666
2392.000000	0.005697
2391.000000	0.005697
2390.000000	0.005669
2389.000000	0.005632
2388.000000	0.005603
2387.000000	0.005595
2386.000000	0.005604
2385.000000	0.005614
2384.000000	0.005604
2383.000000	0.005570
2382.000000	0.005521
2381.000000	0.005476
2380.000000	0.005450
2379.000000	0.005454
2378.000000	0.005493
2377.000000	0.005548
2376.000000	0.005589
2375.000000	0.005598
2374.000000	0.005590
2373.000000	0.005578
2372.000000	0.005558
2371.000000	0.005519
2370.000000	0.005468
2369.000000	0.005417
2368.000000	0.005377
2367.000000	0.005363
2366.000000	0.005391
2365.000000	0.005459
2364.000000	0.005532
2363.000000	0.005585
2362.000000	0.005622
2361.000000	0.005654
2360.000000	0.005673
2359.000000	0.005663
2358.000000	0.005625
2357.000000	0.005579
2356.000000	0.005557
2355.000000	0.005575
2354.000000	0.005599
2353.000000	0.005588
2352.000000	0.005548
2351.000000	0.005520
2350.000000	0.005530
2349.000000	0.005572
2348.000000	0.005619
2347.000000	0.005637
2346.000000	0.005631
2345.000000	0.005652
2344.000000	0.005716
2343.000000	0.005775
2342.000000	0.005785
2341.000000	0.005750
2340.000000	0.005710
2339.000000	0.005694
2338.000000	0.005687
2337.000000	0.005660
2336.000000	0.005603
2335.000000	0.005537
2334.000000	0.005484
2333.000000	0.005460
2332.000000	0.005479
2331.000000	0.005542
2330.000000	0.005627
2329.000000	0.005712
2328.000000	0.005785
2327.000000	0.005844
2326.000000	0.005882
2325.000000	0.005897
2324.000000	0.005888
2323.000000	0.005861
2322.000000	0.005837
2321.000000	0.005837
2320.000000	0.005865
2319.000000	0.005894
2318.000000	0.005900
2317.000000	0.005877
2316.000000	0.005836
2315.000000	0.005777
2314.000000	0.005699
2313.000000	0.005612
2312.000000	0.005542
2311.000000	0.005505
2310.000000	0.005498
2309.000000	0.005508
2308.000000	0.005509
2307.000000	0.005485
2306.000000	0.005439
2305.000000	0.005403
2304.000000	0.005401
2303.000000	0.005422
2302.000000	0.005441
2301.000000	0.005449
2300.000000	0.005458
2299.000000	0.005478
2298.000000	0.005500
2297.000000	0.005511
2296.000000	0.005514
2295.000000	0.005519
2294.000000	0.005532
2293.000000	0.005552
2292.000000	0.005573
2291.000000	0.005587
2290.000000	0.005592
2289.000000	0.005597
2288.000000	0.005620
2287.000000	0.005664
2286.000000	0.005709
2285.000000	0.005730
2284.000000	0.005711
2283.000000	0.005654
2282.000000	0.005577
2281.000000	0.005509
2280.000000	0.005471
2279.000000	0.005454
2278.000000	0.005421
2277.000000	0.005357
2276.000000	0.005292
2275.000000	0.005273
2274.000000	0.005310
2273.000000	0.005366
2272.000000	0.005399
2271.000000	0.005399
2270.000000	0.005383
2269.000000	0.005368
2268.000000	0.005374
2267.000000	0.005415
2266.000000	0.005483
2265.000000	0.005541
2264.000000	0.005543
2263.000000	0.005482
2262.000000	0.005390
2261.000000	0.005304
2260.000000	0.005226
2259.000000	0.005147
2258.000000	0.005072
2257.000000	0.005015
2256.000000	0.004978
2255.000000	0.004945
2254.000000	0.004909
2253.000000	0.004889
2252.000000	0.004915
2251.000000	0.004991
2250.000000	0.005084
2249.000000	0.005150
2248.000000	0.005169
2247.000000	0.005167
2246.000000	0.005185
2245.000000	0.005222
2244.000000	0.005231
2243.000000	0.005171
2242.000000	0.005064
2241.000000	0.004976
2240.000000	0.004951
2239.000000	0.004982
2238.000000	0.005046
2237.000000	0.005129
2236.000000	0.005213
2235.000000	0.005257
2234.000000	0.005229
2233.000000	0.005144
2232.000000	0.005054
2231.000000	0.004999
2230.000000	0.004972
2229.000000	0.004945
2228.000000	0.004909
2227.000000	0.004884
2226.000000	0.004885
2225.000000	0.004898
2224.000000	0.004900
2223.000000	0.004896
2222.000000	0.004915
2221.000000	0.004968
2220.000000	0.005024
2219.000000	0.005048
2218.000000	0.005034
2217.000000	0.005013
2216.000000	0.005024
2215.000000	0.005078
2214.000000	0.005136
2213.000000	0.005133
2212.000000	0.005037
2211.000000	0.004901
2210.000000	0.004815
2209.000000	0.004802
2208.000000	0.004800
2207.000000	0.004765
2206.000000	0.004749
2205.000000	0.004823
2204.000000	0.004960
2203.000000	0.005045
2202.000000	0.005007
2201.000000	0.004884
2200.000000	0.004763
2199.000000	0.004696
2198.000000	0.004672
2197.000000	0.004658
2196.000000	0.004635
2195.000000	0.004626
2194.000000	0.004662
2193.000000	0.004731
2192.000000	0.004763
2191.000000	0.004709
2190.000000	0.004610
2189.000000	0.004563
2188.000000	0.004621
2187.000000	0.004761
2186.000000	0.004933
2185.000000	0.005093
2184.000000	0.005179
2183.000000	0.005133
2182.000000	0.004975
2181.000000	0.004810
2180.000000	0.004743
2179.000000	0.004784
2178.000000	0.004858
2177.000000	0.004880
2176.000000	0.004809
2175.000000	0.004671
2174.000000	0.004537
2173.000000	0.004478
2172.000000	0.004510
2171.000000	0.004595
2170.000000	0.004668
2169.000000	0.004671
2168.000000	0.004587
2167.000000	0.004472
2166.000000	0.004434
2165.000000	0.004549
2164.000000	0.004776
2163.000000	0.005001
2162.000000	0.005123
2161.000000	0.005056
2160.000000	0.004741
2159.000000	0.004243
2158.000000	0.003802
2157.000000	0.003631
2156.000000	0.003688
2155.000000	0.003784
2154.000000	0.003835
2153.000000	0.003900
2152.000000	0.004031
2151.000000	0.004188
2150.000000	0.004315
2149.000000	0.004409
2148.000000	0.004474
2147.000000	0.004474
2146.000000	0.004386
2145.000000	0.004273
2144.000000	0.004238
2143.000000	0.004326
2142.000000	0.004493
2141.000000	0.004663
2140.000000	0.004778
2139.000000	0.004813
2138.000000	0.004768
2137.000000	0.004665
2136.000000	0.004547
2135.000000	0.004469
2134.000000	0.004474
2133.000000	0.004576
2132.000000	0.004741
2131.000000	0.004899
2130.000000	0.004982
2129.000000	0.004956
2128.000000	0.004859
2127.000000	0.004783
2126.000000	0.004806
2125.000000	0.004928
2124.000000	0.005070
2123.000000	0.005154
2122.000000	0.005165
2121.000000	0.005142
2120.000000	0.005119
2119.000000	0.005097
2118.000000	0.005070
2117.000000	0.005042
2116.000000	0.005019
2115.000000	0.005016
2114.000000	0.005053
2113.000000	0.005129
2112.000000	0.005204
2111.000000	0.005225
2110.000000	0.005182
2109.000000	0.005122
2108.000000	0.005093
2107.000000	0.005104
2106.000000	0.005140
2105.000000	0.005182
2104.000000	0.005212
2103.000000	0.005210
2102.000000	0.005180
2101.000000	0.005158
2100.000000	0.005177
2099.000000	0.005229
2098.000000	0.005271
2097.000000	0.005256
2096.000000	0.005172
2095.000000	0.005053
2094.000000	0.004961
2093.000000	0.004946
2092.000000	0.004999
2091.000000	0.005056
2090.000000	0.005055
2089.000000	0.004988
2088.000000	0.004895
2087.000000	0.004826
2086.000000	0.004802
2085.000000	0.004815
2084.000000	0.004841
2083.000000	0.004868
2082.000000	0.004907
2081.000000	0.004967
2080.000000	0.005036
2079.000000	0.005070
2078.000000	0.005036
2077.000000	0.004943
2076.000000	0.004842
2075.000000	0.004795
2074.000000	0.004834
2073.000000	0.004929
2072.000000	0.005007
2071.000000	0.005015
2070.000000	0.004967
2069.000000	0.004917
2068.000000	0.004897
2067.000000	0.004893
2066.000000	0.004882
2065.000000	0.004862
2064.000000	0.004847
2063.000000	0.004834
2062.000000	0.004802
2061.000000	0.004752
2060.000000	0.004714
2059.000000	0.004720
2058.000000	0.004750
2057.000000	0.004738
2056.000000	0.004638
2055.000000	0.004483
2054.000000	0.004361
2053.000000	0.004327
2052.000000	0.004377
2051.000000	0.004491
2050.000000	0.004650
2049.000000	0.004792
2048.000000	0.004819
2047.000000	0.004707
2046.000000	0.004566
2045.000000	0.004510
2044.000000	0.004520
2043.000000	0.004475
2042.000000	0.004313
2041.000000	0.004080
2040.000000	0.003854
2039.000000	0.003699
2038.000000	0.003684
2037.000000	0.003852
2036.000000	0.004137
2035.000000	0.004385
2034.000000	0.004482
2033.000000	0.004439
2032.000000	0.004336
2031.000000	0.004246
2030.000000	0.004213
2029.000000	0.004234
2028.000000	0.004250
2027.000000	0.004208
2026.000000	0.004122
2025.000000	0.004051
2024.000000	0.004004
2023.000000	0.003945
2022.000000	0.003880
2021.000000	0.003866
2020.000000	0.003932
2019.000000	0.004051
2018.000000	0.004190
2017.000000	0.004335
2016.000000	0.004452
2015.000000	0.004498
2014.000000	0.004469
2013.000000	0.004415
2012.000000	0.004378
2011.000000	0.004345
2010.000000	0.004278
2009.000000	0.004151
2008.000000	0.003975
2007.000000	0.003806
2006.000000	0.003731
2005.000000	0.003794
2004.000000	0.003937
2003.000000	0.004059
2002.000000	0.004110
2001.000000	0.004106
2000.000000	0.004071
1999.000000	0.004023
1998.000000	0.003991
1997.000000	0.004006
1996.000000	0.004061
1995.000000	0.004122
1994.000000	0.004172
1993.000000	0.004227
1992.000000	0.004292
1991.000000	0.004354
1990.000000	0.004403
1989.000000	0.004443
1988.000000	0.004466
1987.000000	0.004462
1986.000000	0.004444
1985.000000	0.004442
1984.000000	0.004474
1983.000000	0.004566
1982.000000	0.004764
1981.000000	0.005069
1980.000000	0.005350
1979.000000	0.005412
1978.000000	0.005186
1977.000000	0.004818
1976.000000	0.004519
1975.000000	0.004379
1974.000000	0.004356
1973.000000	0.004357
1972.000000	0.004305
1971.000000	0.004184
1970.000000	0.004068
1969.000000	0.004057
1968.000000	0.004161
1967.000000	0.004286
1966.000000	0.004339
1965.000000	0.004315
1964.000000	0.004248
1963.000000	0.004156
1962.000000	0.004055
1961.000000	0.003979
1960.000000	0.003952
1959.000000	0.003959
1958.000000	0.003972
1957.000000	0.003990
1956.000000	0.004034
1955.000000	0.004112
1954.000000	0.004202
1953.000000	0.004263
1952.000000	0.004272
1951.000000	0.004245
1950.000000	0.004217
1949.000000	0.004210
1948.000000	0.004226
1947.000000	0.004268
1946.000000	0.004334
1945.000000	0.004389
1944.000000	0.004385
1943.000000	0.004324
1942.000000	0.004277
1941.000000	0.004295
1940.000000	0.004355
1939.000000	0.004415
1938.000000	0.004481
1937.000000	0.004566
1936.000000	0.004634
1935.000000	0.004628
1934.000000	0.004547
1933.000000	0.004441
1932.000000	0.004345
1931.000000	0.004262
1930.000000	0.004209
1929.000000	0.004233
1928.000000	0.004347
1927.000000	0.004494
1926.000000	0.004595
1925.000000	0.004612
1924.000000	0.004560
1923.000000	0.004491
1922.000000	0.004443
1921.000000	0.004410
1920.000000	0.004355
1919.000000	0.004262
1918.000000	0.004172
1917.000000	0.004138
1916.000000	0.004159
1915.000000	0.004197
1914.000000	0.004241
1913.000000	0.004307
1912.000000	0.004402
1911.000000	0.004498
1910.000000	0.004569
1909.000000	0.004605
1908.000000	0.004605
1907.000000	0.004567
1906.000000	0.004505
1905.000000	0.004447
1904.000000	0.004410
1903.000000	0.004385
1902.000000	0.004356
1901.000000	0.004313
1900.000000	0.004263
1899.000000	0.004228
1898.000000	0.004231
1897.000000	0.004275
1896.000000	0.004325
1895.000000	0.004343
1894.000000	0.004339
1893.000000	0.004350
1892.000000	0.004391
1891.000000	0.004435
1890.000000	0.004454
1889.000000	0.004442
1888.000000	0.004409
1887.000000	0.004361
1886.000000	0.004313
1885.000000	0.004287
1884.000000	0.004296
1883.000000	0.004324
1882.000000	0.004344
1881.000000	0.004344
1880.000000	0.004328
1879.000000	0.004312
1878.000000	0.004308
1877.000000	0.004316
1876.000000	0.004329
1875.000000	0.004341
1874.000000	0.004347
1873.000000	0.004337
1872.000000	0.004298
1871.000000	0.004229
1870.000000	0.004159
1869.000000	0.004129
1868.000000	0.004148
1867.000000	0.004191
1866.000000	0.004238
1865.000000	0.004282
1864.000000	0.004312
1863.000000	0.004319
1862.000000	0.004304
1861.000000	0.004279
1860.000000	0.004255
1859.000000	0.004242
1858.000000	0.004247
1857.000000	0.004260
1856.000000	0.004258
1855.000000	0.004232
1854.000000	0.004202
1853.000000	0.004186
1852.000000	0.004182
1851.000000	0.004177
1850.000000	0.004171
1849.000000	0.004172
1848.000000	0.004176
1847.000000	0.004183
1846.000000	0.004200
1845.000000	0.004229
1844.000000	0.004256
1843.000000	0.004269
1842.000000	0.004283
1841.000000	0.004308
1840.000000	0.004322
1839.000000	0.004301
1838.000000	0.004267
1837.000000	0.004263
1836.000000	0.004284
1835.000000	0.004287
1834.000000	0.004252
1833.000000	0.004195
1832.000000	0.004139
1831.000000	0.004090
1830.000000	0.004060
1829.000000	0.004068
1828.000000	0.004113
1827.000000	0.004167
1826.000000	0.004205
1825.000000	0.004216
1824.000000	0.004201
1823.000000	0.004167
1822.000000	0.004134
1821.000000	0.004121
1820.000000	0.004130
1819.000000	0.004144
1818.000000	0.004154
1817.000000	0.004164
1816.000000	0.004177
1815.000000	0.004191
1814.000000	0.004200
1813.000000	0.004204
1812.000000	0.004196
1811.000000	0.004176
1810.000000	0.004157
1809.000000	0.004155
1808.000000	0.004164
1807.000000	0.004166
1806.000000	0.004159
1805.000000	0.004155
1804.000000	0.004163
1803.000000	0.004179
1802.000000	0.004195
1801.000000	0.004208
1800.000000	0.004215
1799.000000	0.004216
1798.000000	0.004214
1797.000000	0.004215
1796.000000	0.004214
1795.000000	0.004209
1794.000000	0.004205
1793.000000	0.004205
1792.000000	0.004199
1791.000000	0.004180
1790.000000	0.004160
1789.000000	0.004160
1788.000000	0.004175
1787.000000	0.004182
1786.000000	0.004168
1785.000000	0.004139
1784.000000	0.004103
1783.000000	0.004074
1782.000000	0.004069
1781.000000	0.004092
1780.000000	0.004120
1779.000000	0.004122
1778.000000	0.004091
1777.000000	0.004042
1776.000000	0.003992
1775.000000	0.003951
1774.000000	0.003921
1773.000000	0.003908
1772.000000	0.003909
1771.000000	0.003912
1770.000000	0.003925
1769.000000	0.003961
1768.000000	0.003998
1767.000000	0.004004
1766.000000	0.003985
1765.000000	0.003969
1764.000000	0.003961
1763.000000	0.003942
1762.000000	0.003906
1761.000000	0.003875
1760.000000	0.003869
1759.000000	0.003886
1758.000000	0.003921
1757.000000	0.003963
1756.000000	0.004000
1755.000000	0.004033
1754.000000	0.004084
1753.000000	0.004167
1752.000000	0.004251
1751.000000	0.004291
1750.000000	0.004283
1749.000000	0.004274
1748.000000	0.004280
1747.000000	0.004286
1746.000000	0.004285
1745.000000	0.004289
1744.000000	0.004293
1743.000000	0.004276
1742.000000	0.004249
1741.000000	0.004246
1740.000000	0.004269
1739.000000	0.004272
1738.000000	0.004247
1737.000000	0.004229
1736.000000	0.004222
1735.000000	0.004181
1734.000000	0.004104
1733.000000	0.004040
1732.000000	0.004007
1731.000000	0.003988
1730.000000	0.003970
1729.000000	0.003959
1728.000000	0.003958
1727.000000	0.003955
1726.000000	0.003946
1725.000000	0.003944
1724.000000	0.003953
1723.000000	0.003947
1722.000000	0.003919
1721.000000	0.003900
1720.000000	0.003901
1719.000000	0.003899
1718.000000	0.003888
1717.000000	0.003912
1716.000000	0.003989
1715.000000	0.004084
1714.000000	0.004180
1713.000000	0.004298
1712.000000	0.004452
1711.000000	0.004626
1710.000000	0.004809
1709.000000	0.005002
1708.000000	0.005215
1707.000000	0.005453
1706.000000	0.005728
1705.000000	0.006043
1704.000000	0.006379
1703.000000	0.006735
1702.000000	0.007136
1701.000000	0.007609
1700.000000	0.008095
1699.000000	0.008490
1698.000000	0.008852
1697.000000	0.009312
1696.000000	0.009868
1695.000000	0.010393
1694.000000	0.010819
1693.000000	0.011216
1692.000000	0.011648
1691.000000	0.012096
1690.000000	0.012526
1689.000000	0.012926
1688.000000	0.013302
1687.000000	0.013675
1686.000000	0.014086
1685.000000	0.014623
1684.000000	0.015266
1683.000000	0.015845
1682.000000	0.016339
1681.000000	0.016859
1680.000000	0.017420
1679.000000	0.017965
1678.000000	0.018484
1677.000000	0.019049
1676.000000	0.019703
1675.000000	0.020375
1674.000000	0.020971
1673.000000	0.021517
1672.000000	0.022100
1671.000000	0.022763
1670.000000	0.023507
1669.000000	0.024292
1668.000000	0.025028
1667.000000	0.025653
1666.000000	0.026197
1665.000000	0.026750
1664.000000	0.027364
1663.000000	0.028013
1662.000000	0.028629
1661.000000	0.029192
1660.000000	0.029717
1659.000000	0.030190
1658.000000	0.030596
1657.000000	0.030964
1656.000000	0.031345
1655.000000	0.031741
1654.000000	0.032154
1653.000000	0.032606
1652.000000	0.032987
1651.000000	0.033228
1650.000000	0.033438
1649.000000	0.033706
1648.000000	0.034039
1647.000000	0.034373
1646.000000	0.034657
1645.000000	0.034898
1644.000000	0.035126
1643.000000	0.035342
1642.000000	0.035530
1641.000000	0.035683
1640.000000	0.035807
1639.000000	0.035917
1638.000000	0.036022
1637.000000	0.036128
1636.000000	0.036238
1635.000000	0.036328
1634.000000	0.036383
1633.000000	0.036429
1632.000000	0.036467
1631.000000	0.036452
1630.000000	0.036339
1629.000000	0.036129
1628.000000	0.035858
1627.000000	0.035557
1626.000000	0.035235
1625.000000	0.034870
1624.000000	0.034426
1623.000000	0.033889
1622.000000	0.033309
1621.000000	0.032758
1620.000000	0.032258
1619.000000	0.031750
1618.000000	0.031129
1617.000000	0.030355
1616.000000	0.029540
1615.000000	0.028821
1614.000000	0.028215
1613.000000	0.027649
1612.000000	0.027059
1611.000000	0.026434
1610.000000	0.025808
1609.000000	0.025204
1608.000000	0.024627
1607.000000	0.024090
1606.000000	0.023602
1605.000000	0.023140
1604.000000	0.022681
1603.000000	0.022230
1602.000000	0.021815
1601.000000	0.021449
1600.000000	0.021124
1599.000000	0.020829
1598.000000	0.020553
1597.000000	0.020287
1596.000000	0.020038
1595.000000	0.019835
1594.000000	0.019695
1593.000000	0.019598
1592.000000	0.019517
1591.000000	0.019453
1590.000000	0.019417
1589.000000	0.019407
1588.000000	0.019420
1587.000000	0.019463
1586.000000	0.019544
1585.000000	0.019643
1584.000000	0.019744
1583.000000	0.019859
1582.000000	0.019999
1581.000000	0.020153
1580.000000	0.020319
1579.000000	0.020523
1578.000000	0.020780
1577.000000	0.021066
1576.000000	0.021333
1575.000000	0.021558
1574.000000	0.021767
1573.000000	0.021993
1572.000000	0.022243
1571.000000	0.022532
1570.000000	0.022887
1569.000000	0.023290
1568.000000	0.023685
1567.000000	0.024071
1566.000000	0.024484
1565.000000	0.024923
1564.000000	0.025341
1563.000000	0.025714
1562.000000	0.026058
1561.000000	0.026382
1560.000000	0.026732
1559.000000	0.027194
1558.000000	0.027681
1557.000000	0.028093
1556.000000	0.028477
1555.000000	0.028856
1554.000000	0.029215
1553.000000	0.029538
1552.000000	0.029847
1551.000000	0.030151
1550.000000	0.030430
1549.000000	0.030664
1548.000000	0.030861
1547.000000	0.031045
1546.000000	0.031209
1545.000000	0.031326
1544.000000	0.031385
1543.000000	0.031403
1542.000000	0.031411
1541.000000	0.031433
1540.000000	0.031473
1539.000000	0.031502
1538.000000	0.031503
1537.000000	0.031501
1536.000000	0.031498
1535.000000	0.031451
1534.000000	0.031320
1533.000000	0.031151
1532.000000	0.031021
1531.000000	0.030937
1530.000000	0.030856
1529.000000	0.030746
1528.000000	0.030605
1527.000000	0.030440
1526.000000	0.030251
1525.000000	0.030050
1524.000000	0.029856
1523.000000	0.029654
1522.000000	0.029398
1521.000000	0.029094
1520.000000	0.028812
1519.000000	0.028598
1518.000000	0.028427
1517.000000	0.028251
1516.000000	0.028048
1515.000000	0.027837
1514.000000	0.027622
1513.000000	0.027371
1512.000000	0.027062
1511.000000	0.026719
1510.000000	0.026391
1509.000000	0.026070
1508.000000	0.025668
1507.000000	0.025121
1506.000000	0.024538
1505.000000	0.024073
1504.000000	0.023739
1503.000000	0.023465
1502.000000	0.023181
1501.000000	0.022850
1500.000000	0.022481
1499.000000	0.022101
1498.000000	0.021712
1497.000000	0.021304
1496.000000	0.020892
1495.000000	0.020509
1494.000000	0.020178
1493.000000	0.019888
1492.000000	0.019587
1491.000000	0.019229
1490.000000	0.018841
1489.000000	0.018519
1488.000000	0.018310
1487.000000	0.018175
1486.000000	0.018067
1485.000000	0.017976
1484.000000	0.017908
1483.000000	0.017861
1482.000000	0.017831
1481.000000	0.017834
1480.000000	0.017884
1479.000000	0.017975
1478.000000	0.018098
1477.000000	0.018250
1476.000000	0.018421
1475.000000	0.018598
1474.000000	0.018791
1473.000000	0.019033
1472.000000	0.019320
1471.000000	0.019599
1470.000000	0.019846
1469.000000	0.020079
1468.000000	0.020314
1467.000000	0.020558
1466.000000	0.020821
1465.000000	0.021102
1464.000000	0.021380
1463.000000	0.021635
1462.000000	0.021879
1461.000000	0.022136
1460.000000	0.022413
1459.000000	0.022717
1458.000000	0.023080
1457.000000	0.023517
1456.000000	0.023927
1455.000000	0.024235
1454.000000	0.024487
1453.000000	0.024724
1452.000000	0.024924
1451.000000	0.025061
1450.000000	0.025151
1449.000000	0.025218
1448.000000	0.025256
1447.000000	0.025259
1446.000000	0.025244
1445.000000	0.025220
1444.000000	0.025179
1443.000000	0.025112
1442.000000	0.025025
1441.000000	0.024928
1440.000000	0.024826
1439.000000	0.024711
1438.000000	0.024561
1437.000000	0.024355
1436.000000	0.024109
1435.000000	0.023883
1434.000000	0.023715
1433.000000	0.023586
1432.000000	0.023446
1431.000000	0.023276
1430.000000	0.023097
1429.000000	0.022943
1428.000000	0.022818
1427.000000	0.022719
1426.000000	0.022650
1425.000000	0.022593
1424.000000	0.022526
1423.000000	0.022447
1422.000000	0.022380
1421.000000	0.022329
1420.000000	0.022275
1419.000000	0.022212
1418.000000	0.022163
1417.000000	0.022138
1416.000000	0.022122
1415.000000	0.022101
1414.000000	0.022084
1413.000000	0.022089
1412.000000	0.022109
1411.000000	0.022125
1410.000000	0.022138
1409.000000	0.022171
1408.000000	0.022234
1407.000000	0.022311
1406.000000	0.022384
1405.000000	0.022444
1404.000000	0.022486
1403.000000	0.022504
1402.000000	0.022513
1401.000000	0.022523
1400.000000	0.022524
1399.000000	0.022491
1398.000000	0.022418
1397.000000	0.022319
1396.000000	0.022203
1395.000000	0.022078
1394.000000	0.021962
1393.000000	0.021862
1392.000000	0.021765
1391.000000	0.021657
1390.000000	0.021547
1389.000000	0.021438
1388.000000	0.021310
1387.000000	0.021140
1386.000000	0.020940
1385.000000	0.020743
1384.000000	0.020559
1383.000000	0.020373
1382.000000	0.020176
1381.000000	0.019976
1380.000000	0.019780
1379.000000	0.019584
1378.000000	0.019389
1377.000000	0.019199
1376.000000	0.019006
1375.000000	0.018792
1374.000000	0.018552
1373.000000	0.018309
1372.000000	0.018085
1371.000000	0.017882
1370.000000	0.017690
1369.000000	0.017490
1368.000000	0.017261
1367.000000	0.017000
1366.000000	0.016721
1365.000000	0.016452
1364.000000	0.016215
1363.000000	0.016019
1362.000000	0.015853
1361.000000	0.015705
1360.000000	0.015573
1359.000000	0.015465
1358.000000	0.015388
1357.000000	0.015338
1356.000000	0.015308
1355.000000	0.015299
1354.000000	0.015324
1353.000000	0.015390
1352.000000	0.015495
1351.000000	0.015627
1350.000000	0.015777
1349.000000	0.015932
1348.000000	0.016084
1347.000000	0.016229
1346.000000	0.016375
1345.000000	0.016534
1344.000000	0.016710
1343.000000	0.016901
1342.000000	0.017100
1341.000000	0.017294
1340.000000	0.017463
1339.000000	0.017593
1338.000000	0.017686
1337.000000	0.017752
1336.000000	0.017783
1335.000000	0.017763
1334.000000	0.017690
1333.000000	0.017582
1332.000000	0.017465
1331.000000	0.017354
1330.000000	0.017253
1329.000000	0.017157
1328.000000	0.017056
1327.000000	0.016940
1326.000000	0.016814
1325.000000	0.016697
1324.000000	0.016604
1323.000000	0.016539
1322.000000	0.016495
1321.000000	0.016464
1320.000000	0.016442
1319.000000	0.016421
1318.000000	0.016390
1317.000000	0.016347
1316.000000	0.016293
1315.000000	0.016231
1314.000000	0.016156
1313.000000	0.016063
1312.000000	0.015953
1311.000000	0.015836
1310.000000	0.015724
1309.000000	0.015622
1308.000000	0.015520
1307.000000	0.015412
1306.000000	0.015299
1305.000000	0.015188
1304.000000	0.015080
1303.000000	0.014968
1302.000000	0.014856
1301.000000	0.014750
1300.000000	0.014660
1299.000000	0.014584
1298.000000	0.014518
1297.000000	0.014463
1296.000000	0.014427
1295.000000	0.014415
1294.000000	0.014430
1293.000000	0.014471
1292.000000	0.014536
1291.000000	0.014620
1290.000000	0.014717
1289.000000	0.014823
1288.000000	0.014933
1287.000000	0.015043
1286.000000	0.015151
1285.000000	0.015260
1284.000000	0.015366
1283.000000	0.015457
1282.000000	0.015525
1281.000000	0.015571
1280.000000	0.015599
1279.000000	0.015615
1278.000000	0.015627
1277.000000	0.015639
1276.000000	0.015649
1275.000000	0.015650
1274.000000	0.015642
1273.000000	0.015638
1272.000000	0.015643
1271.000000	0.015655
1270.000000	0.015676
1269.000000	0.015714
1268.000000	0.015771
1267.000000	0.015836
1266.000000	0.015894
1265.000000	0.015952
1264.000000	0.016026
1263.000000	0.016121
1262.000000	0.016225
1261.000000	0.016333
1260.000000	0.016449
1259.000000	0.016576
1258.000000	0.016711
1257.000000	0.016847
1256.000000	0.016982
1255.000000	0.017119
1254.000000	0.017267
1253.000000	0.017433
1252.000000	0.017618
1251.000000	0.017814
1250.000000	0.018012
1249.000000	0.018211
1248.000000	0.018423
1247.000000	0.018651
1246.000000	0.018886
1245.000000	0.019112
1244.000000	0.019318
1243.000000	0.019498
1242.000000	0.019660
1241.000000	0.019811
1240.000000	0.019952
1239.000000	0.020073
1238.000000	0.020169
1237.000000	0.020237
1236.000000	0.020268
1235.000000	0.020250
1234.000000	0.020183
1233.000000	0.020083
1232.000000	0.019970
1231.000000	0.019849
1230.000000	0.019703
1229.000000	0.019513
1228.000000	0.019269
1227.000000	0.018979
1226.000000	0.018659
1225.000000	0.018320
1224.000000	0.017965
1223.000000	0.017595
1222.000000	0.017226
1221.000000	0.016880
1220.000000	0.016564
1219.000000	0.016268
1218.000000	0.015988
1217.000000	0.015742
1216.000000	0.015556
1215.000000	0.015432
1214.000000	0.015346
1213.000000	0.015274
1212.000000	0.015219
1211.000000	0.015201
1210.000000	0.015230
1209.000000	0.015301
1208.000000	0.015397
1207.000000	0.015501
1206.000000	0.015601
1205.000000	0.015682
1204.000000	0.015734
1203.000000	0.015749
1202.000000	0.015723
1201.000000	0.015650
1200.000000	0.015528
1199.000000	0.015362
1198.000000	0.015174
1197.000000	0.014983
1196.000000	0.014794
1195.000000	0.014593
1194.000000	0.014372
1193.000000	0.014135
1192.000000	0.013899
1191.000000	0.013676
1190.000000	0.013464
1189.000000	0.013259
1188.000000	0.013062
1187.000000	0.012880
1186.000000	0.012709
1185.000000	0.012548
1184.000000	0.012403
1183.000000	0.012287
1182.000000	0.012210
1181.000000	0.012162
1180.000000	0.012128
1179.000000	0.012097
1178.000000	0.012068
1177.000000	0.012044
1176.000000	0.012025
1175.000000	0.012011
1174.000000	0.011998
1173.000000	0.011985
1172.000000	0.011976
1171.000000	0.011980
1170.000000	0.012004
1169.000000	0.012049
1168.000000	0.012109
1167.000000	0.012180
1166.000000	0.012255
1165.000000	0.012329
1164.000000	0.012398
1163.000000	0.012464
1162.000000	0.012520
1161.000000	0.012550
1160.000000	0.012536
1159.000000	0.012470
1158.000000	0.012360
1157.000000	0.012224
1156.000000	0.012078
1155.000000	0.011932
1154.000000	0.011792
1153.000000	0.011650
1152.000000	0.011498
1151.000000	0.011334
1150.000000	0.011167
1149.000000	0.011007
1148.000000	0.010861
1147.000000	0.010726
1146.000000	0.010593
1145.000000	0.010449
1144.000000	0.010289
1143.000000	0.010123
1142.000000	0.009972
1141.000000	0.009853
1140.000000	0.009762
1139.000000	0.009683
1138.000000	0.009602
1137.000000	0.009525
1136.000000	0.009462
1135.000000	0.009416
1134.000000	0.009377
1133.000000	0.009336
1132.000000	0.009298
1131.000000	0.009274
1130.000000	0.009270
1129.000000	0.009274
1128.000000	0.009274
1127.000000	0.009266
1126.000000	0.009262
1125.000000	0.009272
1124.000000	0.009295
1123.000000	0.009317
1122.000000	0.009324
1121.000000	0.009313
1120.000000	0.009299
1119.000000	0.009302
1118.000000	0.009328
1117.000000	0.009371
1116.000000	0.009429
1115.000000	0.009506
1114.000000	0.009605
1113.000000	0.009719
1112.000000	0.009826
1111.000000	0.009909
1110.000000	0.009961
1109.000000	0.009990
1108.000000	0.010013
1107.000000	0.010047
1106.000000	0.010097
1105.000000	0.010155
1104.000000	0.010205
1103.000000	0.010241
1102.000000	0.010273
1101.000000	0.010311
1100.000000	0.010365
1099.000000	0.010439
1098.000000	0.010536
1097.000000	0.010647
1096.000000	0.010760
1095.000000	0.010864
1094.000000	0.010964
1093.000000	0.011068
1092.000000	0.011180
1091.000000	0.011301
1090.000000	0.011449
1089.000000	0.011643
1088.000000	0.011878
1087.000000	0.012124
1086.000000	0.012355
1085.000000	0.012567
1084.000000	0.012765
1083.000000	0.012938
1082.000000	0.013071
1081.000000	0.013153
1080.000000	0.013183
1079.000000	0.013153
1078.000000	0.013062
1077.000000	0.012923
1076.000000	0.012755
1075.000000	0.012567
1074.000000	0.012368
1073.000000	0.012173
1072.000000	0.012008
1071.000000	0.011894
1070.000000	0.011835
1069.000000	0.011819
1068.000000	0.011823
1067.000000	0.011819
1066.000000	0.011790
1065.000000	0.011748
1064.000000	0.011726
1063.000000	0.011750
1062.000000	0.011813
1061.000000	0.011887
1060.000000	0.011940
1059.000000	0.011955
1058.000000	0.011930
1057.000000	0.011887
1056.000000	0.011853
1055.000000	0.011842
1054.000000	0.011841
1053.000000	0.011826
1052.000000	0.011791
1051.000000	0.011753
1050.000000	0.011738
1049.000000	0.011747
1048.000000	0.011765
1047.000000	0.011776
1046.000000	0.011778
1045.000000	0.011780
1044.000000	0.011791
1043.000000	0.011815
1042.000000	0.011852
1041.000000	0.011901
1040.000000	0.011966
1039.000000	0.012057
1038.000000	0.012185
1037.000000	0.012350
1036.000000	0.012539
1035.000000	0.012726
1034.000000	0.012896
1033.000000	0.013054
1032.000000	0.013211
1031.000000	0.013359
1030.000000	0.013471
1029.000000	0.013525
1028.000000	0.013527
1027.000000	0.013507
1026.000000	0.013485
1025.000000	0.013468
1024.000000	0.013450
1023.000000	0.013434
1022.000000	0.013432
1021.000000	0.013449
1020.000000	0.013479
1019.000000	0.013507
1018.000000	0.013511
1017.000000	0.013471
1016.000000	0.013380
1015.000000	0.013239
1014.000000	0.013058
1013.000000	0.012839
1012.000000	0.012586
1011.000000	0.012312
1010.000000	0.012041
1009.000000	0.011784
1008.000000	0.011533
1007.000000	0.011282
1006.000000	0.011038
1005.000000	0.010814
1004.000000	0.010617
1003.000000	0.010442
1002.000000	0.010277
1001.000000	0.010108
1000.000000	0.009931
999.000000	0.009753
998.000000	0.009593
997.000000	0.009461
996.000000	0.009343
995.000000	0.009213
994.000000	0.009058
993.000000	0.008889
992.000000	0.008721
991.000000	0.008561
990.000000	0.008411
989.000000	0.008275
988.000000	0.008162
987.000000	0.008073
986.000000	0.008007
985.000000	0.007954
984.000000	0.007911
983.000000	0.007869
982.000000	0.007821
981.000000	0.007768
980.000000	0.007725
979.000000	0.007705
978.000000	0.007705
977.000000	0.007702
976.000000	0.007676
975.000000	0.007628
974.000000	0.007567
973.000000	0.007505
972.000000	0.007443
971.000000	0.007378
970.000000	0.007308
969.000000	0.007229
968.000000	0.007136
967.000000	0.007031
966.000000	0.006919
965.000000	0.006808
964.000000	0.006702
963.000000	0.006612
962.000000	0.006548
961.000000	0.006507
960.000000	0.006469
959.000000	0.006415
958.000000	0.006344
957.000000	0.006271
956.000000	0.006202
955.000000	0.006140
954.000000	0.006088
953.000000	0.006045
952.000000	0.006001
951.000000	0.005942
950.000000	0.005865
949.000000	0.005784
948.000000	0.005714
947.000000	0.005658
946.000000	0.005625
945.000000	0.005625
944.000000	0.005660
943.000000	0.005713
942.000000	0.005759
941.000000	0.005787
940.000000	0.005799
939.000000	0.005800
938.000000	0.005789
937.000000	0.005756
936.000000	0.005688
935.000000	0.005586
934.000000	0.005478
933.000000	0.005401
932.000000	0.005362
931.000000	0.005334
930.000000	0.005290
929.000000	0.005235
928.000000	0.005202
927.000000	0.005209
926.000000	0.005241
925.000000	0.005272
924.000000	0.005287
923.000000	0.005280
922.000000	0.005255
921.000000	0.005220
920.000000	0.005176
919.000000	0.005116
918.000000	0.005033
917.000000	0.004936
916.000000	0.004842
915.000000	0.004761
914.000000	0.004690
913.000000	0.004628
912.000000	0.004574
911.000000	0.004519
910.000000	0.004445
909.000000	0.004360
908.000000	0.004305
907.000000	0.004306
906.000000	0.004344
905.000000	0.004369
904.000000	0.004349
903.000000	0.004293
902.000000	0.004230
901.000000	0.004176
900.000000	0.004139
899.000000	0.004115
898.000000	0.004095
897.000000	0.004066
896.000000	0.004026
895.000000	0.003986
894.000000	0.003957
893.000000	0.003934
892.000000	0.003905
891.000000	0.003865
890.000000	0.003825
889.000000	0.003804
888.000000	0.003825
887.000000	0.003910
886.000000	0.004064
885.000000	0.004266
884.000000	0.004487
883.000000	0.004720
882.000000	0.004998
881.000000	0.005362
880.000000	0.005810
879.000000	0.006278
878.000000	0.006674
877.000000	0.006932
876.000000	0.007043
875.000000	0.007023
874.000000	0.006887
873.000000	0.006640
872.000000	0.006304
871.000000	0.005930
870.000000	0.005576
869.000000	0.005277
868.000000	0.005039
867.000000	0.004858
866.000000	0.004739
865.000000	0.004678
864.000000	0.004652
863.000000	0.004631
862.000000	0.004593
861.000000	0.004540
860.000000	0.004485
859.000000	0.004445
858.000000	0.004429
857.000000	0.004440
856.000000	0.004465
855.000000	0.004485
854.000000	0.004485
853.000000	0.004461
852.000000	0.004426
851.000000	0.004402
850.000000	0.004411
849.000000	0.004448
848.000000	0.004473
847.000000	0.004446
846.000000	0.004370
845.000000	0.004285
844.000000	0.004227
843.000000	0.004197
842.000000	0.004175
841.000000	0.004154
840.000000	0.004128
839.000000	0.004083
838.000000	0.004014
837.000000	0.003946
836.000000	0.003914
835.000000	0.003923
834.000000	0.003937
833.000000	0.003923
832.000000	0.003880
831.000000	0.003842
830.000000	0.003840
829.000000	0.003877
828.000000	0.003921
827.000000	0.003937
826.000000	0.003916
825.000000	0.003891
824.000000	0.003909
823.000000	0.003973
822.000000	0.004048
821.000000	0.004095
820.000000	0.004103
819.000000	0.004089
818.000000	0.004071
817.000000	0.004063
816.000000	0.004075
815.000000	0.004108
814.000000	0.004150
813.000000	0.004180
812.000000	0.004187
811.000000	0.004170
810.000000	0.004138
809.000000	0.004099
808.000000	0.004062
807.000000	0.004028
806.000000	0.003991
805.000000	0.003943
804.000000	0.003883
803.000000	0.003827
802.000000	0.003806
801.000000	0.003838
800.000000	0.003901
799.000000	0.003955
798.000000	0.003984
797.000000	0.004018
796.000000	0.004076
795.000000	0.004132
794.000000	0.004147
793.000000	0.004128
792.000000	0.004132
791.000000	0.004198
790.000000	0.004292
789.000000	0.004351
788.000000	0.004349
787.000000	0.004321
786.000000	0.004324
785.000000	0.004375
784.000000	0.004440
783.000000	0.004473
782.000000	0.004454
781.000000	0.004403
780.000000	0.004345
779.000000	0.004282
778.000000	0.004215
777.000000	0.004163
776.000000	0.004158
775.000000	0.004209
774.000000	0.004291
773.000000	0.004364
772.000000	0.004401
771.000000	0.004404
770.000000	0.004402
769.000000	0.004426
768.000000	0.004468
767.000000	0.004478
766.000000	0.004415
765.000000	0.004299
764.000000	0.004214
763.000000	0.004225
762.000000	0.004324
761.000000	0.004442
760.000000	0.004515
759.000000	0.004531
758.000000	0.004525
757.000000	0.004544
756.000000	0.004609
755.000000	0.004704
754.000000	0.004787
753.000000	0.004823
752.000000	0.004795
751.000000	0.004715
750.000000	0.004624
749.000000	0.004575
748.000000	0.004595
747.000000	0.004664
746.000000	0.004742
745.000000	0.004808
744.000000	0.004871
743.000000	0.004940
742.000000	0.005013
741.000000	0.005074
740.000000	0.005105
739.000000	0.005085
738.000000	0.005024
737.000000	0.004976
736.000000	0.005005
735.000000	0.005124
734.000000	0.005279
733.000000	0.005413
732.000000	0.005514
731.000000	0.005605
730.000000	0.005694
729.000000	0.005771
728.000000	0.005824
727.000000	0.005855
726.000000	0.005887
725.000000	0.005954
724.000000	0.006081
723.000000	0.006251
722.000000	0.006414
721.000000	0.006529
720.000000	0.006593
719.000000	0.006626
718.000000	0.006660
717.000000	0.006735
716.000000	0.006881
715.000000	0.007089
714.000000	0.007298
713.000000	0.007439
712.000000	0.007493
711.000000	0.007489
710.000000	0.007472
709.000000	0.007479
708.000000	0.007520
707.000000	0.007574
706.000000	0.007616
705.000000	0.007662
704.000000	0.007751
703.000000	0.007879
702.000000	0.007974
701.000000	0.007975
700.000000	0.007904
699.000000	0.007838
698.000000	0.007810
697.000000	0.007797
696.000000	0.007777
695.000000	0.007765
694.000000	0.007781
693.000000	0.007810
692.000000	0.007843
691.000000	0.007891
690.000000	0.007954
689.000000	0.008005
688.000000	0.008031
687.000000	0.008068
686.000000	0.008160
685.000000	0.008292
684.000000	0.008417
683.000000	0.008510
682.000000	0.008573
681.000000	0.008615
680.000000	0.008643
679.000000	0.008671
678.000000	0.008703
677.000000	0.008748
676.000000	0.008816
675.000000	0.008918
674.000000	0.009040
673.000000	0.009141
672.000000	0.009187
671.000000	0.009179
670.000000	0.009131
669.000000	0.009085
668.000000	0.009229
667.000000	0.009510
666.000000	0.009583
665.000000	0.009605
664.000000	0.009719
663.000000	0.009850
662.000000	0.009887
661.000000	0.009834
660.000000	0.009762
659.000000	0.009696
658.000000	0.009630
657.000000	0.009595
656.000000	0.009622
655.000000	0.009684
654.000000	0.009744
653.000000	0.009808
652.000000	0.009877
651.000000	0.009908
650.000000	0.009873
649.000000	0.009813
648.000000	0.009779
647.000000	0.009761
646.000000	0.009733
645.000000	0.009700
644.000000	0.009685
643.000000	0.009710
642.000000	0.009776
641.000000	0.009861
640.000000	0.009901
639.000000	0.009829
638.000000	0.009654
637.000000	0.009469
636.000000	0.009345
635.000000	0.009288
634.000000	0.009285
633.000000	0.009333
632.000000	0.009408
631.000000	0.009464
630.000000	0.009502
629.000000	0.009582
628.000000	0.009736
627.000000	0.009908
626.000000	0.010018
625.000000	0.010047
624.000000	0.010023
623.000000	0.009970
622.000000	0.009899
621.000000	0.009831
620.000000	0.009785
619.000000	0.009768
618.000000	0.009799
617.000000	0.009900
616.000000	0.010053
615.000000	0.010185
614.000000	0.010234
613.000000	0.010194
612.000000	0.010095
611.000000	0.009983
610.000000	0.009930
609.000000	0.009988
608.000000	0.010110
607.000000	0.010164
606.000000	0.010082
605.000000	0.009946
604.000000	0.009890
603.000000	0.009928
602.000000	0.009945
601.000000	0.009839
600.000000	0.009645
599.000000	0.009499
598.000000	0.009515
597.000000	0.009671
596.000000	0.009828
595.000000	0.009860
594.000000	0.009766
593.000000	0.009649
592.000000	0.009590
591.000000	0.009587
590.000000	0.009602
589.000000	0.009615
588.000000	0.009605
587.000000	0.009556
586.000000	0.009501
585.000000	0.009510
584.000000	0.009593
583.000000	0.009670
582.000000	0.009685
581.000000	0.009683
580.000000	0.009720
579.000000	0.009766
578.000000	0.009760
577.000000	0.009716
576.000000	0.009695
575.000000	0.009717
574.000000	0.009762
573.000000	0.009840
572.000000	0.009976
571.000000	0.010127
570.000000	0.010213
569.000000	0.010227
568.000000	0.010255
567.000000	0.010359
566.000000	0.010506
565.000000	0.010629
564.000000	0.010697
563.000000	0.010706
562.000000	0.010660
561.000000	0.010595
560.000000	0.010590
559.000000	0.010709
558.000000	0.010925
557.000000	0.011110
556.000000	0.011139
555.000000	0.011000
554.000000	0.010793
553.000000	0.010612
552.000000	0.010465
551.000000	0.010334
550.000000	0.010268
549.000000	0.010333
548.000000	0.010497
547.000000	0.010653
546.000000	0.010739
545.000000	0.010753
544.000000	0.010684
543.000000	0.010512
542.000000	0.010306
541.000000	0.010205
540.000000	0.010244
539.000000	0.010325
538.000000	0.010367
537.000000	0.010411
536.000000	0.010525
535.000000	0.010686
534.000000	0.010835
533.000000	0.010953
532.000000	0.011018
531.000000	0.010968
530.000000	0.010801
529.000000	0.010640
528.000000	0.010609
527.000000	0.010692
526.000000	0.010759
525.000000	0.010704
524.000000	0.010508
523.000000	0.010220
522.000000	0.009931
521.000000	0.009723
520.000000	0.009583
519.000000	0.009419
518.000000	0.009204
517.000000	0.009042
516.000000	0.009033
515.000000	0.009161
514.000000	0.009327
513.000000	0.009393
512.000000	0.009183
511.000000	0.008603
510.000000	0.007850
509.000000	0.007342
508.000000	0.007352
507.000000	0.007748
506.000000	0.008177
505.000000	0.008404
504.000000	0.008394
503.000000	0.008191
502.000000	0.007901
501.000000	0.007695
500.000000	0.007648
499.000000	0.007639
498.000000	0.007517
497.000000	0.007284
496.000000	0.007029
495.000000	0.006795
494.000000	0.006624
493.000000	0.006626
492.000000	0.006843
491.000000	0.007086
490.000000	0.007102
489.000000	0.006867
488.000000	0.006574
487.000000	0.006368
486.000000	0.006256
485.000000	0.006220
484.000000	0.006270
483.000000	0.006361
482.000000	0.006382
481.000000	0.006267
480.000000	0.006034
479.000000	0.005744
478.000000	0.005497
477.000000	0.005397
476.000000	0.005456
475.000000	0.005611
474.000000	0.005906
473.000000	0.006508
472.000000	0.007356
471.000000	0.007943
470.000000	0.007748
469.000000	0.006803
468.000000	0.005622
467.000000	0.004755
466.000000	0.004505
465.000000	0.004850
464.000000	0.005472
463.000000	0.005852
462.000000	0.005643
461.000000	0.005055
460.000000	0.004599
459.000000	0.004462
458.000000	0.004377
457.000000	0.004095
456.000000	0.003763
455.000000	0.003683
454.000000	0.003953
453.000000	0.004417
452.000000	0.004759
451.000000	0.004576
450.000000	0.003747
