PE IR       SUBTECH     SPECTRUM    ASCII       PEDS        4.00        
   -1
3G-N10-F029_1.ASC
22/02/24
10:53:21.00
22/02/24
11:04:21.00
uco
Sample 029 By uco Date Thursday, February 24 2022
450.000000
#HDR
-1
-1
#GR
cm-1
A
1.0
0.0
4000.000000
-1.000000
3551
8
0.052387
0.007973
#DATA
4000.000000	0.008277
3999.000000	0.008297
3998.000000	0.008319
3997.000000	0.008334
3996.000000	0.008341
3995.000000	0.008317
3994.000000	0.008320
3993.000000	0.008324
3992.000000	0.008322
3991.000000	0.008315
3990.000000	0.008303
3989.000000	0.008294
3988.000000	0.008291
3987.000000	0.008295
3986.000000	0.008303
3985.000000	0.008314
3984.000000	0.008326
3983.000000	0.008341
3982.000000	0.008362
3981.000000	0.008387
3980.000000	0.008411
3979.000000	0.008426
3978.000000	0.008430
3977.000000	0.008424
3976.000000	0.008416
3975.000000	0.008409
3974.000000	0.008403
3973.000000	0.008394
3972.000000	0.008377
3971.000000	0.008354
3970.000000	0.008337
3969.000000	0.008335
3968.000000	0.008354
3967.000000	0.008388
3966.000000	0.008425
3965.000000	0.008457
3964.000000	0.008480
3963.000000	0.008494
3962.000000	0.008497
3961.000000	0.008489
3960.000000	0.008471
3959.000000	0.008448
3958.000000	0.008428
3957.000000	0.008422
3956.000000	0.008433
3955.000000	0.008454
3954.000000	0.008470
3953.000000	0.008476
3952.000000	0.008476
3951.000000	0.008479
3950.000000	0.008488
3949.000000	0.008493
3948.000000	0.008488
3947.000000	0.008470
3946.000000	0.008445
3945.000000	0.008422
3944.000000	0.008408
3943.000000	0.008412
3942.000000	0.008435
3941.000000	0.008470
3940.000000	0.008501
3939.000000	0.008514
3938.000000	0.008510
3937.000000	0.008501
3936.000000	0.008502
3935.000000	0.008516
3934.000000	0.008534
3933.000000	0.008545
3932.000000	0.008544
3931.000000	0.008536
3930.000000	0.008529
3929.000000	0.008526
3928.000000	0.008523
3927.000000	0.008518
3926.000000	0.008508
3925.000000	0.008491
3924.000000	0.008471
3923.000000	0.008453
3922.000000	0.008448
3921.000000	0.008461
3920.000000	0.008484
3919.000000	0.008504
3918.000000	0.008505
3917.000000	0.008488
3916.000000	0.008466
3915.000000	0.008453
3914.000000	0.008450
3913.000000	0.008450
3912.000000	0.008448
3911.000000	0.008447
3910.000000	0.008453
3909.000000	0.008468
3908.000000	0.008486
3907.000000	0.008502
3906.000000	0.008512
3905.000000	0.008521
3904.000000	0.008539
3903.000000	0.008574
3902.000000	0.008616
3901.000000	0.008646
3900.000000	0.008653
3899.000000	0.008639
3898.000000	0.008617
3897.000000	0.008595
3896.000000	0.008579
3895.000000	0.008570
3894.000000	0.008567
3893.000000	0.008567
3892.000000	0.008570
3891.000000	0.008581
3890.000000	0.008598
3889.000000	0.008612
3888.000000	0.008619
3887.000000	0.008614
3886.000000	0.008594
3885.000000	0.008567
3884.000000	0.008541
3883.000000	0.008518
3882.000000	0.008496
3881.000000	0.008480
3880.000000	0.008478
3879.000000	0.008491
3878.000000	0.008509
3877.000000	0.008525
3876.000000	0.008537
3875.000000	0.008548
3874.000000	0.008565
3873.000000	0.008591
3872.000000	0.008618
3871.000000	0.008638
3870.000000	0.008654
3869.000000	0.008679
3868.000000	0.008710
3867.000000	0.008733
3866.000000	0.008736
3865.000000	0.008714
3864.000000	0.008675
3863.000000	0.008634
3862.000000	0.008603
3861.000000	0.008588
3860.000000	0.008585
3859.000000	0.008583
3858.000000	0.008579
3857.000000	0.008575
3856.000000	0.008577
3855.000000	0.008581
3854.000000	0.008587
3853.000000	0.008619
3852.000000	0.008669
3851.000000	0.008694
3850.000000	0.008682
3849.000000	0.008651
3848.000000	0.008618
3847.000000	0.008588
3846.000000	0.008561
3845.000000	0.008542
3844.000000	0.008539
3843.000000	0.008551
3842.000000	0.008568
3841.000000	0.008574
3840.000000	0.008562
3839.000000	0.008541
3838.000000	0.008526
3837.000000	0.008522
3836.000000	0.008516
3835.000000	0.008505
3834.000000	0.008494
3833.000000	0.008493
3832.000000	0.008502
3831.000000	0.008520
3830.000000	0.008541
3829.000000	0.008558
3828.000000	0.008565
3827.000000	0.008565
3826.000000	0.008568
3825.000000	0.008584
3824.000000	0.008609
3823.000000	0.008625
3822.000000	0.008616
3821.000000	0.008592
3820.000000	0.008577
3819.000000	0.008572
3818.000000	0.008564
3817.000000	0.008545
3816.000000	0.008521
3815.000000	0.008498
3814.000000	0.008475
3813.000000	0.008452
3812.000000	0.008438
3811.000000	0.008437
3810.000000	0.008444
3809.000000	0.008450
3808.000000	0.008455
3807.000000	0.008471
3806.000000	0.008506
3805.000000	0.008546
3804.000000	0.008575
3803.000000	0.008579
3802.000000	0.008560
3801.000000	0.008541
3800.000000	0.008536
3799.000000	0.008529
3798.000000	0.008506
3797.000000	0.008471
3796.000000	0.008442
3795.000000	0.008428
3794.000000	0.008427
3793.000000	0.008427
3792.000000	0.008420
3791.000000	0.008403
3790.000000	0.008384
3789.000000	0.008370
3788.000000	0.008367
3787.000000	0.008369
3786.000000	0.008368
3785.000000	0.008361
3784.000000	0.008357
3783.000000	0.008365
3782.000000	0.008386
3781.000000	0.008409
3780.000000	0.008422
3779.000000	0.008422
3778.000000	0.008414
3777.000000	0.008397
3776.000000	0.008373
3775.000000	0.008350
3774.000000	0.008338
3773.000000	0.008341
3772.000000	0.008355
3771.000000	0.008372
3770.000000	0.008391
3769.000000	0.008411
3768.000000	0.008420
3767.000000	0.008402
3766.000000	0.008359
3765.000000	0.008315
3764.000000	0.008293
3763.000000	0.008295
3762.000000	0.008308
3761.000000	0.008318
3760.000000	0.008326
3759.000000	0.008345
3758.000000	0.008382
3757.000000	0.008427
3756.000000	0.008463
3755.000000	0.008484
3754.000000	0.008494
3753.000000	0.008498
3752.000000	0.008506
3751.000000	0.008526
3750.000000	0.008557
3749.000000	0.008579
3748.000000	0.008578
3747.000000	0.008567
3746.000000	0.008561
3745.000000	0.008564
3744.000000	0.008573
3743.000000	0.008564
3742.000000	0.008514
3741.000000	0.008442
3740.000000	0.008390
3739.000000	0.008388
3738.000000	0.008434
3737.000000	0.008489
3736.000000	0.008508
3735.000000	0.008474
3734.000000	0.008414
3733.000000	0.008368
3732.000000	0.008351
3731.000000	0.008352
3730.000000	0.008351
3729.000000	0.008336
3728.000000	0.008309
3727.000000	0.008279
3726.000000	0.008258
3725.000000	0.008258
3724.000000	0.008275
3723.000000	0.008294
3722.000000	0.008305
3721.000000	0.008304
3720.000000	0.008301
3719.000000	0.008304
3718.000000	0.008317
3717.000000	0.008333
3716.000000	0.008347
3715.000000	0.008361
3714.000000	0.008379
3713.000000	0.008396
3712.000000	0.008404
3711.000000	0.008399
3710.000000	0.008389
3709.000000	0.008378
3708.000000	0.008366
3707.000000	0.008350
3706.000000	0.008328
3705.000000	0.008305
3704.000000	0.008284
3703.000000	0.008269
3702.000000	0.008262
3701.000000	0.008265
3700.000000	0.008276
3699.000000	0.008289
3698.000000	0.008296
3697.000000	0.008297
3696.000000	0.008297
3695.000000	0.008304
3694.000000	0.008322
3693.000000	0.008346
3692.000000	0.008367
3691.000000	0.008376
3690.000000	0.008367
3689.000000	0.008354
3688.000000	0.008352
3687.000000	0.008359
3686.000000	0.008368
3685.000000	0.008379
3684.000000	0.008396
3683.000000	0.008416
3682.000000	0.008443
3681.000000	0.008487
3680.000000	0.008568
3679.000000	0.008694
3678.000000	0.008849
3677.000000	0.008974
3676.000000	0.009009
3675.000000	0.008965
3674.000000	0.008898
3673.000000	0.008836
3672.000000	0.008786
3671.000000	0.008743
3670.000000	0.008705
3669.000000	0.008676
3668.000000	0.008657
3667.000000	0.008644
3666.000000	0.008641
3665.000000	0.008651
3664.000000	0.008662
3663.000000	0.008662
3662.000000	0.008646
3661.000000	0.008625
3660.000000	0.008613
3659.000000	0.008617
3658.000000	0.008633
3657.000000	0.008663
3656.000000	0.008714
3655.000000	0.008793
3654.000000	0.008890
3653.000000	0.008992
3652.000000	0.009078
3651.000000	0.009120
3650.000000	0.009103
3649.000000	0.009048
3648.000000	0.008989
3647.000000	0.008941
3646.000000	0.008912
3645.000000	0.008908
3644.000000	0.008927
3643.000000	0.008959
3642.000000	0.008992
3641.000000	0.009024
3640.000000	0.009058
3639.000000	0.009100
3638.000000	0.009150
3637.000000	0.009201
3636.000000	0.009244
3635.000000	0.009274
3634.000000	0.009303
3633.000000	0.009342
3632.000000	0.009397
3631.000000	0.009453
3630.000000	0.009484
3629.000000	0.009482
3628.000000	0.009477
3627.000000	0.009482
3626.000000	0.009490
3625.000000	0.009506
3624.000000	0.009538
3623.000000	0.009583
3622.000000	0.009624
3621.000000	0.009650
3620.000000	0.009667
3619.000000	0.009696
3618.000000	0.009754
3617.000000	0.009831
3616.000000	0.009908
3615.000000	0.009970
3614.000000	0.010007
3613.000000	0.010026
3612.000000	0.010044
3611.000000	0.010077
3610.000000	0.010127
3609.000000	0.010176
3608.000000	0.010206
3607.000000	0.010214
3606.000000	0.010217
3605.000000	0.010225
3604.000000	0.010240
3603.000000	0.010255
3602.000000	0.010268
3601.000000	0.010281
3600.000000	0.010304
3599.000000	0.010348
3598.000000	0.010417
3597.000000	0.010503
3596.000000	0.010584
3595.000000	0.010639
3594.000000	0.010668
3593.000000	0.010693
3592.000000	0.010737
3591.000000	0.010803
3590.000000	0.010875
3589.000000	0.010924
3588.000000	0.010944
3587.000000	0.010963
3586.000000	0.011002
3585.000000	0.011054
3584.000000	0.011099
3583.000000	0.011127
3582.000000	0.011145
3581.000000	0.011162
3580.000000	0.011191
3579.000000	0.011240
3578.000000	0.011316
3577.000000	0.011412
3576.000000	0.011515
3575.000000	0.011611
3574.000000	0.011691
3573.000000	0.011756
3572.000000	0.011810
3571.000000	0.011861
3570.000000	0.011920
3569.000000	0.011986
3568.000000	0.012051
3567.000000	0.012108
3566.000000	0.012161
3565.000000	0.012213
3564.000000	0.012260
3563.000000	0.012300
3562.000000	0.012335
3561.000000	0.012370
3560.000000	0.012408
3559.000000	0.012454
3558.000000	0.012510
3557.000000	0.012581
3556.000000	0.012664
3555.000000	0.012750
3554.000000	0.012832
3553.000000	0.012905
3552.000000	0.012966
3551.000000	0.013017
3550.000000	0.013060
3549.000000	0.013102
3548.000000	0.013152
3547.000000	0.013213
3546.000000	0.013282
3545.000000	0.013345
3544.000000	0.013394
3543.000000	0.013430
3542.000000	0.013462
3541.000000	0.013497
3540.000000	0.013537
3539.000000	0.013583
3538.000000	0.013637
3537.000000	0.013700
3536.000000	0.013768
3535.000000	0.013832
3534.000000	0.013886
3533.000000	0.013931
3532.000000	0.013975
3531.000000	0.014031
3530.000000	0.014107
3529.000000	0.014198
3528.000000	0.014292
3527.000000	0.014373
3526.000000	0.014432
3525.000000	0.014467
3524.000000	0.014483
3523.000000	0.014491
3522.000000	0.014511
3521.000000	0.014559
3520.000000	0.014639
3519.000000	0.014739
3518.000000	0.014842
3517.000000	0.014927
3516.000000	0.014987
3515.000000	0.015021
3514.000000	0.015042
3513.000000	0.015070
3512.000000	0.015117
3511.000000	0.015183
3510.000000	0.015256
3509.000000	0.015328
3508.000000	0.015397
3507.000000	0.015466
3506.000000	0.015535
3505.000000	0.015597
3504.000000	0.015646
3503.000000	0.015681
3502.000000	0.015707
3501.000000	0.015730
3500.000000	0.015755
3499.000000	0.015790
3498.000000	0.015841
3497.000000	0.015908
3496.000000	0.015977
3495.000000	0.016035
3494.000000	0.016080
3493.000000	0.016118
3492.000000	0.016163
3491.000000	0.016224
3490.000000	0.016303
3489.000000	0.016386
3488.000000	0.016458
3487.000000	0.016512
3486.000000	0.016553
3485.000000	0.016588
3484.000000	0.016621
3483.000000	0.016656
3482.000000	0.016698
3481.000000	0.016748
3480.000000	0.016797
3479.000000	0.016838
3478.000000	0.016870
3477.000000	0.016905
3476.000000	0.016955
3475.000000	0.017021
3474.000000	0.017094
3473.000000	0.017165
3472.000000	0.017223
3471.000000	0.017268
3470.000000	0.017305
3469.000000	0.017346
3468.000000	0.017397
3467.000000	0.017453
3466.000000	0.017505
3465.000000	0.017550
3464.000000	0.017594
3463.000000	0.017643
3462.000000	0.017699
3461.000000	0.017750
3460.000000	0.017788
3459.000000	0.017822
3458.000000	0.017868
3457.000000	0.017934
3456.000000	0.018010
3455.000000	0.018075
3454.000000	0.018121
3453.000000	0.018155
3452.000000	0.018187
3451.000000	0.018226
3450.000000	0.018276
3449.000000	0.018337
3448.000000	0.018404
3447.000000	0.018474
3446.000000	0.018548
3445.000000	0.018627
3444.000000	0.018706
3443.000000	0.018772
3442.000000	0.018818
3441.000000	0.018847
3440.000000	0.018872
3439.000000	0.018904
3438.000000	0.018948
3437.000000	0.019002
3436.000000	0.019058
3435.000000	0.019115
3434.000000	0.019171
3433.000000	0.019225
3432.000000	0.019276
3431.000000	0.019332
3430.000000	0.019404
3429.000000	0.019493
3428.000000	0.019581
3427.000000	0.019647
3426.000000	0.019686
3425.000000	0.019715
3424.000000	0.019751
3423.000000	0.019799
3422.000000	0.019854
3421.000000	0.019915
3420.000000	0.019982
3419.000000	0.020052
3418.000000	0.020113
3417.000000	0.020159
3416.000000	0.020194
3415.000000	0.020230
3414.000000	0.020275
3413.000000	0.020329
3412.000000	0.020391
3411.000000	0.020460
3410.000000	0.020539
3409.000000	0.020626
3408.000000	0.020709
3407.000000	0.020774
3406.000000	0.020819
3405.000000	0.020856
3404.000000	0.020898
3403.000000	0.020946
3402.000000	0.020987
3401.000000	0.021012
3400.000000	0.021024
3399.000000	0.021038
3398.000000	0.021068
3397.000000	0.021117
3396.000000	0.021176
3395.000000	0.021233
3394.000000	0.021285
3393.000000	0.021335
3392.000000	0.021390
3391.000000	0.021451
3390.000000	0.021515
3389.000000	0.021576
3388.000000	0.021636
3387.000000	0.021698
3386.000000	0.021764
3385.000000	0.021829
3384.000000	0.021892
3383.000000	0.021953
3382.000000	0.022010
3381.000000	0.022057
3380.000000	0.022088
3379.000000	0.022111
3378.000000	0.022147
3377.000000	0.022208
3376.000000	0.022288
3375.000000	0.022369
3374.000000	0.022434
3373.000000	0.022483
3372.000000	0.022523
3371.000000	0.022565
3370.000000	0.022619
3369.000000	0.022690
3368.000000	0.022777
3367.000000	0.022875
3366.000000	0.022975
3365.000000	0.023066
3364.000000	0.023138
3363.000000	0.023192
3362.000000	0.023240
3361.000000	0.023298
3360.000000	0.023370
3359.000000	0.023450
3358.000000	0.023529
3357.000000	0.023599
3356.000000	0.023659
3355.000000	0.023712
3354.000000	0.023766
3353.000000	0.023827
3352.000000	0.023896
3351.000000	0.023972
3350.000000	0.024051
3349.000000	0.024134
3348.000000	0.024221
3347.000000	0.024307
3346.000000	0.024387
3345.000000	0.024462
3344.000000	0.024535
3343.000000	0.024612
3342.000000	0.024696
3341.000000	0.024784
3340.000000	0.024868
3339.000000	0.024941
3338.000000	0.025002
3337.000000	0.025056
3336.000000	0.025105
3335.000000	0.025150
3334.000000	0.025196
3333.000000	0.025249
3332.000000	0.025314
3331.000000	0.025390
3330.000000	0.025469
3329.000000	0.025545
3328.000000	0.025610
3327.000000	0.025665
3326.000000	0.025715
3325.000000	0.025769
3324.000000	0.025825
3323.000000	0.025876
3322.000000	0.025914
3321.000000	0.025949
3320.000000	0.025995
3319.000000	0.026064
3318.000000	0.026154
3317.000000	0.026254
3316.000000	0.026352
3315.000000	0.026436
3314.000000	0.026492
3313.000000	0.026518
3312.000000	0.026521
3311.000000	0.026515
3310.000000	0.026516
3309.000000	0.026527
3308.000000	0.026547
3307.000000	0.026579
3306.000000	0.026630
3305.000000	0.026702
3304.000000	0.026786
3303.000000	0.026865
3302.000000	0.026927
3301.000000	0.026970
3300.000000	0.026995
3299.000000	0.027008
3298.000000	0.027014
3297.000000	0.027018
3296.000000	0.027028
3295.000000	0.027044
3294.000000	0.027064
3293.000000	0.027087
3292.000000	0.027112
3291.000000	0.027137
3290.000000	0.027155
3289.000000	0.027162
3288.000000	0.027161
3287.000000	0.027157
3286.000000	0.027154
3285.000000	0.027147
3284.000000	0.027135
3283.000000	0.027119
3282.000000	0.027109
3281.000000	0.027104
3280.000000	0.027101
3279.000000	0.027091
3278.000000	0.027075
3277.000000	0.027052
3276.000000	0.027020
3275.000000	0.026976
3274.000000	0.026919
3273.000000	0.026856
3272.000000	0.026796
3271.000000	0.026748
3270.000000	0.026718
3269.000000	0.026698
3268.000000	0.026671
3267.000000	0.026624
3266.000000	0.026557
3265.000000	0.026482
3264.000000	0.026413
3263.000000	0.026355
3262.000000	0.026305
3261.000000	0.026261
3260.000000	0.026217
3259.000000	0.026173
3258.000000	0.026131
3257.000000	0.026096
3256.000000	0.026064
3255.000000	0.026021
3254.000000	0.025955
3253.000000	0.025863
3252.000000	0.025759
3251.000000	0.025662
3250.000000	0.025583
3249.000000	0.025517
3248.000000	0.025447
3247.000000	0.025364
3246.000000	0.025274
3245.000000	0.025192
3244.000000	0.025128
3243.000000	0.025080
3242.000000	0.025038
3241.000000	0.024993
3240.000000	0.024942
3239.000000	0.024883
3238.000000	0.024824
3237.000000	0.024774
3236.000000	0.024739
3235.000000	0.024716
3234.000000	0.024695
3233.000000	0.024663
3232.000000	0.024612
3231.000000	0.024544
3230.000000	0.024471
3229.000000	0.024405
3228.000000	0.024351
3227.000000	0.024307
3226.000000	0.024267
3225.000000	0.024229
3224.000000	0.024193
3223.000000	0.024159
3222.000000	0.024122
3221.000000	0.024077
3220.000000	0.024024
3219.000000	0.023976
3218.000000	0.023943
3217.000000	0.023927
3216.000000	0.023917
3215.000000	0.023898
3214.000000	0.023862
3213.000000	0.023809
3212.000000	0.023746
3211.000000	0.023680
3210.000000	0.023618
3209.000000	0.023569
3208.000000	0.023534
3207.000000	0.023512
3206.000000	0.023496
3205.000000	0.023480
3204.000000	0.023456
3203.000000	0.023419
3202.000000	0.023369
3201.000000	0.023312
3200.000000	0.023253
3199.000000	0.023192
3198.000000	0.023124
3197.000000	0.023051
3196.000000	0.022981
3195.000000	0.022927
3194.000000	0.022893
3193.000000	0.022871
3192.000000	0.022841
3191.000000	0.022787
3190.000000	0.022706
3189.000000	0.022615
3188.000000	0.022533
3187.000000	0.022475
3186.000000	0.022432
3185.000000	0.022387
3184.000000	0.022330
3183.000000	0.022270
3182.000000	0.022216
3181.000000	0.022170
3180.000000	0.022127
3179.000000	0.022076
3178.000000	0.022016
3177.000000	0.021946
3176.000000	0.021873
3175.000000	0.021800
3174.000000	0.021732
3173.000000	0.021671
3172.000000	0.021617
3171.000000	0.021569
3170.000000	0.021526
3169.000000	0.021479
3168.000000	0.021417
3167.000000	0.021337
3166.000000	0.021251
3165.000000	0.021176
3164.000000	0.021124
3163.000000	0.021091
3162.000000	0.021061
3161.000000	0.021023
3160.000000	0.020973
3159.000000	0.020914
3158.000000	0.020851
3157.000000	0.020783
3156.000000	0.020705
3155.000000	0.020617
3154.000000	0.020527
3153.000000	0.020455
3152.000000	0.020415
3151.000000	0.020402
3150.000000	0.020394
3149.000000	0.020360
3148.000000	0.020290
3147.000000	0.020200
3146.000000	0.020120
3145.000000	0.020064
3144.000000	0.020027
3143.000000	0.019991
3142.000000	0.019947
3141.000000	0.019902
3140.000000	0.019865
3139.000000	0.019839
3138.000000	0.019818
3137.000000	0.019794
3136.000000	0.019764
3135.000000	0.019728
3134.000000	0.019687
3133.000000	0.019638
3132.000000	0.019584
3131.000000	0.019531
3130.000000	0.019492
3129.000000	0.019471
3128.000000	0.019464
3127.000000	0.019456
3126.000000	0.019437
3125.000000	0.019400
3124.000000	0.019348
3123.000000	0.019290
3122.000000	0.019235
3121.000000	0.019192
3120.000000	0.019165
3119.000000	0.019153
3118.000000	0.019146
3117.000000	0.019137
3116.000000	0.019126
3115.000000	0.019120
3114.000000	0.019121
3113.000000	0.019124
3112.000000	0.019120
3111.000000	0.019106
3110.000000	0.019091
3109.000000	0.019079
3108.000000	0.019070
3107.000000	0.019063
3106.000000	0.019062
3105.000000	0.019075
3104.000000	0.019097
3103.000000	0.019114
3102.000000	0.019110
3101.000000	0.019083
3100.000000	0.019050
3099.000000	0.019032
3098.000000	0.019046
3097.000000	0.019088
3096.000000	0.019141
3095.000000	0.019185
3094.000000	0.019205
3093.000000	0.019202
3092.000000	0.019186
3091.000000	0.019173
3090.000000	0.019177
3089.000000	0.019202
3088.000000	0.019235
3087.000000	0.019257
3086.000000	0.019259
3085.000000	0.019245
3084.000000	0.019227
3083.000000	0.019211
3082.000000	0.019201
3081.000000	0.019195
3080.000000	0.019196
3079.000000	0.019208
3078.000000	0.019233
3077.000000	0.019262
3076.000000	0.019283
3075.000000	0.019288
3074.000000	0.019280
3073.000000	0.019264
3072.000000	0.019246
3071.000000	0.019225
3070.000000	0.019204
3069.000000	0.019191
3068.000000	0.019187
3067.000000	0.019187
3066.000000	0.019183
3065.000000	0.019171
3064.000000	0.019153
3063.000000	0.019133
3062.000000	0.019110
3061.000000	0.019083
3060.000000	0.019050
3059.000000	0.019010
3058.000000	0.018963
3057.000000	0.018913
3056.000000	0.018866
3055.000000	0.018829
3054.000000	0.018799
3053.000000	0.018768
3052.000000	0.018727
3051.000000	0.018682
3050.000000	0.018643
3049.000000	0.018618
3048.000000	0.018595
3047.000000	0.018559
3046.000000	0.018504
3045.000000	0.018441
3044.000000	0.018386
3043.000000	0.018345
3042.000000	0.018313
3041.000000	0.018282
3040.000000	0.018246
3039.000000	0.018203
3038.000000	0.018153
3037.000000	0.018105
3036.000000	0.018063
3035.000000	0.018026
3034.000000	0.017988
3033.000000	0.017944
3032.000000	0.017896
3031.000000	0.017849
3030.000000	0.017808
3029.000000	0.017770
3028.000000	0.017732
3027.000000	0.017690
3026.000000	0.017642
3025.000000	0.017590
3024.000000	0.017537
3023.000000	0.017490
3022.000000	0.017454
3021.000000	0.017430
3020.000000	0.017411
3019.000000	0.017392
3018.000000	0.017366
3017.000000	0.017332
3016.000000	0.017291
3015.000000	0.017252
3014.000000	0.017221
3013.000000	0.017202
3012.000000	0.017188
3011.000000	0.017174
3010.000000	0.017158
3009.000000	0.017147
3008.000000	0.017149
3007.000000	0.017162
3006.000000	0.017183
3005.000000	0.017207
3004.000000	0.017235
3003.000000	0.017267
3002.000000	0.017297
3001.000000	0.017320
3000.000000	0.017338
2999.000000	0.017359
2998.000000	0.017392
2997.000000	0.017432
2996.000000	0.017473
2995.000000	0.017516
2994.000000	0.017569
2993.000000	0.017639
2992.000000	0.017724
2991.000000	0.017810
2990.000000	0.017890
2989.000000	0.017970
2988.000000	0.018061
2987.000000	0.018170
2986.000000	0.018300
2985.000000	0.018448
2984.000000	0.018607
2983.000000	0.018772
2982.000000	0.018938
2981.000000	0.019108
2980.000000	0.019281
2979.000000	0.019457
2978.000000	0.019633
2977.000000	0.019807
2976.000000	0.019983
2975.000000	0.020167
2974.000000	0.020358
2973.000000	0.020554
2972.000000	0.020753
2971.000000	0.020963
2970.000000	0.021195
2969.000000	0.021452
2968.000000	0.021728
2967.000000	0.022009
2966.000000	0.022286
2965.000000	0.022549
2964.000000	0.022795
2963.000000	0.023022
2962.000000	0.023228
2961.000000	0.023409
2960.000000	0.023559
2959.000000	0.023684
2958.000000	0.023793
2957.000000	0.023897
2956.000000	0.023997
2955.000000	0.024083
2954.000000	0.024144
2953.000000	0.024178
2952.000000	0.024191
2951.000000	0.024191
2950.000000	0.024190
2949.000000	0.024203
2948.000000	0.024242
2947.000000	0.024313
2946.000000	0.024417
2945.000000	0.024554
2944.000000	0.024722
2943.000000	0.024918
2942.000000	0.025144
2941.000000	0.025404
2940.000000	0.025712
2939.000000	0.026074
2938.000000	0.026480
2937.000000	0.026910
2936.000000	0.027347
2935.000000	0.027791
2934.000000	0.028253
2933.000000	0.028740
2932.000000	0.029246
2931.000000	0.029752
2930.000000	0.030240
2929.000000	0.030695
2928.000000	0.031114
2927.000000	0.031506
2926.000000	0.031879
2925.000000	0.032232
2924.000000	0.032550
2923.000000	0.032810
2922.000000	0.032994
2921.000000	0.033093
2920.000000	0.033100
2919.000000	0.033003
2918.000000	0.032778
2917.000000	0.032399
2916.000000	0.031863
2915.000000	0.031202
2914.000000	0.030469
2913.000000	0.029720
2912.000000	0.028997
2911.000000	0.028328
2910.000000	0.027732
2909.000000	0.027217
2908.000000	0.026771
2907.000000	0.026378
2906.000000	0.026022
2905.000000	0.025701
2904.000000	0.025415
2903.000000	0.025157
2902.000000	0.024914
2901.000000	0.024674
2900.000000	0.024443
2899.000000	0.024232
2898.000000	0.024045
2897.000000	0.023869
2896.000000	0.023690
2895.000000	0.023506
2894.000000	0.023327
2893.000000	0.023164
2892.000000	0.023015
2891.000000	0.022874
2890.000000	0.022735
2889.000000	0.022603
2888.000000	0.022483
2887.000000	0.022380
2886.000000	0.022291
2885.000000	0.022210
2884.000000	0.022135
2883.000000	0.022068
2882.000000	0.022021
2881.000000	0.022003
2880.000000	0.022015
2879.000000	0.022048
2878.000000	0.022089
2877.000000	0.022128
2876.000000	0.022167
2875.000000	0.022215
2874.000000	0.022277
2873.000000	0.022340
2872.000000	0.022379
2871.000000	0.022373
2870.000000	0.022330
2869.000000	0.022275
2868.000000	0.022232
2867.000000	0.022209
2866.000000	0.022198
2865.000000	0.022198
2864.000000	0.022224
2863.000000	0.022298
2862.000000	0.022442
2861.000000	0.022667
2860.000000	0.022970
2859.000000	0.023334
2858.000000	0.023734
2857.000000	0.024149
2856.000000	0.024569
2855.000000	0.024987
2854.000000	0.025393
2853.000000	0.025760
2852.000000	0.026036
2851.000000	0.026149
2850.000000	0.026027
2849.000000	0.025642
2848.000000	0.025023
2847.000000	0.024251
2846.000000	0.023427
2845.000000	0.022637
2844.000000	0.021933
2843.000000	0.021326
2842.000000	0.020808
2841.000000	0.020366
2840.000000	0.019994
2839.000000	0.019683
2838.000000	0.019418
2837.000000	0.019188
2836.000000	0.018984
2835.000000	0.018805
2834.000000	0.018646
2833.000000	0.018507
2832.000000	0.018386
2831.000000	0.018279
2830.000000	0.018176
2829.000000	0.018067
2828.000000	0.017952
2827.000000	0.017837
2826.000000	0.017730
2825.000000	0.017644
2824.000000	0.017578
2823.000000	0.017524
2822.000000	0.017459
2821.000000	0.017373
2820.000000	0.017275
2819.000000	0.017183
2818.000000	0.017111
2817.000000	0.017052
2816.000000	0.016994
2815.000000	0.016934
2814.000000	0.016873
2813.000000	0.016813
2812.000000	0.016755
2811.000000	0.016702
2810.000000	0.016656
2809.000000	0.016616
2808.000000	0.016581
2807.000000	0.016548
2806.000000	0.016518
2805.000000	0.016488
2804.000000	0.016456
2803.000000	0.016414
2802.000000	0.016359
2801.000000	0.016295
2800.000000	0.016235
2799.000000	0.016193
2798.000000	0.016171
2797.000000	0.016153
2796.000000	0.016125
2795.000000	0.016088
2794.000000	0.016053
2793.000000	0.016028
2792.000000	0.016012
2791.000000	0.015996
2790.000000	0.015976
2789.000000	0.015948
2788.000000	0.015915
2787.000000	0.015883
2786.000000	0.015859
2785.000000	0.015843
2784.000000	0.015826
2783.000000	0.015804
2782.000000	0.015776
2781.000000	0.015746
2780.000000	0.015714
2779.000000	0.015684
2778.000000	0.015657
2777.000000	0.015632
2776.000000	0.015604
2775.000000	0.015570
2774.000000	0.015532
2773.000000	0.015495
2772.000000	0.015463
2771.000000	0.015438
2770.000000	0.015422
2769.000000	0.015414
2768.000000	0.015410
2767.000000	0.015405
2766.000000	0.015394
2765.000000	0.015370
2764.000000	0.015331
2763.000000	0.015288
2762.000000	0.015251
2761.000000	0.015227
2760.000000	0.015210
2759.000000	0.015196
2758.000000	0.015185
2757.000000	0.015184
2756.000000	0.015193
2755.000000	0.015208
2754.000000	0.015218
2753.000000	0.015212
2752.000000	0.015188
2751.000000	0.015150
2750.000000	0.015112
2749.000000	0.015082
2748.000000	0.015057
2747.000000	0.015029
2746.000000	0.014995
2745.000000	0.014960
2744.000000	0.014935
2743.000000	0.014927
2742.000000	0.014934
2741.000000	0.014947
2740.000000	0.014962
2739.000000	0.014976
2738.000000	0.014985
2737.000000	0.014981
2736.000000	0.014963
2735.000000	0.014935
2734.000000	0.014904
2733.000000	0.014873
2732.000000	0.014846
2731.000000	0.014829
2730.000000	0.014826
2729.000000	0.014829
2728.000000	0.014824
2727.000000	0.014806
2726.000000	0.014778
2725.000000	0.014743
2724.000000	0.014704
2723.000000	0.014666
2722.000000	0.014638
2721.000000	0.014624
2720.000000	0.014622
2719.000000	0.014626
2718.000000	0.014631
2717.000000	0.014633
2716.000000	0.014624
2715.000000	0.014602
2714.000000	0.014575
2713.000000	0.014552
2712.000000	0.014541
2711.000000	0.014538
2710.000000	0.014537
2709.000000	0.014530
2708.000000	0.014512
2707.000000	0.014484
2706.000000	0.014454
2705.000000	0.014436
2704.000000	0.014433
2703.000000	0.014440
2702.000000	0.014446
2701.000000	0.014442
2700.000000	0.014425
2699.000000	0.014401
2698.000000	0.014381
2697.000000	0.014370
2696.000000	0.014361
2695.000000	0.014349
2694.000000	0.014332
2693.000000	0.014314
2692.000000	0.014298
2691.000000	0.014289
2690.000000	0.014288
2689.000000	0.014295
2688.000000	0.014306
2687.000000	0.014315
2686.000000	0.014320
2685.000000	0.014320
2684.000000	0.014316
2683.000000	0.014306
2682.000000	0.014289
2681.000000	0.014268
2680.000000	0.014248
2679.000000	0.014235
2678.000000	0.014233
2677.000000	0.014235
2676.000000	0.014232
2675.000000	0.014216
2674.000000	0.014191
2673.000000	0.014163
2672.000000	0.014139
2671.000000	0.014124
2670.000000	0.014120
2669.000000	0.014126
2668.000000	0.014133
2667.000000	0.014129
2666.000000	0.014113
2665.000000	0.014094
2664.000000	0.014081
2663.000000	0.014079
2662.000000	0.014083
2661.000000	0.014083
2660.000000	0.014069
2659.000000	0.014038
2658.000000	0.013997
2657.000000	0.013956
2656.000000	0.013918
2655.000000	0.013885
2654.000000	0.013854
2653.000000	0.013826
2652.000000	0.013802
2651.000000	0.013778
2650.000000	0.013753
2649.000000	0.013726
2648.000000	0.013699
2647.000000	0.013669
2646.000000	0.013631
2645.000000	0.013586
2644.000000	0.013541
2643.000000	0.013506
2642.000000	0.013488
2641.000000	0.013482
2640.000000	0.013477
2639.000000	0.013465
2638.000000	0.013446
2637.000000	0.013418
2636.000000	0.013380
2635.000000	0.013336
2634.000000	0.013295
2633.000000	0.013264
2632.000000	0.013239
2631.000000	0.013213
2630.000000	0.013183
2629.000000	0.013158
2628.000000	0.013142
2627.000000	0.013130
2626.000000	0.013117
2625.000000	0.013103
2624.000000	0.013089
2623.000000	0.013072
2622.000000	0.013047
2621.000000	0.013016
2620.000000	0.012988
2619.000000	0.012970
2618.000000	0.012958
2617.000000	0.012945
2616.000000	0.012923
2615.000000	0.012889
2614.000000	0.012848
2613.000000	0.012806
2612.000000	0.012770
2611.000000	0.012745
2610.000000	0.012731
2609.000000	0.012719
2608.000000	0.012701
2607.000000	0.012678
2606.000000	0.012659
2605.000000	0.012647
2604.000000	0.012632
2603.000000	0.012612
2602.000000	0.012597
2601.000000	0.012599
2600.000000	0.012616
2599.000000	0.012626
2598.000000	0.012609
2597.000000	0.012576
2596.000000	0.012552
2595.000000	0.012556
2594.000000	0.012580
2593.000000	0.012594
2592.000000	0.012578
2591.000000	0.012539
2590.000000	0.012500
2589.000000	0.012481
2588.000000	0.012480
2587.000000	0.012486
2586.000000	0.012492
2585.000000	0.012491
2584.000000	0.012474
2583.000000	0.012439
2582.000000	0.012396
2581.000000	0.012353
2580.000000	0.012317
2579.000000	0.012289
2578.000000	0.012280
2577.000000	0.012295
2576.000000	0.012318
2575.000000	0.012322
2574.000000	0.012296
2573.000000	0.012257
2572.000000	0.012233
2571.000000	0.012235
2570.000000	0.012255
2569.000000	0.012274
2568.000000	0.012276
2567.000000	0.012258
2566.000000	0.012227
2565.000000	0.012197
2564.000000	0.012178
2563.000000	0.012178
2562.000000	0.012196
2561.000000	0.012217
2560.000000	0.012216
2559.000000	0.012186
2558.000000	0.012140
2557.000000	0.012105
2556.000000	0.012090
2555.000000	0.012086
2554.000000	0.012082
2553.000000	0.012071
2552.000000	0.012051
2551.000000	0.012025
2550.000000	0.012001
2549.000000	0.011991
2548.000000	0.011997
2547.000000	0.012009
2546.000000	0.012013
2545.000000	0.012009
2544.000000	0.012003
2543.000000	0.012002
2542.000000	0.012002
2541.000000	0.011995
2540.000000	0.011980
2539.000000	0.011975
2538.000000	0.011994
2537.000000	0.012032
2536.000000	0.012064
2535.000000	0.012069
2534.000000	0.012051
2533.000000	0.012026
2532.000000	0.012000
2531.000000	0.011971
2530.000000	0.011938
2529.000000	0.011903
2528.000000	0.011879
2527.000000	0.011881
2526.000000	0.011916
2525.000000	0.011972
2524.000000	0.012024
2523.000000	0.012051
2522.000000	0.012053
2521.000000	0.012036
2520.000000	0.012001
2519.000000	0.011957
2518.000000	0.011919
2517.000000	0.011904
2516.000000	0.011910
2515.000000	0.011926
2514.000000	0.011943
2513.000000	0.011954
2512.000000	0.011952
2511.000000	0.011932
2510.000000	0.011901
2509.000000	0.011874
2508.000000	0.011856
2507.000000	0.011842
2506.000000	0.011833
2505.000000	0.011832
2504.000000	0.011844
2503.000000	0.011866
2502.000000	0.011888
2501.000000	0.011897
2500.000000	0.011891
2499.000000	0.011878
2498.000000	0.011873
2497.000000	0.011871
2496.000000	0.011844
2495.000000	0.011776
2494.000000	0.011692
2493.000000	0.011636
2492.000000	0.011628
2491.000000	0.011654
2490.000000	0.011688
2489.000000	0.011714
2488.000000	0.011723
2487.000000	0.011713
2486.000000	0.011694
2485.000000	0.011681
2484.000000	0.011677
2483.000000	0.011670
2482.000000	0.011649
2481.000000	0.011618
2480.000000	0.011595
2479.000000	0.011598
2478.000000	0.011628
2477.000000	0.011665
2476.000000	0.011681
2475.000000	0.011663
2474.000000	0.011634
2473.000000	0.011621
2472.000000	0.011624
2471.000000	0.011616
2470.000000	0.011583
2469.000000	0.011537
2468.000000	0.011498
2467.000000	0.011474
2466.000000	0.011462
2465.000000	0.011455
2464.000000	0.011450
2463.000000	0.011452
2462.000000	0.011467
2461.000000	0.011494
2460.000000	0.011519
2459.000000	0.011534
2458.000000	0.011552
2457.000000	0.011588
2456.000000	0.011632
2455.000000	0.011656
2454.000000	0.011645
2453.000000	0.011617
2452.000000	0.011593
2451.000000	0.011577
2450.000000	0.011559
2449.000000	0.011539
2448.000000	0.011524
2447.000000	0.011520
2446.000000	0.011529
2445.000000	0.011542
2444.000000	0.011550
2443.000000	0.011546
2442.000000	0.011535
2441.000000	0.011530
2440.000000	0.011531
2439.000000	0.011526
2438.000000	0.011505
2437.000000	0.011477
2436.000000	0.011459
2435.000000	0.011461
2434.000000	0.011482
2433.000000	0.011506
2432.000000	0.011514
2431.000000	0.011496
2430.000000	0.011466
2429.000000	0.011440
2428.000000	0.011421
2427.000000	0.011399
2426.000000	0.011373
2425.000000	0.011354
2424.000000	0.011354
2423.000000	0.011366
2422.000000	0.011378
2421.000000	0.011384
2420.000000	0.011387
2419.000000	0.011390
2418.000000	0.011394
2417.000000	0.011393
2416.000000	0.011378
2415.000000	0.011354
2414.000000	0.011342
2413.000000	0.011360
2412.000000	0.011396
2411.000000	0.011422
2410.000000	0.011420
2409.000000	0.011400
2408.000000	0.011383
2407.000000	0.011376
2406.000000	0.011369
2405.000000	0.011354
2404.000000	0.011328
2403.000000	0.011304
2402.000000	0.011302
2401.000000	0.011329
2400.000000	0.011368
2399.000000	0.011389
2398.000000	0.011377
2397.000000	0.011344
2396.000000	0.011317
2395.000000	0.011313
2394.000000	0.011341
2393.000000	0.011388
2392.000000	0.011427
2391.000000	0.011430
2390.000000	0.011392
2389.000000	0.011339
2388.000000	0.011309
2387.000000	0.011320
2386.000000	0.011358
2385.000000	0.011391
2384.000000	0.011399
2383.000000	0.011382
2382.000000	0.011352
2381.000000	0.011318
2380.000000	0.011284
2379.000000	0.011261
2378.000000	0.011266
2377.000000	0.011303
2376.000000	0.011358
2375.000000	0.011411
2374.000000	0.011455
2373.000000	0.011475
2372.000000	0.011450
2371.000000	0.011377
2370.000000	0.011288
2369.000000	0.011222
2368.000000	0.011196
2367.000000	0.011208
2366.000000	0.011253
2365.000000	0.011320
2364.000000	0.011387
2363.000000	0.011452
2362.000000	0.011519
2361.000000	0.011583
2360.000000	0.011629
2359.000000	0.011646
2358.000000	0.011630
2357.000000	0.011576
2356.000000	0.011510
2355.000000	0.011480
2354.000000	0.011483
2353.000000	0.011476
2352.000000	0.011443
2351.000000	0.011425
2350.000000	0.011448
2349.000000	0.011503
2348.000000	0.011550
2347.000000	0.011545
2346.000000	0.011501
2345.000000	0.011494
2344.000000	0.011551
2343.000000	0.011621
2342.000000	0.011645
2341.000000	0.011614
2340.000000	0.011570
2339.000000	0.011556
2338.000000	0.011567
2337.000000	0.011579
2336.000000	0.011572
2335.000000	0.011534
2334.000000	0.011466
2333.000000	0.011385
2332.000000	0.011342
2331.000000	0.011362
2330.000000	0.011428
2329.000000	0.011500
2328.000000	0.011565
2327.000000	0.011624
2326.000000	0.011674
2325.000000	0.011697
2324.000000	0.011686
2323.000000	0.011646
2322.000000	0.011610
2321.000000	0.011614
2320.000000	0.011667
2319.000000	0.011736
2318.000000	0.011781
2317.000000	0.011776
2316.000000	0.011726
2315.000000	0.011642
2314.000000	0.011545
2313.000000	0.011452
2312.000000	0.011373
2311.000000	0.011300
2310.000000	0.011236
2309.000000	0.011195
2308.000000	0.011184
2307.000000	0.011182
2306.000000	0.011171
2305.000000	0.011150
2304.000000	0.011132
2303.000000	0.011116
2302.000000	0.011097
2301.000000	0.011079
2300.000000	0.011069
2299.000000	0.011057
2298.000000	0.011037
2297.000000	0.011022
2296.000000	0.011033
2295.000000	0.011074
2294.000000	0.011126
2293.000000	0.011167
2292.000000	0.011182
2291.000000	0.011164
2290.000000	0.011127
2289.000000	0.011106
2288.000000	0.011137
2287.000000	0.011211
2286.000000	0.011281
2285.000000	0.011306
2284.000000	0.011282
2283.000000	0.011234
2282.000000	0.011189
2281.000000	0.011165
2280.000000	0.011158
2279.000000	0.011144
2278.000000	0.011096
2277.000000	0.011007
2276.000000	0.010901
2275.000000	0.010805
2274.000000	0.010734
2273.000000	0.010693
2272.000000	0.010675
2271.000000	0.010670
2270.000000	0.010670
2269.000000	0.010671
2268.000000	0.010672
2267.000000	0.010673
2266.000000	0.010683
2265.000000	0.010706
2264.000000	0.010726
2263.000000	0.010715
2262.000000	0.010664
2261.000000	0.010598
2260.000000	0.010548
2259.000000	0.010517
2258.000000	0.010489
2257.000000	0.010455
2256.000000	0.010426
2255.000000	0.010408
2254.000000	0.010395
2253.000000	0.010384
2252.000000	0.010377
2251.000000	0.010370
2250.000000	0.010351
2249.000000	0.010308
2248.000000	0.010248
2247.000000	0.010206
2246.000000	0.010222
2245.000000	0.010306
2244.000000	0.010414
2243.000000	0.010478
2242.000000	0.010470
2241.000000	0.010426
2240.000000	0.010404
2239.000000	0.010437
2238.000000	0.010523
2237.000000	0.010634
2236.000000	0.010717
2235.000000	0.010717
2234.000000	0.010626
2233.000000	0.010491
2232.000000	0.010374
2231.000000	0.010296
2230.000000	0.010242
2229.000000	0.010208
2228.000000	0.010203
2227.000000	0.010224
2226.000000	0.010243
2225.000000	0.010241
2224.000000	0.010226
2223.000000	0.010227
2222.000000	0.010264
2221.000000	0.010329
2220.000000	0.010388
2219.000000	0.010406
2218.000000	0.010380
2217.000000	0.010349
2216.000000	0.010352
2215.000000	0.010391
2214.000000	0.010429
2213.000000	0.010432
2212.000000	0.010398
2211.000000	0.010351
2210.000000	0.010306
2209.000000	0.010253
2208.000000	0.010178
2207.000000	0.010097
2206.000000	0.010066
2205.000000	0.010117
2204.000000	0.010213
2203.000000	0.010276
2202.000000	0.010269
2201.000000	0.010218
2200.000000	0.010160
2199.000000	0.010087
2198.000000	0.009969
2197.000000	0.009814
2196.000000	0.009705
2195.000000	0.009739
2194.000000	0.009928
2193.000000	0.010159
2192.000000	0.010275
2191.000000	0.010219
2190.000000	0.010080
2189.000000	0.009977
2188.000000	0.009946
2187.000000	0.009963
2186.000000	0.010019
2185.000000	0.010123
2184.000000	0.010240
2183.000000	0.010290
2182.000000	0.010236
2181.000000	0.010118
2180.000000	0.010008
2179.000000	0.009957
2178.000000	0.009984
2177.000000	0.010062
2176.000000	0.010108
2175.000000	0.010044
2174.000000	0.009884
2173.000000	0.009725
2172.000000	0.009648
2171.000000	0.009668
2170.000000	0.009761
2169.000000	0.009885
2168.000000	0.009981
2167.000000	0.010013
2166.000000	0.010010
2165.000000	0.010028
2164.000000	0.010075
2163.000000	0.010101
2162.000000	0.010063
2161.000000	0.009920
2160.000000	0.009607
2159.000000	0.009123
2158.000000	0.008655
2157.000000	0.008444
2156.000000	0.008513
2155.000000	0.008685
2154.000000	0.008823
2153.000000	0.008934
2152.000000	0.009071
2151.000000	0.009238
2150.000000	0.009416
2149.000000	0.009594
2148.000000	0.009741
2147.000000	0.009796
2146.000000	0.009734
2145.000000	0.009605
2144.000000	0.009494
2143.000000	0.009448
2142.000000	0.009462
2141.000000	0.009494
2140.000000	0.009497
2139.000000	0.009455
2138.000000	0.009398
2137.000000	0.009363
2136.000000	0.009343
2135.000000	0.009317
2134.000000	0.009316
2133.000000	0.009405
2132.000000	0.009591
2131.000000	0.009793
2130.000000	0.009929
2129.000000	0.009983
2128.000000	0.009984
2127.000000	0.009971
2126.000000	0.009972
2125.000000	0.010006
2124.000000	0.010074
2123.000000	0.010156
2122.000000	0.010234
2121.000000	0.010296
2120.000000	0.010327
2119.000000	0.010325
2118.000000	0.010306
2117.000000	0.010289
2116.000000	0.010267
2115.000000	0.010227
2114.000000	0.010194
2113.000000	0.010216
2112.000000	0.010293
2111.000000	0.010358
2110.000000	0.010360
2109.000000	0.010322
2108.000000	0.010300
2107.000000	0.010303
2106.000000	0.010302
2105.000000	0.010285
2104.000000	0.010268
2103.000000	0.010252
2102.000000	0.010224
2101.000000	0.010184
2100.000000	0.010152
2099.000000	0.010139
2098.000000	0.010134
2097.000000	0.010118
2096.000000	0.010077
2095.000000	0.010013
2094.000000	0.009952
2093.000000	0.009935
2092.000000	0.009978
2091.000000	0.010054
2090.000000	0.010118
2089.000000	0.010148
2088.000000	0.010151
2087.000000	0.010139
2086.000000	0.010114
2085.000000	0.010073
2084.000000	0.010018
2083.000000	0.009968
2082.000000	0.009955
2081.000000	0.010001
2080.000000	0.010086
2079.000000	0.010160
2078.000000	0.010186
2077.000000	0.010163
2076.000000	0.010114
2075.000000	0.010063
2074.000000	0.010047
2073.000000	0.010089
2072.000000	0.010162
2071.000000	0.010181
2070.000000	0.010096
2069.000000	0.009953
2068.000000	0.009859
2067.000000	0.009860
2066.000000	0.009907
2065.000000	0.009920
2064.000000	0.009873
2063.000000	0.009784
2062.000000	0.009684
2061.000000	0.009598
2060.000000	0.009552
2059.000000	0.009562
2058.000000	0.009610
2057.000000	0.009655
2056.000000	0.009667
2055.000000	0.009651
2054.000000	0.009624
2053.000000	0.009580
2052.000000	0.009515
2051.000000	0.009476
2050.000000	0.009520
2049.000000	0.009622
2048.000000	0.009658
2047.000000	0.009544
2046.000000	0.009345
2045.000000	0.009189
2044.000000	0.009118
2043.000000	0.009075
2042.000000	0.009010
2041.000000	0.008916
2040.000000	0.008793
2039.000000	0.008655
2038.000000	0.008556
2037.000000	0.008545
2036.000000	0.008587
2035.000000	0.008597
2034.000000	0.008554
2033.000000	0.008500
2032.000000	0.008437
2031.000000	0.008320
2030.000000	0.008182
2029.000000	0.008144
2028.000000	0.008277
2027.000000	0.008517
2026.000000	0.008746
2025.000000	0.008881
2024.000000	0.008907
2023.000000	0.008863
2022.000000	0.008813
2021.000000	0.008781
2020.000000	0.008724
2019.000000	0.008606
2018.000000	0.008494
2017.000000	0.008487
2016.000000	0.008583
2015.000000	0.008678
2014.000000	0.008707
2013.000000	0.008693
2012.000000	0.008665
2011.000000	0.008609
2010.000000	0.008507
2009.000000	0.008366
2008.000000	0.008198
2007.000000	0.008037
2006.000000	0.007973
2005.000000	0.008079
2004.000000	0.008309
2003.000000	0.008543
2002.000000	0.008716
2001.000000	0.008845
2000.000000	0.008939
1999.000000	0.008973
1998.000000	0.008938
1997.000000	0.008871
1996.000000	0.008827
1995.000000	0.008848
1994.000000	0.008953
1993.000000	0.009108
1992.000000	0.009215
1991.000000	0.009198
1990.000000	0.009084
1989.000000	0.008964
1988.000000	0.008894
1987.000000	0.008889
1986.000000	0.008966
1985.000000	0.009123
1984.000000	0.009294
1983.000000	0.009421
1982.000000	0.009540
1981.000000	0.009702
1980.000000	0.009821
1979.000000	0.009738
1978.000000	0.009449
1977.000000	0.009157
1976.000000	0.009014
1975.000000	0.008963
1974.000000	0.008913
1973.000000	0.008897
1972.000000	0.008960
1971.000000	0.009029
1970.000000	0.008989
1969.000000	0.008828
1968.000000	0.008639
1967.000000	0.008528
1966.000000	0.008561
1965.000000	0.008736
1964.000000	0.008979
1963.000000	0.009182
1962.000000	0.009281
1961.000000	0.009269
1960.000000	0.009163
1959.000000	0.008999
1958.000000	0.008853
1957.000000	0.008812
1956.000000	0.008890
1955.000000	0.009020
1954.000000	0.009127
1953.000000	0.009183
1952.000000	0.009193
1951.000000	0.009177
1950.000000	0.009160
1949.000000	0.009154
1948.000000	0.009136
1947.000000	0.009083
1946.000000	0.009028
1945.000000	0.009024
1944.000000	0.009080
1943.000000	0.009157
1942.000000	0.009225
1941.000000	0.009287
1940.000000	0.009334
1939.000000	0.009352
1938.000000	0.009363
1937.000000	0.009411
1936.000000	0.009485
1935.000000	0.009536
1934.000000	0.009543
1933.000000	0.009528
1932.000000	0.009505
1931.000000	0.009456
1930.000000	0.009398
1929.000000	0.009385
1928.000000	0.009422
1927.000000	0.009443
1926.000000	0.009387
1925.000000	0.009282
1924.000000	0.009190
1923.000000	0.009137
1922.000000	0.009105
1921.000000	0.009075
1920.000000	0.009033
1919.000000	0.008970
1918.000000	0.008902
1917.000000	0.008868
1916.000000	0.008882
1915.000000	0.008921
1914.000000	0.008972
1913.000000	0.009051
1912.000000	0.009160
1911.000000	0.009258
1910.000000	0.009312
1909.000000	0.009322
1908.000000	0.009304
1907.000000	0.009265
1906.000000	0.009208
1905.000000	0.009164
1904.000000	0.009147
1903.000000	0.009139
1902.000000	0.009118
1901.000000	0.009082
1900.000000	0.009040
1899.000000	0.009010
1898.000000	0.009018
1897.000000	0.009091
1896.000000	0.009193
1895.000000	0.009241
1894.000000	0.009198
1893.000000	0.009123
1892.000000	0.009091
1891.000000	0.009113
1890.000000	0.009142
1889.000000	0.009140
1888.000000	0.009114
1887.000000	0.009082
1886.000000	0.009044
1885.000000	0.009005
1884.000000	0.008985
1883.000000	0.008991
1882.000000	0.009015
1881.000000	0.009041
1880.000000	0.009057
1879.000000	0.009054
1878.000000	0.009032
1877.000000	0.009007
1876.000000	0.009006
1875.000000	0.009032
1874.000000	0.009059
1873.000000	0.009057
1872.000000	0.009011
1871.000000	0.008943
1870.000000	0.008887
1869.000000	0.008859
1868.000000	0.008857
1867.000000	0.008889
1866.000000	0.008964
1865.000000	0.009057
1864.000000	0.009117
1863.000000	0.009104
1862.000000	0.009028
1861.000000	0.008939
1860.000000	0.008878
1859.000000	0.008858
1858.000000	0.008865
1857.000000	0.008875
1856.000000	0.008868
1855.000000	0.008840
1854.000000	0.008811
1853.000000	0.008803
1852.000000	0.008811
1851.000000	0.008830
1850.000000	0.008849
1849.000000	0.008855
1848.000000	0.008831
1847.000000	0.008790
1846.000000	0.008776
1845.000000	0.008809
1844.000000	0.008849
1843.000000	0.008857
1842.000000	0.008853
1841.000000	0.008865
1840.000000	0.008886
1839.000000	0.008888
1838.000000	0.008879
1837.000000	0.008896
1836.000000	0.008928
1835.000000	0.008912
1834.000000	0.008810
1833.000000	0.008665
1832.000000	0.008557
1831.000000	0.008537
1830.000000	0.008575
1829.000000	0.008613
1828.000000	0.008651
1827.000000	0.008711
1826.000000	0.008783
1825.000000	0.008834
1824.000000	0.008844
1823.000000	0.008831
1822.000000	0.008820
1821.000000	0.008813
1820.000000	0.008804
1819.000000	0.008789
1818.000000	0.008772
1817.000000	0.008762
1816.000000	0.008758
1815.000000	0.008761
1814.000000	0.008775
1813.000000	0.008793
1812.000000	0.008802
1811.000000	0.008788
1810.000000	0.008768
1809.000000	0.008775
1808.000000	0.008806
1807.000000	0.008828
1806.000000	0.008823
1805.000000	0.008812
1804.000000	0.008821
1803.000000	0.008849
1802.000000	0.008881
1801.000000	0.008888
1800.000000	0.008881
1799.000000	0.008892
1798.000000	0.008933
1797.000000	0.008971
1796.000000	0.008957
1795.000000	0.008889
1794.000000	0.008813
1793.000000	0.008767
1792.000000	0.008739
1791.000000	0.008701
1790.000000	0.008673
1789.000000	0.008675
1788.000000	0.008697
1787.000000	0.008713
1786.000000	0.008714
1785.000000	0.008700
1784.000000	0.008673
1783.000000	0.008646
1782.000000	0.008644
1781.000000	0.008646
1780.000000	0.008629
1779.000000	0.008599
1778.000000	0.008580
1777.000000	0.008563
1776.000000	0.008509
1775.000000	0.008413
1774.000000	0.008308
1773.000000	0.008210
1772.000000	0.008117
1771.000000	0.008071
1770.000000	0.008143
1769.000000	0.008323
1768.000000	0.008492
1767.000000	0.008541
1766.000000	0.008497
1765.000000	0.008453
1764.000000	0.008452
1763.000000	0.008470
1762.000000	0.008482
1761.000000	0.008499
1760.000000	0.008557
1759.000000	0.008658
1758.000000	0.008799
1757.000000	0.008946
1756.000000	0.009060
1755.000000	0.009166
1754.000000	0.009335
1753.000000	0.009599
1752.000000	0.009902
1751.000000	0.010150
1750.000000	0.010325
1749.000000	0.010505
1748.000000	0.010708
1747.000000	0.010902
1746.000000	0.011084
1745.000000	0.011266
1744.000000	0.011413
1743.000000	0.011465
1742.000000	0.011451
1741.000000	0.011487
1740.000000	0.011607
1739.000000	0.011698
1738.000000	0.011701
1737.000000	0.011699
1736.000000	0.011764
1735.000000	0.011862
1734.000000	0.011887
1733.000000	0.011824
1732.000000	0.011743
1731.000000	0.011650
1730.000000	0.011520
1729.000000	0.011353
1728.000000	0.011175
1727.000000	0.011006
1726.000000	0.010857
1725.000000	0.010742
1724.000000	0.010660
1723.000000	0.010545
1722.000000	0.010363
1721.000000	0.010174
1720.000000	0.010063
1719.000000	0.010043
1718.000000	0.010042
1717.000000	0.010017
1716.000000	0.010016
1715.000000	0.010077
1714.000000	0.010205
1713.000000	0.010418
1712.000000	0.010690
1711.000000	0.010959
1710.000000	0.011186
1709.000000	0.011377
1708.000000	0.011579
1707.000000	0.011853
1706.000000	0.012212
1705.000000	0.012590
1704.000000	0.012923
1703.000000	0.013237
1702.000000	0.013615
1701.000000	0.014155
1700.000000	0.014828
1699.000000	0.015508
1698.000000	0.016245
1697.000000	0.017130
1696.000000	0.018061
1695.000000	0.018847
1694.000000	0.019500
1693.000000	0.020160
1692.000000	0.020904
1691.000000	0.021670
1690.000000	0.022372
1689.000000	0.022988
1688.000000	0.023554
1687.000000	0.024127
1686.000000	0.024747
1685.000000	0.025483
1684.000000	0.026236
1683.000000	0.026906
1682.000000	0.027669
1681.000000	0.028571
1680.000000	0.029458
1679.000000	0.030184
1678.000000	0.030796
1677.000000	0.031459
1676.000000	0.032253
1675.000000	0.033088
1674.000000	0.033881
1673.000000	0.034667
1672.000000	0.035505
1671.000000	0.036378
1670.000000	0.037269
1669.000000	0.038190
1668.000000	0.039131
1667.000000	0.040022
1666.000000	0.040826
1665.000000	0.041598
1664.000000	0.042397
1663.000000	0.043198
1662.000000	0.043976
1661.000000	0.044768
1660.000000	0.045593
1659.000000	0.046373
1658.000000	0.047021
1657.000000	0.047558
1656.000000	0.048083
1655.000000	0.048631
1654.000000	0.049105
1653.000000	0.049414
1652.000000	0.049762
1651.000000	0.050240
1650.000000	0.050718
1649.000000	0.051205
1648.000000	0.051612
1647.000000	0.051771
1646.000000	0.051741
1645.000000	0.051812
1644.000000	0.052031
1643.000000	0.052255
1642.000000	0.052387
1641.000000	0.052385
1640.000000	0.052280
1639.000000	0.052139
1638.000000	0.051969
1637.000000	0.051676
1636.000000	0.051140
1635.000000	0.050512
1634.000000	0.050114
1633.000000	0.049981
1632.000000	0.049905
1631.000000	0.049689
1630.000000	0.049241
1629.000000	0.048589
1628.000000	0.047833
1627.000000	0.047075
1626.000000	0.046362
1625.000000	0.045646
1624.000000	0.044836
1623.000000	0.043915
1622.000000	0.043020
1621.000000	0.042286
1620.000000	0.041696
1619.000000	0.041112
1618.000000	0.040338
1617.000000	0.039280
1616.000000	0.038131
1615.000000	0.037198
1614.000000	0.036539
1613.000000	0.036004
1612.000000	0.035436
1611.000000	0.034786
1610.000000	0.034114
1609.000000	0.033467
1608.000000	0.032845
1607.000000	0.032258
1606.000000	0.031744
1605.000000	0.031294
1604.000000	0.030867
1603.000000	0.030449
1602.000000	0.030059
1601.000000	0.029719
1600.000000	0.029431
1599.000000	0.029189
1598.000000	0.028988
1597.000000	0.028813
1596.000000	0.028645
1595.000000	0.028486
1594.000000	0.028355
1593.000000	0.028268
1592.000000	0.028224
1591.000000	0.028220
1590.000000	0.028251
1589.000000	0.028304
1588.000000	0.028365
1587.000000	0.028438
1586.000000	0.028541
1585.000000	0.028687
1584.000000	0.028874
1583.000000	0.029112
1582.000000	0.029375
1581.000000	0.029608
1580.000000	0.029800
1579.000000	0.030023
1578.000000	0.030311
1577.000000	0.030595
1576.000000	0.030771
1575.000000	0.030868
1574.000000	0.031014
1573.000000	0.031240
1572.000000	0.031496
1571.000000	0.031736
1570.000000	0.031977
1569.000000	0.032268
1568.000000	0.032646
1567.000000	0.033114
1566.000000	0.033620
1565.000000	0.034098
1564.000000	0.034493
1563.000000	0.034832
1562.000000	0.035152
1561.000000	0.035424
1560.000000	0.035680
1559.000000	0.035913
1558.000000	0.036129
1557.000000	0.036700
1556.000000	0.037511
1555.000000	0.038305
1554.000000	0.038959
1553.000000	0.039486
1552.000000	0.039982
1551.000000	0.040478
1550.000000	0.040908
1549.000000	0.041251
1548.000000	0.041564
1547.000000	0.041902
1546.000000	0.042233
1545.000000	0.042481
1544.000000	0.042599
1543.000000	0.042634
1542.000000	0.042670
1541.000000	0.042733
1540.000000	0.042713
1539.000000	0.042639
1538.000000	0.042676
1537.000000	0.042789
1536.000000	0.042885
1535.000000	0.042880
1534.000000	0.042706
1533.000000	0.042418
1532.000000	0.042212
1531.000000	0.042149
1530.000000	0.042111
1529.000000	0.042012
1528.000000	0.041838
1527.000000	0.041586
1526.000000	0.041261
1525.000000	0.040930
1524.000000	0.040682
1523.000000	0.040507
1522.000000	0.040264
1521.000000	0.039875
1520.000000	0.039510
1519.000000	0.039335
1518.000000	0.039291
1517.000000	0.039210
1516.000000	0.038998
1515.000000	0.038738
1514.000000	0.038498
1513.000000	0.038220
1512.000000	0.037849
1511.000000	0.037417
1510.000000	0.037011
1509.000000	0.036630
1508.000000	0.036109
1507.000000	0.035182
1506.000000	0.034090
1505.000000	0.033467
1504.000000	0.033260
1503.000000	0.033137
1502.000000	0.032923
1501.000000	0.032550
1500.000000	0.032055
1499.000000	0.031545
1498.000000	0.031081
1497.000000	0.030645
1496.000000	0.030215
1495.000000	0.029813
1494.000000	0.029471
1493.000000	0.029186
1492.000000	0.028915
1491.000000	0.028605
1490.000000	0.028248
1489.000000	0.027910
1488.000000	0.027685
1487.000000	0.027565
1486.000000	0.027515
1485.000000	0.027530
1484.000000	0.027594
1483.000000	0.027693
1482.000000	0.027804
1481.000000	0.027935
1480.000000	0.028114
1479.000000	0.028358
1478.000000	0.028668
1477.000000	0.029034
1476.000000	0.029434
1475.000000	0.029860
1474.000000	0.030358
1473.000000	0.030946
1472.000000	0.031583
1471.000000	0.032236
1470.000000	0.032903
1469.000000	0.033544
1468.000000	0.034100
1467.000000	0.034536
1466.000000	0.034880
1465.000000	0.035172
1464.000000	0.035450
1463.000000	0.035747
1462.000000	0.036052
1461.000000	0.036340
1460.000000	0.036607
1459.000000	0.036900
1458.000000	0.037263
1457.000000	0.037662
1456.000000	0.038053
1455.000000	0.038452
1454.000000	0.038851
1453.000000	0.039217
1452.000000	0.039486
1451.000000	0.039631
1450.000000	0.039710
1449.000000	0.039772
1448.000000	0.039797
1447.000000	0.039781
1446.000000	0.039798
1445.000000	0.039860
1444.000000	0.039922
1443.000000	0.039942
1442.000000	0.039919
1441.000000	0.039871
1440.000000	0.039796
1439.000000	0.039692
1438.000000	0.039553
1437.000000	0.039386
1436.000000	0.039212
1435.000000	0.039108
1434.000000	0.039098
1433.000000	0.039117
1432.000000	0.039071
1431.000000	0.038940
1430.000000	0.038781
1429.000000	0.038655
1428.000000	0.038575
1427.000000	0.038538
1426.000000	0.038554
1425.000000	0.038573
1424.000000	0.038510
1423.000000	0.038359
1422.000000	0.038214
1421.000000	0.038133
1420.000000	0.038079
1419.000000	0.037993
1418.000000	0.037883
1417.000000	0.037809
1416.000000	0.037756
1415.000000	0.037672
1414.000000	0.037554
1413.000000	0.037430
1412.000000	0.037295
1411.000000	0.037122
1410.000000	0.036914
1409.000000	0.036709
1408.000000	0.036525
1407.000000	0.036346
1406.000000	0.036164
1405.000000	0.035968
1404.000000	0.035755
1403.000000	0.035549
1402.000000	0.035381
1401.000000	0.035246
1400.000000	0.035095
1399.000000	0.034890
1398.000000	0.034661
1397.000000	0.034453
1396.000000	0.034241
1395.000000	0.033972
1394.000000	0.033669
1393.000000	0.033401
1392.000000	0.033181
1391.000000	0.032971
1390.000000	0.032746
1389.000000	0.032501
1388.000000	0.032227
1387.000000	0.031916
1386.000000	0.031607
1385.000000	0.031346
1384.000000	0.031129
1383.000000	0.030917
1382.000000	0.030691
1381.000000	0.030467
1380.000000	0.030253
1379.000000	0.030029
1378.000000	0.029781
1377.000000	0.029509
1376.000000	0.029216
1375.000000	0.028895
1374.000000	0.028547
1373.000000	0.028206
1372.000000	0.027910
1371.000000	0.027655
1370.000000	0.027405
1369.000000	0.027126
1368.000000	0.026802
1367.000000	0.026453
1366.000000	0.026118
1365.000000	0.025824
1364.000000	0.025572
1363.000000	0.025330
1362.000000	0.025075
1361.000000	0.024824
1360.000000	0.024612
1359.000000	0.024448
1358.000000	0.024325
1357.000000	0.024231
1356.000000	0.024161
1355.000000	0.024111
1354.000000	0.024072
1353.000000	0.024043
1352.000000	0.024033
1351.000000	0.024049
1350.000000	0.024094
1349.000000	0.024157
1348.000000	0.024227
1347.000000	0.024305
1346.000000	0.024394
1345.000000	0.024496
1344.000000	0.024618
1343.000000	0.024768
1342.000000	0.024953
1341.000000	0.025148
1340.000000	0.025307
1339.000000	0.025399
1338.000000	0.025438
1337.000000	0.025456
1336.000000	0.025455
1335.000000	0.025413
1334.000000	0.025326
1333.000000	0.025212
1332.000000	0.025092
1331.000000	0.024973
1330.000000	0.024854
1329.000000	0.024739
1328.000000	0.024631
1327.000000	0.024529
1326.000000	0.024432
1325.000000	0.024345
1324.000000	0.024274
1323.000000	0.024222
1322.000000	0.024182
1321.000000	0.024142
1320.000000	0.024100
1319.000000	0.024053
1318.000000	0.024003
1317.000000	0.023952
1316.000000	0.023905
1315.000000	0.023862
1314.000000	0.023811
1313.000000	0.023730
1312.000000	0.023612
1311.000000	0.023471
1310.000000	0.023332
1309.000000	0.023206
1308.000000	0.023091
1307.000000	0.022977
1306.000000	0.022860
1305.000000	0.022745
1304.000000	0.022638
1303.000000	0.022536
1302.000000	0.022433
1301.000000	0.022324
1300.000000	0.022211
1299.000000	0.022098
1298.000000	0.021991
1297.000000	0.021901
1296.000000	0.021842
1295.000000	0.021822
1294.000000	0.021833
1293.000000	0.021856
1292.000000	0.021881
1291.000000	0.021909
1290.000000	0.021949
1289.000000	0.022005
1288.000000	0.022076
1287.000000	0.022153
1286.000000	0.022233
1285.000000	0.022316
1284.000000	0.022410
1283.000000	0.022512
1282.000000	0.022609
1281.000000	0.022682
1280.000000	0.022727
1279.000000	0.022750
1278.000000	0.022768
1277.000000	0.022795
1276.000000	0.022839
1275.000000	0.022894
1274.000000	0.022953
1273.000000	0.023009
1272.000000	0.023065
1271.000000	0.023125
1270.000000	0.023197
1269.000000	0.023290
1268.000000	0.023411
1267.000000	0.023556
1266.000000	0.023708
1265.000000	0.023859
1264.000000	0.024014
1263.000000	0.024178
1262.000000	0.024338
1261.000000	0.024483
1260.000000	0.024623
1259.000000	0.024781
1258.000000	0.024958
1257.000000	0.025130
1256.000000	0.025270
1255.000000	0.025380
1254.000000	0.025488
1253.000000	0.025620
1252.000000	0.025779
1251.000000	0.025947
1250.000000	0.026098
1249.000000	0.026225
1248.000000	0.026341
1247.000000	0.026470
1246.000000	0.026618
1245.000000	0.026769
1244.000000	0.026899
1243.000000	0.027003
1242.000000	0.027086
1241.000000	0.027152
1240.000000	0.027194
1239.000000	0.027207
1238.000000	0.027197
1237.000000	0.027169
1236.000000	0.027116
1235.000000	0.027026
1234.000000	0.026895
1233.000000	0.026731
1232.000000	0.026543
1231.000000	0.026339
1230.000000	0.026124
1229.000000	0.025898
1228.000000	0.025654
1227.000000	0.025382
1226.000000	0.025084
1225.000000	0.024768
1224.000000	0.024441
1223.000000	0.024107
1222.000000	0.023773
1221.000000	0.023441
1220.000000	0.023114
1219.000000	0.022794
1218.000000	0.022498
1217.000000	0.022250
1216.000000	0.022064
1215.000000	0.021935
1214.000000	0.021842
1213.000000	0.021761
1212.000000	0.021678
1211.000000	0.021595
1210.000000	0.021527
1209.000000	0.021489
1208.000000	0.021486
1207.000000	0.021506
1206.000000	0.021534
1205.000000	0.021555
1204.000000	0.021563
1203.000000	0.021550
1202.000000	0.021506
1201.000000	0.021431
1200.000000	0.021336
1199.000000	0.021229
1198.000000	0.021112
1197.000000	0.020981
1196.000000	0.020837
1195.000000	0.020679
1194.000000	0.020507
1193.000000	0.020325
1192.000000	0.020141
1191.000000	0.019969
1190.000000	0.019821
1189.000000	0.019694
1188.000000	0.019583
1187.000000	0.019474
1186.000000	0.019361
1185.000000	0.019245
1184.000000	0.019148
1183.000000	0.019091
1182.000000	0.019073
1181.000000	0.019072
1180.000000	0.019072
1179.000000	0.019083
1178.000000	0.019125
1177.000000	0.019206
1176.000000	0.019311
1175.000000	0.019419
1174.000000	0.019517
1173.000000	0.019610
1172.000000	0.019709
1171.000000	0.019820
1170.000000	0.019944
1169.000000	0.020075
1168.000000	0.020211
1167.000000	0.020360
1166.000000	0.020526
1165.000000	0.020697
1164.000000	0.020856
1163.000000	0.020997
1162.000000	0.021127
1161.000000	0.021252
1160.000000	0.021352
1159.000000	0.021400
1158.000000	0.021388
1157.000000	0.021332
1156.000000	0.021255
1155.000000	0.021161
1154.000000	0.021044
1153.000000	0.020903
1152.000000	0.020750
1151.000000	0.020594
1150.000000	0.020435
1149.000000	0.020268
1148.000000	0.020090
1147.000000	0.019906
1146.000000	0.019715
1145.000000	0.019516
1144.000000	0.019307
1143.000000	0.019093
1142.000000	0.018891
1141.000000	0.018715
1140.000000	0.018575
1139.000000	0.018470
1138.000000	0.018390
1137.000000	0.018323
1136.000000	0.018262
1135.000000	0.018213
1134.000000	0.018184
1133.000000	0.018184
1132.000000	0.018210
1131.000000	0.018258
1130.000000	0.018321
1129.000000	0.018392
1128.000000	0.018466
1127.000000	0.018545
1126.000000	0.018630
1125.000000	0.018723
1124.000000	0.018815
1123.000000	0.018895
1122.000000	0.018967
1121.000000	0.019051
1120.000000	0.019167
1119.000000	0.019310
1118.000000	0.019463
1117.000000	0.019614
1116.000000	0.019767
1115.000000	0.019926
1114.000000	0.020081
1113.000000	0.020221
1112.000000	0.020346
1111.000000	0.020464
1110.000000	0.020570
1109.000000	0.020654
1108.000000	0.020710
1107.000000	0.020750
1106.000000	0.020792
1105.000000	0.020849
1104.000000	0.020921
1103.000000	0.020999
1102.000000	0.021070
1101.000000	0.021126
1100.000000	0.021168
1099.000000	0.021215
1098.000000	0.021281
1097.000000	0.021365
1096.000000	0.021449
1095.000000	0.021524
1094.000000	0.021598
1093.000000	0.021690
1092.000000	0.021805
1091.000000	0.021949
1090.000000	0.022136
1089.000000	0.022386
1088.000000	0.022686
1087.000000	0.022990
1086.000000	0.023257
1085.000000	0.023486
1084.000000	0.023697
1083.000000	0.023898
1082.000000	0.024073
1081.000000	0.024206
1080.000000	0.024286
1079.000000	0.024303
1078.000000	0.024255
1077.000000	0.024149
1076.000000	0.024002
1075.000000	0.023823
1074.000000	0.023620
1073.000000	0.023410
1072.000000	0.023219
1071.000000	0.023069
1070.000000	0.022968
1069.000000	0.022916
1068.000000	0.022909
1067.000000	0.022935
1066.000000	0.022980
1065.000000	0.023040
1064.000000	0.023128
1063.000000	0.023263
1062.000000	0.023449
1061.000000	0.023657
1060.000000	0.023839
1059.000000	0.023961
1058.000000	0.024019
1057.000000	0.024048
1056.000000	0.024088
1055.000000	0.024157
1054.000000	0.024245
1053.000000	0.024338
1052.000000	0.024427
1051.000000	0.024515
1050.000000	0.024607
1049.000000	0.024707
1048.000000	0.024816
1047.000000	0.024921
1046.000000	0.025006
1045.000000	0.025068
1044.000000	0.025116
1043.000000	0.025169
1042.000000	0.025244
1041.000000	0.025354
1040.000000	0.025504
1039.000000	0.025687
1038.000000	0.025896
1037.000000	0.026129
1036.000000	0.026388
1035.000000	0.026662
1034.000000	0.026933
1033.000000	0.027190
1032.000000	0.027438
1031.000000	0.027682
1030.000000	0.027914
1029.000000	0.028123
1028.000000	0.028312
1027.000000	0.028492
1026.000000	0.028668
1025.000000	0.028844
1024.000000	0.029041
1023.000000	0.029290
1022.000000	0.029601
1021.000000	0.029939
1020.000000	0.030242
1019.000000	0.030459
1018.000000	0.030569
1017.000000	0.030568
1016.000000	0.030448
1015.000000	0.030201
1014.000000	0.029825
1013.000000	0.029331
1012.000000	0.028752
1011.000000	0.028130
1010.000000	0.027510
1009.000000	0.026908
1008.000000	0.026324
1007.000000	0.025768
1006.000000	0.025255
1005.000000	0.024791
1004.000000	0.024370
1003.000000	0.023984
1002.000000	0.023639
1001.000000	0.023332
1000.000000	0.023045
999.000000	0.022757
998.000000	0.022464
997.000000	0.022175
996.000000	0.021893
995.000000	0.021610
994.000000	0.021323
993.000000	0.021035
992.000000	0.020749
991.000000	0.020464
990.000000	0.020173
989.000000	0.019869
988.000000	0.019553
987.000000	0.019233
986.000000	0.018918
985.000000	0.018612
984.000000	0.018315
983.000000	0.018029
982.000000	0.017762
981.000000	0.017515
980.000000	0.017281
979.000000	0.017048
978.000000	0.016811
977.000000	0.016576
976.000000	0.016355
975.000000	0.016157
974.000000	0.015981
973.000000	0.015820
972.000000	0.015663
971.000000	0.015497
970.000000	0.015317
969.000000	0.015126
968.000000	0.014937
967.000000	0.014756
966.000000	0.014574
965.000000	0.014380
964.000000	0.014169
963.000000	0.013955
962.000000	0.013751
961.000000	0.013565
960.000000	0.013396
959.000000	0.013237
958.000000	0.013077
957.000000	0.012905
956.000000	0.012720
955.000000	0.012532
954.000000	0.012357
953.000000	0.012205
952.000000	0.012079
951.000000	0.011978
950.000000	0.011894
949.000000	0.011807
948.000000	0.011707
947.000000	0.011602
946.000000	0.011517
945.000000	0.011471
944.000000	0.011458
943.000000	0.011460
942.000000	0.011457
941.000000	0.011441
940.000000	0.011414
939.000000	0.011382
938.000000	0.011350
937.000000	0.011307
936.000000	0.011240
935.000000	0.011150
934.000000	0.011066
933.000000	0.011010
932.000000	0.010972
931.000000	0.010915
930.000000	0.010823
929.000000	0.010717
928.000000	0.010635
927.000000	0.010600
926.000000	0.010609
925.000000	0.010647
924.000000	0.010686
923.000000	0.010683
922.000000	0.010614
921.000000	0.010496
920.000000	0.010378
919.000000	0.010289
918.000000	0.010218
917.000000	0.010137
916.000000	0.010040
915.000000	0.009936
914.000000	0.009834
913.000000	0.009736
912.000000	0.009637
911.000000	0.009527
910.000000	0.009403
909.000000	0.009284
908.000000	0.009199
907.000000	0.009157
906.000000	0.009127
905.000000	0.009074
904.000000	0.009004
903.000000	0.008945
902.000000	0.008905
901.000000	0.008864
900.000000	0.008805
899.000000	0.008729
898.000000	0.008645
897.000000	0.008555
896.000000	0.008461
895.000000	0.008378
894.000000	0.008318
893.000000	0.008278
892.000000	0.008244
891.000000	0.008201
890.000000	0.008156
889.000000	0.008138
888.000000	0.008187
887.000000	0.008329
886.000000	0.008561
885.000000	0.008861
884.000000	0.009210
883.000000	0.009618
882.000000	0.010120
881.000000	0.010760
880.000000	0.011551
879.000000	0.012435
878.000000	0.013278
877.000000	0.013930
876.000000	0.014281
875.000000	0.014288
874.000000	0.013962
873.000000	0.013355
872.000000	0.012563
871.000000	0.011708
870.000000	0.010908
869.000000	0.010248
868.000000	0.009764
867.000000	0.009443
866.000000	0.009235
865.000000	0.009090
864.000000	0.008982
863.000000	0.008903
862.000000	0.008840
861.000000	0.008780
860.000000	0.008730
859.000000	0.008712
858.000000	0.008733
857.000000	0.008767
856.000000	0.008785
855.000000	0.008778
854.000000	0.008759
853.000000	0.008739
852.000000	0.008728
851.000000	0.008741
850.000000	0.008782
849.000000	0.008818
848.000000	0.008795
847.000000	0.008682
846.000000	0.008506
845.000000	0.008339
844.000000	0.008238
843.000000	0.008215
842.000000	0.008233
841.000000	0.008256
840.000000	0.008269
839.000000	0.008281
838.000000	0.008296
837.000000	0.008306
836.000000	0.008298
835.000000	0.008268
834.000000	0.008233
833.000000	0.008218
832.000000	0.008241
831.000000	0.008292
830.000000	0.008346
829.000000	0.008377
828.000000	0.008373
827.000000	0.008334
826.000000	0.008278
825.000000	0.008234
824.000000	0.008227
823.000000	0.008253
822.000000	0.008285
821.000000	0.008303
820.000000	0.008309
819.000000	0.008310
818.000000	0.008299
817.000000	0.008272
816.000000	0.008240
815.000000	0.008218
814.000000	0.008213
813.000000	0.008230
812.000000	0.008270
811.000000	0.008328
810.000000	0.008372
809.000000	0.008373
808.000000	0.008333
807.000000	0.008280
806.000000	0.008242
805.000000	0.008220
804.000000	0.008208
803.000000	0.008204
802.000000	0.008222
801.000000	0.008274
800.000000	0.008355
799.000000	0.008435
798.000000	0.008484
797.000000	0.008498
796.000000	0.008491
795.000000	0.008473
794.000000	0.008442
793.000000	0.008408
792.000000	0.008407
791.000000	0.008461
790.000000	0.008540
789.000000	0.008592
788.000000	0.008594
787.000000	0.008571
786.000000	0.008564
785.000000	0.008585
784.000000	0.008617
783.000000	0.008643
782.000000	0.008662
781.000000	0.008688
780.000000	0.008724
779.000000	0.008751
778.000000	0.008740
777.000000	0.008688
776.000000	0.008623
775.000000	0.008579
774.000000	0.008570
773.000000	0.008587
772.000000	0.008614
771.000000	0.008633
770.000000	0.008648
769.000000	0.008690
768.000000	0.008780
767.000000	0.008885
766.000000	0.008928
765.000000	0.008870
764.000000	0.008761
763.000000	0.008682
762.000000	0.008665
761.000000	0.008679
760.000000	0.008697
759.000000	0.008722
758.000000	0.008766
757.000000	0.008823
756.000000	0.008876
755.000000	0.008911
754.000000	0.008907
753.000000	0.008852
752.000000	0.008764
751.000000	0.008691
750.000000	0.008673
749.000000	0.008716
748.000000	0.008797
747.000000	0.008879
746.000000	0.008929
745.000000	0.008926
744.000000	0.008880
743.000000	0.008825
742.000000	0.008801
741.000000	0.008829
740.000000	0.008899
739.000000	0.008969
738.000000	0.009006
737.000000	0.009021
736.000000	0.009066
735.000000	0.009169
734.000000	0.009301
733.000000	0.009407
732.000000	0.009470
731.000000	0.009508
730.000000	0.009535
729.000000	0.009562
728.000000	0.009622
727.000000	0.009743
726.000000	0.009920
725.000000	0.010116
724.000000	0.010313
723.000000	0.010518
722.000000	0.010726
721.000000	0.010905
720.000000	0.011015
719.000000	0.011049
718.000000	0.011046
717.000000	0.011076
716.000000	0.011208
715.000000	0.011456
714.000000	0.011741
713.000000	0.011931
712.000000	0.011952
711.000000	0.011849
710.000000	0.011736
709.000000	0.011703
708.000000	0.011764
707.000000	0.011858
706.000000	0.011923
705.000000	0.011964
704.000000	0.012029
703.000000	0.012134
702.000000	0.012218
701.000000	0.012210
700.000000	0.012120
699.000000	0.012024
698.000000	0.011968
697.000000	0.011939
696.000000	0.011919
695.000000	0.011917
694.000000	0.011926
693.000000	0.011900
692.000000	0.011834
691.000000	0.011785
690.000000	0.011800
689.000000	0.011859
688.000000	0.011906
687.000000	0.011938
686.000000	0.011983
685.000000	0.012042
684.000000	0.012096
683.000000	0.012135
682.000000	0.012164
681.000000	0.012198
680.000000	0.012276
679.000000	0.012416
678.000000	0.012564
677.000000	0.012680
676.000000	0.012802
675.000000	0.013011
674.000000	0.013300
673.000000	0.013560
672.000000	0.013694
671.000000	0.013686
670.000000	0.013551
669.000000	0.013296
668.000000	0.013122
667.000000	0.013238
666.000000	0.013330
665.000000	0.013385
664.000000	0.013450
663.000000	0.013452
662.000000	0.013355
661.000000	0.013212
660.000000	0.013075
659.000000	0.012943
658.000000	0.012811
657.000000	0.012725
656.000000	0.012705
655.000000	0.012698
654.000000	0.012667
653.000000	0.012649
652.000000	0.012656
651.000000	0.012649
650.000000	0.012608
649.000000	0.012568
648.000000	0.012540
647.000000	0.012479
646.000000	0.012379
645.000000	0.012302
644.000000	0.012299
643.000000	0.012362
642.000000	0.012457
641.000000	0.012557
640.000000	0.012630
639.000000	0.012637
638.000000	0.012579
637.000000	0.012512
636.000000	0.012473
635.000000	0.012459
634.000000	0.012462
633.000000	0.012471
632.000000	0.012459
631.000000	0.012412
630.000000	0.012369
629.000000	0.012387
628.000000	0.012460
627.000000	0.012529
626.000000	0.012577
625.000000	0.012636
624.000000	0.012716
623.000000	0.012773
622.000000	0.012772
621.000000	0.012728
620.000000	0.012683
619.000000	0.012680
618.000000	0.012752
617.000000	0.012885
616.000000	0.013001
615.000000	0.013026
614.000000	0.012987
613.000000	0.012975
612.000000	0.013024
611.000000	0.013082
610.000000	0.013096
609.000000	0.013063
608.000000	0.012990
607.000000	0.012886
606.000000	0.012803
605.000000	0.012801
604.000000	0.012859
603.000000	0.012894
602.000000	0.012859
601.000000	0.012780
600.000000	0.012675
599.000000	0.012527
598.000000	0.012355
597.000000	0.012226
596.000000	0.012163
595.000000	0.012108
594.000000	0.012025
593.000000	0.011965
592.000000	0.011984
591.000000	0.012042
590.000000	0.012055
589.000000	0.012008
588.000000	0.011949
587.000000	0.011902
586.000000	0.011857
585.000000	0.011829
584.000000	0.011869
583.000000	0.011998
582.000000	0.012174
581.000000	0.012323
580.000000	0.012395
579.000000	0.012391
578.000000	0.012340
577.000000	0.012268
576.000000	0.012173
575.000000	0.012062
574.000000	0.011997
573.000000	0.012056
572.000000	0.012240
571.000000	0.012449
570.000000	0.012574
569.000000	0.012601
568.000000	0.012591
567.000000	0.012597
566.000000	0.012631
565.000000	0.012685
564.000000	0.012750
563.000000	0.012803
562.000000	0.012820
561.000000	0.012783
560.000000	0.012696
559.000000	0.012587
558.000000	0.012504
557.000000	0.012466
556.000000	0.012441
555.000000	0.012396
554.000000	0.012360
553.000000	0.012376
552.000000	0.012429
551.000000	0.012449
550.000000	0.012404
549.000000	0.012331
548.000000	0.012268
547.000000	0.012223
546.000000	0.012208
545.000000	0.012229
544.000000	0.012234
543.000000	0.012167
542.000000	0.012075
541.000000	0.012082
540.000000	0.012220
539.000000	0.012361
538.000000	0.012373
537.000000	0.012282
536.000000	0.012229
535.000000	0.012310
534.000000	0.012509
533.000000	0.012732
532.000000	0.012864
531.000000	0.012824
530.000000	0.012633
529.000000	0.012393
528.000000	0.012197
527.000000	0.012073
526.000000	0.012004
525.000000	0.011948
524.000000	0.011835
523.000000	0.011622
522.000000	0.011377
521.000000	0.011222
520.000000	0.011173
519.000000	0.011103
518.000000	0.010921
517.000000	0.010699
516.000000	0.010559
515.000000	0.010506
514.000000	0.010446
513.000000	0.010292
512.000000	0.010017
511.000000	0.009671
510.000000	0.009388
509.000000	0.009321
508.000000	0.009496
507.000000	0.009768
506.000000	0.009950
505.000000	0.009963
504.000000	0.009820
503.000000	0.009554
502.000000	0.009256
501.000000	0.009080
500.000000	0.009103
499.000000	0.009237
498.000000	0.009317
497.000000	0.009254
496.000000	0.009066
495.000000	0.008846
494.000000	0.008730
493.000000	0.008822
492.000000	0.009058
491.000000	0.009206
490.000000	0.009103
489.000000	0.008829
488.000000	0.008588
487.000000	0.008466
486.000000	0.008405
485.000000	0.008358
484.000000	0.008354
483.000000	0.008411
482.000000	0.008489
481.000000	0.008557
480.000000	0.008627
479.000000	0.008703
478.000000	0.008768
477.000000	0.008826
476.000000	0.008913
475.000000	0.009076
474.000000	0.009344
473.000000	0.009693
472.000000	0.010039
471.000000	0.010319
470.000000	0.010589
469.000000	0.010959
468.000000	0.011419
467.000000	0.011815
466.000000	0.012048
465.000000	0.012178
464.000000	0.012259
463.000000	0.012176
462.000000	0.011777
461.000000	0.011087
460.000000	0.010249
459.000000	0.009382
458.000000	0.008648
457.000000	0.008310
456.000000	0.008463
455.000000	0.008837
454.000000	0.009053
453.000000	0.008957
452.000000	0.008678
451.000000	0.008400
450.000000	0.008156
