PE IR       SUBTECH     SPECTRUM    ASCII       PEDS        4.00        
   -1
3G-N10-F019_1.ASC
22/02/24
10:44:09.00
22/02/24
11:04:21.00
uco
Sample 019 By uco Date Thursday, February 24 2022
450.000000
#HDR
-1
-1
#GR
cm-1
A
1.0
0.0
4000.000000
-1.000000
3551
8
0.066335
0.007718
#DATA
4000.000000	0.008955
3999.000000	0.008964
3998.000000	0.008971
3997.000000	0.008969
3996.000000	0.008957
3995.000000	0.008941
3994.000000	0.008927
3993.000000	0.008925
3992.000000	0.008939
3991.000000	0.008968
3990.000000	0.009003
3989.000000	0.009032
3988.000000	0.009045
3987.000000	0.009044
3986.000000	0.009035
3985.000000	0.009026
3984.000000	0.009023
3983.000000	0.009027
3982.000000	0.009037
3981.000000	0.009052
3980.000000	0.009069
3979.000000	0.009085
3978.000000	0.009099
3977.000000	0.009107
3976.000000	0.009107
3975.000000	0.009096
3974.000000	0.009074
3973.000000	0.009046
3972.000000	0.009017
3971.000000	0.008994
3970.000000	0.008983
3969.000000	0.008994
3968.000000	0.009030
3967.000000	0.009081
3966.000000	0.009130
3965.000000	0.009163
3964.000000	0.009173
3963.000000	0.009165
3962.000000	0.009147
3961.000000	0.009123
3960.000000	0.009093
3959.000000	0.009061
3958.000000	0.009034
3957.000000	0.009025
3956.000000	0.009043
3955.000000	0.009082
3954.000000	0.009127
3953.000000	0.009160
3952.000000	0.009173
3951.000000	0.009171
3950.000000	0.009167
3949.000000	0.009167
3948.000000	0.009167
3947.000000	0.009159
3946.000000	0.009141
3945.000000	0.009122
3944.000000	0.009118
3943.000000	0.009138
3942.000000	0.009177
3941.000000	0.009215
3940.000000	0.009233
3939.000000	0.009223
3938.000000	0.009198
3937.000000	0.009174
3936.000000	0.009166
3935.000000	0.009173
3934.000000	0.009182
3933.000000	0.009181
3932.000000	0.009169
3931.000000	0.009154
3930.000000	0.009148
3929.000000	0.009154
3928.000000	0.009169
3927.000000	0.009182
3926.000000	0.009189
3925.000000	0.009188
3924.000000	0.009183
3923.000000	0.009181
3922.000000	0.009184
3921.000000	0.009192
3920.000000	0.009199
3919.000000	0.009202
3918.000000	0.009201
3917.000000	0.009199
3916.000000	0.009197
3915.000000	0.009197
3914.000000	0.009193
3913.000000	0.009184
3912.000000	0.009172
3911.000000	0.009158
3910.000000	0.009149
3909.000000	0.009145
3908.000000	0.009149
3907.000000	0.009160
3906.000000	0.009180
3905.000000	0.009213
3904.000000	0.009253
3903.000000	0.009285
3902.000000	0.009294
3901.000000	0.009280
3900.000000	0.009255
3899.000000	0.009237
3898.000000	0.009232
3897.000000	0.009237
3896.000000	0.009242
3895.000000	0.009240
3894.000000	0.009231
3893.000000	0.009220
3892.000000	0.009219
3891.000000	0.009234
3890.000000	0.009260
3889.000000	0.009284
3888.000000	0.009292
3887.000000	0.009279
3886.000000	0.009248
3885.000000	0.009216
3884.000000	0.009196
3883.000000	0.009188
3882.000000	0.009189
3881.000000	0.009197
3880.000000	0.009212
3879.000000	0.009228
3878.000000	0.009238
3877.000000	0.009238
3876.000000	0.009231
3875.000000	0.009220
3874.000000	0.009217
3873.000000	0.009224
3872.000000	0.009235
3871.000000	0.009245
3870.000000	0.009254
3869.000000	0.009267
3868.000000	0.009286
3867.000000	0.009308
3866.000000	0.009329
3865.000000	0.009342
3864.000000	0.009344
3863.000000	0.009332
3862.000000	0.009304
3861.000000	0.009267
3860.000000	0.009233
3859.000000	0.009210
3858.000000	0.009199
3857.000000	0.009196
3856.000000	0.009197
3855.000000	0.009200
3854.000000	0.009210
3853.000000	0.009229
3852.000000	0.009248
3851.000000	0.009262
3850.000000	0.009273
3849.000000	0.009279
3848.000000	0.009279
3847.000000	0.009273
3846.000000	0.009262
3845.000000	0.009247
3844.000000	0.009227
3843.000000	0.009204
3842.000000	0.009182
3841.000000	0.009167
3840.000000	0.009164
3839.000000	0.009176
3838.000000	0.009196
3837.000000	0.009214
3836.000000	0.009223
3835.000000	0.009227
3834.000000	0.009231
3833.000000	0.009236
3832.000000	0.009242
3831.000000	0.009251
3830.000000	0.009263
3829.000000	0.009275
3828.000000	0.009278
3827.000000	0.009267
3826.000000	0.009249
3825.000000	0.009236
3824.000000	0.009236
3823.000000	0.009241
3822.000000	0.009241
3821.000000	0.009237
3820.000000	0.009233
3819.000000	0.009234
3818.000000	0.009231
3817.000000	0.009214
3816.000000	0.009176
3815.000000	0.009128
3814.000000	0.009090
3813.000000	0.009077
3812.000000	0.009091
3811.000000	0.009124
3810.000000	0.009159
3809.000000	0.009186
3808.000000	0.009199
3807.000000	0.009203
3806.000000	0.009206
3805.000000	0.009212
3804.000000	0.009213
3803.000000	0.009200
3802.000000	0.009170
3801.000000	0.009136
3800.000000	0.009115
3799.000000	0.009112
3798.000000	0.009120
3797.000000	0.009129
3796.000000	0.009127
3795.000000	0.009111
3794.000000	0.009086
3793.000000	0.009064
3792.000000	0.009056
3791.000000	0.009067
3790.000000	0.009087
3789.000000	0.009105
3788.000000	0.009113
3787.000000	0.009108
3786.000000	0.009096
3785.000000	0.009083
3784.000000	0.009074
3783.000000	0.009072
3782.000000	0.009075
3781.000000	0.009079
3780.000000	0.009079
3779.000000	0.009077
3778.000000	0.009074
3777.000000	0.009070
3776.000000	0.009066
3775.000000	0.009065
3774.000000	0.009072
3773.000000	0.009085
3772.000000	0.009094
3771.000000	0.009092
3770.000000	0.009082
3769.000000	0.009072
3768.000000	0.009063
3767.000000	0.009050
3766.000000	0.009032
3765.000000	0.009018
3764.000000	0.009013
3763.000000	0.009014
3762.000000	0.009011
3761.000000	0.009003
3760.000000	0.009001
3759.000000	0.009014
3758.000000	0.009040
3757.000000	0.009063
3756.000000	0.009072
3755.000000	0.009066
3754.000000	0.009053
3753.000000	0.009053
3752.000000	0.009085
3751.000000	0.009149
3750.000000	0.009212
3749.000000	0.009241
3748.000000	0.009235
3747.000000	0.009211
3746.000000	0.009181
3745.000000	0.009149
3744.000000	0.009110
3743.000000	0.009059
3742.000000	0.009005
3741.000000	0.008959
3740.000000	0.008933
3739.000000	0.008929
3738.000000	0.008943
3737.000000	0.008963
3736.000000	0.008972
3735.000000	0.008964
3734.000000	0.008947
3733.000000	0.008936
3732.000000	0.008938
3731.000000	0.008946
3730.000000	0.008952
3729.000000	0.008953
3728.000000	0.008955
3727.000000	0.008967
3726.000000	0.008997
3725.000000	0.009039
3724.000000	0.009074
3723.000000	0.009077
3722.000000	0.009041
3721.000000	0.008983
3720.000000	0.008934
3719.000000	0.008916
3718.000000	0.008926
3717.000000	0.008944
3716.000000	0.008952
3715.000000	0.008946
3714.000000	0.008943
3713.000000	0.008962
3712.000000	0.009003
3711.000000	0.009045
3710.000000	0.009061
3709.000000	0.009045
3708.000000	0.009011
3707.000000	0.008975
3706.000000	0.008950
3705.000000	0.008937
3704.000000	0.008931
3703.000000	0.008927
3702.000000	0.008923
3701.000000	0.008926
3700.000000	0.008942
3699.000000	0.008974
3698.000000	0.009017
3697.000000	0.009058
3696.000000	0.009085
3695.000000	0.009093
3694.000000	0.009088
3693.000000	0.009081
3692.000000	0.009077
3691.000000	0.009075
3690.000000	0.009065
3689.000000	0.009044
3688.000000	0.009017
3687.000000	0.009000
3686.000000	0.009001
3685.000000	0.009014
3684.000000	0.009031
3683.000000	0.009051
3682.000000	0.009079
3681.000000	0.009130
3680.000000	0.009217
3679.000000	0.009343
3678.000000	0.009489
3677.000000	0.009606
3676.000000	0.009648
3675.000000	0.009616
3674.000000	0.009555
3673.000000	0.009503
3672.000000	0.009468
3671.000000	0.009438
3670.000000	0.009411
3669.000000	0.009388
3668.000000	0.009369
3667.000000	0.009353
3666.000000	0.009341
3665.000000	0.009337
3664.000000	0.009339
3663.000000	0.009344
3662.000000	0.009348
3661.000000	0.009350
3660.000000	0.009351
3659.000000	0.009350
3658.000000	0.009349
3657.000000	0.009358
3656.000000	0.009394
3655.000000	0.009461
3654.000000	0.009552
3653.000000	0.009646
3652.000000	0.009720
3651.000000	0.009757
3650.000000	0.009762
3649.000000	0.009761
3648.000000	0.009766
3647.000000	0.009771
3646.000000	0.009775
3645.000000	0.009777
3644.000000	0.009779
3643.000000	0.009778
3642.000000	0.009776
3641.000000	0.009778
3640.000000	0.009792
3639.000000	0.009829
3638.000000	0.009889
3637.000000	0.009963
3636.000000	0.010033
3635.000000	0.010079
3634.000000	0.010099
3633.000000	0.010113
3632.000000	0.010146
3631.000000	0.010216
3630.000000	0.010318
3629.000000	0.010423
3628.000000	0.010488
3627.000000	0.010503
3626.000000	0.010490
3625.000000	0.010474
3624.000000	0.010470
3623.000000	0.010479
3622.000000	0.010499
3621.000000	0.010530
3620.000000	0.010573
3619.000000	0.010629
3618.000000	0.010686
3617.000000	0.010735
3616.000000	0.010777
3615.000000	0.010821
3614.000000	0.010874
3613.000000	0.010942
3612.000000	0.011020
3611.000000	0.011099
3610.000000	0.011168
3609.000000	0.011214
3608.000000	0.011235
3607.000000	0.011243
3606.000000	0.011260
3605.000000	0.011300
3604.000000	0.011360
3603.000000	0.011425
3602.000000	0.011488
3601.000000	0.011546
3600.000000	0.011603
3599.000000	0.011661
3598.000000	0.011715
3597.000000	0.011759
3596.000000	0.011791
3595.000000	0.011816
3594.000000	0.011842
3593.000000	0.011878
3592.000000	0.011931
3591.000000	0.011996
3590.000000	0.012060
3589.000000	0.012115
3588.000000	0.012163
3587.000000	0.012218
3586.000000	0.012284
3585.000000	0.012354
3584.000000	0.012417
3583.000000	0.012470
3582.000000	0.012519
3581.000000	0.012576
3580.000000	0.012649
3579.000000	0.012736
3578.000000	0.012827
3577.000000	0.012916
3576.000000	0.013000
3575.000000	0.013082
3574.000000	0.013160
3573.000000	0.013230
3572.000000	0.013289
3571.000000	0.013348
3570.000000	0.013420
3569.000000	0.013516
3568.000000	0.013628
3567.000000	0.013730
3566.000000	0.013797
3565.000000	0.013828
3564.000000	0.013839
3563.000000	0.013857
3562.000000	0.013898
3561.000000	0.013967
3560.000000	0.014054
3559.000000	0.014149
3558.000000	0.014243
3557.000000	0.014336
3556.000000	0.014429
3555.000000	0.014521
3554.000000	0.014605
3553.000000	0.014678
3552.000000	0.014737
3551.000000	0.014786
3550.000000	0.014831
3549.000000	0.014883
3548.000000	0.014948
3547.000000	0.015027
3546.000000	0.015110
3545.000000	0.015185
3544.000000	0.015247
3543.000000	0.015304
3542.000000	0.015365
3541.000000	0.015434
3540.000000	0.015500
3539.000000	0.015559
3538.000000	0.015617
3537.000000	0.015686
3536.000000	0.015771
3535.000000	0.015863
3534.000000	0.015947
3533.000000	0.016016
3532.000000	0.016074
3531.000000	0.016135
3530.000000	0.016208
3529.000000	0.016298
3528.000000	0.016397
3527.000000	0.016493
3526.000000	0.016575
3525.000000	0.016638
3524.000000	0.016688
3523.000000	0.016732
3522.000000	0.016779
3521.000000	0.016835
3520.000000	0.016904
3519.000000	0.016982
3518.000000	0.017064
3517.000000	0.017140
3516.000000	0.017207
3515.000000	0.017262
3514.000000	0.017308
3513.000000	0.017350
3512.000000	0.017392
3511.000000	0.017443
3510.000000	0.017506
3509.000000	0.017581
3508.000000	0.017663
3507.000000	0.017751
3506.000000	0.017843
3505.000000	0.017931
3504.000000	0.018004
3503.000000	0.018054
3502.000000	0.018086
3501.000000	0.018113
3500.000000	0.018149
3499.000000	0.018202
3498.000000	0.018272
3497.000000	0.018352
3496.000000	0.018430
3495.000000	0.018501
3494.000000	0.018567
3493.000000	0.018634
3492.000000	0.018703
3491.000000	0.018769
3490.000000	0.018828
3489.000000	0.018878
3488.000000	0.018923
3487.000000	0.018969
3486.000000	0.019023
3485.000000	0.019084
3484.000000	0.019148
3483.000000	0.019213
3482.000000	0.019280
3481.000000	0.019350
3480.000000	0.019420
3479.000000	0.019483
3478.000000	0.019539
3477.000000	0.019592
3476.000000	0.019647
3475.000000	0.019709
3474.000000	0.019778
3473.000000	0.019851
3472.000000	0.019921
3471.000000	0.019985
3470.000000	0.020046
3469.000000	0.020107
3468.000000	0.020166
3467.000000	0.020222
3466.000000	0.020272
3465.000000	0.020322
3464.000000	0.020380
3463.000000	0.020447
3462.000000	0.020518
3461.000000	0.020580
3460.000000	0.020623
3459.000000	0.020654
3458.000000	0.020692
3457.000000	0.020755
3456.000000	0.020842
3455.000000	0.020941
3454.000000	0.021038
3453.000000	0.021121
3452.000000	0.021184
3451.000000	0.021230
3450.000000	0.021270
3449.000000	0.021315
3448.000000	0.021370
3447.000000	0.021429
3446.000000	0.021488
3445.000000	0.021550
3444.000000	0.021612
3443.000000	0.021669
3442.000000	0.021717
3441.000000	0.021765
3440.000000	0.021821
3439.000000	0.021891
3438.000000	0.021965
3437.000000	0.022035
3436.000000	0.022099
3435.000000	0.022163
3434.000000	0.022226
3433.000000	0.022286
3432.000000	0.022341
3431.000000	0.022401
3430.000000	0.022479
3429.000000	0.022578
3428.000000	0.022679
3427.000000	0.022760
3426.000000	0.022813
3425.000000	0.022850
3424.000000	0.022886
3423.000000	0.022932
3422.000000	0.022989
3421.000000	0.023056
3420.000000	0.023135
3419.000000	0.023217
3418.000000	0.023290
3417.000000	0.023348
3416.000000	0.023395
3415.000000	0.023442
3414.000000	0.023498
3413.000000	0.023561
3412.000000	0.023627
3411.000000	0.023693
3410.000000	0.023764
3409.000000	0.023843
3408.000000	0.023928
3407.000000	0.024011
3406.000000	0.024083
3405.000000	0.024142
3404.000000	0.024189
3403.000000	0.024232
3402.000000	0.024273
3401.000000	0.024314
3400.000000	0.024357
3399.000000	0.024405
3398.000000	0.024465
3397.000000	0.024535
3396.000000	0.024611
3395.000000	0.024685
3394.000000	0.024753
3393.000000	0.024811
3392.000000	0.024864
3391.000000	0.024912
3390.000000	0.024956
3389.000000	0.024997
3388.000000	0.025037
3387.000000	0.025084
3386.000000	0.025144
3385.000000	0.025222
3384.000000	0.025317
3383.000000	0.025414
3382.000000	0.025497
3381.000000	0.025554
3380.000000	0.025587
3379.000000	0.025614
3378.000000	0.025658
3377.000000	0.025728
3376.000000	0.025818
3375.000000	0.025912
3374.000000	0.026001
3373.000000	0.026087
3372.000000	0.026176
3371.000000	0.026273
3370.000000	0.026378
3369.000000	0.026484
3368.000000	0.026581
3367.000000	0.026668
3366.000000	0.026746
3365.000000	0.026818
3364.000000	0.026884
3363.000000	0.026945
3362.000000	0.027005
3361.000000	0.027074
3360.000000	0.027156
3359.000000	0.027250
3358.000000	0.027351
3357.000000	0.027454
3356.000000	0.027554
3355.000000	0.027651
3354.000000	0.027743
3353.000000	0.027831
3352.000000	0.027918
3351.000000	0.028006
3350.000000	0.028100
3349.000000	0.028203
3348.000000	0.028314
3347.000000	0.028428
3346.000000	0.028538
3345.000000	0.028634
3344.000000	0.028715
3343.000000	0.028789
3342.000000	0.028865
3341.000000	0.028948
3340.000000	0.029031
3339.000000	0.029108
3338.000000	0.029181
3337.000000	0.029256
3336.000000	0.029339
3335.000000	0.029430
3334.000000	0.029525
3333.000000	0.029619
3332.000000	0.029711
3331.000000	0.029799
3330.000000	0.029881
3329.000000	0.029951
3328.000000	0.030009
3327.000000	0.030064
3326.000000	0.030128
3325.000000	0.030202
3324.000000	0.030278
3323.000000	0.030346
3322.000000	0.030405
3321.000000	0.030462
3320.000000	0.030527
3319.000000	0.030606
3318.000000	0.030701
3317.000000	0.030804
3316.000000	0.030900
3315.000000	0.030973
3314.000000	0.031023
3313.000000	0.031059
3312.000000	0.031089
3311.000000	0.031117
3310.000000	0.031137
3309.000000	0.031151
3308.000000	0.031165
3307.000000	0.031195
3306.000000	0.031248
3305.000000	0.031321
3304.000000	0.031399
3303.000000	0.031470
3302.000000	0.031533
3301.000000	0.031586
3300.000000	0.031626
3299.000000	0.031648
3298.000000	0.031654
3297.000000	0.031659
3296.000000	0.031677
3295.000000	0.031711
3294.000000	0.031756
3293.000000	0.031803
3292.000000	0.031844
3291.000000	0.031875
3290.000000	0.031899
3289.000000	0.031921
3288.000000	0.031946
3287.000000	0.031971
3286.000000	0.031990
3285.000000	0.031989
3284.000000	0.031962
3283.000000	0.031918
3282.000000	0.031871
3281.000000	0.031834
3280.000000	0.031809
3279.000000	0.031789
3278.000000	0.031768
3277.000000	0.031744
3276.000000	0.031716
3275.000000	0.031683
3274.000000	0.031641
3273.000000	0.031586
3272.000000	0.031516
3271.000000	0.031441
3270.000000	0.031378
3269.000000	0.031340
3268.000000	0.031324
3267.000000	0.031312
3266.000000	0.031284
3265.000000	0.031237
3264.000000	0.031183
3263.000000	0.031131
3262.000000	0.031081
3261.000000	0.031023
3260.000000	0.030951
3259.000000	0.030872
3258.000000	0.030799
3257.000000	0.030739
3256.000000	0.030683
3255.000000	0.030615
3254.000000	0.030524
3253.000000	0.030422
3252.000000	0.030327
3251.000000	0.030252
3250.000000	0.030191
3249.000000	0.030129
3248.000000	0.030057
3247.000000	0.029977
3246.000000	0.029900
3245.000000	0.029827
3244.000000	0.029749
3243.000000	0.029663
3242.000000	0.029576
3241.000000	0.029502
3240.000000	0.029449
3239.000000	0.029409
3238.000000	0.029372
3237.000000	0.029330
3236.000000	0.029286
3235.000000	0.029240
3234.000000	0.029188
3233.000000	0.029126
3232.000000	0.029055
3231.000000	0.028985
3230.000000	0.028924
3229.000000	0.028876
3228.000000	0.028834
3227.000000	0.028795
3226.000000	0.028754
3225.000000	0.028709
3224.000000	0.028659
3223.000000	0.028604
3222.000000	0.028549
3221.000000	0.028493
3220.000000	0.028437
3219.000000	0.028381
3218.000000	0.028330
3217.000000	0.028284
3216.000000	0.028243
3215.000000	0.028200
3214.000000	0.028150
3213.000000	0.028089
3212.000000	0.028016
3211.000000	0.027936
3210.000000	0.027855
3209.000000	0.027782
3208.000000	0.027725
3207.000000	0.027690
3206.000000	0.027675
3205.000000	0.027669
3204.000000	0.027649
3203.000000	0.027600
3202.000000	0.027525
3201.000000	0.027443
3200.000000	0.027371
3199.000000	0.027310
3198.000000	0.027252
3197.000000	0.027189
3196.000000	0.027119
3195.000000	0.027051
3194.000000	0.026989
3193.000000	0.026931
3192.000000	0.026871
3191.000000	0.026801
3190.000000	0.026723
3189.000000	0.026647
3188.000000	0.026582
3187.000000	0.026525
3186.000000	0.026464
3185.000000	0.026386
3184.000000	0.026294
3183.000000	0.026203
3182.000000	0.026129
3181.000000	0.026079
3180.000000	0.026048
3179.000000	0.026017
3178.000000	0.025968
3177.000000	0.025886
3176.000000	0.025781
3175.000000	0.025674
3174.000000	0.025587
3173.000000	0.025522
3172.000000	0.025468
3171.000000	0.025410
3170.000000	0.025345
3169.000000	0.025272
3168.000000	0.025189
3167.000000	0.025094
3166.000000	0.024989
3165.000000	0.024885
3164.000000	0.024792
3163.000000	0.024721
3162.000000	0.024670
3161.000000	0.024635
3160.000000	0.024605
3159.000000	0.024568
3158.000000	0.024508
3157.000000	0.024419
3156.000000	0.024305
3155.000000	0.024187
3154.000000	0.024089
3153.000000	0.024023
3152.000000	0.023988
3151.000000	0.023966
3150.000000	0.023934
3149.000000	0.023874
3148.000000	0.023787
3147.000000	0.023695
3146.000000	0.023620
3145.000000	0.023571
3144.000000	0.023532
3143.000000	0.023485
3142.000000	0.023430
3141.000000	0.023378
3140.000000	0.023337
3139.000000	0.023303
3138.000000	0.023263
3137.000000	0.023209
3136.000000	0.023143
3135.000000	0.023071
3134.000000	0.022995
3133.000000	0.022917
3132.000000	0.022839
3131.000000	0.022769
3130.000000	0.022718
3129.000000	0.022696
3128.000000	0.022696
3127.000000	0.022700
3126.000000	0.022689
3125.000000	0.022657
3124.000000	0.022612
3123.000000	0.022560
3122.000000	0.022505
3121.000000	0.022448
3120.000000	0.022398
3119.000000	0.022368
3118.000000	0.022362
3117.000000	0.022374
3116.000000	0.022397
3115.000000	0.022424
3114.000000	0.022446
3113.000000	0.022450
3112.000000	0.022427
3111.000000	0.022388
3110.000000	0.022353
3109.000000	0.022342
3108.000000	0.022356
3107.000000	0.022382
3106.000000	0.022408
3105.000000	0.022426
3104.000000	0.022433
3103.000000	0.022431
3102.000000	0.022424
3101.000000	0.022416
3100.000000	0.022410
3099.000000	0.022412
3098.000000	0.022426
3097.000000	0.022453
3096.000000	0.022490
3095.000000	0.022529
3094.000000	0.022558
3093.000000	0.022572
3092.000000	0.022571
3091.000000	0.022566
3090.000000	0.022573
3089.000000	0.022599
3088.000000	0.022635
3087.000000	0.022666
3086.000000	0.022682
3085.000000	0.022685
3084.000000	0.022683
3083.000000	0.022684
3082.000000	0.022688
3081.000000	0.022690
3080.000000	0.022690
3079.000000	0.022694
3078.000000	0.022711
3077.000000	0.022736
3076.000000	0.022757
3075.000000	0.022762
3074.000000	0.022749
3073.000000	0.022729
3072.000000	0.022709
3071.000000	0.022688
3070.000000	0.022666
3069.000000	0.022643
3068.000000	0.022622
3067.000000	0.022602
3066.000000	0.022584
3065.000000	0.022565
3064.000000	0.022547
3063.000000	0.022529
3062.000000	0.022512
3061.000000	0.022494
3060.000000	0.022473
3059.000000	0.022445
3058.000000	0.022407
3057.000000	0.022357
3056.000000	0.022300
3055.000000	0.022242
3054.000000	0.022186
3053.000000	0.022130
3052.000000	0.022069
3051.000000	0.022004
3050.000000	0.021940
3049.000000	0.021886
3048.000000	0.021838
3047.000000	0.021787
3046.000000	0.021729
3045.000000	0.021666
3044.000000	0.021606
3043.000000	0.021549
3042.000000	0.021492
3041.000000	0.021433
3040.000000	0.021378
3039.000000	0.021329
3038.000000	0.021286
3037.000000	0.021244
3036.000000	0.021199
3035.000000	0.021149
3034.000000	0.021091
3033.000000	0.021026
3032.000000	0.020958
3031.000000	0.020893
3030.000000	0.020837
3029.000000	0.020788
3028.000000	0.020740
3027.000000	0.020686
3026.000000	0.020626
3025.000000	0.020563
3024.000000	0.020502
3023.000000	0.020449
3022.000000	0.020407
3021.000000	0.020377
3020.000000	0.020350
3019.000000	0.020318
3018.000000	0.020276
3017.000000	0.020227
3016.000000	0.020180
3015.000000	0.020138
3014.000000	0.020103
3013.000000	0.020072
3012.000000	0.020041
3011.000000	0.020007
3010.000000	0.019977
3009.000000	0.019964
3008.000000	0.019973
3007.000000	0.019999
3006.000000	0.020029
3005.000000	0.020053
3004.000000	0.020071
3003.000000	0.020093
3002.000000	0.020124
3001.000000	0.020163
3000.000000	0.020206
2999.000000	0.020247
2998.000000	0.020284
2997.000000	0.020321
2996.000000	0.020364
2995.000000	0.020419
2994.000000	0.020489
2993.000000	0.020571
2992.000000	0.020657
2991.000000	0.020744
2990.000000	0.020838
2989.000000	0.020949
2988.000000	0.021080
2987.000000	0.021226
2986.000000	0.021382
2985.000000	0.021548
2984.000000	0.021724
2983.000000	0.021904
2982.000000	0.022073
2981.000000	0.022228
2980.000000	0.022379
2979.000000	0.022545
2978.000000	0.022729
2977.000000	0.022926
2976.000000	0.023125
2975.000000	0.023324
2974.000000	0.023528
2973.000000	0.023742
2972.000000	0.023965
2971.000000	0.024198
2970.000000	0.024444
2969.000000	0.024708
2968.000000	0.024986
2967.000000	0.025274
2966.000000	0.025560
2965.000000	0.025836
2964.000000	0.026097
2963.000000	0.026339
2962.000000	0.026557
2961.000000	0.026748
2960.000000	0.026911
2959.000000	0.027049
2958.000000	0.027171
2957.000000	0.027281
2956.000000	0.027380
2955.000000	0.027463
2954.000000	0.027521
2953.000000	0.027552
2952.000000	0.027564
2951.000000	0.027571
2950.000000	0.027589
2949.000000	0.027627
2948.000000	0.027686
2947.000000	0.027768
2946.000000	0.027875
2945.000000	0.028016
2944.000000	0.028196
2943.000000	0.028420
2942.000000	0.028683
2941.000000	0.028974
2940.000000	0.029284
2939.000000	0.029616
2938.000000	0.029983
2937.000000	0.030394
2936.000000	0.030843
2935.000000	0.031309
2934.000000	0.031777
2933.000000	0.032248
2932.000000	0.032729
2931.000000	0.033218
2930.000000	0.033700
2929.000000	0.034154
2928.000000	0.034576
2927.000000	0.034974
2926.000000	0.035355
2925.000000	0.035704
2924.000000	0.035998
2923.000000	0.036220
2922.000000	0.036358
2921.000000	0.036409
2920.000000	0.036361
2919.000000	0.036203
2918.000000	0.035924
2917.000000	0.035510
2916.000000	0.034963
2915.000000	0.034307
2914.000000	0.033587
2913.000000	0.032850
2912.000000	0.032134
2911.000000	0.031466
2910.000000	0.030863
2909.000000	0.030335
2908.000000	0.029876
2907.000000	0.029472
2906.000000	0.029111
2905.000000	0.028788
2904.000000	0.028499
2903.000000	0.028239
2902.000000	0.027993
2901.000000	0.027747
2900.000000	0.027501
2899.000000	0.027266
2898.000000	0.027053
2897.000000	0.026860
2896.000000	0.026673
2895.000000	0.026483
2894.000000	0.026294
2893.000000	0.026114
2892.000000	0.025949
2891.000000	0.025799
2890.000000	0.025660
2889.000000	0.025532
2888.000000	0.025416
2887.000000	0.025316
2886.000000	0.025235
2885.000000	0.025170
2884.000000	0.025114
2883.000000	0.025061
2882.000000	0.025016
2881.000000	0.024989
2880.000000	0.024986
2879.000000	0.025007
2878.000000	0.025046
2877.000000	0.025097
2876.000000	0.025151
2875.000000	0.025202
2874.000000	0.025242
2873.000000	0.025268
2872.000000	0.025276
2871.000000	0.025263
2870.000000	0.025233
2869.000000	0.025194
2868.000000	0.025155
2867.000000	0.025121
2866.000000	0.025099
2865.000000	0.025098
2864.000000	0.025135
2863.000000	0.025222
2862.000000	0.025367
2861.000000	0.025569
2860.000000	0.025825
2859.000000	0.026132
2858.000000	0.026484
2857.000000	0.026875
2856.000000	0.027292
2855.000000	0.027717
2854.000000	0.028119
2853.000000	0.028458
2852.000000	0.028680
2851.000000	0.028723
2850.000000	0.028540
2849.000000	0.028118
2848.000000	0.027495
2847.000000	0.026739
2846.000000	0.025934
2845.000000	0.025150
2844.000000	0.024438
2843.000000	0.023817
2842.000000	0.023287
2841.000000	0.022840
2840.000000	0.022470
2839.000000	0.022161
2838.000000	0.021893
2837.000000	0.021645
2836.000000	0.021415
2835.000000	0.021208
2834.000000	0.021027
2833.000000	0.020874
2832.000000	0.020746
2831.000000	0.020643
2830.000000	0.020555
2829.000000	0.020465
2828.000000	0.020359
2827.000000	0.020239
2826.000000	0.020118
2825.000000	0.020008
2824.000000	0.019914
2823.000000	0.019832
2822.000000	0.019749
2821.000000	0.019653
2820.000000	0.019543
2819.000000	0.019434
2818.000000	0.019343
2817.000000	0.019274
2816.000000	0.019217
2815.000000	0.019158
2814.000000	0.019088
2813.000000	0.019010
2812.000000	0.018932
2811.000000	0.018866
2810.000000	0.018813
2809.000000	0.018768
2808.000000	0.018724
2807.000000	0.018676
2806.000000	0.018625
2805.000000	0.018572
2804.000000	0.018518
2803.000000	0.018461
2802.000000	0.018396
2801.000000	0.018324
2800.000000	0.018259
2799.000000	0.018220
2798.000000	0.018213
2797.000000	0.018224
2796.000000	0.018231
2795.000000	0.018220
2794.000000	0.018195
2793.000000	0.018159
2792.000000	0.018116
2791.000000	0.018074
2790.000000	0.018040
2789.000000	0.018014
2788.000000	0.017983
2787.000000	0.017945
2786.000000	0.017909
2785.000000	0.017882
2784.000000	0.017862
2783.000000	0.017841
2782.000000	0.017815
2781.000000	0.017789
2780.000000	0.017765
2779.000000	0.017742
2778.000000	0.017716
2777.000000	0.017683
2776.000000	0.017647
2775.000000	0.017614
2774.000000	0.017588
2773.000000	0.017564
2772.000000	0.017536
2771.000000	0.017501
2770.000000	0.017464
2769.000000	0.017432
2768.000000	0.017410
2767.000000	0.017393
2766.000000	0.017376
2765.000000	0.017352
2764.000000	0.017319
2763.000000	0.017286
2762.000000	0.017261
2761.000000	0.017238
2760.000000	0.017205
2759.000000	0.017157
2758.000000	0.017115
2757.000000	0.017099
2756.000000	0.017109
2755.000000	0.017121
2754.000000	0.017115
2753.000000	0.017088
2752.000000	0.017053
2751.000000	0.017022
2750.000000	0.016996
2749.000000	0.016970
2748.000000	0.016936
2747.000000	0.016892
2746.000000	0.016843
2745.000000	0.016802
2744.000000	0.016776
2743.000000	0.016766
2742.000000	0.016767
2741.000000	0.016776
2740.000000	0.016792
2739.000000	0.016807
2738.000000	0.016815
2737.000000	0.016806
2736.000000	0.016781
2735.000000	0.016742
2734.000000	0.016695
2733.000000	0.016644
2732.000000	0.016599
2731.000000	0.016570
2730.000000	0.016561
2729.000000	0.016563
2728.000000	0.016561
2727.000000	0.016543
2726.000000	0.016514
2725.000000	0.016487
2724.000000	0.016468
2723.000000	0.016457
2722.000000	0.016447
2721.000000	0.016434
2720.000000	0.016418
2719.000000	0.016400
2718.000000	0.016380
2717.000000	0.016353
2716.000000	0.016321
2715.000000	0.016286
2714.000000	0.016254
2713.000000	0.016229
2712.000000	0.016212
2711.000000	0.016201
2710.000000	0.016195
2709.000000	0.016189
2708.000000	0.016180
2707.000000	0.016162
2706.000000	0.016136
2705.000000	0.016114
2704.000000	0.016103
2703.000000	0.016109
2702.000000	0.016122
2701.000000	0.016130
2700.000000	0.016123
2699.000000	0.016106
2698.000000	0.016088
2697.000000	0.016072
2696.000000	0.016053
2695.000000	0.016024
2694.000000	0.015989
2693.000000	0.015957
2692.000000	0.015936
2691.000000	0.015922
2690.000000	0.015913
2689.000000	0.015909
2688.000000	0.015907
2687.000000	0.015906
2686.000000	0.015903
2685.000000	0.015897
2684.000000	0.015889
2683.000000	0.015878
2682.000000	0.015867
2681.000000	0.015857
2680.000000	0.015849
2679.000000	0.015842
2678.000000	0.015836
2677.000000	0.015832
2676.000000	0.015829
2675.000000	0.015823
2674.000000	0.015809
2673.000000	0.015788
2672.000000	0.015766
2671.000000	0.015752
2670.000000	0.015748
2669.000000	0.015748
2668.000000	0.015743
2667.000000	0.015729
2666.000000	0.015706
2665.000000	0.015682
2664.000000	0.015665
2663.000000	0.015662
2662.000000	0.015673
2661.000000	0.015684
2660.000000	0.015682
2659.000000	0.015662
2658.000000	0.015628
2657.000000	0.015591
2656.000000	0.015552
2655.000000	0.015514
2654.000000	0.015481
2653.000000	0.015452
2652.000000	0.015424
2651.000000	0.015390
2650.000000	0.015353
2649.000000	0.015320
2648.000000	0.015293
2647.000000	0.015263
2646.000000	0.015225
2645.000000	0.015176
2644.000000	0.015124
2643.000000	0.015078
2642.000000	0.015041
2641.000000	0.015015
2640.000000	0.014997
2639.000000	0.014983
2638.000000	0.014972
2637.000000	0.014957
2636.000000	0.014933
2635.000000	0.014900
2634.000000	0.014864
2633.000000	0.014828
2632.000000	0.014792
2631.000000	0.014756
2630.000000	0.014719
2629.000000	0.014684
2628.000000	0.014651
2627.000000	0.014624
2626.000000	0.014610
2625.000000	0.014608
2624.000000	0.014603
2623.000000	0.014581
2622.000000	0.014540
2621.000000	0.014492
2620.000000	0.014449
2619.000000	0.014418
2618.000000	0.014397
2617.000000	0.014380
2616.000000	0.014356
2615.000000	0.014323
2614.000000	0.014283
2613.000000	0.014241
2612.000000	0.014199
2611.000000	0.014165
2610.000000	0.014145
2609.000000	0.014141
2608.000000	0.014146
2607.000000	0.014151
2606.000000	0.014146
2605.000000	0.014128
2604.000000	0.014093
2603.000000	0.014048
2602.000000	0.014009
2601.000000	0.013993
2600.000000	0.014005
2599.000000	0.014030
2598.000000	0.014046
2597.000000	0.014038
2596.000000	0.014007
2595.000000	0.013967
2594.000000	0.013931
2593.000000	0.013904
2592.000000	0.013884
2591.000000	0.013873
2590.000000	0.013878
2589.000000	0.013891
2588.000000	0.013896
2587.000000	0.013877
2586.000000	0.013836
2585.000000	0.013787
2584.000000	0.013746
2583.000000	0.013722
2582.000000	0.013716
2581.000000	0.013712
2580.000000	0.013692
2579.000000	0.013661
2578.000000	0.013642
2577.000000	0.013647
2576.000000	0.013660
2575.000000	0.013655
2574.000000	0.013628
2573.000000	0.013596
2572.000000	0.013577
2571.000000	0.013572
2570.000000	0.013568
2569.000000	0.013555
2568.000000	0.013534
2567.000000	0.013519
2566.000000	0.013523
2565.000000	0.013538
2564.000000	0.013545
2563.000000	0.013531
2562.000000	0.013507
2561.000000	0.013486
2560.000000	0.013475
2559.000000	0.013473
2558.000000	0.013486
2557.000000	0.013508
2556.000000	0.013518
2555.000000	0.013500
2554.000000	0.013465
2553.000000	0.013437
2552.000000	0.013425
2551.000000	0.013413
2550.000000	0.013386
2549.000000	0.013346
2548.000000	0.013307
2547.000000	0.013281
2546.000000	0.013274
2545.000000	0.013284
2544.000000	0.013300
2543.000000	0.013306
2542.000000	0.013292
2541.000000	0.013267
2540.000000	0.013251
2539.000000	0.013257
2538.000000	0.013283
2537.000000	0.013309
2536.000000	0.013317
2535.000000	0.013305
2534.000000	0.013286
2533.000000	0.013272
2532.000000	0.013269
2531.000000	0.013274
2530.000000	0.013284
2529.000000	0.013288
2528.000000	0.013275
2527.000000	0.013255
2526.000000	0.013252
2525.000000	0.013281
2524.000000	0.013326
2523.000000	0.013355
2522.000000	0.013354
2521.000000	0.013321
2520.000000	0.013263
2519.000000	0.013193
2518.000000	0.013128
2517.000000	0.013088
2516.000000	0.013078
2515.000000	0.013092
2514.000000	0.013123
2513.000000	0.013157
2512.000000	0.013178
2511.000000	0.013172
2510.000000	0.013146
2509.000000	0.013114
2508.000000	0.013094
2507.000000	0.013093
2506.000000	0.013108
2505.000000	0.013122
2504.000000	0.013114
2503.000000	0.013081
2502.000000	0.013046
2501.000000	0.013028
2500.000000	0.013034
2499.000000	0.013053
2498.000000	0.013072
2497.000000	0.013066
2496.000000	0.013009
2495.000000	0.012904
2494.000000	0.012795
2493.000000	0.012727
2492.000000	0.012710
2491.000000	0.012728
2490.000000	0.012764
2489.000000	0.012813
2488.000000	0.012860
2487.000000	0.012879
2486.000000	0.012857
2485.000000	0.012809
2484.000000	0.012759
2483.000000	0.012721
2482.000000	0.012707
2481.000000	0.012720
2480.000000	0.012754
2479.000000	0.012789
2478.000000	0.012809
2477.000000	0.012810
2476.000000	0.012802
2475.000000	0.012797
2474.000000	0.012801
2473.000000	0.012810
2472.000000	0.012812
2471.000000	0.012802
2470.000000	0.012785
2469.000000	0.012770
2468.000000	0.012754
2467.000000	0.012734
2466.000000	0.012710
2465.000000	0.012686
2464.000000	0.012664
2463.000000	0.012645
2462.000000	0.012644
2461.000000	0.012664
2460.000000	0.012696
2459.000000	0.012729
2458.000000	0.012767
2457.000000	0.012810
2456.000000	0.012839
2455.000000	0.012827
2454.000000	0.012780
2453.000000	0.012729
2452.000000	0.012695
2451.000000	0.012679
2450.000000	0.012668
2449.000000	0.012659
2448.000000	0.012652
2447.000000	0.012647
2446.000000	0.012652
2445.000000	0.012673
2444.000000	0.012700
2443.000000	0.012713
2442.000000	0.012705
2441.000000	0.012687
2440.000000	0.012667
2439.000000	0.012640
2438.000000	0.012604
2437.000000	0.012568
2436.000000	0.012548
2435.000000	0.012557
2434.000000	0.012594
2433.000000	0.012642
2432.000000	0.012677
2431.000000	0.012685
2430.000000	0.012664
2429.000000	0.012624
2428.000000	0.012573
2427.000000	0.012520
2426.000000	0.012483
2425.000000	0.012476
2424.000000	0.012492
2423.000000	0.012512
2422.000000	0.012524
2421.000000	0.012528
2420.000000	0.012520
2419.000000	0.012498
2418.000000	0.012468
2417.000000	0.012447
2416.000000	0.012439
2415.000000	0.012441
2414.000000	0.012451
2413.000000	0.012478
2412.000000	0.012520
2411.000000	0.012560
2410.000000	0.012576
2409.000000	0.012562
2408.000000	0.012528
2407.000000	0.012487
2406.000000	0.012450
2405.000000	0.012418
2404.000000	0.012390
2403.000000	0.012374
2402.000000	0.012381
2401.000000	0.012410
2400.000000	0.012438
2399.000000	0.012433
2398.000000	0.012389
2397.000000	0.012328
2396.000000	0.012284
2395.000000	0.012282
2394.000000	0.012326
2393.000000	0.012391
2392.000000	0.012441
2391.000000	0.012451
2390.000000	0.012428
2389.000000	0.012397
2388.000000	0.012378
2387.000000	0.012371
2386.000000	0.012367
2385.000000	0.012358
2384.000000	0.012342
2383.000000	0.012318
2382.000000	0.012289
2381.000000	0.012250
2380.000000	0.012203
2379.000000	0.012165
2378.000000	0.012168
2377.000000	0.012221
2376.000000	0.012296
2375.000000	0.012349
2374.000000	0.012371
2373.000000	0.012384
2372.000000	0.012398
2371.000000	0.012403
2370.000000	0.012382
2369.000000	0.012337
2368.000000	0.012290
2367.000000	0.012269
2366.000000	0.012287
2365.000000	0.012325
2364.000000	0.012356
2363.000000	0.012382
2362.000000	0.012431
2361.000000	0.012504
2360.000000	0.012565
2359.000000	0.012576
2358.000000	0.012537
2357.000000	0.012479
2356.000000	0.012445
2355.000000	0.012459
2354.000000	0.012488
2353.000000	0.012484
2352.000000	0.012450
2351.000000	0.012429
2350.000000	0.012442
2349.000000	0.012474
2348.000000	0.012493
2347.000000	0.012470
2346.000000	0.012433
2345.000000	0.012447
2344.000000	0.012523
2343.000000	0.012596
2342.000000	0.012607
2341.000000	0.012560
2340.000000	0.012503
2339.000000	0.012482
2338.000000	0.012497
2337.000000	0.012513
2336.000000	0.012497
2335.000000	0.012446
2334.000000	0.012380
2333.000000	0.012336
2332.000000	0.012339
2331.000000	0.012378
2330.000000	0.012422
2329.000000	0.012456
2328.000000	0.012493
2327.000000	0.012551
2326.000000	0.012617
2325.000000	0.012661
2324.000000	0.012649
2323.000000	0.012573
2322.000000	0.012476
2321.000000	0.012429
2320.000000	0.012468
2319.000000	0.012557
2318.000000	0.012628
2317.000000	0.012637
2316.000000	0.012585
2315.000000	0.012496
2314.000000	0.012393
2313.000000	0.012295
2312.000000	0.012213
2311.000000	0.012149
2310.000000	0.012108
2309.000000	0.012100
2308.000000	0.012121
2307.000000	0.012147
2306.000000	0.012158
2305.000000	0.012150
2304.000000	0.012129
2303.000000	0.012094
2302.000000	0.012051
2301.000000	0.012015
2300.000000	0.012001
2299.000000	0.011999
2298.000000	0.011995
2297.000000	0.011988
2296.000000	0.011989
2295.000000	0.012005
2294.000000	0.012035
2293.000000	0.012074
2292.000000	0.012114
2291.000000	0.012138
2290.000000	0.012143
2289.000000	0.012153
2288.000000	0.012193
2287.000000	0.012255
2286.000000	0.012303
2285.000000	0.012310
2284.000000	0.012284
2283.000000	0.012252
2282.000000	0.012229
2281.000000	0.012208
2280.000000	0.012172
2279.000000	0.012108
2278.000000	0.012022
2277.000000	0.011935
2276.000000	0.011871
2275.000000	0.011847
2274.000000	0.011868
2273.000000	0.011918
2272.000000	0.011965
2271.000000	0.011978
2270.000000	0.011957
2269.000000	0.011921
2268.000000	0.011890
2267.000000	0.011867
2266.000000	0.011848
2265.000000	0.011827
2264.000000	0.011794
2263.000000	0.011741
2262.000000	0.011685
2261.000000	0.011658
2260.000000	0.011671
2259.000000	0.011699
2258.000000	0.011704
2257.000000	0.011678
2256.000000	0.011638
2255.000000	0.011597
2254.000000	0.011553
2253.000000	0.011506
2252.000000	0.011473
2251.000000	0.011473
2250.000000	0.011494
2249.000000	0.011497
2248.000000	0.011453
2247.000000	0.011379
2246.000000	0.011330
2245.000000	0.011337
2244.000000	0.011372
2243.000000	0.011389
2242.000000	0.011369
2241.000000	0.011329
2240.000000	0.011295
2239.000000	0.011289
2238.000000	0.011321
2237.000000	0.011383
2236.000000	0.011437
2235.000000	0.011448
2234.000000	0.011416
2233.000000	0.011366
2232.000000	0.011315
2231.000000	0.011261
2230.000000	0.011209
2229.000000	0.011169
2228.000000	0.011140
2227.000000	0.011115
2226.000000	0.011094
2225.000000	0.011087
2224.000000	0.011100
2223.000000	0.011138
2222.000000	0.011201
2221.000000	0.011269
2220.000000	0.011297
2219.000000	0.011265
2218.000000	0.011210
2217.000000	0.011189
2216.000000	0.011217
2215.000000	0.011266
2214.000000	0.011302
2213.000000	0.011304
2212.000000	0.011253
2211.000000	0.011153
2210.000000	0.011042
2209.000000	0.010957
2208.000000	0.010897
2207.000000	0.010852
2206.000000	0.010852
2205.000000	0.010927
2204.000000	0.011031
2203.000000	0.011069
2202.000000	0.011006
2201.000000	0.010917
2200.000000	0.010911
2199.000000	0.011012
2198.000000	0.011135
2197.000000	0.011162
2196.000000	0.011063
2195.000000	0.010945
2194.000000	0.010946
2193.000000	0.011076
2192.000000	0.011190
2191.000000	0.011158
2190.000000	0.011008
2189.000000	0.010866
2188.000000	0.010806
2187.000000	0.010831
2186.000000	0.010931
2185.000000	0.011068
2184.000000	0.011139
2183.000000	0.011049
2182.000000	0.010839
2181.000000	0.010645
2180.000000	0.010552
2179.000000	0.010543
2178.000000	0.010591
2177.000000	0.010676
2176.000000	0.010733
2175.000000	0.010682
2174.000000	0.010530
2173.000000	0.010371
2172.000000	0.010277
2171.000000	0.010247
2170.000000	0.010285
2169.000000	0.010410
2168.000000	0.010586
2167.000000	0.010714
2166.000000	0.010723
2165.000000	0.010628
2164.000000	0.010465
2163.000000	0.010260
2162.000000	0.010048
2161.000000	0.009880
2160.000000	0.009748
2159.000000	0.009607
2158.000000	0.009476
2157.000000	0.009425
2156.000000	0.009464
2155.000000	0.009542
2154.000000	0.009642
2153.000000	0.009785
2152.000000	0.009964
2151.000000	0.010146
2150.000000	0.010321
2149.000000	0.010478
2148.000000	0.010557
2147.000000	0.010496
2146.000000	0.010322
2145.000000	0.010146
2144.000000	0.010043
2143.000000	0.010010
2142.000000	0.010021
2141.000000	0.010059
2140.000000	0.010096
2139.000000	0.010108
2138.000000	0.010105
2137.000000	0.010118
2136.000000	0.010152
2135.000000	0.010191
2134.000000	0.010255
2133.000000	0.010375
2132.000000	0.010537
2131.000000	0.010683
2130.000000	0.010782
2129.000000	0.010844
2128.000000	0.010886
2127.000000	0.010911
2126.000000	0.010933
2125.000000	0.010969
2124.000000	0.011010
2123.000000	0.011030
2122.000000	0.011024
2121.000000	0.011019
2120.000000	0.011035
2119.000000	0.011065
2118.000000	0.011102
2117.000000	0.011134
2116.000000	0.011135
2115.000000	0.011091
2114.000000	0.011033
2113.000000	0.011019
2112.000000	0.011053
2111.000000	0.011090
2110.000000	0.011100
2109.000000	0.011107
2108.000000	0.011137
2107.000000	0.011182
2106.000000	0.011220
2105.000000	0.011248
2104.000000	0.011253
2103.000000	0.011214
2102.000000	0.011146
2101.000000	0.011111
2100.000000	0.011145
2099.000000	0.011207
2098.000000	0.011217
2097.000000	0.011136
2096.000000	0.011003
2095.000000	0.010902
2094.000000	0.010904
2093.000000	0.011012
2092.000000	0.011146
2091.000000	0.011206
2090.000000	0.011163
2089.000000	0.011075
2088.000000	0.011014
2087.000000	0.010996
2086.000000	0.010996
2085.000000	0.010991
2084.000000	0.010968
2083.000000	0.010927
2082.000000	0.010896
2081.000000	0.010913
2080.000000	0.010979
2079.000000	0.011037
2078.000000	0.011025
2077.000000	0.010943
2076.000000	0.010843
2075.000000	0.010792
2074.000000	0.010821
2073.000000	0.010907
2072.000000	0.010981
2071.000000	0.010974
2070.000000	0.010885
2069.000000	0.010779
2068.000000	0.010717
2067.000000	0.010693
2066.000000	0.010664
2065.000000	0.010593
2064.000000	0.010483
2063.000000	0.010364
2062.000000	0.010281
2061.000000	0.010271
2060.000000	0.010328
2059.000000	0.010403
2058.000000	0.010440
2057.000000	0.010414
2056.000000	0.010342
2055.000000	0.010277
2054.000000	0.010262
2053.000000	0.010293
2052.000000	0.010326
2051.000000	0.010333
2050.000000	0.010331
2049.000000	0.010319
2048.000000	0.010238
2047.000000	0.010046
2046.000000	0.009808
2045.000000	0.009634
2044.000000	0.009544
2043.000000	0.009482
2042.000000	0.009415
2041.000000	0.009350
2040.000000	0.009264
2039.000000	0.009142
2038.000000	0.009063
2037.000000	0.009146
2036.000000	0.009374
2035.000000	0.009574
2034.000000	0.009611
2033.000000	0.009521
2032.000000	0.009427
2031.000000	0.009395
2030.000000	0.009408
2029.000000	0.009399
2028.000000	0.009314
2027.000000	0.009184
2026.000000	0.009121
2025.000000	0.009177
2024.000000	0.009237
2023.000000	0.009159
2022.000000	0.008970
2021.000000	0.008839
2020.000000	0.008865
2019.000000	0.009009
2018.000000	0.009213
2017.000000	0.009442
2016.000000	0.009614
2015.000000	0.009625
2014.000000	0.009473
2013.000000	0.009284
2012.000000	0.009179
2011.000000	0.009172
2010.000000	0.009185
2009.000000	0.009122
2008.000000	0.008938
2007.000000	0.008711
2006.000000	0.008610
2005.000000	0.008722
2004.000000	0.008953
2003.000000	0.009158
2002.000000	0.009310
2001.000000	0.009458
2000.000000	0.009586
1999.000000	0.009635
1998.000000	0.009623
1997.000000	0.009638
1996.000000	0.009714
1995.000000	0.009780
1994.000000	0.009770
1993.000000	0.009686
1992.000000	0.009574
1991.000000	0.009487
1990.000000	0.009479
1989.000000	0.009563
1988.000000	0.009684
1987.000000	0.009782
1986.000000	0.009874
1985.000000	0.010002
1984.000000	0.010136
1983.000000	0.010213
1982.000000	0.010260
1981.000000	0.010356
1980.000000	0.010480
1979.000000	0.010492
1978.000000	0.010297
1977.000000	0.009962
1976.000000	0.009624
1975.000000	0.009365
1974.000000	0.009218
1973.000000	0.009179
1972.000000	0.009185
1971.000000	0.009167
1970.000000	0.009118
1969.000000	0.009065
1968.000000	0.009000
1967.000000	0.008922
1966.000000	0.008911
1965.000000	0.009040
1964.000000	0.009257
1963.000000	0.009431
1962.000000	0.009510
1961.000000	0.009528
1960.000000	0.009510
1959.000000	0.009455
1958.000000	0.009411
1957.000000	0.009440
1956.000000	0.009526
1955.000000	0.009599
1954.000000	0.009638
1953.000000	0.009683
1952.000000	0.009749
1951.000000	0.009804
1950.000000	0.009828
1949.000000	0.009817
1948.000000	0.009761
1947.000000	0.009675
1946.000000	0.009622
1945.000000	0.009657
1944.000000	0.009737
1943.000000	0.009784
1942.000000	0.009795
1941.000000	0.009818
1940.000000	0.009856
1939.000000	0.009874
1938.000000	0.009888
1937.000000	0.009942
1936.000000	0.010021
1935.000000	0.010059
1934.000000	0.010035
1933.000000	0.009995
1932.000000	0.009953
1931.000000	0.009890
1930.000000	0.009833
1929.000000	0.009851
1928.000000	0.009958
1927.000000	0.010067
1926.000000	0.010099
1925.000000	0.010051
1924.000000	0.009962
1923.000000	0.009872
1922.000000	0.009825
1921.000000	0.009835
1920.000000	0.009851
1919.000000	0.009801
1918.000000	0.009695
1917.000000	0.009618
1916.000000	0.009615
1915.000000	0.009654
1914.000000	0.009700
1913.000000	0.009768
1912.000000	0.009858
1911.000000	0.009927
1910.000000	0.009943
1909.000000	0.009920
1908.000000	0.009884
1907.000000	0.009839
1906.000000	0.009799
1905.000000	0.009799
1904.000000	0.009841
1903.000000	0.009892
1902.000000	0.009921
1901.000000	0.009922
1900.000000	0.009894
1899.000000	0.009843
1898.000000	0.009804
1897.000000	0.009822
1896.000000	0.009881
1895.000000	0.009912
1894.000000	0.009884
1893.000000	0.009840
1892.000000	0.009818
1891.000000	0.009806
1890.000000	0.009775
1889.000000	0.009741
1888.000000	0.009732
1887.000000	0.009741
1886.000000	0.009747
1885.000000	0.009749
1884.000000	0.009759
1883.000000	0.009778
1882.000000	0.009797
1881.000000	0.009812
1880.000000	0.009824
1879.000000	0.009830
1878.000000	0.009828
1877.000000	0.009822
1876.000000	0.009812
1875.000000	0.009791
1874.000000	0.009757
1873.000000	0.009712
1872.000000	0.009650
1871.000000	0.009564
1870.000000	0.009477
1869.000000	0.009427
1868.000000	0.009426
1867.000000	0.009463
1866.000000	0.009531
1865.000000	0.009620
1864.000000	0.009694
1863.000000	0.009715
1862.000000	0.009685
1861.000000	0.009645
1860.000000	0.009625
1859.000000	0.009623
1858.000000	0.009625
1857.000000	0.009621
1856.000000	0.009607
1855.000000	0.009581
1854.000000	0.009561
1853.000000	0.009553
1852.000000	0.009545
1851.000000	0.009526
1850.000000	0.009486
1849.000000	0.009427
1848.000000	0.009362
1847.000000	0.009317
1846.000000	0.009328
1845.000000	0.009396
1844.000000	0.009464
1843.000000	0.009481
1842.000000	0.009486
1841.000000	0.009532
1840.000000	0.009598
1839.000000	0.009619
1838.000000	0.009591
1837.000000	0.009569
1836.000000	0.009567
1835.000000	0.009541
1834.000000	0.009460
1833.000000	0.009341
1832.000000	0.009232
1831.000000	0.009157
1830.000000	0.009113
1829.000000	0.009112
1828.000000	0.009168
1827.000000	0.009266
1826.000000	0.009365
1825.000000	0.009428
1824.000000	0.009450
1823.000000	0.009444
1822.000000	0.009434
1821.000000	0.009430
1820.000000	0.009434
1819.000000	0.009435
1818.000000	0.009436
1817.000000	0.009454
1816.000000	0.009475
1815.000000	0.009479
1814.000000	0.009457
1813.000000	0.009424
1812.000000	0.009391
1811.000000	0.009362
1810.000000	0.009361
1809.000000	0.009408
1808.000000	0.009476
1807.000000	0.009514
1806.000000	0.009508
1805.000000	0.009493
1804.000000	0.009492
1803.000000	0.009501
1802.000000	0.009502
1801.000000	0.009498
1800.000000	0.009511
1799.000000	0.009538
1798.000000	0.009554
1797.000000	0.009536
1796.000000	0.009483
1795.000000	0.009424
1794.000000	0.009394
1793.000000	0.009409
1792.000000	0.009434
1791.000000	0.009418
1790.000000	0.009378
1789.000000	0.009359
1788.000000	0.009377
1787.000000	0.009406
1786.000000	0.009420
1785.000000	0.009406
1784.000000	0.009365
1783.000000	0.009332
1782.000000	0.009325
1781.000000	0.009327
1780.000000	0.009316
1779.000000	0.009274
1778.000000	0.009208
1777.000000	0.009121
1776.000000	0.009026
1775.000000	0.008943
1774.000000	0.008869
1773.000000	0.008801
1772.000000	0.008759
1771.000000	0.008784
1770.000000	0.008919
1769.000000	0.009122
1768.000000	0.009254
1767.000000	0.009230
1766.000000	0.009123
1765.000000	0.009055
1764.000000	0.009063
1763.000000	0.009105
1762.000000	0.009142
1761.000000	0.009181
1760.000000	0.009241
1759.000000	0.009339
1758.000000	0.009474
1757.000000	0.009608
1756.000000	0.009723
1755.000000	0.009854
1754.000000	0.010064
1753.000000	0.010345
1752.000000	0.010606
1751.000000	0.010761
1750.000000	0.010858
1749.000000	0.011018
1748.000000	0.011256
1747.000000	0.011512
1746.000000	0.011741
1745.000000	0.011946
1744.000000	0.012101
1743.000000	0.012165
1742.000000	0.012197
1741.000000	0.012298
1740.000000	0.012437
1739.000000	0.012478
1738.000000	0.012449
1737.000000	0.012498
1736.000000	0.012646
1735.000000	0.012751
1734.000000	0.012682
1733.000000	0.012483
1732.000000	0.012301
1731.000000	0.012178
1730.000000	0.012059
1729.000000	0.011904
1728.000000	0.011729
1727.000000	0.011554
1726.000000	0.011380
1725.000000	0.011241
1724.000000	0.011123
1723.000000	0.010945
1722.000000	0.010704
1721.000000	0.010506
1720.000000	0.010423
1719.000000	0.010405
1718.000000	0.010386
1717.000000	0.010398
1716.000000	0.010494
1715.000000	0.010657
1714.000000	0.010855
1713.000000	0.011094
1712.000000	0.011367
1711.000000	0.011634
1710.000000	0.011866
1709.000000	0.012087
1708.000000	0.012377
1707.000000	0.012791
1706.000000	0.013300
1705.000000	0.013819
1704.000000	0.014310
1703.000000	0.014828
1702.000000	0.015427
1701.000000	0.016197
1700.000000	0.017079
1699.000000	0.017898
1698.000000	0.018769
1697.000000	0.019860
1696.000000	0.021022
1695.000000	0.021982
1694.000000	0.022710
1693.000000	0.023428
1692.000000	0.024250
1691.000000	0.025107
1690.000000	0.025926
1689.000000	0.026684
1688.000000	0.027413
1687.000000	0.028130
1686.000000	0.028880
1685.000000	0.029834
1684.000000	0.030959
1683.000000	0.032003
1682.000000	0.032983
1681.000000	0.034023
1680.000000	0.035035
1679.000000	0.035920
1678.000000	0.036744
1677.000000	0.037677
1676.000000	0.038780
1675.000000	0.039910
1674.000000	0.040911
1673.000000	0.041850
1672.000000	0.042867
1671.000000	0.044010
1670.000000	0.045304
1669.000000	0.046692
1668.000000	0.048009
1667.000000	0.049123
1666.000000	0.050082
1665.000000	0.051047
1664.000000	0.052120
1663.000000	0.053259
1662.000000	0.054353
1661.000000	0.055377
1660.000000	0.056362
1659.000000	0.057253
1658.000000	0.057991
1657.000000	0.058654
1656.000000	0.059364
1655.000000	0.060115
1654.000000	0.060918
1653.000000	0.061741
1652.000000	0.062317
1651.000000	0.062636
1650.000000	0.062983
1649.000000	0.063485
1648.000000	0.064092
1647.000000	0.064654
1646.000000	0.065078
1645.000000	0.065412
1644.000000	0.065724
1643.000000	0.066020
1642.000000	0.066245
1641.000000	0.066335
1640.000000	0.066320
1639.000000	0.066278
1638.000000	0.066246
1637.000000	0.066202
1636.000000	0.066115
1635.000000	0.065973
1634.000000	0.065837
1633.000000	0.065763
1632.000000	0.065673
1631.000000	0.065433
1630.000000	0.064974
1629.000000	0.064343
1628.000000	0.063616
1627.000000	0.062855
1626.000000	0.062081
1625.000000	0.061265
1624.000000	0.060343
1623.000000	0.059296
1622.000000	0.058221
1621.000000	0.057252
1620.000000	0.056414
1619.000000	0.055569
1618.000000	0.054499
1617.000000	0.053126
1616.000000	0.051668
1615.000000	0.050424
1614.000000	0.049454
1613.000000	0.048600
1612.000000	0.047683
1611.000000	0.046677
1610.000000	0.045666
1609.000000	0.044704
1608.000000	0.043780
1607.000000	0.042907
1606.000000	0.042111
1605.000000	0.041369
1604.000000	0.040654
1603.000000	0.039975
1602.000000	0.039368
1601.000000	0.038843
1600.000000	0.038380
1599.000000	0.037964
1598.000000	0.037588
1597.000000	0.037237
1596.000000	0.036909
1595.000000	0.036631
1594.000000	0.036433
1593.000000	0.036301
1592.000000	0.036204
1591.000000	0.036139
1590.000000	0.036127
1589.000000	0.036162
1588.000000	0.036223
1587.000000	0.036306
1586.000000	0.036433
1585.000000	0.036594
1584.000000	0.036783
1583.000000	0.037020
1582.000000	0.037287
1581.000000	0.037535
1580.000000	0.037777
1579.000000	0.038089
1578.000000	0.038497
1577.000000	0.038942
1576.000000	0.039314
1575.000000	0.039572
1574.000000	0.039811
1573.000000	0.040112
1572.000000	0.040453
1571.000000	0.040822
1570.000000	0.041293
1569.000000	0.041867
1568.000000	0.042464
1567.000000	0.043061
1566.000000	0.043679
1565.000000	0.044298
1564.000000	0.044874
1563.000000	0.045410
1562.000000	0.045891
1561.000000	0.046244
1560.000000	0.046645
1559.000000	0.047339
1558.000000	0.048151
1557.000000	0.048968
1556.000000	0.049823
1555.000000	0.050639
1554.000000	0.051314
1553.000000	0.051865
1552.000000	0.052419
1551.000000	0.052994
1550.000000	0.053514
1549.000000	0.053939
1548.000000	0.054309
1547.000000	0.054666
1546.000000	0.054976
1545.000000	0.055174
1544.000000	0.055251
1543.000000	0.055267
1542.000000	0.055320
1541.000000	0.055505
1540.000000	0.055769
1539.000000	0.055926
1538.000000	0.055935
1537.000000	0.055916
1536.000000	0.055918
1535.000000	0.055872
1534.000000	0.055702
1533.000000	0.055456
1532.000000	0.055257
1531.000000	0.055120
1530.000000	0.054982
1529.000000	0.054813
1528.000000	0.054609
1527.000000	0.054342
1526.000000	0.053991
1525.000000	0.053623
1524.000000	0.053345
1523.000000	0.053148
1522.000000	0.052888
1521.000000	0.052461
1520.000000	0.051981
1519.000000	0.051629
1518.000000	0.051421
1517.000000	0.051229
1516.000000	0.050954
1515.000000	0.050622
1514.000000	0.050259
1513.000000	0.049796
1512.000000	0.049178
1511.000000	0.048471
1510.000000	0.047800
1509.000000	0.047176
1508.000000	0.046458
1507.000000	0.045521
1506.000000	0.044532
1505.000000	0.043760
1504.000000	0.043226
1503.000000	0.042794
1502.000000	0.042317
1501.000000	0.041719
1500.000000	0.041058
1499.000000	0.040430
1498.000000	0.039851
1497.000000	0.039275
1496.000000	0.038654
1495.000000	0.038000
1494.000000	0.037386
1493.000000	0.036844
1492.000000	0.036332
1491.000000	0.035791
1490.000000	0.035255
1489.000000	0.034838
1488.000000	0.034590
1487.000000	0.034440
1486.000000	0.034333
1485.000000	0.034270
1484.000000	0.034271
1483.000000	0.034332
1482.000000	0.034426
1481.000000	0.034554
1480.000000	0.034724
1479.000000	0.034943
1478.000000	0.035217
1477.000000	0.035580
1476.000000	0.036032
1475.000000	0.036565
1474.000000	0.037222
1473.000000	0.038051
1472.000000	0.038976
1471.000000	0.039836
1470.000000	0.040588
1469.000000	0.041268
1468.000000	0.041882
1467.000000	0.042429
1466.000000	0.042956
1465.000000	0.043494
1464.000000	0.044006
1463.000000	0.044426
1462.000000	0.044757
1461.000000	0.045069
1460.000000	0.045446
1459.000000	0.045975
1458.000000	0.046732
1457.000000	0.047622
1456.000000	0.048340
1455.000000	0.048806
1454.000000	0.049196
1453.000000	0.049579
1452.000000	0.049874
1451.000000	0.050036
1450.000000	0.050134
1449.000000	0.050241
1448.000000	0.050328
1447.000000	0.050365
1446.000000	0.050378
1445.000000	0.050390
1444.000000	0.050399
1443.000000	0.050368
1442.000000	0.050276
1441.000000	0.050136
1440.000000	0.049993
1439.000000	0.049871
1438.000000	0.049760
1437.000000	0.049612
1436.000000	0.049371
1435.000000	0.049080
1434.000000	0.048835
1433.000000	0.048644
1432.000000	0.048440
1431.000000	0.048203
1430.000000	0.047977
1429.000000	0.047792
1428.000000	0.047621
1427.000000	0.047467
1426.000000	0.047358
1425.000000	0.047272
1424.000000	0.047161
1423.000000	0.047027
1422.000000	0.046928
1421.000000	0.046882
1420.000000	0.046852
1419.000000	0.046801
1418.000000	0.046730
1417.000000	0.046672
1416.000000	0.046616
1415.000000	0.046525
1414.000000	0.046405
1413.000000	0.046293
1412.000000	0.046192
1411.000000	0.046069
1410.000000	0.045916
1409.000000	0.045769
1408.000000	0.045639
1407.000000	0.045520
1406.000000	0.045416
1405.000000	0.045320
1404.000000	0.045208
1403.000000	0.045065
1402.000000	0.044912
1401.000000	0.044764
1400.000000	0.044598
1399.000000	0.044384
1398.000000	0.044151
1397.000000	0.043950
1396.000000	0.043771
1395.000000	0.043565
1394.000000	0.043308
1393.000000	0.043017
1392.000000	0.042712
1391.000000	0.042407
1390.000000	0.042115
1389.000000	0.041841
1388.000000	0.041557
1387.000000	0.041229
1386.000000	0.040871
1385.000000	0.040528
1384.000000	0.040218
1383.000000	0.039917
1382.000000	0.039615
1381.000000	0.039332
1380.000000	0.039059
1379.000000	0.038763
1378.000000	0.038420
1377.000000	0.038045
1376.000000	0.037656
1375.000000	0.037254
1374.000000	0.036837
1373.000000	0.036420
1372.000000	0.036023
1371.000000	0.035647
1370.000000	0.035273
1369.000000	0.034864
1368.000000	0.034406
1367.000000	0.033910
1366.000000	0.033413
1365.000000	0.032950
1364.000000	0.032535
1363.000000	0.032160
1362.000000	0.031813
1361.000000	0.031494
1360.000000	0.031215
1359.000000	0.030985
1358.000000	0.030800
1357.000000	0.030650
1356.000000	0.030535
1355.000000	0.030463
1354.000000	0.030441
1353.000000	0.030464
1352.000000	0.030521
1351.000000	0.030608
1350.000000	0.030729
1349.000000	0.030879
1348.000000	0.031051
1347.000000	0.031241
1346.000000	0.031440
1345.000000	0.031642
1344.000000	0.031848
1343.000000	0.032073
1342.000000	0.032330
1341.000000	0.032603
1340.000000	0.032855
1339.000000	0.033049
1338.000000	0.033174
1337.000000	0.033234
1336.000000	0.033227
1335.000000	0.033152
1334.000000	0.033024
1333.000000	0.032867
1332.000000	0.032699
1331.000000	0.032522
1330.000000	0.032335
1329.000000	0.032133
1328.000000	0.031920
1327.000000	0.031707
1326.000000	0.031519
1325.000000	0.031371
1324.000000	0.031260
1323.000000	0.031175
1322.000000	0.031109
1321.000000	0.031067
1320.000000	0.031043
1319.000000	0.031014
1318.000000	0.030955
1317.000000	0.030865
1316.000000	0.030764
1315.000000	0.030663
1314.000000	0.030552
1313.000000	0.030412
1312.000000	0.030240
1311.000000	0.030054
1310.000000	0.029866
1309.000000	0.029679
1308.000000	0.029489
1307.000000	0.029304
1306.000000	0.029133
1305.000000	0.028976
1304.000000	0.028820
1303.000000	0.028660
1302.000000	0.028501
1301.000000	0.028349
1300.000000	0.028199
1299.000000	0.028049
1298.000000	0.027909
1297.000000	0.027797
1296.000000	0.027722
1295.000000	0.027680
1294.000000	0.027664
1293.000000	0.027680
1292.000000	0.027739
1291.000000	0.027841
1290.000000	0.027966
1289.000000	0.028102
1288.000000	0.028247
1287.000000	0.028409
1286.000000	0.028584
1285.000000	0.028755
1284.000000	0.028914
1283.000000	0.029064
1282.000000	0.029213
1281.000000	0.029358
1280.000000	0.029479
1279.000000	0.029561
1278.000000	0.029613
1277.000000	0.029660
1276.000000	0.029714
1275.000000	0.029765
1274.000000	0.029802
1273.000000	0.029831
1272.000000	0.029871
1271.000000	0.029935
1270.000000	0.030024
1269.000000	0.030139
1268.000000	0.030281
1267.000000	0.030446
1266.000000	0.030621
1265.000000	0.030805
1264.000000	0.031005
1263.000000	0.031223
1262.000000	0.031445
1261.000000	0.031660
1260.000000	0.031866
1259.000000	0.032078
1258.000000	0.032305
1257.000000	0.032546
1256.000000	0.032786
1255.000000	0.033016
1254.000000	0.033240
1253.000000	0.033479
1252.000000	0.033741
1251.000000	0.034012
1250.000000	0.034273
1249.000000	0.034525
1248.000000	0.034789
1247.000000	0.035080
1246.000000	0.035390
1245.000000	0.035691
1244.000000	0.035958
1243.000000	0.036176
1242.000000	0.036346
1241.000000	0.036488
1240.000000	0.036616
1239.000000	0.036732
1238.000000	0.036823
1237.000000	0.036871
1236.000000	0.036863
1235.000000	0.036792
1234.000000	0.036655
1233.000000	0.036459
1232.000000	0.036211
1231.000000	0.035931
1230.000000	0.035635
1229.000000	0.035325
1228.000000	0.034983
1227.000000	0.034592
1226.000000	0.034151
1225.000000	0.033670
1224.000000	0.033163
1223.000000	0.032640
1222.000000	0.032109
1221.000000	0.031580
1220.000000	0.031063
1219.000000	0.030580
1218.000000	0.030157
1217.000000	0.029819
1216.000000	0.029568
1215.000000	0.029385
1214.000000	0.029242
1213.000000	0.029119
1212.000000	0.029005
1211.000000	0.028905
1210.000000	0.028836
1209.000000	0.028812
1208.000000	0.028838
1207.000000	0.028893
1206.000000	0.028950
1205.000000	0.028992
1204.000000	0.029009
1203.000000	0.028994
1202.000000	0.028936
1201.000000	0.028822
1200.000000	0.028650
1199.000000	0.028429
1198.000000	0.028176
1197.000000	0.027907
1196.000000	0.027632
1195.000000	0.027347
1194.000000	0.027041
1193.000000	0.026716
1192.000000	0.026386
1191.000000	0.026073
1190.000000	0.025787
1189.000000	0.025525
1188.000000	0.025278
1187.000000	0.025043
1186.000000	0.024823
1185.000000	0.024621
1184.000000	0.024443
1183.000000	0.024299
1182.000000	0.024193
1181.000000	0.024127
1180.000000	0.024097
1179.000000	0.024102
1178.000000	0.024140
1177.000000	0.024204
1176.000000	0.024281
1175.000000	0.024358
1174.000000	0.024431
1173.000000	0.024504
1172.000000	0.024588
1171.000000	0.024692
1170.000000	0.024815
1169.000000	0.024962
1168.000000	0.025139
1167.000000	0.025352
1166.000000	0.025592
1165.000000	0.025837
1164.000000	0.026065
1163.000000	0.026264
1162.000000	0.026428
1161.000000	0.026549
1160.000000	0.026617
1159.000000	0.026622
1158.000000	0.026559
1157.000000	0.026437
1156.000000	0.026271
1155.000000	0.026076
1154.000000	0.025869
1153.000000	0.025653
1152.000000	0.025420
1151.000000	0.025158
1150.000000	0.024867
1149.000000	0.024565
1148.000000	0.024274
1147.000000	0.024005
1146.000000	0.023757
1145.000000	0.023516
1144.000000	0.023266
1143.000000	0.023005
1142.000000	0.022748
1141.000000	0.022518
1140.000000	0.022319
1139.000000	0.022133
1138.000000	0.021944
1137.000000	0.021768
1136.000000	0.021639
1135.000000	0.021572
1134.000000	0.021548
1133.000000	0.021535
1132.000000	0.021523
1131.000000	0.021526
1130.000000	0.021559
1129.000000	0.021630
1128.000000	0.021733
1127.000000	0.021854
1126.000000	0.021977
1125.000000	0.022088
1124.000000	0.022184
1123.000000	0.022267
1122.000000	0.022341
1121.000000	0.022422
1120.000000	0.022532
1119.000000	0.022678
1118.000000	0.022846
1117.000000	0.023020
1116.000000	0.023192
1115.000000	0.023369
1114.000000	0.023549
1113.000000	0.023728
1112.000000	0.023901
1111.000000	0.024066
1110.000000	0.024210
1109.000000	0.024321
1108.000000	0.024400
1107.000000	0.024467
1106.000000	0.024543
1105.000000	0.024636
1104.000000	0.024743
1103.000000	0.024856
1102.000000	0.024966
1101.000000	0.025070
1100.000000	0.025172
1099.000000	0.025277
1098.000000	0.025383
1097.000000	0.025484
1096.000000	0.025585
1095.000000	0.025701
1094.000000	0.025851
1093.000000	0.026040
1092.000000	0.026267
1091.000000	0.026533
1090.000000	0.026850
1089.000000	0.027227
1088.000000	0.027656
1087.000000	0.028106
1086.000000	0.028540
1085.000000	0.028933
1084.000000	0.029272
1083.000000	0.029552
1082.000000	0.029772
1081.000000	0.029926
1080.000000	0.029997
1079.000000	0.029967
1078.000000	0.029839
1077.000000	0.029637
1076.000000	0.029387
1075.000000	0.029101
1074.000000	0.028782
1073.000000	0.028447
1072.000000	0.028134
1071.000000	0.027887
1070.000000	0.027732
1069.000000	0.027665
1068.000000	0.027661
1067.000000	0.027694
1066.000000	0.027749
1065.000000	0.027828
1064.000000	0.027936
1063.000000	0.028081
1062.000000	0.028256
1061.000000	0.028442
1060.000000	0.028603
1059.000000	0.028710
1058.000000	0.028759
1057.000000	0.028777
1056.000000	0.028793
1055.000000	0.028825
1054.000000	0.028871
1053.000000	0.028922
1052.000000	0.028966
1051.000000	0.028996
1050.000000	0.029019
1049.000000	0.029055
1048.000000	0.029118
1047.000000	0.029203
1046.000000	0.029298
1045.000000	0.029398
1044.000000	0.029502
1043.000000	0.029604
1042.000000	0.029706
1041.000000	0.029828
1040.000000	0.030000
1039.000000	0.030239
1038.000000	0.030546
1037.000000	0.030908
1036.000000	0.031306
1035.000000	0.031708
1034.000000	0.032084
1033.000000	0.032427
1032.000000	0.032752
1031.000000	0.033061
1030.000000	0.033335
1029.000000	0.033551
1028.000000	0.033705
1027.000000	0.033814
1026.000000	0.033894
1025.000000	0.033959
1024.000000	0.034031
1023.000000	0.034142
1022.000000	0.034309
1021.000000	0.034510
1020.000000	0.034699
1019.000000	0.034830
1018.000000	0.034874
1017.000000	0.034811
1016.000000	0.034624
1015.000000	0.034308
1014.000000	0.033877
1013.000000	0.033357
1012.000000	0.032773
1011.000000	0.032149
1010.000000	0.031511
1009.000000	0.030878
1008.000000	0.030257
1007.000000	0.029652
1006.000000	0.029072
1005.000000	0.028525
1004.000000	0.028007
1003.000000	0.027513
1002.000000	0.027049
1001.000000	0.026624
1000.000000	0.026236
999.000000	0.025872
998.000000	0.025521
997.000000	0.025182
996.000000	0.024851
995.000000	0.024514
994.000000	0.024154
993.000000	0.023771
992.000000	0.023378
991.000000	0.022993
990.000000	0.022629
989.000000	0.022291
988.000000	0.021972
987.000000	0.021656
986.000000	0.021329
985.000000	0.020989
984.000000	0.020657
983.000000	0.020357
982.000000	0.020095
981.000000	0.019854
980.000000	0.019622
979.000000	0.019402
978.000000	0.019206
977.000000	0.019032
976.000000	0.018861
975.000000	0.018678
974.000000	0.018486
973.000000	0.018301
972.000000	0.018132
971.000000	0.017966
970.000000	0.017778
969.000000	0.017556
968.000000	0.017302
967.000000	0.017028
966.000000	0.016743
965.000000	0.016454
964.000000	0.016167
963.000000	0.015895
962.000000	0.015647
961.000000	0.015431
960.000000	0.015243
959.000000	0.015074
958.000000	0.014913
957.000000	0.014750
956.000000	0.014587
955.000000	0.014431
954.000000	0.014285
953.000000	0.014144
952.000000	0.013995
951.000000	0.013835
950.000000	0.013671
949.000000	0.013517
948.000000	0.013388
947.000000	0.013291
946.000000	0.013232
945.000000	0.013214
944.000000	0.013235
943.000000	0.013274
942.000000	0.013298
941.000000	0.013284
940.000000	0.013232
939.000000	0.013162
938.000000	0.013088
937.000000	0.013007
936.000000	0.012907
935.000000	0.012787
934.000000	0.012670
933.000000	0.012580
932.000000	0.012514
931.000000	0.012442
930.000000	0.012341
929.000000	0.012225
928.000000	0.012136
927.000000	0.012100
926.000000	0.012109
925.000000	0.012132
924.000000	0.012140
923.000000	0.012108
922.000000	0.012026
921.000000	0.011904
920.000000	0.011768
919.000000	0.011628
918.000000	0.011472
917.000000	0.011292
916.000000	0.011113
915.000000	0.010968
914.000000	0.010859
913.000000	0.010760
912.000000	0.010650
911.000000	0.010534
910.000000	0.010426
909.000000	0.010328
908.000000	0.010238
907.000000	0.010155
906.000000	0.010083
905.000000	0.010017
904.000000	0.009945
903.000000	0.009854
902.000000	0.009741
901.000000	0.009617
900.000000	0.009501
899.000000	0.009404
898.000000	0.009318
897.000000	0.009228
896.000000	0.009136
895.000000	0.009050
894.000000	0.008972
893.000000	0.008893
892.000000	0.008816
891.000000	0.008761
890.000000	0.008748
889.000000	0.008789
888.000000	0.008895
887.000000	0.009085
886.000000	0.009370
885.000000	0.009747
884.000000	0.010203
883.000000	0.010740
882.000000	0.011392
881.000000	0.012203
880.000000	0.013176
879.000000	0.014243
878.000000	0.015266
877.000000	0.016083
876.000000	0.016563
875.000000	0.016643
874.000000	0.016328
873.000000	0.015681
872.000000	0.014799
871.000000	0.013815
870.000000	0.012877
869.000000	0.012096
868.000000	0.011504
867.000000	0.011057
866.000000	0.010705
865.000000	0.010430
864.000000	0.010233
863.000000	0.010090
862.000000	0.009960
861.000000	0.009830
860.000000	0.009726
859.000000	0.009683
858.000000	0.009699
857.000000	0.009744
856.000000	0.009790
855.000000	0.009827
854.000000	0.009849
853.000000	0.009852
852.000000	0.009838
851.000000	0.009824
850.000000	0.009825
849.000000	0.009832
848.000000	0.009800
847.000000	0.009696
846.000000	0.009531
845.000000	0.009371
844.000000	0.009274
843.000000	0.009238
842.000000	0.009221
841.000000	0.009192
840.000000	0.009152
839.000000	0.009111
838.000000	0.009067
837.000000	0.009024
836.000000	0.008996
835.000000	0.008984
834.000000	0.008966
833.000000	0.008923
832.000000	0.008867
831.000000	0.008831
830.000000	0.008834
829.000000	0.008867
828.000000	0.008910
827.000000	0.008936
826.000000	0.008932
825.000000	0.008908
824.000000	0.008890
823.000000	0.008894
822.000000	0.008915
821.000000	0.008944
820.000000	0.008980
819.000000	0.009013
818.000000	0.009026
817.000000	0.009012
816.000000	0.008991
815.000000	0.008986
814.000000	0.009004
813.000000	0.009038
812.000000	0.009078
811.000000	0.009110
810.000000	0.009111
809.000000	0.009071
808.000000	0.009010
807.000000	0.008963
806.000000	0.008945
805.000000	0.008937
804.000000	0.008914
803.000000	0.008872
802.000000	0.008839
801.000000	0.008843
800.000000	0.008882
799.000000	0.008925
798.000000	0.008949
797.000000	0.008965
796.000000	0.008995
795.000000	0.009023
794.000000	0.009014
793.000000	0.008965
792.000000	0.008916
791.000000	0.008907
790.000000	0.008936
789.000000	0.008987
788.000000	0.009057
787.000000	0.009141
786.000000	0.009210
785.000000	0.009228
784.000000	0.009196
783.000000	0.009159
782.000000	0.009160
781.000000	0.009203
780.000000	0.009263
779.000000	0.009311
778.000000	0.009338
777.000000	0.009348
776.000000	0.009348
775.000000	0.009346
774.000000	0.009352
773.000000	0.009373
772.000000	0.009405
771.000000	0.009439
770.000000	0.009485
769.000000	0.009558
768.000000	0.009641
767.000000	0.009683
766.000000	0.009647
765.000000	0.009566
764.000000	0.009508
763.000000	0.009506
762.000000	0.009546
761.000000	0.009604
760.000000	0.009658
759.000000	0.009686
758.000000	0.009673
757.000000	0.009638
756.000000	0.009621
755.000000	0.009626
754.000000	0.009617
753.000000	0.009574
752.000000	0.009526
751.000000	0.009509
750.000000	0.009519
749.000000	0.009538
748.000000	0.009569
747.000000	0.009625
746.000000	0.009692
745.000000	0.009747
744.000000	0.009781
743.000000	0.009801
742.000000	0.009804
741.000000	0.009789
740.000000	0.009771
739.000000	0.009773
738.000000	0.009803
737.000000	0.009856
736.000000	0.009929
735.000000	0.010015
734.000000	0.010097
733.000000	0.010167
732.000000	0.010230
731.000000	0.010290
730.000000	0.010341
729.000000	0.010397
728.000000	0.010501
727.000000	0.010680
726.000000	0.010915
725.000000	0.011169
724.000000	0.011424
723.000000	0.011679
722.000000	0.011929
721.000000	0.012157
720.000000	0.012346
719.000000	0.012489
718.000000	0.012598
717.000000	0.012724
716.000000	0.012939
715.000000	0.013268
714.000000	0.013640
713.000000	0.013933
712.000000	0.014066
711.000000	0.014046
710.000000	0.013953
709.000000	0.013884
708.000000	0.013902
707.000000	0.013993
706.000000	0.014098
705.000000	0.014189
704.000000	0.014288
703.000000	0.014405
702.000000	0.014500
701.000000	0.014532
700.000000	0.014527
699.000000	0.014538
698.000000	0.014566
697.000000	0.014567
696.000000	0.014538
695.000000	0.014522
694.000000	0.014533
693.000000	0.014513
692.000000	0.014428
691.000000	0.014328
690.000000	0.014302
689.000000	0.014391
688.000000	0.014556
687.000000	0.014725
686.000000	0.014831
685.000000	0.014844
684.000000	0.014803
683.000000	0.014786
682.000000	0.014834
681.000000	0.014921
680.000000	0.015017
679.000000	0.015129
678.000000	0.015271
677.000000	0.015441
676.000000	0.015626
675.000000	0.015812
674.000000	0.015989
673.000000	0.016158
672.000000	0.016326
671.000000	0.016482
670.000000	0.016583
669.000000	0.016593
668.000000	0.016651
667.000000	0.016802
666.000000	0.016822
665.000000	0.016827
664.000000	0.016879
663.000000	0.016903
662.000000	0.016843
661.000000	0.016725
660.000000	0.016593
659.000000	0.016457
658.000000	0.016329
657.000000	0.016271
656.000000	0.016316
655.000000	0.016408
654.000000	0.016469
653.000000	0.016488
652.000000	0.016482
651.000000	0.016456
650.000000	0.016427
649.000000	0.016426
648.000000	0.016448
647.000000	0.016444
646.000000	0.016406
645.000000	0.016380
644.000000	0.016400
643.000000	0.016452
642.000000	0.016507
641.000000	0.016547
640.000000	0.016552
639.000000	0.016499
638.000000	0.016404
637.000000	0.016307
636.000000	0.016216
635.000000	0.016119
634.000000	0.016050
633.000000	0.016062
632.000000	0.016142
631.000000	0.016206
630.000000	0.016208
629.000000	0.016190
628.000000	0.016213
627.000000	0.016287
626.000000	0.016408
625.000000	0.016566
624.000000	0.016718
623.000000	0.016803
622.000000	0.016791
621.000000	0.016713
620.000000	0.016612
619.000000	0.016528
618.000000	0.016508
617.000000	0.016570
616.000000	0.016659
615.000000	0.016685
614.000000	0.016634
613.000000	0.016575
612.000000	0.016557
611.000000	0.016567
610.000000	0.016599
609.000000	0.016674
608.000000	0.016771
607.000000	0.016822
606.000000	0.016809
605.000000	0.016795
604.000000	0.016820
603.000000	0.016841
602.000000	0.016812
601.000000	0.016757
600.000000	0.016718
599.000000	0.016678
598.000000	0.016606
597.000000	0.016515
596.000000	0.016428
595.000000	0.016332
594.000000	0.016210
593.000000	0.016096
592.000000	0.016041
591.000000	0.016059
590.000000	0.016131
589.000000	0.016239
588.000000	0.016338
587.000000	0.016358
586.000000	0.016283
585.000000	0.016205
584.000000	0.016237
583.000000	0.016398
582.000000	0.016615
581.000000	0.016804
580.000000	0.016897
579.000000	0.016840
578.000000	0.016636
577.000000	0.016368
576.000000	0.016145
575.000000	0.016024
574.000000	0.016016
573.000000	0.016129
572.000000	0.016348
571.000000	0.016596
570.000000	0.016767
569.000000	0.016819
568.000000	0.016792
567.000000	0.016760
566.000000	0.016797
565.000000	0.016941
564.000000	0.017153
563.000000	0.017330
562.000000	0.017396
561.000000	0.017385
560.000000	0.017389
559.000000	0.017448
558.000000	0.017514
557.000000	0.017519
556.000000	0.017437
555.000000	0.017312
554.000000	0.017217
553.000000	0.017178
552.000000	0.017139
551.000000	0.017042
550.000000	0.016919
549.000000	0.016851
548.000000	0.016856
547.000000	0.016873
546.000000	0.016876
545.000000	0.016900
544.000000	0.016959
543.000000	0.017031
542.000000	0.017134
541.000000	0.017311
540.000000	0.017514
539.000000	0.017619
538.000000	0.017598
537.000000	0.017585
536.000000	0.017699
535.000000	0.017904
534.000000	0.018106
533.000000	0.018276
532.000000	0.018402
531.000000	0.018423
530.000000	0.018322
529.000000	0.018184
528.000000	0.018090
527.000000	0.018013
526.000000	0.017897
525.000000	0.017762
524.000000	0.017644
523.000000	0.017503
522.000000	0.017280
521.000000	0.016952
520.000000	0.016508
519.000000	0.015955
518.000000	0.015412
517.000000	0.015071
516.000000	0.014978
515.000000	0.014963
514.000000	0.014855
513.000000	0.014641
512.000000	0.014381
511.000000	0.014089
510.000000	0.013800
509.000000	0.013632
508.000000	0.013646
507.000000	0.013731
506.000000	0.013727
505.000000	0.013610
504.000000	0.013449
503.000000	0.013296
502.000000	0.013191
501.000000	0.013204
500.000000	0.013329
499.000000	0.013434
498.000000	0.013386
497.000000	0.013203
496.000000	0.013009
495.000000	0.012920
494.000000	0.013003
493.000000	0.013228
492.000000	0.013400
491.000000	0.013286
490.000000	0.012926
489.000000	0.012662
488.000000	0.012736
487.000000	0.013005
486.000000	0.013200
485.000000	0.013309
484.000000	0.013493
483.000000	0.013722
482.000000	0.013780
481.000000	0.013578
480.000000	0.013216
479.000000	0.012776
478.000000	0.012310
477.000000	0.011968
476.000000	0.011901
475.000000	0.012047
474.000000	0.012180
473.000000	0.012185
472.000000	0.012149
471.000000	0.012185
470.000000	0.012337
469.000000	0.012631
468.000000	0.013038
467.000000	0.013369
466.000000	0.013409
465.000000	0.013131
464.000000	0.012617
463.000000	0.011864
462.000000	0.010859
461.000000	0.009748
460.000000	0.008751
459.000000	0.008025
458.000000	0.007718
457.000000	0.007955
456.000000	0.008607
455.000000	0.009256
454.000000	0.009553
453.000000	0.009509
452.000000	0.009415
451.000000	0.009376
450.000000	0.009155
