PE IR       SUBTECH     SPECTRUM    ASCII       PEDS        4.00        
   -1
3G-N10-F039_1.ASC
22/02/24
11:02:46.00
22/02/24
11:04:21.00
uco
Sample 039 By uco Date Thursday, February 24 2022
450.000000
#HDR
-1
-1
#GR
cm-1
A
1.0
0.0
4000.000000
-1.000000
3551
8
0.057898
0.008430
#DATA
4000.000000	0.009542
3999.000000	0.009549
3998.000000	0.009554
3997.000000	0.009554
3996.000000	0.009551
3995.000000	0.009513
3994.000000	0.009512
3993.000000	0.009519
3992.000000	0.009530
3991.000000	0.009544
3990.000000	0.009560
3989.000000	0.009577
3988.000000	0.009594
3987.000000	0.009610
3986.000000	0.009625
3985.000000	0.009639
3984.000000	0.009653
3983.000000	0.009668
3982.000000	0.009682
3981.000000	0.009696
3980.000000	0.009707
3979.000000	0.009716
3978.000000	0.009720
3977.000000	0.009718
3976.000000	0.009710
3975.000000	0.009693
3974.000000	0.009672
3973.000000	0.009647
3972.000000	0.009621
3971.000000	0.009599
3970.000000	0.009586
3969.000000	0.009593
3968.000000	0.009619
3967.000000	0.009654
3966.000000	0.009681
3965.000000	0.009693
3964.000000	0.009692
3963.000000	0.009685
3962.000000	0.009680
3961.000000	0.009676
3960.000000	0.009669
3959.000000	0.009662
3958.000000	0.009658
3957.000000	0.009666
3956.000000	0.009687
3955.000000	0.009710
3954.000000	0.009725
3953.000000	0.009725
3952.000000	0.009718
3951.000000	0.009716
3950.000000	0.009724
3949.000000	0.009735
3948.000000	0.009737
3947.000000	0.009722
3946.000000	0.009692
3945.000000	0.009658
3944.000000	0.009636
3943.000000	0.009640
3942.000000	0.009673
3941.000000	0.009719
3940.000000	0.009754
3939.000000	0.009764
3938.000000	0.009749
3937.000000	0.009724
3936.000000	0.009702
3935.000000	0.009690
3934.000000	0.009686
3933.000000	0.009689
3932.000000	0.009697
3931.000000	0.009708
3930.000000	0.009718
3929.000000	0.009721
3928.000000	0.009718
3927.000000	0.009714
3926.000000	0.009715
3925.000000	0.009725
3924.000000	0.009739
3923.000000	0.009753
3922.000000	0.009761
3921.000000	0.009760
3920.000000	0.009750
3919.000000	0.009734
3918.000000	0.009721
3917.000000	0.009717
3916.000000	0.009723
3915.000000	0.009736
3914.000000	0.009748
3913.000000	0.009753
3912.000000	0.009755
3911.000000	0.009760
3910.000000	0.009772
3909.000000	0.009789
3908.000000	0.009801
3907.000000	0.009803
3906.000000	0.009794
3905.000000	0.009786
3904.000000	0.009795
3903.000000	0.009819
3902.000000	0.009843
3901.000000	0.009850
3900.000000	0.009839
3899.000000	0.009822
3898.000000	0.009815
3897.000000	0.009815
3896.000000	0.009812
3895.000000	0.009799
3894.000000	0.009781
3893.000000	0.009767
3892.000000	0.009771
3891.000000	0.009792
3890.000000	0.009821
3889.000000	0.009846
3888.000000	0.009863
3887.000000	0.009873
3886.000000	0.009872
3885.000000	0.009860
3884.000000	0.009838
3883.000000	0.009807
3882.000000	0.009774
3881.000000	0.009751
3880.000000	0.009751
3879.000000	0.009773
3878.000000	0.009798
3877.000000	0.009811
3876.000000	0.009810
3875.000000	0.009806
3874.000000	0.009812
3873.000000	0.009831
3872.000000	0.009854
3871.000000	0.009865
3870.000000	0.009864
3869.000000	0.009867
3868.000000	0.009882
3867.000000	0.009905
3866.000000	0.009926
3865.000000	0.009930
3864.000000	0.009912
3863.000000	0.009879
3862.000000	0.009847
3861.000000	0.009827
3860.000000	0.009822
3859.000000	0.009825
3858.000000	0.009834
3857.000000	0.009850
3856.000000	0.009873
3855.000000	0.009896
3854.000000	0.009913
3853.000000	0.009933
3852.000000	0.009950
3851.000000	0.009949
3850.000000	0.009933
3849.000000	0.009910
3848.000000	0.009885
3847.000000	0.009859
3846.000000	0.009834
3845.000000	0.009818
3844.000000	0.009818
3843.000000	0.009832
3842.000000	0.009850
3841.000000	0.009864
3840.000000	0.009866
3839.000000	0.009858
3838.000000	0.009844
3837.000000	0.009827
3836.000000	0.009807
3835.000000	0.009789
3834.000000	0.009781
3833.000000	0.009789
3832.000000	0.009805
3831.000000	0.009823
3830.000000	0.009834
3829.000000	0.009836
3828.000000	0.009831
3827.000000	0.009825
3826.000000	0.009824
3825.000000	0.009832
3824.000000	0.009847
3823.000000	0.009863
3822.000000	0.009873
3821.000000	0.009878
3820.000000	0.009885
3819.000000	0.009895
3818.000000	0.009905
3817.000000	0.009911
3816.000000	0.009907
3815.000000	0.009891
3814.000000	0.009863
3813.000000	0.009834
3812.000000	0.009815
3811.000000	0.009812
3810.000000	0.009816
3809.000000	0.009817
3808.000000	0.009815
3807.000000	0.009822
3806.000000	0.009849
3805.000000	0.009890
3804.000000	0.009932
3803.000000	0.009950
3802.000000	0.009932
3801.000000	0.009890
3800.000000	0.009852
3799.000000	0.009822
3798.000000	0.009796
3797.000000	0.009767
3796.000000	0.009732
3795.000000	0.009696
3794.000000	0.009669
3793.000000	0.009661
3792.000000	0.009675
3791.000000	0.009702
3790.000000	0.009725
3789.000000	0.009731
3788.000000	0.009720
3787.000000	0.009699
3786.000000	0.009679
3785.000000	0.009671
3784.000000	0.009681
3783.000000	0.009709
3782.000000	0.009744
3781.000000	0.009767
3780.000000	0.009766
3779.000000	0.009749
3778.000000	0.009734
3777.000000	0.009729
3776.000000	0.009729
3775.000000	0.009725
3774.000000	0.009713
3773.000000	0.009694
3772.000000	0.009670
3771.000000	0.009650
3770.000000	0.009645
3769.000000	0.009662
3768.000000	0.009687
3767.000000	0.009700
3766.000000	0.009693
3765.000000	0.009675
3764.000000	0.009657
3763.000000	0.009643
3762.000000	0.009626
3761.000000	0.009606
3760.000000	0.009594
3759.000000	0.009603
3758.000000	0.009633
3757.000000	0.009672
3756.000000	0.009710
3755.000000	0.009750
3754.000000	0.009795
3753.000000	0.009840
3752.000000	0.009879
3751.000000	0.009913
3750.000000	0.009941
3749.000000	0.009952
3748.000000	0.009940
3747.000000	0.009918
3746.000000	0.009901
3745.000000	0.009890
3744.000000	0.009881
3743.000000	0.009852
3742.000000	0.009791
3741.000000	0.009719
3740.000000	0.009671
3739.000000	0.009666
3738.000000	0.009694
3737.000000	0.009721
3736.000000	0.009706
3735.000000	0.009643
3734.000000	0.009565
3733.000000	0.009511
3732.000000	0.009494
3731.000000	0.009502
3730.000000	0.009517
3729.000000	0.009529
3728.000000	0.009538
3727.000000	0.009546
3726.000000	0.009557
3725.000000	0.009574
3724.000000	0.009585
3723.000000	0.009578
3722.000000	0.009554
3721.000000	0.009526
3720.000000	0.009507
3719.000000	0.009505
3718.000000	0.009519
3717.000000	0.009542
3716.000000	0.009567
3715.000000	0.009592
3714.000000	0.009623
3713.000000	0.009665
3712.000000	0.009708
3711.000000	0.009730
3710.000000	0.009721
3709.000000	0.009690
3708.000000	0.009657
3707.000000	0.009631
3706.000000	0.009607
3705.000000	0.009582
3704.000000	0.009551
3703.000000	0.009519
3702.000000	0.009497
3701.000000	0.009491
3700.000000	0.009504
3699.000000	0.009527
3698.000000	0.009550
3697.000000	0.009574
3696.000000	0.009603
3695.000000	0.009643
3694.000000	0.009690
3693.000000	0.009730
3692.000000	0.009755
3691.000000	0.009768
3690.000000	0.009773
3689.000000	0.009772
3688.000000	0.009758
3687.000000	0.009736
3686.000000	0.009714
3685.000000	0.009704
3684.000000	0.009707
3683.000000	0.009714
3682.000000	0.009725
3681.000000	0.009760
3680.000000	0.009842
3679.000000	0.009981
3678.000000	0.010155
3677.000000	0.010297
3676.000000	0.010338
3675.000000	0.010287
3674.000000	0.010212
3673.000000	0.010157
3672.000000	0.010121
3671.000000	0.010087
3670.000000	0.010045
3669.000000	0.010008
3668.000000	0.009983
3667.000000	0.009962
3666.000000	0.009941
3665.000000	0.009919
3664.000000	0.009899
3663.000000	0.009886
3662.000000	0.009884
3661.000000	0.009896
3660.000000	0.009913
3659.000000	0.009930
3658.000000	0.009941
3657.000000	0.009949
3656.000000	0.009968
3655.000000	0.010007
3654.000000	0.010070
3653.000000	0.010151
3652.000000	0.010234
3651.000000	0.010291
3650.000000	0.010302
3649.000000	0.010287
3648.000000	0.010274
3647.000000	0.010277
3646.000000	0.010290
3645.000000	0.010302
3644.000000	0.010306
3643.000000	0.010304
3642.000000	0.010303
3641.000000	0.010313
3640.000000	0.010333
3639.000000	0.010361
3638.000000	0.010396
3637.000000	0.010441
3636.000000	0.010496
3635.000000	0.010552
3634.000000	0.010600
3633.000000	0.010641
3632.000000	0.010683
3631.000000	0.010729
3630.000000	0.010774
3629.000000	0.010811
3628.000000	0.010842
3627.000000	0.010864
3626.000000	0.010869
3625.000000	0.010867
3624.000000	0.010870
3623.000000	0.010879
3622.000000	0.010892
3621.000000	0.010909
3620.000000	0.010937
3619.000000	0.010985
3618.000000	0.011051
3617.000000	0.011121
3616.000000	0.011186
3615.000000	0.011247
3614.000000	0.011309
3613.000000	0.011372
3612.000000	0.011433
3611.000000	0.011485
3610.000000	0.011519
3609.000000	0.011529
3608.000000	0.011522
3607.000000	0.011519
3606.000000	0.011539
3605.000000	0.011583
3604.000000	0.011637
3603.000000	0.011689
3602.000000	0.011735
3601.000000	0.011785
3600.000000	0.011842
3599.000000	0.011904
3598.000000	0.011964
3597.000000	0.012014
3596.000000	0.012050
3595.000000	0.012074
3594.000000	0.012093
3593.000000	0.012121
3592.000000	0.012167
3591.000000	0.012227
3590.000000	0.012289
3589.000000	0.012335
3588.000000	0.012368
3587.000000	0.012409
3586.000000	0.012477
3585.000000	0.012563
3584.000000	0.012645
3583.000000	0.012709
3582.000000	0.012754
3581.000000	0.012791
3580.000000	0.012833
3579.000000	0.012889
3578.000000	0.012962
3577.000000	0.013046
3576.000000	0.013135
3575.000000	0.013228
3574.000000	0.013323
3573.000000	0.013415
3572.000000	0.013496
3571.000000	0.013563
3570.000000	0.013622
3569.000000	0.013679
3568.000000	0.013730
3567.000000	0.013771
3566.000000	0.013805
3565.000000	0.013842
3564.000000	0.013885
3563.000000	0.013936
3562.000000	0.013992
3561.000000	0.014051
3560.000000	0.014109
3559.000000	0.014169
3558.000000	0.014237
3557.000000	0.014314
3556.000000	0.014399
3555.000000	0.014484
3554.000000	0.014566
3553.000000	0.014644
3552.000000	0.014712
3551.000000	0.014768
3550.000000	0.014815
3549.000000	0.014863
3548.000000	0.014921
3547.000000	0.014993
3546.000000	0.015071
3545.000000	0.015143
3544.000000	0.015200
3543.000000	0.015243
3542.000000	0.015285
3541.000000	0.015335
3540.000000	0.015396
3539.000000	0.015462
3538.000000	0.015528
3537.000000	0.015596
3536.000000	0.015670
3535.000000	0.015745
3534.000000	0.015811
3533.000000	0.015861
3532.000000	0.015900
3531.000000	0.015941
3530.000000	0.015998
3529.000000	0.016073
3528.000000	0.016163
3527.000000	0.016260
3526.000000	0.016355
3525.000000	0.016436
3524.000000	0.016493
3523.000000	0.016527
3522.000000	0.016555
3521.000000	0.016599
3520.000000	0.016670
3519.000000	0.016759
3518.000000	0.016844
3517.000000	0.016904
3516.000000	0.016936
3515.000000	0.016953
3514.000000	0.016976
3513.000000	0.017017
3512.000000	0.017077
3511.000000	0.017147
3510.000000	0.017218
3509.000000	0.017287
3508.000000	0.017355
3507.000000	0.017425
3506.000000	0.017501
3505.000000	0.017581
3504.000000	0.017659
3503.000000	0.017729
3502.000000	0.017787
3501.000000	0.017834
3500.000000	0.017874
3499.000000	0.017911
3498.000000	0.017947
3497.000000	0.017987
3496.000000	0.018033
3495.000000	0.018091
3494.000000	0.018159
3493.000000	0.018230
3492.000000	0.018295
3491.000000	0.018351
3490.000000	0.018403
3489.000000	0.018454
3488.000000	0.018503
3487.000000	0.018554
3486.000000	0.018615
3485.000000	0.018693
3484.000000	0.018777
3483.000000	0.018854
3482.000000	0.018917
3481.000000	0.018972
3480.000000	0.019025
3479.000000	0.019075
3478.000000	0.019119
3477.000000	0.019158
3476.000000	0.019197
3475.000000	0.019241
3474.000000	0.019297
3473.000000	0.019360
3472.000000	0.019424
3471.000000	0.019477
3470.000000	0.019522
3469.000000	0.019565
3468.000000	0.019617
3467.000000	0.019681
3466.000000	0.019753
3465.000000	0.019827
3464.000000	0.019897
3463.000000	0.019959
3462.000000	0.020014
3461.000000	0.020059
3460.000000	0.020092
3459.000000	0.020119
3458.000000	0.020157
3457.000000	0.020224
3456.000000	0.020322
3455.000000	0.020431
3454.000000	0.020527
3453.000000	0.020595
3452.000000	0.020638
3451.000000	0.020670
3450.000000	0.020708
3449.000000	0.020766
3448.000000	0.020839
3447.000000	0.020918
3446.000000	0.020993
3445.000000	0.021066
3444.000000	0.021141
3443.000000	0.021211
3442.000000	0.021269
3441.000000	0.021318
3440.000000	0.021367
3439.000000	0.021423
3438.000000	0.021485
3437.000000	0.021545
3436.000000	0.021603
3435.000000	0.021661
3434.000000	0.021724
3433.000000	0.021788
3432.000000	0.021848
3431.000000	0.021905
3430.000000	0.021966
3429.000000	0.022035
3428.000000	0.022106
3427.000000	0.022165
3426.000000	0.022207
3425.000000	0.022244
3424.000000	0.022293
3423.000000	0.022356
3422.000000	0.022429
3421.000000	0.022507
3420.000000	0.022587
3419.000000	0.022666
3418.000000	0.022735
3417.000000	0.022790
3416.000000	0.022834
3415.000000	0.022878
3414.000000	0.022926
3413.000000	0.022977
3412.000000	0.023030
3411.000000	0.023090
3410.000000	0.023161
3409.000000	0.023244
3408.000000	0.023330
3407.000000	0.023406
3406.000000	0.023465
3405.000000	0.023511
3404.000000	0.023551
3403.000000	0.023592
3402.000000	0.023637
3401.000000	0.023683
3400.000000	0.023731
3399.000000	0.023784
3398.000000	0.023848
3397.000000	0.023924
3396.000000	0.024009
3395.000000	0.024096
3394.000000	0.024177
3393.000000	0.024250
3392.000000	0.024317
3391.000000	0.024378
3390.000000	0.024427
3389.000000	0.024457
3388.000000	0.024469
3387.000000	0.024479
3386.000000	0.024503
3385.000000	0.024554
3384.000000	0.024632
3383.000000	0.024726
3382.000000	0.024817
3381.000000	0.024885
3380.000000	0.024928
3379.000000	0.024961
3378.000000	0.025008
3377.000000	0.025077
3376.000000	0.025160
3375.000000	0.025239
3374.000000	0.025306
3373.000000	0.025364
3372.000000	0.025426
3371.000000	0.025500
3370.000000	0.025591
3369.000000	0.025693
3368.000000	0.025793
3367.000000	0.025885
3366.000000	0.025967
3365.000000	0.026043
3364.000000	0.026116
3363.000000	0.026188
3362.000000	0.026263
3361.000000	0.026340
3360.000000	0.026417
3359.000000	0.026489
3358.000000	0.026550
3357.000000	0.026600
3356.000000	0.026647
3355.000000	0.026705
3354.000000	0.026785
3353.000000	0.026882
3352.000000	0.026985
3351.000000	0.027087
3350.000000	0.027186
3349.000000	0.027282
3348.000000	0.027375
3347.000000	0.027463
3346.000000	0.027544
3345.000000	0.027617
3344.000000	0.027681
3343.000000	0.027742
3342.000000	0.027812
3341.000000	0.027899
3340.000000	0.027998
3339.000000	0.028098
3338.000000	0.028189
3337.000000	0.028263
3336.000000	0.028319
3335.000000	0.028366
3334.000000	0.028419
3333.000000	0.028486
3332.000000	0.028562
3331.000000	0.028638
3330.000000	0.028710
3329.000000	0.028776
3328.000000	0.028836
3327.000000	0.028886
3326.000000	0.028929
3325.000000	0.028979
3324.000000	0.029044
3323.000000	0.029125
3322.000000	0.029206
3321.000000	0.029276
3320.000000	0.029334
3319.000000	0.029390
3318.000000	0.029461
3317.000000	0.029549
3316.000000	0.029639
3315.000000	0.029712
3314.000000	0.029756
3313.000000	0.029777
3312.000000	0.029792
3311.000000	0.029809
3310.000000	0.029830
3309.000000	0.029848
3308.000000	0.029870
3307.000000	0.029908
3306.000000	0.029973
3305.000000	0.030057
3304.000000	0.030143
3303.000000	0.030219
3302.000000	0.030284
3301.000000	0.030336
3300.000000	0.030373
3299.000000	0.030389
3298.000000	0.030386
3297.000000	0.030376
3296.000000	0.030376
3295.000000	0.030397
3294.000000	0.030441
3293.000000	0.030498
3292.000000	0.030549
3291.000000	0.030582
3290.000000	0.030599
3289.000000	0.030611
3288.000000	0.030624
3287.000000	0.030637
3286.000000	0.030641
3285.000000	0.030628
3284.000000	0.030601
3283.000000	0.030568
3282.000000	0.030538
3281.000000	0.030512
3280.000000	0.030486
3279.000000	0.030459
3278.000000	0.030431
3277.000000	0.030402
3276.000000	0.030367
3275.000000	0.030318
3274.000000	0.030253
3273.000000	0.030180
3272.000000	0.030111
3271.000000	0.030056
3270.000000	0.030018
3269.000000	0.029989
3268.000000	0.029953
3267.000000	0.029900
3266.000000	0.029829
3265.000000	0.029752
3264.000000	0.029687
3263.000000	0.029646
3262.000000	0.029625
3261.000000	0.029601
3260.000000	0.029554
3259.000000	0.029481
3258.000000	0.029395
3257.000000	0.029314
3256.000000	0.029246
3255.000000	0.029183
3254.000000	0.029111
3253.000000	0.029026
3252.000000	0.028934
3251.000000	0.028849
3250.000000	0.028779
3249.000000	0.028719
3248.000000	0.028654
3247.000000	0.028581
3246.000000	0.028505
3245.000000	0.028432
3244.000000	0.028358
3243.000000	0.028279
3242.000000	0.028197
3241.000000	0.028123
3240.000000	0.028060
3239.000000	0.028004
3238.000000	0.027947
3237.000000	0.027888
3236.000000	0.027832
3235.000000	0.027782
3234.000000	0.027734
3233.000000	0.027678
3232.000000	0.027609
3231.000000	0.027534
3230.000000	0.027464
3229.000000	0.027405
3228.000000	0.027357
3227.000000	0.027315
3226.000000	0.027277
3225.000000	0.027239
3224.000000	0.027196
3223.000000	0.027148
3222.000000	0.027100
3221.000000	0.027052
3220.000000	0.026999
3219.000000	0.026944
3218.000000	0.026896
3217.000000	0.026863
3216.000000	0.026839
3215.000000	0.026805
3214.000000	0.026751
3213.000000	0.026679
3212.000000	0.026601
3211.000000	0.026533
3210.000000	0.026487
3209.000000	0.026462
3208.000000	0.026446
3207.000000	0.026428
3206.000000	0.026402
3205.000000	0.026365
3204.000000	0.026311
3203.000000	0.026239
3202.000000	0.026158
3201.000000	0.026089
3200.000000	0.026040
3199.000000	0.026002
3198.000000	0.025953
3197.000000	0.025884
3196.000000	0.025808
3195.000000	0.025742
3194.000000	0.025695
3193.000000	0.025659
3192.000000	0.025613
3191.000000	0.025539
3190.000000	0.025441
3189.000000	0.025338
3188.000000	0.025255
3187.000000	0.025200
3186.000000	0.025159
3185.000000	0.025113
3184.000000	0.025055
3183.000000	0.024991
3182.000000	0.024929
3181.000000	0.024870
3180.000000	0.024814
3179.000000	0.024758
3178.000000	0.024697
3177.000000	0.024626
3176.000000	0.024546
3175.000000	0.024469
3174.000000	0.024404
3173.000000	0.024351
3172.000000	0.024299
3171.000000	0.024237
3170.000000	0.024163
3169.000000	0.024081
3168.000000	0.023995
3167.000000	0.023912
3166.000000	0.023838
3165.000000	0.023773
3164.000000	0.023712
3163.000000	0.023650
3162.000000	0.023585
3161.000000	0.023519
3160.000000	0.023451
3159.000000	0.023380
3158.000000	0.023300
3157.000000	0.023210
3156.000000	0.023113
3155.000000	0.023021
3154.000000	0.022946
3153.000000	0.022895
3152.000000	0.022864
3151.000000	0.022845
3150.000000	0.022821
3149.000000	0.022781
3148.000000	0.022721
3147.000000	0.022655
3146.000000	0.022594
3145.000000	0.022542
3144.000000	0.022495
3143.000000	0.022447
3142.000000	0.022398
3141.000000	0.022350
3140.000000	0.022302
3139.000000	0.022248
3138.000000	0.022187
3137.000000	0.022124
3136.000000	0.022065
3135.000000	0.022013
3134.000000	0.021966
3133.000000	0.021918
3132.000000	0.021865
3131.000000	0.021809
3130.000000	0.021760
3129.000000	0.021725
3128.000000	0.021702
3127.000000	0.021683
3126.000000	0.021663
3125.000000	0.021641
3124.000000	0.021615
3123.000000	0.021582
3122.000000	0.021540
3121.000000	0.021495
3120.000000	0.021457
3119.000000	0.021437
3118.000000	0.021434
3117.000000	0.021439
3116.000000	0.021440
3115.000000	0.021433
3114.000000	0.021423
3113.000000	0.021413
3112.000000	0.021402
3111.000000	0.021391
3110.000000	0.021385
3109.000000	0.021381
3108.000000	0.021375
3107.000000	0.021367
3106.000000	0.021366
3105.000000	0.021382
3104.000000	0.021410
3103.000000	0.021433
3102.000000	0.021434
3101.000000	0.021410
3100.000000	0.021376
3099.000000	0.021356
3098.000000	0.021364
3097.000000	0.021397
3096.000000	0.021438
3095.000000	0.021472
3094.000000	0.021493
3093.000000	0.021505
3092.000000	0.021508
3091.000000	0.021505
3090.000000	0.021501
3089.000000	0.021505
3088.000000	0.021518
3087.000000	0.021535
3086.000000	0.021547
3085.000000	0.021554
3084.000000	0.021556
3083.000000	0.021555
3082.000000	0.021550
3081.000000	0.021540
3080.000000	0.021529
3079.000000	0.021524
3078.000000	0.021526
3077.000000	0.021535
3076.000000	0.021542
3075.000000	0.021543
3074.000000	0.021540
3073.000000	0.021532
3072.000000	0.021520
3071.000000	0.021499
3070.000000	0.021468
3069.000000	0.021433
3068.000000	0.021400
3067.000000	0.021374
3066.000000	0.021359
3065.000000	0.021354
3064.000000	0.021355
3063.000000	0.021361
3062.000000	0.021367
3061.000000	0.021366
3060.000000	0.021347
3059.000000	0.021300
3058.000000	0.021229
3057.000000	0.021147
3056.000000	0.021075
3055.000000	0.021024
3054.000000	0.020992
3053.000000	0.020963
3052.000000	0.020923
3051.000000	0.020867
3050.000000	0.020805
3049.000000	0.020747
3048.000000	0.020696
3047.000000	0.020651
3046.000000	0.020609
3045.000000	0.020566
3044.000000	0.020519
3043.000000	0.020467
3042.000000	0.020412
3041.000000	0.020359
3040.000000	0.020310
3039.000000	0.020265
3038.000000	0.020225
3037.000000	0.020190
3036.000000	0.020156
3035.000000	0.020115
3034.000000	0.020062
3033.000000	0.019999
3032.000000	0.019936
3031.000000	0.019883
3030.000000	0.019844
3029.000000	0.019812
3028.000000	0.019777
3027.000000	0.019732
3026.000000	0.019682
3025.000000	0.019631
3024.000000	0.019580
3023.000000	0.019529
3022.000000	0.019486
3021.000000	0.019455
3020.000000	0.019434
3019.000000	0.019412
3018.000000	0.019378
3017.000000	0.019331
3016.000000	0.019283
3015.000000	0.019244
3014.000000	0.019221
3013.000000	0.019211
3012.000000	0.019206
3011.000000	0.019197
3010.000000	0.019185
3009.000000	0.019180
3008.000000	0.019189
3007.000000	0.019212
3006.000000	0.019239
3005.000000	0.019260
3004.000000	0.019275
3003.000000	0.019290
3002.000000	0.019309
3001.000000	0.019330
3000.000000	0.019350
2999.000000	0.019371
2998.000000	0.019398
2997.000000	0.019433
2996.000000	0.019478
2995.000000	0.019535
2994.000000	0.019608
2993.000000	0.019697
2992.000000	0.019798
2991.000000	0.019904
2990.000000	0.020018
2989.000000	0.020142
2988.000000	0.020271
2987.000000	0.020397
2986.000000	0.020522
2985.000000	0.020657
2984.000000	0.020813
2983.000000	0.020991
2982.000000	0.021181
2981.000000	0.021376
2980.000000	0.021568
2979.000000	0.021755
2978.000000	0.021934
2977.000000	0.022112
2976.000000	0.022302
2975.000000	0.022518
2974.000000	0.022762
2973.000000	0.023023
2972.000000	0.023290
2971.000000	0.023560
2970.000000	0.023840
2969.000000	0.024133
2968.000000	0.024435
2967.000000	0.024734
2966.000000	0.025022
2965.000000	0.025301
2964.000000	0.025576
2963.000000	0.025845
2962.000000	0.026097
2961.000000	0.026313
2960.000000	0.026486
2959.000000	0.026631
2958.000000	0.026772
2957.000000	0.026916
2956.000000	0.027043
2955.000000	0.027127
2954.000000	0.027162
2953.000000	0.027165
2952.000000	0.027162
2951.000000	0.027170
2950.000000	0.027188
2949.000000	0.027216
2948.000000	0.027259
2947.000000	0.027330
2946.000000	0.027440
2945.000000	0.027595
2944.000000	0.027797
2943.000000	0.028050
2942.000000	0.028349
2941.000000	0.028685
2940.000000	0.029047
2939.000000	0.029433
2938.000000	0.029850
2937.000000	0.030304
2936.000000	0.030790
2935.000000	0.031301
2934.000000	0.031834
2933.000000	0.032392
2932.000000	0.032976
2931.000000	0.033569
2930.000000	0.034145
2929.000000	0.034683
2928.000000	0.035182
2927.000000	0.035659
2926.000000	0.036120
2925.000000	0.036554
2924.000000	0.036933
2923.000000	0.037237
2922.000000	0.037456
2921.000000	0.037584
2920.000000	0.037606
2919.000000	0.037500
2918.000000	0.037240
2917.000000	0.036800
2916.000000	0.036179
2915.000000	0.035408
2914.000000	0.034547
2913.000000	0.033662
2912.000000	0.032808
2911.000000	0.032026
2910.000000	0.031334
2909.000000	0.030735
2908.000000	0.030217
2907.000000	0.029762
2906.000000	0.029358
2905.000000	0.028996
2904.000000	0.028670
2903.000000	0.028375
2902.000000	0.028099
2901.000000	0.027834
2900.000000	0.027576
2899.000000	0.027328
2898.000000	0.027093
2897.000000	0.026870
2896.000000	0.026648
2895.000000	0.026425
2894.000000	0.026207
2893.000000	0.026005
2892.000000	0.025820
2891.000000	0.025647
2890.000000	0.025481
2889.000000	0.025324
2888.000000	0.025186
2887.000000	0.025071
2886.000000	0.024978
2885.000000	0.024896
2884.000000	0.024818
2883.000000	0.024747
2882.000000	0.024692
2881.000000	0.024662
2880.000000	0.024654
2879.000000	0.024669
2878.000000	0.024704
2877.000000	0.024758
2876.000000	0.024821
2875.000000	0.024880
2874.000000	0.024927
2873.000000	0.024956
2872.000000	0.024962
2871.000000	0.024944
2870.000000	0.024909
2869.000000	0.024871
2868.000000	0.024843
2867.000000	0.024835
2866.000000	0.024852
2865.000000	0.024902
2864.000000	0.024992
2863.000000	0.025128
2862.000000	0.025321
2861.000000	0.025576
2860.000000	0.025891
2859.000000	0.026263
2858.000000	0.026686
2857.000000	0.027154
2856.000000	0.027656
2855.000000	0.028172
2854.000000	0.028673
2853.000000	0.029114
2852.000000	0.029431
2851.000000	0.029546
2850.000000	0.029390
2849.000000	0.028935
2848.000000	0.028218
2847.000000	0.027331
2846.000000	0.026385
2845.000000	0.025475
2844.000000	0.024656
2843.000000	0.023947
2842.000000	0.023343
2841.000000	0.022833
2840.000000	0.022404
2839.000000	0.022041
2838.000000	0.021724
2837.000000	0.021440
2836.000000	0.021183
2835.000000	0.020955
2834.000000	0.020761
2833.000000	0.020600
2832.000000	0.020466
2831.000000	0.020348
2830.000000	0.020236
2829.000000	0.020120
2828.000000	0.019993
2827.000000	0.019862
2826.000000	0.019741
2825.000000	0.019643
2824.000000	0.019566
2823.000000	0.019498
2822.000000	0.019421
2821.000000	0.019324
2820.000000	0.019211
2819.000000	0.019100
2818.000000	0.019009
2817.000000	0.018945
2816.000000	0.018898
2815.000000	0.018850
2814.000000	0.018786
2813.000000	0.018711
2812.000000	0.018635
2811.000000	0.018569
2810.000000	0.018514
2809.000000	0.018468
2808.000000	0.018427
2807.000000	0.018390
2806.000000	0.018356
2805.000000	0.018321
2804.000000	0.018281
2803.000000	0.018233
2802.000000	0.018176
2801.000000	0.018112
2800.000000	0.018046
2799.000000	0.017992
2798.000000	0.017960
2797.000000	0.017945
2796.000000	0.017931
2795.000000	0.017909
2794.000000	0.017876
2793.000000	0.017838
2792.000000	0.017802
2791.000000	0.017769
2790.000000	0.017739
2789.000000	0.017708
2788.000000	0.017674
2787.000000	0.017636
2786.000000	0.017596
2785.000000	0.017556
2784.000000	0.017514
2783.000000	0.017474
2782.000000	0.017441
2781.000000	0.017416
2780.000000	0.017398
2779.000000	0.017382
2778.000000	0.017361
2777.000000	0.017338
2776.000000	0.017312
2775.000000	0.017287
2774.000000	0.017262
2773.000000	0.017235
2772.000000	0.017202
2771.000000	0.017162
2770.000000	0.017124
2769.000000	0.017094
2768.000000	0.017075
2767.000000	0.017067
2766.000000	0.017062
2765.000000	0.017049
2764.000000	0.017022
2763.000000	0.016987
2762.000000	0.016956
2761.000000	0.016932
2760.000000	0.016907
2759.000000	0.016876
2758.000000	0.016850
2757.000000	0.016842
2756.000000	0.016848
2755.000000	0.016847
2754.000000	0.016822
2753.000000	0.016780
2752.000000	0.016735
2751.000000	0.016700
2750.000000	0.016677
2749.000000	0.016663
2748.000000	0.016656
2747.000000	0.016650
2746.000000	0.016637
2745.000000	0.016613
2744.000000	0.016587
2743.000000	0.016568
2742.000000	0.016560
2741.000000	0.016560
2740.000000	0.016561
2739.000000	0.016559
2738.000000	0.016548
2737.000000	0.016527
2736.000000	0.016498
2735.000000	0.016473
2734.000000	0.016459
2733.000000	0.016454
2732.000000	0.016444
2731.000000	0.016425
2730.000000	0.016403
2729.000000	0.016385
2728.000000	0.016372
2727.000000	0.016354
2726.000000	0.016330
2725.000000	0.016302
2724.000000	0.016276
2723.000000	0.016256
2722.000000	0.016244
2721.000000	0.016235
2720.000000	0.016220
2719.000000	0.016192
2718.000000	0.016161
2717.000000	0.016136
2716.000000	0.016122
2715.000000	0.016112
2714.000000	0.016102
2713.000000	0.016091
2712.000000	0.016077
2711.000000	0.016057
2710.000000	0.016033
2709.000000	0.016011
2708.000000	0.015999
2707.000000	0.015995
2706.000000	0.015988
2705.000000	0.015977
2704.000000	0.015970
2703.000000	0.015976
2702.000000	0.015989
2701.000000	0.015990
2700.000000	0.015968
2699.000000	0.015932
2698.000000	0.015901
2697.000000	0.015884
2696.000000	0.015874
2695.000000	0.015862
2694.000000	0.015846
2693.000000	0.015830
2692.000000	0.015815
2691.000000	0.015798
2690.000000	0.015784
2689.000000	0.015781
2688.000000	0.015787
2687.000000	0.015791
2686.000000	0.015788
2685.000000	0.015779
2684.000000	0.015772
2683.000000	0.015767
2682.000000	0.015756
2681.000000	0.015734
2680.000000	0.015710
2679.000000	0.015698
2678.000000	0.015704
2677.000000	0.015719
2676.000000	0.015727
2675.000000	0.015716
2674.000000	0.015687
2673.000000	0.015647
2672.000000	0.015609
2671.000000	0.015584
2670.000000	0.015580
2669.000000	0.015592
2668.000000	0.015605
2667.000000	0.015607
2666.000000	0.015596
2665.000000	0.015579
2664.000000	0.015560
2663.000000	0.015541
2662.000000	0.015523
2661.000000	0.015505
2660.000000	0.015485
2659.000000	0.015463
2658.000000	0.015439
2657.000000	0.015412
2656.000000	0.015382
2655.000000	0.015352
2654.000000	0.015327
2653.000000	0.015310
2652.000000	0.015299
2651.000000	0.015291
2650.000000	0.015285
2649.000000	0.015279
2648.000000	0.015271
2647.000000	0.015253
2646.000000	0.015221
2645.000000	0.015169
2644.000000	0.015106
2643.000000	0.015046
2642.000000	0.015001
2641.000000	0.014971
2640.000000	0.014949
2639.000000	0.014929
2638.000000	0.014910
2637.000000	0.014887
2636.000000	0.014853
2635.000000	0.014814
2634.000000	0.014782
2633.000000	0.014759
2632.000000	0.014731
2631.000000	0.014690
2630.000000	0.014650
2629.000000	0.014625
2628.000000	0.014617
2627.000000	0.014611
2626.000000	0.014594
2625.000000	0.014570
2624.000000	0.014550
2623.000000	0.014536
2622.000000	0.014519
2621.000000	0.014489
2620.000000	0.014448
2619.000000	0.014410
2618.000000	0.014388
2617.000000	0.014381
2616.000000	0.014374
2615.000000	0.014351
2614.000000	0.014318
2613.000000	0.014290
2612.000000	0.014279
2611.000000	0.014280
2610.000000	0.014285
2609.000000	0.014287
2608.000000	0.014281
2607.000000	0.014266
2606.000000	0.014242
2605.000000	0.014210
2604.000000	0.014168
2603.000000	0.014117
2602.000000	0.014071
2601.000000	0.014047
2600.000000	0.014052
2599.000000	0.014077
2598.000000	0.014099
2597.000000	0.014103
2596.000000	0.014086
2595.000000	0.014054
2594.000000	0.014016
2593.000000	0.013976
2592.000000	0.013935
2591.000000	0.013902
2590.000000	0.013889
2589.000000	0.013896
2588.000000	0.013908
2587.000000	0.013909
2586.000000	0.013895
2585.000000	0.013878
2584.000000	0.013871
2583.000000	0.013877
2582.000000	0.013883
2581.000000	0.013867
2580.000000	0.013820
2579.000000	0.013758
2578.000000	0.013714
2577.000000	0.013704
2576.000000	0.013711
2575.000000	0.013707
2574.000000	0.013683
2573.000000	0.013657
2572.000000	0.013649
2571.000000	0.013660
2570.000000	0.013674
2569.000000	0.013669
2568.000000	0.013639
2567.000000	0.013594
2566.000000	0.013552
2565.000000	0.013525
2564.000000	0.013512
2563.000000	0.013511
2562.000000	0.013523
2561.000000	0.013545
2560.000000	0.013562
2559.000000	0.013559
2558.000000	0.013539
2557.000000	0.013515
2556.000000	0.013496
2555.000000	0.013487
2554.000000	0.013491
2553.000000	0.013505
2552.000000	0.013516
2551.000000	0.013511
2550.000000	0.013492
2549.000000	0.013475
2548.000000	0.013473
2547.000000	0.013482
2546.000000	0.013490
2545.000000	0.013487
2544.000000	0.013472
2543.000000	0.013451
2542.000000	0.013428
2541.000000	0.013406
2540.000000	0.013383
2539.000000	0.013367
2538.000000	0.013364
2537.000000	0.013372
2536.000000	0.013372
2535.000000	0.013353
2534.000000	0.013327
2533.000000	0.013315
2532.000000	0.013323
2531.000000	0.013337
2530.000000	0.013340
2529.000000	0.013325
2528.000000	0.013301
2527.000000	0.013284
2526.000000	0.013292
2525.000000	0.013328
2524.000000	0.013373
2523.000000	0.013390
2522.000000	0.013360
2521.000000	0.013295
2520.000000	0.013223
2519.000000	0.013168
2518.000000	0.013138
2517.000000	0.013128
2516.000000	0.013136
2515.000000	0.013162
2514.000000	0.013200
2513.000000	0.013233
2512.000000	0.013246
2511.000000	0.013240
2510.000000	0.013231
2509.000000	0.013232
2508.000000	0.013237
2507.000000	0.013234
2506.000000	0.013222
2505.000000	0.013205
2504.000000	0.013191
2503.000000	0.013182
2502.000000	0.013174
2501.000000	0.013164
2500.000000	0.013154
2499.000000	0.013148
2498.000000	0.013141
2497.000000	0.013115
2496.000000	0.013053
2495.000000	0.012967
2494.000000	0.012894
2493.000000	0.012866
2492.000000	0.012878
2491.000000	0.012908
2490.000000	0.012939
2489.000000	0.012969
2488.000000	0.012998
2487.000000	0.013022
2486.000000	0.013033
2485.000000	0.013022
2484.000000	0.012990
2483.000000	0.012951
2482.000000	0.012922
2481.000000	0.012912
2480.000000	0.012914
2479.000000	0.012918
2478.000000	0.012926
2477.000000	0.012940
2476.000000	0.012957
2475.000000	0.012969
2474.000000	0.012969
2473.000000	0.012954
2472.000000	0.012924
2471.000000	0.012888
2470.000000	0.012859
2469.000000	0.012840
2468.000000	0.012821
2467.000000	0.012801
2466.000000	0.012785
2465.000000	0.012779
2464.000000	0.012774
2463.000000	0.012766
2462.000000	0.012767
2461.000000	0.012783
2460.000000	0.012805
2459.000000	0.012819
2458.000000	0.012830
2457.000000	0.012850
2456.000000	0.012877
2455.000000	0.012890
2454.000000	0.012879
2453.000000	0.012855
2452.000000	0.012836
2451.000000	0.012828
2450.000000	0.012826
2449.000000	0.012822
2448.000000	0.012812
2447.000000	0.012803
2446.000000	0.012802
2445.000000	0.012809
2444.000000	0.012815
2443.000000	0.012820
2442.000000	0.012833
2441.000000	0.012852
2440.000000	0.012858
2439.000000	0.012827
2438.000000	0.012764
2437.000000	0.012693
2436.000000	0.012644
2435.000000	0.012632
2434.000000	0.012656
2433.000000	0.012695
2432.000000	0.012722
2431.000000	0.012721
2430.000000	0.012695
2429.000000	0.012658
2428.000000	0.012619
2427.000000	0.012585
2426.000000	0.012569
2425.000000	0.012574
2424.000000	0.012585
2423.000000	0.012588
2422.000000	0.012591
2421.000000	0.012608
2420.000000	0.012647
2419.000000	0.012690
2418.000000	0.012709
2417.000000	0.012688
2416.000000	0.012629
2415.000000	0.012560
2414.000000	0.012521
2413.000000	0.012534
2412.000000	0.012591
2411.000000	0.012665
2410.000000	0.012733
2409.000000	0.012775
2408.000000	0.012781
2407.000000	0.012753
2406.000000	0.012709
2405.000000	0.012663
2404.000000	0.012618
2403.000000	0.012578
2402.000000	0.012557
2401.000000	0.012562
2400.000000	0.012575
2399.000000	0.012576
2398.000000	0.012559
2397.000000	0.012537
2396.000000	0.012522
2395.000000	0.012523
2394.000000	0.012548
2393.000000	0.012590
2392.000000	0.012621
2391.000000	0.012614
2390.000000	0.012576
2389.000000	0.012539
2388.000000	0.012529
2387.000000	0.012546
2386.000000	0.012572
2385.000000	0.012587
2384.000000	0.012573
2383.000000	0.012528
2382.000000	0.012469
2381.000000	0.012416
2380.000000	0.012384
2379.000000	0.012390
2378.000000	0.012445
2377.000000	0.012539
2376.000000	0.012628
2375.000000	0.012667
2374.000000	0.012649
2373.000000	0.012593
2372.000000	0.012510
2371.000000	0.012408
2370.000000	0.012316
2369.000000	0.012264
2368.000000	0.012264
2367.000000	0.012301
2366.000000	0.012358
2365.000000	0.012419
2364.000000	0.012474
2363.000000	0.012528
2362.000000	0.012595
2361.000000	0.012660
2360.000000	0.012701
2359.000000	0.012709
2358.000000	0.012686
2357.000000	0.012630
2356.000000	0.012560
2355.000000	0.012517
2354.000000	0.012488
2353.000000	0.012433
2352.000000	0.012369
2351.000000	0.012361
2350.000000	0.012439
2349.000000	0.012576
2348.000000	0.012700
2347.000000	0.012727
2346.000000	0.012650
2345.000000	0.012570
2344.000000	0.012572
2343.000000	0.012629
2342.000000	0.012669
2341.000000	0.012660
2340.000000	0.012630
2339.000000	0.012614
2338.000000	0.012615
2337.000000	0.012613
2336.000000	0.012598
2335.000000	0.012577
2334.000000	0.012548
2333.000000	0.012509
2332.000000	0.012484
2331.000000	0.012497
2330.000000	0.012552
2329.000000	0.012625
2328.000000	0.012700
2327.000000	0.012765
2326.000000	0.012804
2325.000000	0.012799
2324.000000	0.012750
2323.000000	0.012674
2322.000000	0.012613
2321.000000	0.012610
2320.000000	0.012674
2319.000000	0.012759
2318.000000	0.012815
2317.000000	0.012818
2316.000000	0.012771
2315.000000	0.012679
2314.000000	0.012557
2313.000000	0.012437
2312.000000	0.012353
2311.000000	0.012313
2310.000000	0.012303
2309.000000	0.012307
2308.000000	0.012316
2307.000000	0.012317
2306.000000	0.012304
2305.000000	0.012284
2304.000000	0.012260
2303.000000	0.012222
2302.000000	0.012166
2301.000000	0.012119
2300.000000	0.012120
2299.000000	0.012169
2298.000000	0.012229
2297.000000	0.012262
2296.000000	0.012267
2295.000000	0.012266
2294.000000	0.012270
2293.000000	0.012270
2292.000000	0.012255
2291.000000	0.012229
2290.000000	0.012214
2289.000000	0.012232
2288.000000	0.012298
2287.000000	0.012396
2286.000000	0.012488
2285.000000	0.012532
2284.000000	0.012516
2283.000000	0.012460
2282.000000	0.012394
2281.000000	0.012327
2280.000000	0.012253
2279.000000	0.012167
2278.000000	0.012081
2277.000000	0.012013
2276.000000	0.011978
2275.000000	0.011981
2274.000000	0.012011
2273.000000	0.012044
2272.000000	0.012056
2271.000000	0.012048
2270.000000	0.012039
2269.000000	0.012030
2268.000000	0.011992
2267.000000	0.011911
2266.000000	0.011817
2265.000000	0.011751
2264.000000	0.011724
2263.000000	0.011716
2262.000000	0.011712
2261.000000	0.011708
2260.000000	0.011698
2259.000000	0.011671
2258.000000	0.011632
2257.000000	0.011595
2256.000000	0.011557
2255.000000	0.011503
2254.000000	0.011443
2253.000000	0.011415
2252.000000	0.011443
2251.000000	0.011511
2250.000000	0.011571
2249.000000	0.011589
2248.000000	0.011568
2247.000000	0.011545
2246.000000	0.011567
2245.000000	0.011647
2244.000000	0.011739
2243.000000	0.011781
2242.000000	0.011745
2241.000000	0.011647
2240.000000	0.011516
2239.000000	0.011385
2238.000000	0.011292
2237.000000	0.011266
2236.000000	0.011290
2235.000000	0.011311
2234.000000	0.011304
2233.000000	0.011295
2232.000000	0.011312
2231.000000	0.011346
2230.000000	0.011362
2229.000000	0.011350
2228.000000	0.011340
2227.000000	0.011361
2226.000000	0.011409
2225.000000	0.011447
2224.000000	0.011450
2223.000000	0.011445
2222.000000	0.011478
2221.000000	0.011549
2220.000000	0.011601
2219.000000	0.011584
2218.000000	0.011523
2217.000000	0.011496
2216.000000	0.011542
2215.000000	0.011625
2214.000000	0.011663
2213.000000	0.011593
2212.000000	0.011420
2211.000000	0.011227
2210.000000	0.011114
2209.000000	0.011099
2208.000000	0.011108
2207.000000	0.011077
2206.000000	0.011039
2205.000000	0.011061
2204.000000	0.011138
2203.000000	0.011185
2202.000000	0.011148
2201.000000	0.011056
2200.000000	0.010968
2199.000000	0.010920
2198.000000	0.010910
2197.000000	0.010929
2196.000000	0.010975
2195.000000	0.011060
2194.000000	0.011192
2193.000000	0.011329
2192.000000	0.011399
2191.000000	0.011366
2190.000000	0.011267
2189.000000	0.011152
2188.000000	0.011033
2187.000000	0.010935
2186.000000	0.010927
2185.000000	0.011034
2184.000000	0.011153
2183.000000	0.011152
2182.000000	0.011041
2181.000000	0.010949
2180.000000	0.010955
2179.000000	0.011026
2178.000000	0.011112
2177.000000	0.011196
2176.000000	0.011236
2175.000000	0.011164
2174.000000	0.010975
2173.000000	0.010764
2172.000000	0.010637
2171.000000	0.010625
2170.000000	0.010687
2169.000000	0.010742
2168.000000	0.010719
2167.000000	0.010634
2166.000000	0.010589
2165.000000	0.010656
2164.000000	0.010761
2163.000000	0.010775
2162.000000	0.010694
2161.000000	0.010623
2160.000000	0.010596
2159.000000	0.010530
2158.000000	0.010381
2157.000000	0.010194
2156.000000	0.009983
2155.000000	0.009732
2154.000000	0.009510
2153.000000	0.009472
2152.000000	0.009681
2151.000000	0.010030
2150.000000	0.010360
2149.000000	0.010590
2148.000000	0.010723
2147.000000	0.010787
2146.000000	0.010800
2145.000000	0.010781
2144.000000	0.010744
2143.000000	0.010703
2142.000000	0.010672
2141.000000	0.010653
2140.000000	0.010623
2139.000000	0.010568
2138.000000	0.010507
2137.000000	0.010454
2136.000000	0.010399
2135.000000	0.010350
2134.000000	0.010369
2133.000000	0.010505
2132.000000	0.010701
2131.000000	0.010848
2130.000000	0.010908
2129.000000	0.010940
2128.000000	0.011003
2127.000000	0.011090
2126.000000	0.011154
2125.000000	0.011180
2124.000000	0.011195
2123.000000	0.011229
2122.000000	0.011284
2121.000000	0.011331
2120.000000	0.011336
2119.000000	0.011306
2118.000000	0.011298
2117.000000	0.011349
2116.000000	0.011422
2115.000000	0.011448
2114.000000	0.011409
2113.000000	0.011364
2112.000000	0.011364
2111.000000	0.011404
2110.000000	0.011438
2109.000000	0.011434
2108.000000	0.011387
2107.000000	0.011332
2106.000000	0.011317
2105.000000	0.011365
2104.000000	0.011433
2103.000000	0.011455
2102.000000	0.011426
2101.000000	0.011397
2100.000000	0.011405
2099.000000	0.011429
2098.000000	0.011426
2097.000000	0.011375
2096.000000	0.011280
2095.000000	0.011170
2094.000000	0.011094
2093.000000	0.011087
2092.000000	0.011122
2091.000000	0.011140
2090.000000	0.011129
2089.000000	0.011135
2088.000000	0.011183
2087.000000	0.011240
2086.000000	0.011270
2085.000000	0.011276
2084.000000	0.011277
2083.000000	0.011272
2082.000000	0.011252
2081.000000	0.011236
2080.000000	0.011241
2079.000000	0.011247
2078.000000	0.011221
2077.000000	0.011163
2076.000000	0.011104
2075.000000	0.011073
2074.000000	0.011077
2073.000000	0.011100
2072.000000	0.011103
2071.000000	0.011044
2070.000000	0.010920
2069.000000	0.010782
2068.000000	0.010687
2067.000000	0.010649
2066.000000	0.010647
2065.000000	0.010660
2064.000000	0.010672
2063.000000	0.010662
2062.000000	0.010611
2061.000000	0.010530
2060.000000	0.010461
2059.000000	0.010445
2058.000000	0.010476
2057.000000	0.010511
2056.000000	0.010510
2055.000000	0.010479
2054.000000	0.010454
2053.000000	0.010440
2052.000000	0.010421
2051.000000	0.010413
2050.000000	0.010464
2049.000000	0.010559
2048.000000	0.010582
2047.000000	0.010460
2046.000000	0.010290
2045.000000	0.010225
2044.000000	0.010267
2043.000000	0.010260
2042.000000	0.010098
2041.000000	0.009836
2040.000000	0.009598
2039.000000	0.009457
2038.000000	0.009436
2037.000000	0.009530
2036.000000	0.009681
2035.000000	0.009792
2034.000000	0.009802
2033.000000	0.009722
2032.000000	0.009604
2031.000000	0.009510
2030.000000	0.009504
2029.000000	0.009594
2028.000000	0.009708
2027.000000	0.009766
2026.000000	0.009753
2025.000000	0.009686
2024.000000	0.009563
2023.000000	0.009414
2022.000000	0.009345
2021.000000	0.009428
2020.000000	0.009583
2019.000000	0.009665
2018.000000	0.009655
2017.000000	0.009660
2016.000000	0.009749
2015.000000	0.009872
2014.000000	0.009949
2013.000000	0.009938
2012.000000	0.009836
2011.000000	0.009677
2010.000000	0.009532
2009.000000	0.009447
2008.000000	0.009403
2007.000000	0.009377
2006.000000	0.009403
2005.000000	0.009510
2004.000000	0.009646
2003.000000	0.009754
2002.000000	0.009854
2001.000000	0.009972
2000.000000	0.010051
1999.000000	0.010025
1998.000000	0.009937
1997.000000	0.009900
1996.000000	0.009953
1995.000000	0.010051
1994.000000	0.010161
1993.000000	0.010269
1992.000000	0.010325
1991.000000	0.010271
1990.000000	0.010124
1989.000000	0.009949
1988.000000	0.009783
1987.000000	0.009658
1986.000000	0.009663
1985.000000	0.009858
1984.000000	0.010152
1983.000000	0.010385
1982.000000	0.010521
1981.000000	0.010645
1980.000000	0.010772
1979.000000	0.010794
1978.000000	0.010657
1977.000000	0.010453
1976.000000	0.010269
1975.000000	0.010088
1974.000000	0.009900
1973.000000	0.009764
1972.000000	0.009707
1971.000000	0.009684
1970.000000	0.009669
1969.000000	0.009692
1968.000000	0.009767
1967.000000	0.009869
1966.000000	0.010001
1965.000000	0.010189
1964.000000	0.010388
1963.000000	0.010504
1962.000000	0.010501
1961.000000	0.010413
1960.000000	0.010275
1959.000000	0.010100
1958.000000	0.009940
1957.000000	0.009869
1956.000000	0.009901
1955.000000	0.009984
1954.000000	0.010081
1953.000000	0.010183
1952.000000	0.010246
1951.000000	0.010213
1950.000000	0.010091
1949.000000	0.009954
1948.000000	0.009866
1947.000000	0.009849
1946.000000	0.009913
1945.000000	0.010046
1944.000000	0.010176
1943.000000	0.010224
1942.000000	0.010203
1941.000000	0.010192
1940.000000	0.010222
1939.000000	0.010262
1938.000000	0.010302
1937.000000	0.010364
1936.000000	0.010434
1935.000000	0.010462
1934.000000	0.010436
1933.000000	0.010405
1932.000000	0.010400
1931.000000	0.010393
1930.000000	0.010365
1929.000000	0.010345
1928.000000	0.010357
1927.000000	0.010390
1926.000000	0.010419
1925.000000	0.010440
1924.000000	0.010449
1923.000000	0.010443
1922.000000	0.010429
1921.000000	0.010414
1920.000000	0.010374
1919.000000	0.010277
1918.000000	0.010149
1917.000000	0.010067
1916.000000	0.010065
1915.000000	0.010105
1914.000000	0.010153
1913.000000	0.010212
1912.000000	0.010285
1911.000000	0.010348
1910.000000	0.010388
1909.000000	0.010418
1908.000000	0.010441
1907.000000	0.010432
1906.000000	0.010388
1905.000000	0.010342
1904.000000	0.010327
1903.000000	0.010323
1902.000000	0.010296
1901.000000	0.010236
1900.000000	0.010160
1899.000000	0.010102
1898.000000	0.010102
1897.000000	0.010174
1896.000000	0.010272
1895.000000	0.010313
1894.000000	0.010269
1893.000000	0.010195
1892.000000	0.010152
1891.000000	0.010140
1890.000000	0.010127
1889.000000	0.010110
1888.000000	0.010109
1887.000000	0.010127
1886.000000	0.010139
1885.000000	0.010130
1884.000000	0.010111
1883.000000	0.010102
1882.000000	0.010116
1881.000000	0.010147
1880.000000	0.010179
1879.000000	0.010199
1878.000000	0.010209
1877.000000	0.010220
1876.000000	0.010236
1875.000000	0.010253
1874.000000	0.010261
1873.000000	0.010248
1872.000000	0.010198
1871.000000	0.010118
1870.000000	0.010039
1869.000000	0.010001
1868.000000	0.010008
1867.000000	0.010037
1866.000000	0.010074
1865.000000	0.010117
1864.000000	0.010151
1863.000000	0.010154
1862.000000	0.010127
1861.000000	0.010094
1860.000000	0.010077
1859.000000	0.010080
1858.000000	0.010091
1857.000000	0.010091
1856.000000	0.010062
1855.000000	0.010004
1854.000000	0.009943
1853.000000	0.009913
1852.000000	0.009910
1851.000000	0.009913
1850.000000	0.009909
1849.000000	0.009896
1848.000000	0.009867
1847.000000	0.009829
1846.000000	0.009818
1845.000000	0.009864
1844.000000	0.009936
1843.000000	0.009977
1842.000000	0.009986
1841.000000	0.009989
1840.000000	0.009987
1839.000000	0.009966
1838.000000	0.009933
1837.000000	0.009918
1836.000000	0.009923
1835.000000	0.009915
1834.000000	0.009881
1833.000000	0.009845
1832.000000	0.009841
1831.000000	0.009873
1830.000000	0.009918
1829.000000	0.009951
1828.000000	0.009959
1827.000000	0.009944
1826.000000	0.009923
1825.000000	0.009907
1824.000000	0.009891
1823.000000	0.009862
1822.000000	0.009828
1821.000000	0.009803
1820.000000	0.009786
1819.000000	0.009768
1818.000000	0.009754
1817.000000	0.009760
1816.000000	0.009783
1815.000000	0.009804
1814.000000	0.009819
1813.000000	0.009833
1812.000000	0.009843
1811.000000	0.009840
1810.000000	0.009835
1809.000000	0.009846
1808.000000	0.009869
1807.000000	0.009882
1806.000000	0.009874
1805.000000	0.009858
1804.000000	0.009849
1803.000000	0.009857
1802.000000	0.009889
1801.000000	0.009939
1800.000000	0.009985
1799.000000	0.010002
1798.000000	0.009990
1797.000000	0.009964
1796.000000	0.009933
1795.000000	0.009906
1794.000000	0.009905
1793.000000	0.009934
1792.000000	0.009951
1791.000000	0.009920
1790.000000	0.009862
1789.000000	0.009816
1788.000000	0.009792
1787.000000	0.009776
1786.000000	0.009755
1785.000000	0.009732
1784.000000	0.009716
1783.000000	0.009706
1782.000000	0.009712
1781.000000	0.009728
1780.000000	0.009735
1779.000000	0.009717
1778.000000	0.009685
1777.000000	0.009655
1776.000000	0.009617
1775.000000	0.009565
1774.000000	0.009522
1773.000000	0.009516
1772.000000	0.009517
1771.000000	0.009494
1770.000000	0.009471
1769.000000	0.009484
1768.000000	0.009526
1767.000000	0.009559
1766.000000	0.009573
1765.000000	0.009592
1764.000000	0.009630
1763.000000	0.009677
1762.000000	0.009719
1761.000000	0.009761
1760.000000	0.009819
1759.000000	0.009894
1758.000000	0.010001
1757.000000	0.010152
1756.000000	0.010321
1755.000000	0.010480
1754.000000	0.010647
1753.000000	0.010871
1752.000000	0.011158
1751.000000	0.011455
1750.000000	0.011724
1749.000000	0.011987
1748.000000	0.012234
1747.000000	0.012437
1746.000000	0.012615
1745.000000	0.012807
1744.000000	0.012998
1743.000000	0.013139
1742.000000	0.013246
1741.000000	0.013397
1740.000000	0.013595
1739.000000	0.013741
1738.000000	0.013785
1737.000000	0.013778
1736.000000	0.013785
1735.000000	0.013810
1734.000000	0.013791
1733.000000	0.013743
1732.000000	0.013712
1731.000000	0.013655
1730.000000	0.013539
1729.000000	0.013395
1728.000000	0.013257
1727.000000	0.013116
1726.000000	0.012969
1725.000000	0.012844
1724.000000	0.012753
1723.000000	0.012670
1722.000000	0.012587
1721.000000	0.012529
1720.000000	0.012512
1719.000000	0.012503
1718.000000	0.012471
1717.000000	0.012463
1716.000000	0.012545
1715.000000	0.012693
1714.000000	0.012855
1713.000000	0.013033
1712.000000	0.013238
1711.000000	0.013451
1710.000000	0.013664
1709.000000	0.013910
1708.000000	0.014220
1707.000000	0.014591
1706.000000	0.014996
1705.000000	0.015390
1704.000000	0.015734
1703.000000	0.016055
1702.000000	0.016492
1701.000000	0.017185
1700.000000	0.017982
1699.000000	0.018623
1698.000000	0.019170
1697.000000	0.019831
1696.000000	0.020678
1695.000000	0.021558
1694.000000	0.022344
1693.000000	0.023072
1692.000000	0.023800
1691.000000	0.024532
1690.000000	0.025248
1689.000000	0.025917
1688.000000	0.026512
1687.000000	0.027065
1686.000000	0.027731
1685.000000	0.028692
1684.000000	0.029802
1683.000000	0.030739
1682.000000	0.031520
1681.000000	0.032317
1680.000000	0.033152
1679.000000	0.033939
1678.000000	0.034667
1677.000000	0.035460
1676.000000	0.036407
1675.000000	0.037398
1674.000000	0.038288
1673.000000	0.039113
1672.000000	0.039984
1671.000000	0.040946
1670.000000	0.041979
1669.000000	0.043019
1668.000000	0.043981
1667.000000	0.044825
1666.000000	0.045602
1665.000000	0.046429
1664.000000	0.047372
1663.000000	0.048351
1662.000000	0.049251
1661.000000	0.050072
1660.000000	0.050867
1659.000000	0.051621
1658.000000	0.052292
1657.000000	0.052871
1656.000000	0.053399
1655.000000	0.053959
1654.000000	0.054632
1653.000000	0.055309
1652.000000	0.055861
1651.000000	0.056335
1650.000000	0.056767
1649.000000	0.057170
1648.000000	0.057525
1647.000000	0.057735
1646.000000	0.057766
1645.000000	0.057763
1644.000000	0.057821
1643.000000	0.057889
1642.000000	0.057898
1641.000000	0.057831
1640.000000	0.057712
1639.000000	0.057563
1638.000000	0.057383
1637.000000	0.057141
1636.000000	0.056758
1635.000000	0.056238
1634.000000	0.055735
1633.000000	0.055331
1632.000000	0.054957
1631.000000	0.054511
1630.000000	0.053936
1629.000000	0.053232
1628.000000	0.052438
1627.000000	0.051615
1626.000000	0.050808
1625.000000	0.049991
1624.000000	0.049090
1623.000000	0.048074
1622.000000	0.047048
1621.000000	0.046133
1620.000000	0.045315
1619.000000	0.044483
1618.000000	0.043525
1617.000000	0.042431
1616.000000	0.041367
1615.000000	0.040514
1614.000000	0.039841
1613.000000	0.039212
1612.000000	0.038534
1611.000000	0.037808
1610.000000	0.037077
1609.000000	0.036371
1608.000000	0.035706
1607.000000	0.035096
1606.000000	0.034560
1605.000000	0.034086
1604.000000	0.033645
1603.000000	0.033225
1602.000000	0.032835
1601.000000	0.032485
1600.000000	0.032182
1599.000000	0.031925
1598.000000	0.031705
1597.000000	0.031507
1596.000000	0.031327
1595.000000	0.031182
1594.000000	0.031082
1593.000000	0.031014
1592.000000	0.030967
1591.000000	0.030950
1590.000000	0.030975
1589.000000	0.031035
1588.000000	0.031114
1587.000000	0.031214
1586.000000	0.031346
1585.000000	0.031511
1584.000000	0.031706
1583.000000	0.031942
1582.000000	0.032216
1581.000000	0.032497
1580.000000	0.032752
1579.000000	0.032989
1578.000000	0.033249
1577.000000	0.033550
1576.000000	0.033847
1575.000000	0.034109
1574.000000	0.034365
1573.000000	0.034628
1572.000000	0.034905
1571.000000	0.035227
1570.000000	0.035602
1569.000000	0.035984
1568.000000	0.036350
1567.000000	0.036733
1566.000000	0.037166
1565.000000	0.037625
1564.000000	0.038032
1563.000000	0.038345
1562.000000	0.038612
1561.000000	0.038983
1560.000000	0.039624
1559.000000	0.040402
1558.000000	0.041006
1557.000000	0.041501
1556.000000	0.042008
1555.000000	0.042526
1554.000000	0.043034
1553.000000	0.043522
1552.000000	0.044003
1551.000000	0.044490
1550.000000	0.044958
1549.000000	0.045372
1548.000000	0.045731
1547.000000	0.046072
1546.000000	0.046421
1545.000000	0.046747
1544.000000	0.046995
1543.000000	0.047157
1542.000000	0.047274
1541.000000	0.047370
1540.000000	0.047399
1539.000000	0.047359
1538.000000	0.047333
1537.000000	0.047340
1536.000000	0.047323
1535.000000	0.047227
1534.000000	0.047019
1533.000000	0.046724
1532.000000	0.046453
1531.000000	0.046257
1530.000000	0.046098
1529.000000	0.045925
1528.000000	0.045712
1527.000000	0.045463
1526.000000	0.045201
1525.000000	0.044950
1524.000000	0.044714
1523.000000	0.044463
1522.000000	0.044153
1521.000000	0.043800
1520.000000	0.043519
1519.000000	0.043361
1518.000000	0.043248
1517.000000	0.043071
1516.000000	0.042787
1515.000000	0.042439
1514.000000	0.042065
1513.000000	0.041651
1512.000000	0.041183
1511.000000	0.040686
1510.000000	0.040203
1509.000000	0.039730
1508.000000	0.039185
1507.000000	0.038448
1506.000000	0.037621
1505.000000	0.036996
1504.000000	0.036601
1503.000000	0.036275
1502.000000	0.035907
1501.000000	0.035483
1500.000000	0.035023
1499.000000	0.034536
1498.000000	0.034024
1497.000000	0.033500
1496.000000	0.033004
1495.000000	0.032572
1494.000000	0.032212
1493.000000	0.031900
1492.000000	0.031600
1491.000000	0.031274
1490.000000	0.030930
1489.000000	0.030632
1488.000000	0.030429
1487.000000	0.030296
1486.000000	0.030202
1485.000000	0.030159
1484.000000	0.030175
1483.000000	0.030246
1482.000000	0.030370
1481.000000	0.030561
1480.000000	0.030817
1479.000000	0.031125
1478.000000	0.031488
1477.000000	0.031912
1476.000000	0.032377
1475.000000	0.032880
1474.000000	0.033486
1473.000000	0.034242
1472.000000	0.035062
1471.000000	0.035816
1470.000000	0.036478
1469.000000	0.037074
1468.000000	0.037610
1467.000000	0.038091
1466.000000	0.038538
1465.000000	0.038947
1464.000000	0.039285
1463.000000	0.039555
1462.000000	0.039807
1461.000000	0.040069
1460.000000	0.040333
1459.000000	0.040619
1458.000000	0.041005
1457.000000	0.041513
1456.000000	0.042021
1455.000000	0.042446
1454.000000	0.042801
1453.000000	0.043090
1452.000000	0.043290
1451.000000	0.043397
1450.000000	0.043461
1449.000000	0.043525
1448.000000	0.043578
1447.000000	0.043591
1446.000000	0.043589
1445.000000	0.043594
1444.000000	0.043595
1443.000000	0.043574
1442.000000	0.043539
1441.000000	0.043494
1440.000000	0.043422
1439.000000	0.043313
1438.000000	0.043192
1437.000000	0.043076
1436.000000	0.042954
1435.000000	0.042847
1434.000000	0.042783
1433.000000	0.042735
1432.000000	0.042655
1431.000000	0.042523
1430.000000	0.042371
1429.000000	0.042242
1428.000000	0.042143
1427.000000	0.042067
1426.000000	0.042019
1425.000000	0.041986
1424.000000	0.041921
1423.000000	0.041798
1422.000000	0.041654
1421.000000	0.041550
1420.000000	0.041504
1419.000000	0.041485
1418.000000	0.041473
1417.000000	0.041465
1416.000000	0.041421
1415.000000	0.041311
1414.000000	0.041158
1413.000000	0.040995
1412.000000	0.040823
1411.000000	0.040624
1410.000000	0.040407
1409.000000	0.040192
1408.000000	0.039980
1407.000000	0.039766
1406.000000	0.039555
1405.000000	0.039342
1404.000000	0.039107
1403.000000	0.038855
1402.000000	0.038621
1401.000000	0.038419
1400.000000	0.038218
1399.000000	0.037978
1398.000000	0.037711
1397.000000	0.037448
1396.000000	0.037178
1395.000000	0.036883
1394.000000	0.036585
1393.000000	0.036316
1392.000000	0.036063
1391.000000	0.035790
1390.000000	0.035492
1389.000000	0.035189
1388.000000	0.034890
1387.000000	0.034590
1386.000000	0.034296
1385.000000	0.034021
1384.000000	0.033759
1383.000000	0.033497
1382.000000	0.033237
1381.000000	0.032993
1380.000000	0.032766
1379.000000	0.032543
1378.000000	0.032299
1377.000000	0.032015
1376.000000	0.031680
1375.000000	0.031299
1374.000000	0.030906
1373.000000	0.030544
1372.000000	0.030234
1371.000000	0.029962
1370.000000	0.029698
1369.000000	0.029413
1368.000000	0.029090
1367.000000	0.028736
1366.000000	0.028375
1365.000000	0.028028
1364.000000	0.027701
1363.000000	0.027400
1362.000000	0.027131
1361.000000	0.026902
1360.000000	0.026707
1359.000000	0.026538
1358.000000	0.026388
1357.000000	0.026261
1356.000000	0.026163
1355.000000	0.026101
1354.000000	0.026074
1353.000000	0.026071
1352.000000	0.026087
1351.000000	0.026124
1350.000000	0.026188
1349.000000	0.026273
1348.000000	0.026366
1347.000000	0.026456
1346.000000	0.026548
1345.000000	0.026656
1344.000000	0.026791
1343.000000	0.026948
1342.000000	0.027111
1341.000000	0.027259
1340.000000	0.027377
1339.000000	0.027462
1338.000000	0.027519
1337.000000	0.027553
1336.000000	0.027558
1335.000000	0.027517
1334.000000	0.027427
1333.000000	0.027299
1332.000000	0.027151
1331.000000	0.026996
1330.000000	0.026840
1329.000000	0.026690
1328.000000	0.026553
1327.000000	0.026433
1326.000000	0.026332
1325.000000	0.026248
1324.000000	0.026181
1323.000000	0.026126
1322.000000	0.026079
1321.000000	0.026039
1320.000000	0.026009
1319.000000	0.025977
1318.000000	0.025932
1317.000000	0.025872
1316.000000	0.025808
1315.000000	0.025746
1314.000000	0.025679
1313.000000	0.025595
1312.000000	0.025493
1311.000000	0.025380
1310.000000	0.025263
1309.000000	0.025147
1308.000000	0.025032
1307.000000	0.024916
1306.000000	0.024799
1305.000000	0.024684
1304.000000	0.024580
1303.000000	0.024492
1302.000000	0.024415
1301.000000	0.024341
1300.000000	0.024262
1299.000000	0.024179
1298.000000	0.024095
1297.000000	0.024019
1296.000000	0.023967
1295.000000	0.023943
1294.000000	0.023941
1293.000000	0.023956
1292.000000	0.023995
1291.000000	0.024061
1290.000000	0.024143
1289.000000	0.024226
1288.000000	0.024307
1287.000000	0.024397
1286.000000	0.024504
1285.000000	0.024623
1284.000000	0.024738
1283.000000	0.024840
1282.000000	0.024924
1281.000000	0.024991
1280.000000	0.025048
1279.000000	0.025105
1278.000000	0.025168
1277.000000	0.025242
1276.000000	0.025320
1275.000000	0.025392
1274.000000	0.025453
1273.000000	0.025508
1272.000000	0.025574
1271.000000	0.025663
1270.000000	0.025781
1269.000000	0.025925
1268.000000	0.026089
1267.000000	0.026262
1266.000000	0.026434
1265.000000	0.026605
1264.000000	0.026780
1263.000000	0.026955
1262.000000	0.027118
1261.000000	0.027266
1260.000000	0.027411
1259.000000	0.027570
1258.000000	0.027744
1257.000000	0.027918
1256.000000	0.028077
1255.000000	0.028219
1254.000000	0.028359
1253.000000	0.028518
1252.000000	0.028704
1251.000000	0.028907
1250.000000	0.029106
1249.000000	0.029290
1248.000000	0.029462
1247.000000	0.029628
1246.000000	0.029786
1245.000000	0.029925
1244.000000	0.030038
1243.000000	0.030127
1242.000000	0.030200
1241.000000	0.030256
1240.000000	0.030292
1239.000000	0.030295
1238.000000	0.030263
1237.000000	0.030197
1236.000000	0.030101
1235.000000	0.029974
1234.000000	0.029812
1233.000000	0.029615
1232.000000	0.029388
1231.000000	0.029136
1230.000000	0.028865
1229.000000	0.028573
1228.000000	0.028256
1227.000000	0.027916
1226.000000	0.027559
1225.000000	0.027197
1224.000000	0.026831
1223.000000	0.026463
1222.000000	0.026093
1221.000000	0.025723
1220.000000	0.025351
1219.000000	0.024984
1218.000000	0.024648
1217.000000	0.024377
1216.000000	0.024187
1215.000000	0.024060
1214.000000	0.023959
1213.000000	0.023858
1212.000000	0.023754
1211.000000	0.023654
1210.000000	0.023564
1209.000000	0.023489
1208.000000	0.023439
1207.000000	0.023421
1206.000000	0.023425
1205.000000	0.023430
1204.000000	0.023422
1203.000000	0.023394
1202.000000	0.023336
1201.000000	0.023240
1200.000000	0.023115
1199.000000	0.022981
1198.000000	0.022852
1197.000000	0.022725
1196.000000	0.022583
1195.000000	0.022414
1194.000000	0.022218
1193.000000	0.022007
1192.000000	0.021806
1191.000000	0.021634
1190.000000	0.021497
1189.000000	0.021381
1188.000000	0.021269
1187.000000	0.021155
1186.000000	0.021038
1185.000000	0.020920
1184.000000	0.020811
1183.000000	0.020727
1182.000000	0.020684
1181.000000	0.020687
1180.000000	0.020727
1179.000000	0.020800
1178.000000	0.020894
1177.000000	0.020997
1176.000000	0.021095
1175.000000	0.021185
1174.000000	0.021275
1173.000000	0.021376
1172.000000	0.021491
1171.000000	0.021617
1170.000000	0.021745
1169.000000	0.021868
1168.000000	0.021989
1167.000000	0.022123
1166.000000	0.022282
1165.000000	0.022467
1164.000000	0.022661
1163.000000	0.022842
1162.000000	0.022990
1161.000000	0.023099
1160.000000	0.023167
1159.000000	0.023194
1158.000000	0.023181
1157.000000	0.023136
1156.000000	0.023069
1155.000000	0.022989
1154.000000	0.022899
1153.000000	0.022796
1152.000000	0.022675
1151.000000	0.022533
1150.000000	0.022370
1149.000000	0.022189
1148.000000	0.021992
1147.000000	0.021788
1146.000000	0.021595
1145.000000	0.021420
1144.000000	0.021259
1143.000000	0.021097
1142.000000	0.020931
1141.000000	0.020770
1140.000000	0.020630
1139.000000	0.020520
1138.000000	0.020446
1137.000000	0.020403
1136.000000	0.020382
1135.000000	0.020369
1134.000000	0.020361
1133.000000	0.020367
1132.000000	0.020399
1131.000000	0.020461
1130.000000	0.020548
1129.000000	0.020656
1128.000000	0.020784
1127.000000	0.020925
1126.000000	0.021073
1125.000000	0.021222
1124.000000	0.021372
1123.000000	0.021517
1122.000000	0.021643
1121.000000	0.021749
1120.000000	0.021849
1119.000000	0.021965
1118.000000	0.022105
1117.000000	0.022266
1116.000000	0.022438
1115.000000	0.022610
1114.000000	0.022778
1113.000000	0.022938
1112.000000	0.023088
1111.000000	0.023222
1110.000000	0.023337
1109.000000	0.023438
1108.000000	0.023530
1107.000000	0.023615
1106.000000	0.023688
1105.000000	0.023752
1104.000000	0.023819
1103.000000	0.023895
1102.000000	0.023971
1101.000000	0.024036
1100.000000	0.024089
1099.000000	0.024153
1098.000000	0.024246
1097.000000	0.024361
1096.000000	0.024466
1095.000000	0.024541
1094.000000	0.024603
1093.000000	0.024695
1092.000000	0.024841
1091.000000	0.025032
1090.000000	0.025246
1089.000000	0.025477
1088.000000	0.025724
1087.000000	0.025986
1086.000000	0.026252
1085.000000	0.026511
1084.000000	0.026759
1083.000000	0.026979
1082.000000	0.027148
1081.000000	0.027251
1080.000000	0.027287
1079.000000	0.027258
1078.000000	0.027171
1077.000000	0.027035
1076.000000	0.026863
1075.000000	0.026662
1074.000000	0.026435
1073.000000	0.026196
1072.000000	0.025974
1071.000000	0.025802
1070.000000	0.025693
1069.000000	0.025636
1068.000000	0.025615
1067.000000	0.025621
1066.000000	0.025656
1065.000000	0.025728
1064.000000	0.025840
1063.000000	0.025991
1062.000000	0.026171
1061.000000	0.026362
1060.000000	0.026542
1059.000000	0.026686
1058.000000	0.026783
1057.000000	0.026846
1056.000000	0.026910
1055.000000	0.026998
1054.000000	0.027112
1053.000000	0.027227
1052.000000	0.027323
1051.000000	0.027405
1050.000000	0.027496
1049.000000	0.027608
1048.000000	0.027732
1047.000000	0.027847
1046.000000	0.027943
1045.000000	0.028022
1044.000000	0.028094
1043.000000	0.028172
1042.000000	0.028266
1041.000000	0.028387
1040.000000	0.028536
1039.000000	0.028718
1038.000000	0.028936
1037.000000	0.029194
1036.000000	0.029476
1035.000000	0.029760
1034.000000	0.030030
1033.000000	0.030294
1032.000000	0.030565
1031.000000	0.030839
1030.000000	0.031095
1029.000000	0.031319
1028.000000	0.031521
1027.000000	0.031719
1026.000000	0.031926
1025.000000	0.032158
1024.000000	0.032443
1023.000000	0.032805
1022.000000	0.033235
1021.000000	0.033686
1020.000000	0.034098
1019.000000	0.034419
1018.000000	0.034611
1017.000000	0.034636
1016.000000	0.034464
1015.000000	0.034097
1014.000000	0.033574
1013.000000	0.032942
1012.000000	0.032244
1011.000000	0.031521
1010.000000	0.030811
1009.000000	0.030133
1008.000000	0.029489
1007.000000	0.028881
1006.000000	0.028316
1005.000000	0.027796
1004.000000	0.027318
1003.000000	0.026880
1002.000000	0.026490
1001.000000	0.026146
1000.000000	0.025826
999.000000	0.025505
998.000000	0.025177
997.000000	0.024852
996.000000	0.024536
995.000000	0.024219
994.000000	0.023895
993.000000	0.023563
992.000000	0.023233
991.000000	0.022907
990.000000	0.022578
989.000000	0.022238
988.000000	0.021890
987.000000	0.021552
986.000000	0.021232
985.000000	0.020917
984.000000	0.020597
983.000000	0.020283
982.000000	0.019994
981.000000	0.019734
980.000000	0.019487
979.000000	0.019243
978.000000	0.019006
977.000000	0.018777
976.000000	0.018547
975.000000	0.018309
974.000000	0.018081
973.000000	0.017884
972.000000	0.017716
971.000000	0.017557
970.000000	0.017380
969.000000	0.017173
968.000000	0.016943
967.000000	0.016705
966.000000	0.016473
965.000000	0.016248
964.000000	0.016018
963.000000	0.015780
962.000000	0.015549
961.000000	0.015342
960.000000	0.015163
959.000000	0.015007
958.000000	0.014861
957.000000	0.014712
956.000000	0.014543
955.000000	0.014347
954.000000	0.014144
953.000000	0.013962
952.000000	0.013818
951.000000	0.013705
950.000000	0.013603
949.000000	0.013496
948.000000	0.013383
947.000000	0.013270
946.000000	0.013173
945.000000	0.013102
944.000000	0.013051
943.000000	0.013005
942.000000	0.012955
941.000000	0.012903
940.000000	0.012858
939.000000	0.012822
938.000000	0.012783
937.000000	0.012724
936.000000	0.012641
935.000000	0.012548
934.000000	0.012473
933.000000	0.012423
932.000000	0.012379
931.000000	0.012308
930.000000	0.012209
929.000000	0.012109
928.000000	0.012041
927.000000	0.012010
926.000000	0.012001
925.000000	0.011996
924.000000	0.011981
923.000000	0.011945
922.000000	0.011880
921.000000	0.011794
920.000000	0.011700
919.000000	0.011598
918.000000	0.011483
917.000000	0.011359
916.000000	0.011239
915.000000	0.011134
914.000000	0.011045
913.000000	0.010970
912.000000	0.010898
911.000000	0.010809
910.000000	0.010691
909.000000	0.010564
908.000000	0.010473
907.000000	0.010441
906.000000	0.010434
905.000000	0.010401
904.000000	0.010326
903.000000	0.010230
902.000000	0.010139
901.000000	0.010059
900.000000	0.009985
899.000000	0.009920
898.000000	0.009861
897.000000	0.009804
896.000000	0.009740
895.000000	0.009676
894.000000	0.009615
893.000000	0.009556
892.000000	0.009490
891.000000	0.009421
890.000000	0.009367
889.000000	0.009359
888.000000	0.009428
887.000000	0.009591
886.000000	0.009845
885.000000	0.010173
884.000000	0.010557
883.000000	0.011006
882.000000	0.011555
881.000000	0.012257
880.000000	0.013128
879.000000	0.014105
878.000000	0.015036
877.000000	0.015745
876.000000	0.016104
875.000000	0.016074
874.000000	0.015686
873.000000	0.015008
872.000000	0.014137
871.000000	0.013201
870.000000	0.012336
869.000000	0.011637
868.000000	0.011136
867.000000	0.010806
866.000000	0.010599
865.000000	0.010467
864.000000	0.010364
863.000000	0.010258
862.000000	0.010140
861.000000	0.010027
860.000000	0.009950
859.000000	0.009928
858.000000	0.009953
857.000000	0.009998
856.000000	0.010032
855.000000	0.010038
854.000000	0.010022
853.000000	0.010002
852.000000	0.009991
851.000000	0.009995
850.000000	0.010014
849.000000	0.010032
848.000000	0.010017
847.000000	0.009934
846.000000	0.009797
845.000000	0.009667
844.000000	0.009609
843.000000	0.009621
842.000000	0.009646
841.000000	0.009632
840.000000	0.009579
839.000000	0.009523
838.000000	0.009498
837.000000	0.009510
836.000000	0.009537
835.000000	0.009549
834.000000	0.009540
833.000000	0.009530
832.000000	0.009533
831.000000	0.009531
830.000000	0.009502
829.000000	0.009455
828.000000	0.009435
827.000000	0.009466
826.000000	0.009530
825.000000	0.009593
824.000000	0.009642
823.000000	0.009674
822.000000	0.009683
821.000000	0.009671
820.000000	0.009656
819.000000	0.009642
818.000000	0.009613
817.000000	0.009553
816.000000	0.009484
815.000000	0.009443
814.000000	0.009451
813.000000	0.009492
812.000000	0.009535
811.000000	0.009556
810.000000	0.009546
809.000000	0.009519
808.000000	0.009496
807.000000	0.009491
806.000000	0.009499
805.000000	0.009507
804.000000	0.009507
803.000000	0.009502
802.000000	0.009505
801.000000	0.009534
800.000000	0.009602
799.000000	0.009690
798.000000	0.009767
797.000000	0.009817
796.000000	0.009845
795.000000	0.009846
794.000000	0.009805
793.000000	0.009736
792.000000	0.009690
791.000000	0.009708
790.000000	0.009766
789.000000	0.009811
788.000000	0.009822
787.000000	0.009824
786.000000	0.009840
785.000000	0.009868
784.000000	0.009897
783.000000	0.009924
782.000000	0.009945
781.000000	0.009953
780.000000	0.009948
779.000000	0.009943
778.000000	0.009946
777.000000	0.009951
776.000000	0.009946
775.000000	0.009937
774.000000	0.009939
773.000000	0.009960
772.000000	0.009992
771.000000	0.010019
770.000000	0.010044
769.000000	0.010085
768.000000	0.010151
767.000000	0.010205
766.000000	0.010192
765.000000	0.010094
764.000000	0.009968
763.000000	0.009891
762.000000	0.009898
761.000000	0.009961
760.000000	0.010030
759.000000	0.010068
758.000000	0.010065
757.000000	0.010035
756.000000	0.010004
755.000000	0.009992
754.000000	0.009995
753.000000	0.009991
752.000000	0.009967
751.000000	0.009930
750.000000	0.009900
749.000000	0.009899
748.000000	0.009934
747.000000	0.009991
746.000000	0.010049
745.000000	0.010102
744.000000	0.010165
743.000000	0.010237
742.000000	0.010290
741.000000	0.010313
740.000000	0.010331
739.000000	0.010382
738.000000	0.010475
737.000000	0.010596
736.000000	0.010734
735.000000	0.010886
734.000000	0.011037
733.000000	0.011179
732.000000	0.011324
731.000000	0.011486
730.000000	0.011648
729.000000	0.011788
728.000000	0.011912
727.000000	0.012048
726.000000	0.012212
725.000000	0.012412
724.000000	0.012643
723.000000	0.012891
722.000000	0.013114
721.000000	0.013275
720.000000	0.013358
719.000000	0.013375
718.000000	0.013354
717.000000	0.013348
716.000000	0.013426
715.000000	0.013612
714.000000	0.013833
713.000000	0.013969
712.000000	0.013965
711.000000	0.013862
710.000000	0.013739
709.000000	0.013657
708.000000	0.013645
707.000000	0.013686
706.000000	0.013733
705.000000	0.013757
704.000000	0.013772
703.000000	0.013800
702.000000	0.013822
701.000000	0.013798
700.000000	0.013740
699.000000	0.013704
698.000000	0.013712
697.000000	0.013733
696.000000	0.013728
695.000000	0.013706
694.000000	0.013678
693.000000	0.013619
692.000000	0.013526
691.000000	0.013439
690.000000	0.013407
689.000000	0.013437
688.000000	0.013501
687.000000	0.013583
686.000000	0.013668
685.000000	0.013724
684.000000	0.013744
683.000000	0.013752
682.000000	0.013767
681.000000	0.013802
680.000000	0.013891
679.000000	0.014044
678.000000	0.014194
677.000000	0.014289
676.000000	0.014379
675.000000	0.014561
674.000000	0.014830
673.000000	0.015073
672.000000	0.015206
671.000000	0.015251
670.000000	0.015245
669.000000	0.015183
668.000000	0.015232
667.000000	0.015459
666.000000	0.015442
665.000000	0.015336
664.000000	0.015319
663.000000	0.015313
662.000000	0.015218
661.000000	0.015042
660.000000	0.014847
659.000000	0.014655
658.000000	0.014469
657.000000	0.014332
656.000000	0.014264
655.000000	0.014207
654.000000	0.014121
653.000000	0.014047
652.000000	0.014031
651.000000	0.014064
650.000000	0.014112
649.000000	0.014157
648.000000	0.014158
647.000000	0.014070
646.000000	0.013937
645.000000	0.013861
644.000000	0.013885
643.000000	0.013966
642.000000	0.014047
641.000000	0.014116
640.000000	0.014166
639.000000	0.014165
638.000000	0.014105
637.000000	0.014020
636.000000	0.013928
635.000000	0.013815
634.000000	0.013696
633.000000	0.013633
632.000000	0.013681
631.000000	0.013827
630.000000	0.014003
629.000000	0.014138
628.000000	0.014203
627.000000	0.014228
626.000000	0.014279
625.000000	0.014367
624.000000	0.014432
623.000000	0.014431
622.000000	0.014407
621.000000	0.014424
620.000000	0.014465
619.000000	0.014462
618.000000	0.014397
617.000000	0.014316
616.000000	0.014259
615.000000	0.014244
614.000000	0.014291
613.000000	0.014400
612.000000	0.014513
611.000000	0.014571
610.000000	0.014586
609.000000	0.014601
608.000000	0.014585
607.000000	0.014460
606.000000	0.014242
605.000000	0.014051
604.000000	0.013969
603.000000	0.013968
602.000000	0.013962
601.000000	0.013889
600.000000	0.013730
599.000000	0.013536
598.000000	0.013413
597.000000	0.013430
596.000000	0.013524
595.000000	0.013560
594.000000	0.013483
593.000000	0.013366
592.000000	0.013281
591.000000	0.013218
590.000000	0.013151
589.000000	0.013101
588.000000	0.013100
587.000000	0.013126
586.000000	0.013152
585.000000	0.013196
584.000000	0.013299
583.000000	0.013476
582.000000	0.013689
581.000000	0.013868
580.000000	0.013929
579.000000	0.013844
578.000000	0.013681
577.000000	0.013547
576.000000	0.013468
575.000000	0.013395
574.000000	0.013324
573.000000	0.013329
572.000000	0.013443
571.000000	0.013591
570.000000	0.013672
569.000000	0.013681
568.000000	0.013677
567.000000	0.013701
566.000000	0.013747
565.000000	0.013804
564.000000	0.013866
563.000000	0.013919
562.000000	0.013948
561.000000	0.013953
560.000000	0.013935
559.000000	0.013904
558.000000	0.013885
557.000000	0.013875
556.000000	0.013819
555.000000	0.013670
554.000000	0.013473
553.000000	0.013332
552.000000	0.013300
551.000000	0.013355
550.000000	0.013452
549.000000	0.013537
548.000000	0.013527
547.000000	0.013374
546.000000	0.013160
545.000000	0.013039
544.000000	0.013080
543.000000	0.013225
542.000000	0.013410
541.000000	0.013613
540.000000	0.013779
539.000000	0.013816
538.000000	0.013726
537.000000	0.013638
536.000000	0.013665
535.000000	0.013782
534.000000	0.013908
533.000000	0.014000
532.000000	0.014030
531.000000	0.013961
530.000000	0.013800
529.000000	0.013612
528.000000	0.013440
527.000000	0.013257
526.000000	0.013048
525.000000	0.012873
524.000000	0.012776
523.000000	0.012725
522.000000	0.012667
521.000000	0.012568
520.000000	0.012377
519.000000	0.012045
518.000000	0.011625
517.000000	0.011276
516.000000	0.011096
515.000000	0.011054
514.000000	0.011084
513.000000	0.011150
512.000000	0.011186
511.000000	0.011109
510.000000	0.010964
509.000000	0.010941
508.000000	0.011151
507.000000	0.011448
506.000000	0.011574
505.000000	0.011429
504.000000	0.011095
503.000000	0.010684
502.000000	0.010295
501.000000	0.010031
500.000000	0.009938
499.000000	0.009934
498.000000	0.009874
497.000000	0.009689
496.000000	0.009438
495.000000	0.009271
494.000000	0.009327
493.000000	0.009618
492.000000	0.009965
491.000000	0.010121
490.000000	0.010010
489.000000	0.009783
488.000000	0.009608
487.000000	0.009484
486.000000	0.009343
485.000000	0.009223
484.000000	0.009240
483.000000	0.009422
482.000000	0.009667
481.000000	0.009842
480.000000	0.009871
479.000000	0.009753
478.000000	0.009598
477.000000	0.009574
476.000000	0.009744
475.000000	0.010010
474.000000	0.010264
473.000000	0.010517
472.000000	0.010810
471.000000	0.011112
470.000000	0.011430
469.000000	0.011864
468.000000	0.012423
467.000000	0.012901
466.000000	0.013099
465.000000	0.013068
464.000000	0.012951
463.000000	0.012694
462.000000	0.012127
461.000000	0.011260
460.000000	0.010294
459.000000	0.009406
458.000000	0.008732
457.000000	0.008430
456.000000	0.008551
455.000000	0.008940
454.000000	0.009406
453.000000	0.009859
452.000000	0.010209
451.000000	0.010241
450.000000	0.009789
