PE IR       SUBTECH     SPECTRUM    ASCII       PEDS        4.00        
   -1
3G-N10-C032_1.ASC
22/02/24
10:09:42.00
22/02/24
10:18:11.00
uco
Sample 032 By uco Date Thursday, February 24 2022
450.000000
#HDR
-1
-1
#GR
cm-1
A
1.0
0.0
4000.000000
-1.000000
3551
8
0.038551
0.004682
#DATA
4000.000000	0.004849
3999.000000	0.004858
3998.000000	0.004880
3997.000000	0.004904
3996.000000	0.004918
3995.000000	0.004903
3994.000000	0.004902
3993.000000	0.004907
3992.000000	0.004922
3991.000000	0.004943
3990.000000	0.004960
3989.000000	0.004967
3988.000000	0.004959
3987.000000	0.004939
3986.000000	0.004914
3985.000000	0.004897
3984.000000	0.004894
3983.000000	0.004909
3982.000000	0.004937
3981.000000	0.004969
3980.000000	0.005002
3979.000000	0.005032
3978.000000	0.005055
3977.000000	0.005067
3976.000000	0.005062
3975.000000	0.005040
3974.000000	0.005008
3973.000000	0.004979
3972.000000	0.004960
3971.000000	0.004952
3970.000000	0.004956
3969.000000	0.004971
3968.000000	0.004999
3967.000000	0.005033
3966.000000	0.005064
3965.000000	0.005081
3964.000000	0.005085
3963.000000	0.005079
3962.000000	0.005065
3961.000000	0.005043
3960.000000	0.005017
3959.000000	0.004993
3958.000000	0.004980
3957.000000	0.004983
3956.000000	0.005004
3955.000000	0.005030
3954.000000	0.005046
3953.000000	0.005042
3952.000000	0.005023
3951.000000	0.005004
3950.000000	0.004999
3949.000000	0.005007
3948.000000	0.005015
3947.000000	0.005009
3946.000000	0.004989
3945.000000	0.004968
3944.000000	0.004957
3943.000000	0.004967
3942.000000	0.004996
3941.000000	0.005034
3940.000000	0.005069
3939.000000	0.005091
3938.000000	0.005095
3937.000000	0.005087
3936.000000	0.005077
3935.000000	0.005074
3934.000000	0.005081
3933.000000	0.005092
3932.000000	0.005102
3931.000000	0.005106
3930.000000	0.005104
3929.000000	0.005098
3928.000000	0.005092
3927.000000	0.005089
3926.000000	0.005087
3925.000000	0.005082
3924.000000	0.005073
3923.000000	0.005061
3922.000000	0.005050
3921.000000	0.005043
3920.000000	0.005039
3919.000000	0.005041
3918.000000	0.005049
3917.000000	0.005060
3916.000000	0.005073
3915.000000	0.005081
3914.000000	0.005082
3913.000000	0.005078
3912.000000	0.005075
3911.000000	0.005078
3910.000000	0.005090
3909.000000	0.005103
3908.000000	0.005110
3907.000000	0.005110
3906.000000	0.005103
3905.000000	0.005093
3904.000000	0.005086
3903.000000	0.005087
3902.000000	0.005101
3901.000000	0.005130
3900.000000	0.005166
3899.000000	0.005194
3898.000000	0.005204
3897.000000	0.005194
3896.000000	0.005172
3895.000000	0.005149
3894.000000	0.005137
3893.000000	0.005135
3892.000000	0.005138
3891.000000	0.005138
3890.000000	0.005133
3889.000000	0.005131
3888.000000	0.005134
3887.000000	0.005138
3886.000000	0.005134
3885.000000	0.005121
3884.000000	0.005106
3883.000000	0.005095
3882.000000	0.005090
3881.000000	0.005090
3880.000000	0.005094
3879.000000	0.005101
3878.000000	0.005106
3877.000000	0.005103
3876.000000	0.005090
3875.000000	0.005072
3874.000000	0.005063
3873.000000	0.005071
3872.000000	0.005096
3871.000000	0.005122
3870.000000	0.005138
3869.000000	0.005144
3868.000000	0.005151
3867.000000	0.005166
3866.000000	0.005185
3865.000000	0.005195
3864.000000	0.005189
3863.000000	0.005167
3862.000000	0.005140
3861.000000	0.005119
3860.000000	0.005113
3859.000000	0.005121
3858.000000	0.005138
3857.000000	0.005155
3856.000000	0.005167
3855.000000	0.005172
3854.000000	0.005178
3853.000000	0.005192
3852.000000	0.005211
3851.000000	0.005229
3850.000000	0.005241
3849.000000	0.005242
3848.000000	0.005229
3847.000000	0.005204
3846.000000	0.005178
3845.000000	0.005161
3844.000000	0.005160
3843.000000	0.005172
3842.000000	0.005189
3841.000000	0.005204
3840.000000	0.005211
3839.000000	0.005206
3838.000000	0.005190
3837.000000	0.005164
3836.000000	0.005137
3835.000000	0.005117
3834.000000	0.005112
3833.000000	0.005120
3832.000000	0.005135
3831.000000	0.005148
3830.000000	0.005155
3829.000000	0.005156
3828.000000	0.005156
3827.000000	0.005162
3826.000000	0.005176
3825.000000	0.005200
3824.000000	0.005228
3823.000000	0.005251
3822.000000	0.005254
3821.000000	0.005237
3820.000000	0.005217
3819.000000	0.005210
3818.000000	0.005215
3817.000000	0.005217
3816.000000	0.005198
3815.000000	0.005165
3814.000000	0.005136
3813.000000	0.005125
3812.000000	0.005134
3811.000000	0.005158
3810.000000	0.005188
3809.000000	0.005216
3808.000000	0.005231
3807.000000	0.005228
3806.000000	0.005218
3805.000000	0.005213
3804.000000	0.005214
3803.000000	0.005206
3802.000000	0.005176
3801.000000	0.005134
3800.000000	0.005105
3799.000000	0.005102
3798.000000	0.005116
3797.000000	0.005129
3796.000000	0.005128
3795.000000	0.005118
3794.000000	0.005110
3793.000000	0.005108
3792.000000	0.005112
3791.000000	0.005115
3790.000000	0.005114
3789.000000	0.005108
3788.000000	0.005099
3787.000000	0.005091
3786.000000	0.005085
3785.000000	0.005080
3784.000000	0.005080
3783.000000	0.005088
3782.000000	0.005105
3781.000000	0.005124
3780.000000	0.005132
3779.000000	0.005124
3778.000000	0.005105
3777.000000	0.005081
3776.000000	0.005057
3775.000000	0.005034
3774.000000	0.005013
3773.000000	0.004997
3772.000000	0.004988
3771.000000	0.004987
3770.000000	0.005001
3769.000000	0.005029
3768.000000	0.005061
3767.000000	0.005083
3766.000000	0.005083
3765.000000	0.005068
3764.000000	0.005052
3763.000000	0.005045
3762.000000	0.005045
3761.000000	0.005048
3760.000000	0.005057
3759.000000	0.005073
3758.000000	0.005090
3757.000000	0.005098
3756.000000	0.005094
3755.000000	0.005080
3754.000000	0.005065
3753.000000	0.005063
3752.000000	0.005086
3751.000000	0.005133
3750.000000	0.005175
3749.000000	0.005183
3748.000000	0.005159
3747.000000	0.005125
3746.000000	0.005099
3745.000000	0.005087
3744.000000	0.005077
3743.000000	0.005051
3742.000000	0.005006
3741.000000	0.004952
3740.000000	0.004903
3739.000000	0.004874
3738.000000	0.004872
3737.000000	0.004896
3736.000000	0.004925
3735.000000	0.004935
3734.000000	0.004925
3733.000000	0.004909
3732.000000	0.004903
3731.000000	0.004906
3730.000000	0.004908
3729.000000	0.004902
3728.000000	0.004892
3727.000000	0.004888
3726.000000	0.004901
3725.000000	0.004927
3724.000000	0.004949
3723.000000	0.004955
3722.000000	0.004943
3721.000000	0.004927
3720.000000	0.004918
3719.000000	0.004924
3718.000000	0.004940
3717.000000	0.004959
3716.000000	0.004973
3715.000000	0.004979
3714.000000	0.004985
3713.000000	0.004994
3712.000000	0.005007
3711.000000	0.005010
3710.000000	0.005000
3709.000000	0.004979
3708.000000	0.004957
3707.000000	0.004937
3706.000000	0.004916
3705.000000	0.004894
3704.000000	0.004869
3703.000000	0.004843
3702.000000	0.004821
3701.000000	0.004810
3700.000000	0.004815
3699.000000	0.004839
3698.000000	0.004873
3697.000000	0.004911
3696.000000	0.004945
3695.000000	0.004975
3694.000000	0.004998
3693.000000	0.005010
3692.000000	0.005011
3691.000000	0.005009
3690.000000	0.005009
3689.000000	0.005010
3688.000000	0.005012
3687.000000	0.005019
3686.000000	0.005031
3685.000000	0.005040
3684.000000	0.005040
3683.000000	0.005035
3682.000000	0.005038
3681.000000	0.005062
3680.000000	0.005106
3679.000000	0.005162
3678.000000	0.005215
3677.000000	0.005248
3676.000000	0.005247
3675.000000	0.005222
3674.000000	0.005204
3673.000000	0.005211
3672.000000	0.005237
3671.000000	0.005260
3670.000000	0.005264
3669.000000	0.005243
3668.000000	0.005209
3667.000000	0.005177
3666.000000	0.005160
3665.000000	0.005159
3664.000000	0.005169
3663.000000	0.005182
3662.000000	0.005191
3661.000000	0.005192
3660.000000	0.005189
3659.000000	0.005188
3658.000000	0.005190
3657.000000	0.005198
3656.000000	0.005212
3655.000000	0.005231
3654.000000	0.005256
3653.000000	0.005284
3652.000000	0.005306
3651.000000	0.005317
3650.000000	0.005320
3649.000000	0.005322
3648.000000	0.005327
3647.000000	0.005335
3646.000000	0.005347
3645.000000	0.005363
3644.000000	0.005381
3643.000000	0.005398
3642.000000	0.005414
3641.000000	0.005432
3640.000000	0.005453
3639.000000	0.005476
3638.000000	0.005498
3637.000000	0.005516
3636.000000	0.005525
3635.000000	0.005527
3634.000000	0.005527
3633.000000	0.005537
3632.000000	0.005565
3631.000000	0.005609
3630.000000	0.005656
3629.000000	0.005690
3628.000000	0.005703
3627.000000	0.005702
3626.000000	0.005696
3625.000000	0.005693
3624.000000	0.005690
3623.000000	0.005685
3622.000000	0.005683
3621.000000	0.005692
3620.000000	0.005722
3619.000000	0.005772
3618.000000	0.005829
3617.000000	0.005880
3616.000000	0.005927
3615.000000	0.005975
3614.000000	0.006026
3613.000000	0.006076
3612.000000	0.006116
3611.000000	0.006145
3610.000000	0.006164
3609.000000	0.006177
3608.000000	0.006188
3607.000000	0.006205
3606.000000	0.006231
3605.000000	0.006257
3604.000000	0.006270
3603.000000	0.006265
3602.000000	0.006254
3601.000000	0.006256
3600.000000	0.006281
3599.000000	0.006325
3598.000000	0.006377
3597.000000	0.006422
3596.000000	0.006453
3595.000000	0.006468
3594.000000	0.006474
3593.000000	0.006483
3592.000000	0.006507
3591.000000	0.006541
3590.000000	0.006577
3589.000000	0.006603
3588.000000	0.006619
3587.000000	0.006637
3586.000000	0.006666
3585.000000	0.006707
3584.000000	0.006751
3583.000000	0.006792
3582.000000	0.006828
3581.000000	0.006863
3580.000000	0.006905
3579.000000	0.006957
3578.000000	0.007017
3577.000000	0.007079
3576.000000	0.007139
3575.000000	0.007199
3574.000000	0.007255
3573.000000	0.007296
3572.000000	0.007317
3571.000000	0.007321
3570.000000	0.007329
3569.000000	0.007359
3568.000000	0.007420
3567.000000	0.007495
3566.000000	0.007558
3565.000000	0.007592
3564.000000	0.007599
3563.000000	0.007592
3562.000000	0.007589
3561.000000	0.007601
3560.000000	0.007627
3559.000000	0.007668
3558.000000	0.007726
3557.000000	0.007801
3556.000000	0.007886
3555.000000	0.007963
3554.000000	0.008020
3553.000000	0.008056
3552.000000	0.008081
3551.000000	0.008108
3550.000000	0.008140
3549.000000	0.008172
3548.000000	0.008201
3547.000000	0.008233
3546.000000	0.008278
3545.000000	0.008333
3544.000000	0.008385
3543.000000	0.008420
3542.000000	0.008439
3541.000000	0.008451
3540.000000	0.008464
3539.000000	0.008484
3538.000000	0.008519
3537.000000	0.008570
3536.000000	0.008631
3535.000000	0.008683
3534.000000	0.008715
3533.000000	0.008728
3532.000000	0.008736
3531.000000	0.008754
3530.000000	0.008792
3529.000000	0.008849
3528.000000	0.008912
3527.000000	0.008974
3526.000000	0.009032
3525.000000	0.009086
3524.000000	0.009134
3523.000000	0.009173
3522.000000	0.009205
3521.000000	0.009238
3520.000000	0.009277
3519.000000	0.009318
3518.000000	0.009352
3517.000000	0.009374
3516.000000	0.009388
3515.000000	0.009403
3514.000000	0.009431
3513.000000	0.009476
3512.000000	0.009538
3511.000000	0.009613
3510.000000	0.009688
3509.000000	0.009748
3508.000000	0.009781
3507.000000	0.009791
3506.000000	0.009793
3505.000000	0.009797
3504.000000	0.009809
3503.000000	0.009824
3502.000000	0.009840
3501.000000	0.009858
3500.000000	0.009881
3499.000000	0.009917
3498.000000	0.009967
3497.000000	0.010026
3496.000000	0.010077
3495.000000	0.010112
3494.000000	0.010131
3493.000000	0.010143
3492.000000	0.010150
3491.000000	0.010155
3490.000000	0.010164
3489.000000	0.010186
3488.000000	0.010221
3487.000000	0.010262
3486.000000	0.010306
3485.000000	0.010348
3484.000000	0.010388
3483.000000	0.010424
3482.000000	0.010456
3481.000000	0.010485
3480.000000	0.010511
3479.000000	0.010532
3478.000000	0.010555
3477.000000	0.010589
3476.000000	0.010635
3475.000000	0.010683
3474.000000	0.010720
3473.000000	0.010740
3472.000000	0.010748
3471.000000	0.010754
3470.000000	0.010768
3469.000000	0.010797
3468.000000	0.010839
3467.000000	0.010886
3466.000000	0.010928
3465.000000	0.010959
3464.000000	0.010987
3463.000000	0.011017
3462.000000	0.011049
3461.000000	0.011075
3460.000000	0.011087
3459.000000	0.011093
3458.000000	0.011113
3457.000000	0.011161
3456.000000	0.011232
3455.000000	0.011307
3454.000000	0.011360
3453.000000	0.011384
3452.000000	0.011381
3451.000000	0.011365
3450.000000	0.011354
3449.000000	0.011363
3448.000000	0.011394
3447.000000	0.011439
3446.000000	0.011489
3445.000000	0.011538
3444.000000	0.011586
3443.000000	0.011627
3442.000000	0.011653
3441.000000	0.011664
3440.000000	0.011667
3439.000000	0.011675
3438.000000	0.011697
3437.000000	0.011734
3436.000000	0.011783
3435.000000	0.011835
3434.000000	0.011881
3433.000000	0.011915
3432.000000	0.011940
3431.000000	0.011964
3430.000000	0.011998
3429.000000	0.012040
3428.000000	0.012078
3427.000000	0.012096
3426.000000	0.012091
3425.000000	0.012080
3424.000000	0.012080
3423.000000	0.012096
3422.000000	0.012123
3421.000000	0.012154
3420.000000	0.012192
3419.000000	0.012240
3418.000000	0.012294
3417.000000	0.012345
3416.000000	0.012383
3415.000000	0.012403
3414.000000	0.012410
3413.000000	0.012413
3412.000000	0.012423
3411.000000	0.012450
3410.000000	0.012493
3409.000000	0.012542
3408.000000	0.012589
3407.000000	0.012627
3406.000000	0.012661
3405.000000	0.012698
3404.000000	0.012738
3403.000000	0.012773
3402.000000	0.012794
3401.000000	0.012799
3400.000000	0.012798
3399.000000	0.012804
3398.000000	0.012827
3397.000000	0.012870
3396.000000	0.012927
3395.000000	0.012985
3394.000000	0.013035
3393.000000	0.013075
3392.000000	0.013108
3391.000000	0.013135
3390.000000	0.013151
3389.000000	0.013152
3388.000000	0.013146
3387.000000	0.013149
3386.000000	0.013172
3385.000000	0.013216
3384.000000	0.013277
3383.000000	0.013344
3382.000000	0.013399
3381.000000	0.013432
3380.000000	0.013446
3379.000000	0.013462
3378.000000	0.013498
3377.000000	0.013559
3376.000000	0.013627
3375.000000	0.013683
3374.000000	0.013718
3373.000000	0.013737
3372.000000	0.013751
3371.000000	0.013777
3370.000000	0.013821
3369.000000	0.013877
3368.000000	0.013938
3367.000000	0.013996
3366.000000	0.014051
3365.000000	0.014107
3364.000000	0.014160
3363.000000	0.014206
3362.000000	0.014246
3361.000000	0.014290
3360.000000	0.014345
3359.000000	0.014410
3358.000000	0.014475
3357.000000	0.014529
3356.000000	0.014571
3355.000000	0.014609
3354.000000	0.014657
3353.000000	0.014720
3352.000000	0.014796
3351.000000	0.014876
3350.000000	0.014958
3349.000000	0.015038
3348.000000	0.015112
3347.000000	0.015176
3346.000000	0.015228
3345.000000	0.015273
3344.000000	0.015317
3343.000000	0.015371
3342.000000	0.015436
3341.000000	0.015510
3340.000000	0.015583
3339.000000	0.015647
3338.000000	0.015701
3337.000000	0.015747
3336.000000	0.015786
3335.000000	0.015820
3334.000000	0.015857
3333.000000	0.015903
3332.000000	0.015962
3331.000000	0.016027
3330.000000	0.016089
3329.000000	0.016142
3328.000000	0.016182
3327.000000	0.016216
3326.000000	0.016255
3325.000000	0.016306
3324.000000	0.016370
3323.000000	0.016434
3322.000000	0.016484
3321.000000	0.016521
3320.000000	0.016555
3319.000000	0.016597
3318.000000	0.016646
3317.000000	0.016692
3316.000000	0.016726
3315.000000	0.016751
3314.000000	0.016772
3313.000000	0.016794
3312.000000	0.016816
3311.000000	0.016834
3310.000000	0.016847
3309.000000	0.016854
3308.000000	0.016856
3307.000000	0.016858
3306.000000	0.016864
3305.000000	0.016878
3304.000000	0.016903
3303.000000	0.016941
3302.000000	0.016987
3301.000000	0.017029
3300.000000	0.017055
3299.000000	0.017062
3298.000000	0.017061
3297.000000	0.017066
3296.000000	0.017084
3295.000000	0.017107
3294.000000	0.017129
3293.000000	0.017147
3292.000000	0.017167
3291.000000	0.017191
3290.000000	0.017216
3289.000000	0.017235
3288.000000	0.017243
3287.000000	0.017241
3286.000000	0.017231
3285.000000	0.017217
3284.000000	0.017200
3283.000000	0.017179
3282.000000	0.017157
3281.000000	0.017137
3280.000000	0.017121
3279.000000	0.017110
3278.000000	0.017097
3277.000000	0.017080
3276.000000	0.017058
3275.000000	0.017037
3274.000000	0.017020
3273.000000	0.017005
3272.000000	0.016985
3271.000000	0.016956
3270.000000	0.016929
3269.000000	0.016914
3268.000000	0.016913
3267.000000	0.016916
3266.000000	0.016907
3265.000000	0.016882
3264.000000	0.016848
3263.000000	0.016817
3262.000000	0.016796
3261.000000	0.016781
3260.000000	0.016761
3259.000000	0.016726
3258.000000	0.016686
3257.000000	0.016655
3256.000000	0.016641
3255.000000	0.016631
3254.000000	0.016604
3253.000000	0.016554
3252.000000	0.016492
3251.000000	0.016437
3250.000000	0.016396
3249.000000	0.016364
3248.000000	0.016329
3247.000000	0.016287
3246.000000	0.016244
3245.000000	0.016209
3244.000000	0.016181
3243.000000	0.016151
3242.000000	0.016111
3241.000000	0.016065
3240.000000	0.016026
3239.000000	0.016005
3238.000000	0.015998
3237.000000	0.015992
3236.000000	0.015976
3235.000000	0.015947
3234.000000	0.015912
3233.000000	0.015878
3232.000000	0.015849
3231.000000	0.015827
3230.000000	0.015814
3229.000000	0.015808
3228.000000	0.015803
3227.000000	0.015792
3226.000000	0.015769
3225.000000	0.015733
3224.000000	0.015691
3223.000000	0.015652
3222.000000	0.015624
3221.000000	0.015608
3220.000000	0.015604
3219.000000	0.015609
3218.000000	0.015618
3217.000000	0.015623
3216.000000	0.015612
3215.000000	0.015579
3214.000000	0.015527
3213.000000	0.015467
3212.000000	0.015409
3211.000000	0.015361
3210.000000	0.015330
3209.000000	0.015317
3208.000000	0.015318
3207.000000	0.015324
3206.000000	0.015327
3205.000000	0.015321
3204.000000	0.015300
3203.000000	0.015264
3202.000000	0.015219
3201.000000	0.015176
3200.000000	0.015136
3199.000000	0.015093
3198.000000	0.015038
3197.000000	0.014975
3196.000000	0.014921
3195.000000	0.014890
3194.000000	0.014880
3193.000000	0.014879
3192.000000	0.014870
3191.000000	0.014846
3190.000000	0.014807
3189.000000	0.014762
3188.000000	0.014722
3187.000000	0.014690
3186.000000	0.014656
3185.000000	0.014610
3184.000000	0.014557
3183.000000	0.014509
3182.000000	0.014473
3181.000000	0.014445
3180.000000	0.014416
3179.000000	0.014380
3178.000000	0.014339
3177.000000	0.014293
3176.000000	0.014246
3175.000000	0.014207
3174.000000	0.014181
3173.000000	0.014161
3172.000000	0.014136
3171.000000	0.014103
3170.000000	0.014068
3169.000000	0.014036
3168.000000	0.013999
3167.000000	0.013948
3166.000000	0.013882
3165.000000	0.013815
3164.000000	0.013759
3163.000000	0.013719
3162.000000	0.013694
3161.000000	0.013676
3160.000000	0.013658
3159.000000	0.013635
3158.000000	0.013604
3157.000000	0.013568
3156.000000	0.013524
3155.000000	0.013470
3154.000000	0.013412
3153.000000	0.013368
3152.000000	0.013352
3151.000000	0.013357
3150.000000	0.013360
3149.000000	0.013341
3148.000000	0.013300
3147.000000	0.013254
3146.000000	0.013216
3145.000000	0.013189
3144.000000	0.013164
3143.000000	0.013132
3142.000000	0.013091
3141.000000	0.013050
3140.000000	0.013018
3139.000000	0.012998
3138.000000	0.012982
3137.000000	0.012961
3136.000000	0.012933
3135.000000	0.012902
3134.000000	0.012869
3133.000000	0.012832
3132.000000	0.012796
3131.000000	0.012766
3130.000000	0.012751
3129.000000	0.012750
3128.000000	0.012755
3127.000000	0.012757
3126.000000	0.012750
3125.000000	0.012731
3124.000000	0.012701
3123.000000	0.012662
3122.000000	0.012622
3121.000000	0.012588
3120.000000	0.012569
3119.000000	0.012566
3118.000000	0.012575
3117.000000	0.012586
3116.000000	0.012596
3115.000000	0.012602
3114.000000	0.012604
3113.000000	0.012600
3112.000000	0.012591
3111.000000	0.012579
3110.000000	0.012569
3109.000000	0.012564
3108.000000	0.012568
3107.000000	0.012588
3106.000000	0.012625
3105.000000	0.012675
3104.000000	0.012723
3103.000000	0.012758
3102.000000	0.012774
3101.000000	0.012775
3100.000000	0.012770
3099.000000	0.012769
3098.000000	0.012777
3097.000000	0.012794
3096.000000	0.012816
3095.000000	0.012841
3094.000000	0.012865
3093.000000	0.012883
3092.000000	0.012891
3091.000000	0.012895
3090.000000	0.012905
3089.000000	0.012926
3088.000000	0.012949
3087.000000	0.012961
3086.000000	0.012955
3085.000000	0.012943
3084.000000	0.012940
3083.000000	0.012954
3082.000000	0.012978
3081.000000	0.013002
3080.000000	0.013018
3079.000000	0.013028
3078.000000	0.013038
3077.000000	0.013055
3076.000000	0.013074
3075.000000	0.013090
3074.000000	0.013098
3073.000000	0.013101
3072.000000	0.013105
3071.000000	0.013109
3070.000000	0.013109
3069.000000	0.013098
3068.000000	0.013077
3067.000000	0.013054
3066.000000	0.013032
3065.000000	0.013013
3064.000000	0.012997
3063.000000	0.012984
3062.000000	0.012972
3061.000000	0.012958
3060.000000	0.012936
3059.000000	0.012907
3058.000000	0.012877
3057.000000	0.012848
3056.000000	0.012822
3055.000000	0.012795
3054.000000	0.012766
3053.000000	0.012732
3052.000000	0.012688
3051.000000	0.012639
3050.000000	0.012596
3049.000000	0.012569
3048.000000	0.012552
3047.000000	0.012535
3046.000000	0.012503
3045.000000	0.012453
3044.000000	0.012395
3043.000000	0.012343
3042.000000	0.012310
3041.000000	0.012293
3040.000000	0.012280
3039.000000	0.012259
3038.000000	0.012225
3037.000000	0.012188
3036.000000	0.012158
3035.000000	0.012134
3034.000000	0.012107
3033.000000	0.012069
3032.000000	0.012022
3031.000000	0.011976
3030.000000	0.011939
3029.000000	0.011910
3028.000000	0.011885
3027.000000	0.011857
3026.000000	0.011824
3025.000000	0.011788
3024.000000	0.011748
3023.000000	0.011710
3022.000000	0.011678
3021.000000	0.011657
3020.000000	0.011645
3019.000000	0.011630
3018.000000	0.011601
3017.000000	0.011558
3016.000000	0.011513
3015.000000	0.011477
3014.000000	0.011453
3013.000000	0.011428
3012.000000	0.011396
3011.000000	0.011359
3010.000000	0.011330
3009.000000	0.011321
3008.000000	0.011330
3007.000000	0.011349
3006.000000	0.011366
3005.000000	0.011375
3004.000000	0.011376
3003.000000	0.011374
3002.000000	0.011376
3001.000000	0.011386
3000.000000	0.011403
2999.000000	0.011424
2998.000000	0.011446
2997.000000	0.011472
2996.000000	0.011503
2995.000000	0.011538
2994.000000	0.011575
2993.000000	0.011610
2992.000000	0.011639
2991.000000	0.011658
2990.000000	0.011674
2989.000000	0.011692
2988.000000	0.011720
2987.000000	0.011759
2986.000000	0.011805
2985.000000	0.011852
2984.000000	0.011898
2983.000000	0.011947
2982.000000	0.012001
2981.000000	0.012056
2980.000000	0.012105
2979.000000	0.012141
2978.000000	0.012166
2977.000000	0.012186
2976.000000	0.012207
2975.000000	0.012236
2974.000000	0.012273
2973.000000	0.012320
2972.000000	0.012373
2971.000000	0.012425
2970.000000	0.012467
2969.000000	0.012502
2968.000000	0.012543
2967.000000	0.012603
2966.000000	0.012680
2965.000000	0.012764
2964.000000	0.012843
2963.000000	0.012915
2962.000000	0.012977
2961.000000	0.013024
2960.000000	0.013051
2959.000000	0.013066
2958.000000	0.013080
2957.000000	0.013096
2956.000000	0.013106
2955.000000	0.013107
2954.000000	0.013103
2953.000000	0.013099
2952.000000	0.013095
2951.000000	0.013091
2950.000000	0.013091
2949.000000	0.013098
2948.000000	0.013113
2947.000000	0.013135
2946.000000	0.013170
2945.000000	0.013220
2944.000000	0.013281
2943.000000	0.013339
2942.000000	0.013387
2941.000000	0.013430
2940.000000	0.013477
2939.000000	0.013535
2938.000000	0.013601
2937.000000	0.013667
2936.000000	0.013722
2935.000000	0.013768
2934.000000	0.013821
2933.000000	0.013904
2932.000000	0.014026
2931.000000	0.014170
2930.000000	0.014302
2929.000000	0.014396
2928.000000	0.014454
2927.000000	0.014492
2926.000000	0.014532
2925.000000	0.014580
2924.000000	0.014629
2923.000000	0.014665
2922.000000	0.014676
2921.000000	0.014659
2920.000000	0.014618
2919.000000	0.014560
2918.000000	0.014487
2917.000000	0.014397
2916.000000	0.014287
2915.000000	0.014160
2914.000000	0.014021
2913.000000	0.013865
2912.000000	0.013692
2911.000000	0.013508
2910.000000	0.013334
2909.000000	0.013190
2908.000000	0.013079
2907.000000	0.012991
2906.000000	0.012909
2905.000000	0.012825
2904.000000	0.012739
2903.000000	0.012656
2902.000000	0.012579
2901.000000	0.012512
2900.000000	0.012457
2899.000000	0.012414
2898.000000	0.012380
2897.000000	0.012349
2896.000000	0.012317
2895.000000	0.012283
2894.000000	0.012250
2893.000000	0.012218
2892.000000	0.012182
2891.000000	0.012141
2890.000000	0.012101
2889.000000	0.012067
2888.000000	0.012045
2887.000000	0.012035
2886.000000	0.012037
2885.000000	0.012050
2884.000000	0.012067
2883.000000	0.012083
2882.000000	0.012098
2881.000000	0.012116
2880.000000	0.012134
2879.000000	0.012150
2878.000000	0.012161
2877.000000	0.012173
2876.000000	0.012184
2875.000000	0.012188
2874.000000	0.012177
2873.000000	0.012153
2872.000000	0.012122
2871.000000	0.012094
2870.000000	0.012073
2869.000000	0.012058
2868.000000	0.012042
2867.000000	0.012018
2866.000000	0.011989
2865.000000	0.011963
2864.000000	0.011952
2863.000000	0.011955
2862.000000	0.011972
2861.000000	0.011996
2860.000000	0.012025
2859.000000	0.012054
2858.000000	0.012083
2857.000000	0.012116
2856.000000	0.012157
2855.000000	0.012205
2854.000000	0.012252
2853.000000	0.012292
2852.000000	0.012313
2851.000000	0.012299
2850.000000	0.012237
2849.000000	0.012128
2848.000000	0.011988
2847.000000	0.011835
2846.000000	0.011682
2845.000000	0.011537
2844.000000	0.011403
2843.000000	0.011279
2842.000000	0.011163
2841.000000	0.011062
2840.000000	0.010985
2839.000000	0.010936
2838.000000	0.010907
2837.000000	0.010880
2836.000000	0.010845
2835.000000	0.010801
2834.000000	0.010754
2833.000000	0.010716
2832.000000	0.010691
2831.000000	0.010678
2830.000000	0.010668
2829.000000	0.010651
2828.000000	0.010623
2827.000000	0.010589
2826.000000	0.010558
2825.000000	0.010537
2824.000000	0.010527
2823.000000	0.010522
2822.000000	0.010512
2821.000000	0.010491
2820.000000	0.010466
2819.000000	0.010446
2818.000000	0.010432
2817.000000	0.010420
2816.000000	0.010403
2815.000000	0.010376
2814.000000	0.010340
2813.000000	0.010298
2812.000000	0.010259
2811.000000	0.010231
2810.000000	0.010215
2809.000000	0.010208
2808.000000	0.010207
2807.000000	0.010209
2806.000000	0.010211
2805.000000	0.010210
2804.000000	0.010200
2803.000000	0.010182
2802.000000	0.010156
2801.000000	0.010123
2800.000000	0.010095
2799.000000	0.010086
2798.000000	0.010098
2797.000000	0.010117
2796.000000	0.010125
2795.000000	0.010115
2794.000000	0.010096
2793.000000	0.010076
2792.000000	0.010058
2791.000000	0.010040
2790.000000	0.010021
2789.000000	0.010003
2788.000000	0.009983
2787.000000	0.009962
2786.000000	0.009947
2785.000000	0.009942
2784.000000	0.009940
2783.000000	0.009934
2782.000000	0.009919
2781.000000	0.009898
2780.000000	0.009878
2779.000000	0.009861
2778.000000	0.009849
2777.000000	0.009843
2776.000000	0.009843
2775.000000	0.009846
2774.000000	0.009847
2773.000000	0.009838
2772.000000	0.009817
2771.000000	0.009785
2770.000000	0.009746
2769.000000	0.009710
2768.000000	0.009685
2767.000000	0.009676
2766.000000	0.009681
2765.000000	0.009687
2764.000000	0.009686
2763.000000	0.009677
2762.000000	0.009667
2761.000000	0.009658
2760.000000	0.009642
2759.000000	0.009618
2758.000000	0.009601
2757.000000	0.009606
2756.000000	0.009631
2755.000000	0.009656
2754.000000	0.009659
2753.000000	0.009637
2752.000000	0.009603
2751.000000	0.009573
2750.000000	0.009552
2749.000000	0.009537
2748.000000	0.009519
2747.000000	0.009490
2746.000000	0.009451
2745.000000	0.009415
2744.000000	0.009396
2743.000000	0.009397
2742.000000	0.009415
2741.000000	0.009439
2740.000000	0.009461
2739.000000	0.009474
2738.000000	0.009473
2737.000000	0.009456
2736.000000	0.009428
2735.000000	0.009397
2734.000000	0.009368
2733.000000	0.009344
2732.000000	0.009328
2731.000000	0.009325
2730.000000	0.009335
2729.000000	0.009347
2728.000000	0.009347
2727.000000	0.009325
2726.000000	0.009284
2725.000000	0.009240
2724.000000	0.009210
2723.000000	0.009199
2722.000000	0.009201
2721.000000	0.009204
2720.000000	0.009198
2719.000000	0.009186
2718.000000	0.009175
2717.000000	0.009166
2716.000000	0.009155
2715.000000	0.009141
2714.000000	0.009126
2713.000000	0.009116
2712.000000	0.009111
2711.000000	0.009112
2710.000000	0.009120
2709.000000	0.009132
2708.000000	0.009140
2707.000000	0.009135
2706.000000	0.009120
2705.000000	0.009108
2704.000000	0.009107
2703.000000	0.009116
2702.000000	0.009124
2701.000000	0.009118
2700.000000	0.009093
2699.000000	0.009057
2698.000000	0.009026
2697.000000	0.009012
2696.000000	0.009016
2695.000000	0.009026
2694.000000	0.009029
2693.000000	0.009023
2692.000000	0.009013
2691.000000	0.009006
2690.000000	0.009007
2689.000000	0.009013
2688.000000	0.009016
2687.000000	0.009015
2686.000000	0.009010
2685.000000	0.009008
2684.000000	0.009012
2683.000000	0.009015
2682.000000	0.009011
2681.000000	0.009000
2680.000000	0.008986
2679.000000	0.008977
2678.000000	0.008971
2677.000000	0.008962
2676.000000	0.008945
2675.000000	0.008923
2674.000000	0.008899
2673.000000	0.008879
2672.000000	0.008864
2671.000000	0.008859
2670.000000	0.008866
2669.000000	0.008883
2668.000000	0.008902
2667.000000	0.008910
2666.000000	0.008902
2665.000000	0.008886
2664.000000	0.008870
2663.000000	0.008862
2662.000000	0.008861
2661.000000	0.008858
2660.000000	0.008846
2659.000000	0.008828
2658.000000	0.008807
2657.000000	0.008787
2656.000000	0.008765
2655.000000	0.008741
2654.000000	0.008719
2653.000000	0.008707
2652.000000	0.008704
2651.000000	0.008701
2650.000000	0.008690
2649.000000	0.008669
2648.000000	0.008642
2647.000000	0.008609
2646.000000	0.008568
2645.000000	0.008517
2644.000000	0.008466
2643.000000	0.008427
2642.000000	0.008404
2641.000000	0.008390
2640.000000	0.008379
2639.000000	0.008369
2638.000000	0.008357
2637.000000	0.008340
2636.000000	0.008317
2635.000000	0.008296
2634.000000	0.008285
2633.000000	0.008276
2632.000000	0.008253
2631.000000	0.008210
2630.000000	0.008164
2629.000000	0.008136
2628.000000	0.008129
2627.000000	0.008133
2626.000000	0.008135
2625.000000	0.008133
2624.000000	0.008124
2623.000000	0.008106
2622.000000	0.008085
2621.000000	0.008069
2620.000000	0.008057
2619.000000	0.008044
2618.000000	0.008024
2617.000000	0.008002
2616.000000	0.007982
2615.000000	0.007959
2614.000000	0.007928
2613.000000	0.007894
2612.000000	0.007871
2611.000000	0.007866
2610.000000	0.007869
2609.000000	0.007858
2608.000000	0.007832
2607.000000	0.007804
2606.000000	0.007795
2605.000000	0.007803
2604.000000	0.007810
2603.000000	0.007801
2602.000000	0.007780
2601.000000	0.007761
2600.000000	0.007752
2599.000000	0.007747
2598.000000	0.007731
2597.000000	0.007702
2596.000000	0.007668
2595.000000	0.007644
2594.000000	0.007638
2593.000000	0.007643
2592.000000	0.007648
2591.000000	0.007649
2590.000000	0.007652
2589.000000	0.007655
2588.000000	0.007650
2587.000000	0.007632
2586.000000	0.007610
2585.000000	0.007596
2584.000000	0.007594
2583.000000	0.007593
2582.000000	0.007575
2581.000000	0.007541
2580.000000	0.007505
2579.000000	0.007492
2578.000000	0.007511
2577.000000	0.007550
2576.000000	0.007579
2575.000000	0.007581
2574.000000	0.007556
2573.000000	0.007519
2572.000000	0.007484
2571.000000	0.007458
2570.000000	0.007440
2569.000000	0.007429
2568.000000	0.007424
2567.000000	0.007424
2566.000000	0.007431
2565.000000	0.007440
2564.000000	0.007447
2563.000000	0.007448
2562.000000	0.007444
2561.000000	0.007431
2560.000000	0.007412
2559.000000	0.007394
2558.000000	0.007388
2557.000000	0.007394
2556.000000	0.007400
2555.000000	0.007395
2554.000000	0.007385
2553.000000	0.007377
2552.000000	0.007370
2551.000000	0.007354
2550.000000	0.007326
2549.000000	0.007295
2548.000000	0.007276
2547.000000	0.007272
2546.000000	0.007273
2545.000000	0.007262
2544.000000	0.007231
2543.000000	0.007190
2542.000000	0.007162
2541.000000	0.007157
2540.000000	0.007170
2539.000000	0.007190
2538.000000	0.007211
2537.000000	0.007230
2536.000000	0.007240
2535.000000	0.007243
2534.000000	0.007249
2533.000000	0.007268
2532.000000	0.007290
2531.000000	0.007294
2530.000000	0.007268
2529.000000	0.007224
2528.000000	0.007192
2527.000000	0.007190
2526.000000	0.007212
2525.000000	0.007243
2524.000000	0.007272
2523.000000	0.007303
2522.000000	0.007332
2521.000000	0.007341
2520.000000	0.007305
2519.000000	0.007230
2518.000000	0.007154
2517.000000	0.007116
2516.000000	0.007124
2515.000000	0.007163
2514.000000	0.007214
2513.000000	0.007265
2512.000000	0.007300
2511.000000	0.007303
2510.000000	0.007279
2509.000000	0.007248
2508.000000	0.007228
2507.000000	0.007219
2506.000000	0.007210
2505.000000	0.007196
2504.000000	0.007184
2503.000000	0.007186
2502.000000	0.007204
2501.000000	0.007234
2500.000000	0.007265
2499.000000	0.007290
2498.000000	0.007303
2497.000000	0.007291
2496.000000	0.007243
2495.000000	0.007167
2494.000000	0.007094
2493.000000	0.007050
2492.000000	0.007038
2491.000000	0.007046
2490.000000	0.007066
2489.000000	0.007097
2488.000000	0.007125
2487.000000	0.007134
2486.000000	0.007109
2485.000000	0.007053
2484.000000	0.006986
2483.000000	0.006939
2482.000000	0.006932
2481.000000	0.006966
2480.000000	0.007018
2479.000000	0.007069
2478.000000	0.007111
2477.000000	0.007139
2476.000000	0.007149
2475.000000	0.007143
2474.000000	0.007135
2473.000000	0.007133
2472.000000	0.007128
2471.000000	0.007107
2470.000000	0.007070
2469.000000	0.007032
2468.000000	0.007004
2467.000000	0.006994
2466.000000	0.007000
2465.000000	0.007015
2464.000000	0.007027
2463.000000	0.007027
2462.000000	0.007020
2461.000000	0.007019
2460.000000	0.007028
2459.000000	0.007047
2458.000000	0.007073
2457.000000	0.007098
2456.000000	0.007112
2455.000000	0.007105
2454.000000	0.007085
2453.000000	0.007064
2452.000000	0.007050
2451.000000	0.007044
2450.000000	0.007046
2449.000000	0.007056
2448.000000	0.007062
2447.000000	0.007053
2446.000000	0.007037
2445.000000	0.007030
2444.000000	0.007033
2443.000000	0.007039
2442.000000	0.007041
2441.000000	0.007043
2440.000000	0.007043
2439.000000	0.007027
2438.000000	0.006991
2437.000000	0.006945
2436.000000	0.006903
2435.000000	0.006875
2434.000000	0.006864
2433.000000	0.006868
2432.000000	0.006885
2431.000000	0.006909
2430.000000	0.006939
2429.000000	0.006970
2428.000000	0.006986
2427.000000	0.006973
2426.000000	0.006939
2425.000000	0.006909
2424.000000	0.006898
2423.000000	0.006900
2422.000000	0.006904
2421.000000	0.006912
2420.000000	0.006934
2419.000000	0.006963
2418.000000	0.006979
2417.000000	0.006971
2416.000000	0.006945
2415.000000	0.006921
2414.000000	0.006910
2413.000000	0.006910
2412.000000	0.006913
2411.000000	0.006914
2410.000000	0.006916
2409.000000	0.006922
2408.000000	0.006930
2407.000000	0.006934
2406.000000	0.006930
2405.000000	0.006914
2404.000000	0.006884
2403.000000	0.006855
2402.000000	0.006845
2401.000000	0.006861
2400.000000	0.006884
2399.000000	0.006889
2398.000000	0.006869
2397.000000	0.006840
2396.000000	0.006824
2395.000000	0.006833
2394.000000	0.006867
2393.000000	0.006914
2392.000000	0.006946
2391.000000	0.006947
2390.000000	0.006922
2389.000000	0.006897
2388.000000	0.006888
2387.000000	0.006888
2386.000000	0.006875
2385.000000	0.006838
2384.000000	0.006784
2383.000000	0.006731
2382.000000	0.006697
2381.000000	0.006685
2380.000000	0.006688
2379.000000	0.006701
2378.000000	0.006725
2377.000000	0.006756
2376.000000	0.006781
2375.000000	0.006797
2374.000000	0.006805
2373.000000	0.006802
2372.000000	0.006770
2371.000000	0.006704
2370.000000	0.006627
2369.000000	0.006575
2368.000000	0.006557
2367.000000	0.006567
2366.000000	0.006597
2365.000000	0.006641
2364.000000	0.006690
2363.000000	0.006735
2362.000000	0.006778
2361.000000	0.006820
2360.000000	0.006845
2359.000000	0.006838
2358.000000	0.006800
2357.000000	0.006756
2356.000000	0.006746
2355.000000	0.006769
2354.000000	0.006767
2353.000000	0.006704
2352.000000	0.006636
2351.000000	0.006636
2350.000000	0.006707
2349.000000	0.006805
2348.000000	0.006868
2347.000000	0.006860
2346.000000	0.006809
2345.000000	0.006795
2344.000000	0.006843
2343.000000	0.006887
2342.000000	0.006889
2341.000000	0.006862
2340.000000	0.006840
2339.000000	0.006843
2338.000000	0.006864
2337.000000	0.006885
2336.000000	0.006894
2335.000000	0.006879
2334.000000	0.006836
2333.000000	0.006776
2332.000000	0.006736
2331.000000	0.006743
2330.000000	0.006784
2329.000000	0.006840
2328.000000	0.006902
2327.000000	0.006977
2326.000000	0.007052
2325.000000	0.007105
2324.000000	0.007113
2323.000000	0.007076
2322.000000	0.007029
2321.000000	0.007011
2320.000000	0.007033
2319.000000	0.007070
2318.000000	0.007100
2317.000000	0.007119
2316.000000	0.007118
2315.000000	0.007071
2314.000000	0.006962
2313.000000	0.006813
2312.000000	0.006672
2311.000000	0.006578
2310.000000	0.006540
2309.000000	0.006550
2308.000000	0.006581
2307.000000	0.006592
2306.000000	0.006568
2305.000000	0.006534
2304.000000	0.006525
2303.000000	0.006543
2302.000000	0.006556
2301.000000	0.006544
2300.000000	0.006523
2299.000000	0.006520
2298.000000	0.006547
2297.000000	0.006593
2296.000000	0.006640
2295.000000	0.006682
2294.000000	0.006725
2293.000000	0.006777
2292.000000	0.006825
2291.000000	0.006838
2290.000000	0.006802
2289.000000	0.006755
2288.000000	0.006754
2287.000000	0.006813
2286.000000	0.006887
2285.000000	0.006919
2284.000000	0.006896
2283.000000	0.006847
2282.000000	0.006804
2281.000000	0.006785
2280.000000	0.006790
2279.000000	0.006805
2278.000000	0.006803
2277.000000	0.006765
2276.000000	0.006702
2275.000000	0.006648
2274.000000	0.006620
2273.000000	0.006608
2272.000000	0.006593
2271.000000	0.006572
2270.000000	0.006548
2269.000000	0.006521
2268.000000	0.006484
2267.000000	0.006446
2266.000000	0.006422
2265.000000	0.006416
2264.000000	0.006408
2263.000000	0.006384
2262.000000	0.006352
2261.000000	0.006332
2260.000000	0.006328
2259.000000	0.006326
2258.000000	0.006319
2257.000000	0.006304
2256.000000	0.006280
2255.000000	0.006239
2254.000000	0.006188
2253.000000	0.006157
2252.000000	0.006171
2251.000000	0.006224
2250.000000	0.006274
2249.000000	0.006283
2248.000000	0.006254
2247.000000	0.006230
2246.000000	0.006246
2245.000000	0.006296
2244.000000	0.006337
2243.000000	0.006334
2242.000000	0.006287
2241.000000	0.006227
2240.000000	0.006191
2239.000000	0.006206
2238.000000	0.006275
2237.000000	0.006366
2236.000000	0.006431
2235.000000	0.006448
2234.000000	0.006425
2233.000000	0.006383
2232.000000	0.006330
2231.000000	0.006271
2230.000000	0.006223
2229.000000	0.006195
2228.000000	0.006175
2227.000000	0.006143
2226.000000	0.006098
2225.000000	0.006064
2224.000000	0.006056
2223.000000	0.006079
2222.000000	0.006125
2221.000000	0.006169
2220.000000	0.006177
2219.000000	0.006136
2218.000000	0.006077
2217.000000	0.006059
2216.000000	0.006125
2215.000000	0.006262
2214.000000	0.006408
2213.000000	0.006475
2212.000000	0.006412
2211.000000	0.006256
2210.000000	0.006092
2209.000000	0.005972
2208.000000	0.005876
2207.000000	0.005795
2206.000000	0.005784
2205.000000	0.005906
2204.000000	0.006121
2203.000000	0.006298
2202.000000	0.006334
2201.000000	0.006241
2200.000000	0.006108
2199.000000	0.006015
2198.000000	0.005984
2197.000000	0.005985
2196.000000	0.005982
2195.000000	0.005973
2194.000000	0.005994
2193.000000	0.006051
2192.000000	0.006101
2191.000000	0.006101
2190.000000	0.006066
2189.000000	0.006031
2188.000000	0.006007
2187.000000	0.006013
2186.000000	0.006098
2185.000000	0.006272
2184.000000	0.006425
2183.000000	0.006418
2182.000000	0.006254
2181.000000	0.006079
2180.000000	0.006010
2179.000000	0.006030
2178.000000	0.006058
2177.000000	0.006055
2176.000000	0.006026
2175.000000	0.005984
2174.000000	0.005949
2173.000000	0.005937
2172.000000	0.005932
2171.000000	0.005910
2170.000000	0.005877
2169.000000	0.005851
2168.000000	0.005799
2167.000000	0.005675
2166.000000	0.005521
2165.000000	0.005469
2164.000000	0.005576
2163.000000	0.005736
2162.000000	0.005779
2161.000000	0.005628
2160.000000	0.005333
2159.000000	0.005005
2158.000000	0.004767
2157.000000	0.004682
2156.000000	0.004710
2155.000000	0.004755
2154.000000	0.004780
2153.000000	0.004815
2152.000000	0.004893
2151.000000	0.005013
2150.000000	0.005170
2149.000000	0.005360
2148.000000	0.005537
2147.000000	0.005623
2146.000000	0.005590
2145.000000	0.005495
2144.000000	0.005425
2143.000000	0.005427
2142.000000	0.005497
2141.000000	0.005602
2140.000000	0.005698
2139.000000	0.005740
2138.000000	0.005725
2137.000000	0.005687
2136.000000	0.005659
2135.000000	0.005644
2134.000000	0.005628
2133.000000	0.005611
2132.000000	0.005602
2131.000000	0.005614
2130.000000	0.005663
2129.000000	0.005751
2128.000000	0.005851
2127.000000	0.005928
2126.000000	0.005982
2125.000000	0.006039
2124.000000	0.006102
2123.000000	0.006145
2122.000000	0.006153
2121.000000	0.006146
2120.000000	0.006151
2119.000000	0.006163
2118.000000	0.006165
2117.000000	0.006159
2116.000000	0.006166
2115.000000	0.006199
2114.000000	0.006246
2113.000000	0.006283
2112.000000	0.006287
2111.000000	0.006255
2110.000000	0.006214
2109.000000	0.006201
2108.000000	0.006214
2107.000000	0.006219
2106.000000	0.006190
2105.000000	0.006141
2104.000000	0.006103
2103.000000	0.006087
2102.000000	0.006096
2101.000000	0.006135
2100.000000	0.006201
2099.000000	0.006258
2098.000000	0.006259
2097.000000	0.006194
2096.000000	0.006094
2095.000000	0.006006
2094.000000	0.005957
2093.000000	0.005956
2092.000000	0.005996
2091.000000	0.006060
2090.000000	0.006123
2089.000000	0.006166
2088.000000	0.006177
2087.000000	0.006162
2086.000000	0.006137
2085.000000	0.006117
2084.000000	0.006103
2083.000000	0.006094
2082.000000	0.006109
2081.000000	0.006176
2080.000000	0.006281
2079.000000	0.006356
2078.000000	0.006336
2077.000000	0.006230
2076.000000	0.006116
2075.000000	0.006070
2074.000000	0.006111
2073.000000	0.006198
2072.000000	0.006267
2071.000000	0.006277
2070.000000	0.006235
2069.000000	0.006183
2068.000000	0.006152
2067.000000	0.006131
2066.000000	0.006089
2065.000000	0.006020
2064.000000	0.005958
2063.000000	0.005931
2062.000000	0.005939
2061.000000	0.005957
2060.000000	0.005961
2059.000000	0.005940
2058.000000	0.005888
2057.000000	0.005807
2056.000000	0.005726
2055.000000	0.005693
2054.000000	0.005733
2053.000000	0.005814
2052.000000	0.005882
2051.000000	0.005909
2050.000000	0.005908
2049.000000	0.005894
2048.000000	0.005854
2047.000000	0.005790
2046.000000	0.005750
2045.000000	0.005777
2044.000000	0.005845
2043.000000	0.005872
2042.000000	0.005786
2041.000000	0.005563
2040.000000	0.005245
2039.000000	0.004967
2038.000000	0.004909
2037.000000	0.005153
2036.000000	0.005548
2035.000000	0.005818
2034.000000	0.005809
2033.000000	0.005589
2032.000000	0.005333
2031.000000	0.005167
2030.000000	0.005136
2029.000000	0.005214
2028.000000	0.005301
2027.000000	0.005281
2026.000000	0.005135
2025.000000	0.004960
2024.000000	0.004857
2023.000000	0.004854
2022.000000	0.004930
2021.000000	0.005055
2020.000000	0.005195
2019.000000	0.005304
2018.000000	0.005351
2017.000000	0.005338
2016.000000	0.005272
2015.000000	0.005157
2014.000000	0.005016
2013.000000	0.004899
2012.000000	0.004847
2011.000000	0.004857
2010.000000	0.004890
2009.000000	0.004899
2008.000000	0.004855
2007.000000	0.004790
2006.000000	0.004770
2005.000000	0.004821
2004.000000	0.004898
2003.000000	0.004952
2002.000000	0.004993
2001.000000	0.005041
2000.000000	0.005066
1999.000000	0.005027
1998.000000	0.004948
1997.000000	0.004921
1996.000000	0.005018
1995.000000	0.005233
1994.000000	0.005496
1993.000000	0.005709
1992.000000	0.005785
1991.000000	0.005706
1990.000000	0.005549
1989.000000	0.005425
1988.000000	0.005401
1987.000000	0.005473
1986.000000	0.005594
1985.000000	0.005690
1984.000000	0.005705
1983.000000	0.005670
1982.000000	0.005704
1981.000000	0.005872
1980.000000	0.006064
1979.000000	0.006078
1978.000000	0.005849
1977.000000	0.005536
1976.000000	0.005342
1975.000000	0.005316
1974.000000	0.005369
1973.000000	0.005400
1972.000000	0.005363
1971.000000	0.005278
1970.000000	0.005203
1969.000000	0.005174
1968.000000	0.005175
1967.000000	0.005175
1966.000000	0.005193
1965.000000	0.005256
1964.000000	0.005334
1963.000000	0.005360
1962.000000	0.005303
1961.000000	0.005195
1960.000000	0.005085
1959.000000	0.005016
1958.000000	0.005024
1957.000000	0.005112
1956.000000	0.005238
1955.000000	0.005350
1954.000000	0.005452
1953.000000	0.005568
1952.000000	0.005681
1951.000000	0.005727
1950.000000	0.005671
1949.000000	0.005545
1948.000000	0.005421
1947.000000	0.005368
1946.000000	0.005412
1945.000000	0.005506
1944.000000	0.005557
1943.000000	0.005521
1942.000000	0.005462
1941.000000	0.005469
1940.000000	0.005551
1939.000000	0.005645
1938.000000	0.005713
1937.000000	0.005759
1936.000000	0.005788
1935.000000	0.005786
1934.000000	0.005748
1933.000000	0.005684
1932.000000	0.005587
1931.000000	0.005456
1930.000000	0.005342
1929.000000	0.005320
1928.000000	0.005406
1927.000000	0.005529
1926.000000	0.005611
1925.000000	0.005635
1924.000000	0.005628
1923.000000	0.005615
1922.000000	0.005601
1921.000000	0.005586
1920.000000	0.005559
1919.000000	0.005508
1918.000000	0.005447
1917.000000	0.005404
1916.000000	0.005382
1915.000000	0.005359
1914.000000	0.005331
1913.000000	0.005327
1912.000000	0.005375
1911.000000	0.005470
1910.000000	0.005580
1909.000000	0.005665
1908.000000	0.005695
1907.000000	0.005662
1906.000000	0.005587
1905.000000	0.005512
1904.000000	0.005464
1903.000000	0.005444
1902.000000	0.005443
1901.000000	0.005446
1900.000000	0.005444
1899.000000	0.005444
1898.000000	0.005459
1897.000000	0.005487
1896.000000	0.005491
1895.000000	0.005445
1894.000000	0.005382
1893.000000	0.005357
1892.000000	0.005380
1891.000000	0.005414
1890.000000	0.005425
1889.000000	0.005417
1888.000000	0.005410
1887.000000	0.005405
1886.000000	0.005395
1885.000000	0.005387
1884.000000	0.005389
1883.000000	0.005403
1882.000000	0.005426
1881.000000	0.005450
1880.000000	0.005464
1879.000000	0.005463
1878.000000	0.005456
1877.000000	0.005448
1876.000000	0.005448
1875.000000	0.005436
1874.000000	0.005439
1873.000000	0.005472
1872.000000	0.005471
1871.000000	0.005492
1870.000000	0.005444
1869.000000	0.005522
1868.000000	0.005320
1867.000000	0.005149
1866.000000	0.005339
1865.000000	0.005404
1864.000000	0.005489
1863.000000	0.005483
1862.000000	0.005454
1861.000000	0.005411
1860.000000	0.005380
1859.000000	0.005346
1858.000000	0.005304
1857.000000	0.005269
1856.000000	0.005259
1855.000000	0.005273
1854.000000	0.005302
1853.000000	0.005327
1852.000000	0.005327
1851.000000	0.005302
1850.000000	0.005260
1849.000000	0.005211
1848.000000	0.005166
1847.000000	0.005149
1846.000000	0.005189
1845.000000	0.005284
1844.000000	0.005376
1843.000000	0.005402
1842.000000	0.005370
1841.000000	0.005330
1840.000000	0.005302
1839.000000	0.005273
1838.000000	0.005253
1837.000000	0.005276
1836.000000	0.005330
1835.000000	0.005364
1834.000000	0.005344
1833.000000	0.005283
1832.000000	0.005208
1831.000000	0.005138
1830.000000	0.005085
1829.000000	0.005069
1828.000000	0.005103
1827.000000	0.005173
1826.000000	0.005246
1825.000000	0.005291
1824.000000	0.005300
1823.000000	0.005283
1822.000000	0.005256
1821.000000	0.005234
1820.000000	0.005221
1819.000000	0.005216
1818.000000	0.005219
1817.000000	0.005239
1816.000000	0.005265
1815.000000	0.005285
1814.000000	0.005288
1813.000000	0.005276
1812.000000	0.005252
1811.000000	0.005218
1810.000000	0.005194
1809.000000	0.005198
1808.000000	0.005217
1807.000000	0.005224
1806.000000	0.005209
1805.000000	0.005187
1804.000000	0.005177
1803.000000	0.005182
1802.000000	0.005196
1801.000000	0.005209
1800.000000	0.005221
1799.000000	0.005229
1798.000000	0.005236
1797.000000	0.005238
1796.000000	0.005230
1795.000000	0.005211
1794.000000	0.005188
1793.000000	0.005173
1792.000000	0.005168
1791.000000	0.005159
1790.000000	0.005148
1789.000000	0.005152
1788.000000	0.005173
1787.000000	0.005194
1786.000000	0.005193
1785.000000	0.005169
1784.000000	0.005125
1783.000000	0.005082
1782.000000	0.005058
1781.000000	0.005046
1780.000000	0.005039
1779.000000	0.005027
1778.000000	0.005010
1777.000000	0.004984
1776.000000	0.004950
1775.000000	0.004921
1774.000000	0.004890
1773.000000	0.004840
1772.000000	0.004777
1771.000000	0.004738
1770.000000	0.004769
1769.000000	0.004866
1768.000000	0.004953
1767.000000	0.004965
1766.000000	0.004927
1765.000000	0.004906
1764.000000	0.004919
1763.000000	0.004929
1762.000000	0.004912
1761.000000	0.004890
1760.000000	0.004901
1759.000000	0.004960
1758.000000	0.005061
1757.000000	0.005172
1756.000000	0.005269
1755.000000	0.005367
1754.000000	0.005508
1753.000000	0.005690
1752.000000	0.005842
1751.000000	0.005901
1750.000000	0.005890
1749.000000	0.005896
1748.000000	0.005947
1747.000000	0.006016
1746.000000	0.006082
1745.000000	0.006140
1744.000000	0.006172
1743.000000	0.006150
1742.000000	0.006091
1741.000000	0.006053
1740.000000	0.006034
1739.000000	0.005982
1738.000000	0.005907
1737.000000	0.005875
1736.000000	0.005877
1735.000000	0.005815
1734.000000	0.005670
1733.000000	0.005522
1732.000000	0.005422
1731.000000	0.005366
1730.000000	0.005334
1729.000000	0.005309
1728.000000	0.005281
1727.000000	0.005243
1726.000000	0.005186
1725.000000	0.005126
1724.000000	0.005071
1723.000000	0.004994
1722.000000	0.004896
1721.000000	0.004826
1720.000000	0.004810
1719.000000	0.004804
1718.000000	0.004772
1717.000000	0.004754
1716.000000	0.004792
1715.000000	0.004876
1714.000000	0.004997
1713.000000	0.005165
1712.000000	0.005368
1711.000000	0.005569
1710.000000	0.005745
1709.000000	0.005901
1708.000000	0.006071
1707.000000	0.006290
1706.000000	0.006559
1705.000000	0.006856
1704.000000	0.007167
1703.000000	0.007523
1702.000000	0.007930
1701.000000	0.008372
1700.000000	0.008811
1699.000000	0.009205
1698.000000	0.009653
1697.000000	0.010263
1696.000000	0.010936
1695.000000	0.011480
1694.000000	0.011857
1693.000000	0.012206
1692.000000	0.012613
1691.000000	0.013034
1690.000000	0.013422
1689.000000	0.013796
1688.000000	0.014203
1687.000000	0.014659
1686.000000	0.015133
1685.000000	0.015656
1684.000000	0.016239
1683.000000	0.016796
1682.000000	0.017337
1681.000000	0.017936
1680.000000	0.018553
1679.000000	0.019118
1678.000000	0.019655
1677.000000	0.020254
1676.000000	0.020946
1675.000000	0.021650
1674.000000	0.022277
1673.000000	0.022865
1672.000000	0.023509
1671.000000	0.024233
1670.000000	0.025031
1669.000000	0.025870
1668.000000	0.026667
1667.000000	0.027356
1666.000000	0.027961
1665.000000	0.028565
1664.000000	0.029215
1663.000000	0.029890
1662.000000	0.030543
1661.000000	0.031157
1660.000000	0.031742
1659.000000	0.032270
1658.000000	0.032712
1657.000000	0.033115
1656.000000	0.033560
1655.000000	0.034026
1654.000000	0.034466
1653.000000	0.034919
1652.000000	0.035270
1651.000000	0.035419
1650.000000	0.035531
1649.000000	0.035747
1648.000000	0.036054
1647.000000	0.036377
1646.000000	0.036676
1645.000000	0.036952
1644.000000	0.037203
1643.000000	0.037432
1642.000000	0.037634
1641.000000	0.037785
1640.000000	0.037885
1639.000000	0.037959
1638.000000	0.038033
1637.000000	0.038107
1636.000000	0.038188
1635.000000	0.038280
1634.000000	0.038372
1633.000000	0.038470
1632.000000	0.038551
1631.000000	0.038545
1630.000000	0.038399
1629.000000	0.038138
1628.000000	0.037819
1627.000000	0.037480
1626.000000	0.037117
1625.000000	0.036697
1624.000000	0.036188
1623.000000	0.035595
1622.000000	0.034989
1621.000000	0.034439
1620.000000	0.033961
1619.000000	0.033477
1618.000000	0.032847
1617.000000	0.032019
1616.000000	0.031130
1615.000000	0.030351
1614.000000	0.029710
1613.000000	0.029133
1612.000000	0.028533
1611.000000	0.027897
1610.000000	0.027267
1609.000000	0.026665
1608.000000	0.026079
1607.000000	0.025514
1606.000000	0.024989
1605.000000	0.024496
1604.000000	0.024017
1603.000000	0.023558
1602.000000	0.023139
1601.000000	0.022769
1600.000000	0.022441
1599.000000	0.022149
1598.000000	0.021887
1597.000000	0.021645
1596.000000	0.021423
1595.000000	0.021237
1594.000000	0.021103
1593.000000	0.021011
1592.000000	0.020942
1591.000000	0.020890
1590.000000	0.020857
1589.000000	0.020845
1588.000000	0.020863
1587.000000	0.020921
1586.000000	0.021020
1585.000000	0.021134
1584.000000	0.021252
1583.000000	0.021400
1582.000000	0.021577
1581.000000	0.021748
1580.000000	0.021914
1579.000000	0.022129
1578.000000	0.022412
1577.000000	0.022716
1576.000000	0.022979
1575.000000	0.023185
1574.000000	0.023373
1573.000000	0.023598
1572.000000	0.023868
1571.000000	0.024167
1570.000000	0.024515
1569.000000	0.024912
1568.000000	0.025321
1567.000000	0.025741
1566.000000	0.026189
1565.000000	0.026647
1564.000000	0.027081
1563.000000	0.027503
1562.000000	0.027921
1561.000000	0.028262
1560.000000	0.028522
1559.000000	0.028889
1558.000000	0.029376
1557.000000	0.029867
1556.000000	0.030351
1555.000000	0.030825
1554.000000	0.031242
1553.000000	0.031578
1552.000000	0.031885
1551.000000	0.032194
1550.000000	0.032484
1549.000000	0.032734
1548.000000	0.032946
1547.000000	0.033129
1546.000000	0.033261
1545.000000	0.033320
1544.000000	0.033323
1543.000000	0.033321
1542.000000	0.033344
1541.000000	0.033406
1540.000000	0.033489
1539.000000	0.033532
1538.000000	0.033492
1537.000000	0.033415
1536.000000	0.033345
1535.000000	0.033245
1534.000000	0.033063
1533.000000	0.032841
1532.000000	0.032661
1531.000000	0.032531
1530.000000	0.032406
1529.000000	0.032264
1528.000000	0.032099
1527.000000	0.031894
1526.000000	0.031639
1525.000000	0.031367
1524.000000	0.031134
1523.000000	0.030929
1522.000000	0.030679
1521.000000	0.030358
1520.000000	0.030029
1519.000000	0.029758
1518.000000	0.029553
1517.000000	0.029380
1516.000000	0.029207
1515.000000	0.029033
1514.000000	0.028847
1513.000000	0.028600
1512.000000	0.028262
1511.000000	0.027870
1510.000000	0.027498
1509.000000	0.027155
1508.000000	0.026748
1507.000000	0.026212
1506.000000	0.025677
1505.000000	0.025270
1504.000000	0.024959
1503.000000	0.024689
1502.000000	0.024404
1501.000000	0.024060
1500.000000	0.023672
1499.000000	0.023297
1498.000000	0.022954
1497.000000	0.022626
1496.000000	0.022288
1495.000000	0.021939
1494.000000	0.021613
1493.000000	0.021329
1492.000000	0.021047
1491.000000	0.020710
1490.000000	0.020344
1489.000000	0.020051
1488.000000	0.019887
1487.000000	0.019806
1486.000000	0.019761
1485.000000	0.019737
1484.000000	0.019732
1483.000000	0.019744
1482.000000	0.019767
1481.000000	0.019818
1480.000000	0.019909
1479.000000	0.020034
1478.000000	0.020177
1477.000000	0.020340
1476.000000	0.020524
1475.000000	0.020725
1474.000000	0.020953
1473.000000	0.021235
1472.000000	0.021573
1471.000000	0.021926
1470.000000	0.022269
1469.000000	0.022599
1468.000000	0.022898
1467.000000	0.023148
1466.000000	0.023382
1465.000000	0.023648
1464.000000	0.023956
1463.000000	0.024256
1462.000000	0.024520
1461.000000	0.024762
1460.000000	0.025015
1459.000000	0.025315
1458.000000	0.025707
1457.000000	0.026194
1456.000000	0.026637
1455.000000	0.026942
1454.000000	0.027190
1453.000000	0.027447
1452.000000	0.027675
1451.000000	0.027822
1450.000000	0.027905
1449.000000	0.027970
1448.000000	0.028024
1447.000000	0.028058
1446.000000	0.028080
1445.000000	0.028085
1444.000000	0.028065
1443.000000	0.028005
1442.000000	0.027905
1441.000000	0.027782
1440.000000	0.027663
1439.000000	0.027548
1438.000000	0.027400
1437.000000	0.027191
1436.000000	0.026946
1435.000000	0.026729
1434.000000	0.026581
1433.000000	0.026476
1432.000000	0.026357
1431.000000	0.026202
1430.000000	0.026048
1429.000000	0.025937
1428.000000	0.025859
1427.000000	0.025796
1426.000000	0.025747
1425.000000	0.025703
1424.000000	0.025648
1423.000000	0.025591
1422.000000	0.025556
1421.000000	0.025538
1420.000000	0.025497
1419.000000	0.025424
1418.000000	0.025349
1417.000000	0.025308
1416.000000	0.025300
1415.000000	0.025300
1414.000000	0.025295
1413.000000	0.025294
1412.000000	0.025302
1411.000000	0.025309
1410.000000	0.025308
1409.000000	0.025316
1408.000000	0.025340
1407.000000	0.025375
1406.000000	0.025418
1405.000000	0.025460
1404.000000	0.025485
1403.000000	0.025478
1402.000000	0.025451
1401.000000	0.025418
1400.000000	0.025373
1399.000000	0.025302
1398.000000	0.025213
1397.000000	0.025123
1396.000000	0.025030
1395.000000	0.024919
1394.000000	0.024800
1393.000000	0.024689
1392.000000	0.024583
1391.000000	0.024474
1390.000000	0.024358
1389.000000	0.024230
1388.000000	0.024070
1387.000000	0.023859
1386.000000	0.023619
1385.000000	0.023390
1384.000000	0.023192
1383.000000	0.023006
1382.000000	0.022813
1381.000000	0.022614
1380.000000	0.022415
1379.000000	0.022215
1378.000000	0.022004
1377.000000	0.021773
1376.000000	0.021515
1375.000000	0.021237
1374.000000	0.020963
1373.000000	0.020718
1372.000000	0.020504
1371.000000	0.020297
1370.000000	0.020076
1369.000000	0.019829
1368.000000	0.019556
1367.000000	0.019269
1366.000000	0.018979
1365.000000	0.018700
1364.000000	0.018442
1363.000000	0.018220
1362.000000	0.018044
1361.000000	0.017904
1360.000000	0.017785
1359.000000	0.017679
1358.000000	0.017591
1357.000000	0.017526
1356.000000	0.017485
1355.000000	0.017473
1354.000000	0.017494
1353.000000	0.017552
1352.000000	0.017637
1351.000000	0.017744
1350.000000	0.017875
1349.000000	0.018025
1348.000000	0.018185
1347.000000	0.018345
1346.000000	0.018506
1345.000000	0.018680
1344.000000	0.018869
1343.000000	0.019060
1342.000000	0.019242
1341.000000	0.019409
1340.000000	0.019554
1339.000000	0.019673
1338.000000	0.019764
1337.000000	0.019829
1336.000000	0.019863
1335.000000	0.019852
1334.000000	0.019789
1333.000000	0.019682
1332.000000	0.019548
1331.000000	0.019405
1330.000000	0.019264
1329.000000	0.019132
1328.000000	0.019007
1327.000000	0.018882
1326.000000	0.018754
1325.000000	0.018633
1324.000000	0.018533
1323.000000	0.018460
1322.000000	0.018412
1321.000000	0.018377
1320.000000	0.018350
1319.000000	0.018323
1318.000000	0.018287
1317.000000	0.018238
1316.000000	0.018175
1315.000000	0.018100
1314.000000	0.018014
1313.000000	0.017919
1312.000000	0.017814
1311.000000	0.017700
1310.000000	0.017577
1309.000000	0.017443
1308.000000	0.017303
1307.000000	0.017169
1306.000000	0.017054
1305.000000	0.016960
1304.000000	0.016875
1303.000000	0.016787
1302.000000	0.016693
1301.000000	0.016599
1300.000000	0.016510
1299.000000	0.016426
1298.000000	0.016348
1297.000000	0.016285
1296.000000	0.016248
1295.000000	0.016242
1294.000000	0.016262
1293.000000	0.016301
1292.000000	0.016351
1291.000000	0.016412
1290.000000	0.016485
1289.000000	0.016577
1288.000000	0.016689
1287.000000	0.016814
1286.000000	0.016938
1285.000000	0.017053
1284.000000	0.017160
1283.000000	0.017257
1282.000000	0.017337
1281.000000	0.017392
1280.000000	0.017415
1279.000000	0.017410
1278.000000	0.017393
1277.000000	0.017383
1276.000000	0.017388
1275.000000	0.017397
1274.000000	0.017396
1273.000000	0.017382
1272.000000	0.017370
1271.000000	0.017377
1270.000000	0.017411
1269.000000	0.017468
1268.000000	0.017540
1267.000000	0.017620
1266.000000	0.017703
1265.000000	0.017794
1264.000000	0.017898
1263.000000	0.018014
1262.000000	0.018136
1261.000000	0.018257
1260.000000	0.018377
1259.000000	0.018500
1258.000000	0.018634
1257.000000	0.018783
1256.000000	0.018943
1255.000000	0.019106
1254.000000	0.019270
1253.000000	0.019446
1252.000000	0.019640
1251.000000	0.019839
1250.000000	0.020027
1249.000000	0.020203
1248.000000	0.020387
1247.000000	0.020596
1246.000000	0.020829
1245.000000	0.021066
1244.000000	0.021291
1243.000000	0.021491
1242.000000	0.021660
1241.000000	0.021802
1240.000000	0.021923
1239.000000	0.022024
1238.000000	0.022104
1237.000000	0.022154
1236.000000	0.022168
1235.000000	0.022140
1234.000000	0.022066
1233.000000	0.021950
1232.000000	0.021799
1231.000000	0.021621
1230.000000	0.021419
1229.000000	0.021186
1228.000000	0.020914
1227.000000	0.020605
1226.000000	0.020269
1225.000000	0.019923
1224.000000	0.019576
1223.000000	0.019233
1222.000000	0.018886
1221.000000	0.018526
1220.000000	0.018155
1219.000000	0.017793
1218.000000	0.017476
1217.000000	0.017236
1216.000000	0.017076
1215.000000	0.016975
1214.000000	0.016901
1213.000000	0.016835
1212.000000	0.016778
1211.000000	0.016750
1210.000000	0.016768
1209.000000	0.016830
1208.000000	0.016924
1207.000000	0.017031
1206.000000	0.017137
1205.000000	0.017232
1204.000000	0.017299
1203.000000	0.017319
1202.000000	0.017282
1201.000000	0.017194
1200.000000	0.017068
1199.000000	0.016921
1198.000000	0.016760
1197.000000	0.016587
1196.000000	0.016399
1195.000000	0.016193
1194.000000	0.015972
1193.000000	0.015745
1192.000000	0.015522
1191.000000	0.015312
1190.000000	0.015119
1189.000000	0.014946
1188.000000	0.014793
1187.000000	0.014658
1186.000000	0.014535
1185.000000	0.014415
1184.000000	0.014298
1183.000000	0.014196
1182.000000	0.014115
1181.000000	0.014052
1180.000000	0.014000
1179.000000	0.013956
1178.000000	0.013931
1177.000000	0.013930
1176.000000	0.013943
1175.000000	0.013951
1174.000000	0.013948
1173.000000	0.013948
1172.000000	0.013968
1171.000000	0.014014
1170.000000	0.014079
1169.000000	0.014149
1168.000000	0.014217
1167.000000	0.014284
1166.000000	0.014356
1165.000000	0.014436
1164.000000	0.014518
1163.000000	0.014588
1162.000000	0.014638
1161.000000	0.014659
1160.000000	0.014644
1159.000000	0.014584
1158.000000	0.014481
1157.000000	0.014353
1156.000000	0.014218
1155.000000	0.014078
1154.000000	0.013926
1153.000000	0.013759
1152.000000	0.013584
1151.000000	0.013412
1150.000000	0.013243
1149.000000	0.013073
1148.000000	0.012900
1147.000000	0.012727
1146.000000	0.012556
1145.000000	0.012380
1144.000000	0.012192
1143.000000	0.012000
1142.000000	0.011830
1141.000000	0.011707
1140.000000	0.011627
1139.000000	0.011555
1138.000000	0.011462
1137.000000	0.011349
1136.000000	0.011244
1135.000000	0.011165
1134.000000	0.011107
1133.000000	0.011062
1132.000000	0.011034
1131.000000	0.011023
1130.000000	0.011020
1129.000000	0.011008
1128.000000	0.010988
1127.000000	0.010976
1126.000000	0.010980
1125.000000	0.010997
1124.000000	0.011014
1123.000000	0.011017
1122.000000	0.011009
1121.000000	0.011001
1120.000000	0.011012
1119.000000	0.011048
1118.000000	0.011096
1117.000000	0.011149
1116.000000	0.011212
1115.000000	0.011295
1114.000000	0.011397
1113.000000	0.011507
1112.000000	0.011616
1111.000000	0.011716
1110.000000	0.011792
1109.000000	0.011836
1108.000000	0.011857
1107.000000	0.011874
1106.000000	0.011897
1105.000000	0.011924
1104.000000	0.011955
1103.000000	0.011998
1102.000000	0.012051
1101.000000	0.012102
1100.000000	0.012148
1099.000000	0.012204
1098.000000	0.012286
1097.000000	0.012388
1096.000000	0.012492
1095.000000	0.012588
1094.000000	0.012683
1093.000000	0.012793
1092.000000	0.012928
1091.000000	0.013086
1090.000000	0.013264
1089.000000	0.013459
1088.000000	0.013672
1087.000000	0.013899
1086.000000	0.014128
1085.000000	0.014345
1084.000000	0.014541
1083.000000	0.014710
1082.000000	0.014837
1081.000000	0.014911
1080.000000	0.014924
1079.000000	0.014883
1078.000000	0.014798
1077.000000	0.014675
1076.000000	0.014517
1075.000000	0.014327
1074.000000	0.014109
1073.000000	0.013881
1072.000000	0.013674
1071.000000	0.013519
1070.000000	0.013433
1069.000000	0.013399
1068.000000	0.013392
1067.000000	0.013393
1066.000000	0.013393
1065.000000	0.013389
1064.000000	0.013386
1063.000000	0.013401
1062.000000	0.013453
1061.000000	0.013535
1060.000000	0.013612
1059.000000	0.013642
1058.000000	0.013607
1057.000000	0.013527
1056.000000	0.013445
1055.000000	0.013398
1054.000000	0.013394
1053.000000	0.013411
1052.000000	0.013423
1051.000000	0.013420
1050.000000	0.013414
1049.000000	0.013411
1048.000000	0.013409
1047.000000	0.013403
1046.000000	0.013395
1045.000000	0.013395
1044.000000	0.013407
1043.000000	0.013429
1042.000000	0.013461
1041.000000	0.013509
1040.000000	0.013583
1039.000000	0.013696
1038.000000	0.013858
1037.000000	0.014069
1036.000000	0.014304
1035.000000	0.014527
1034.000000	0.014714
1033.000000	0.014870
1032.000000	0.015018
1031.000000	0.015165
1030.000000	0.015290
1029.000000	0.015368
1028.000000	0.015393
1027.000000	0.015375
1026.000000	0.015328
1025.000000	0.015266
1024.000000	0.015207
1023.000000	0.015182
1022.000000	0.015210
1021.000000	0.015290
1020.000000	0.015395
1019.000000	0.015495
1018.000000	0.015558
1017.000000	0.015554
1016.000000	0.015466
1015.000000	0.015297
1014.000000	0.015073
1013.000000	0.014816
1012.000000	0.014531
1011.000000	0.014221
1010.000000	0.013898
1009.000000	0.013583
1008.000000	0.013292
1007.000000	0.013033
1006.000000	0.012805
1005.000000	0.012599
1004.000000	0.012401
1003.000000	0.012198
1002.000000	0.011989
1001.000000	0.011775
1000.000000	0.011557
999.000000	0.011339
998.000000	0.011133
997.000000	0.010956
996.000000	0.010808
995.000000	0.010669
994.000000	0.010519
993.000000	0.010356
992.000000	0.010197
991.000000	0.010055
990.000000	0.009927
989.000000	0.009800
988.000000	0.009669
987.000000	0.009536
986.000000	0.009401
985.000000	0.009270
984.000000	0.009160
983.000000	0.009096
982.000000	0.009076
981.000000	0.009072
980.000000	0.009054
979.000000	0.009021
978.000000	0.008990
977.000000	0.008966
976.000000	0.008940
975.000000	0.008902
974.000000	0.008857
973.000000	0.008811
972.000000	0.008761
971.000000	0.008699
970.000000	0.008622
969.000000	0.008533
968.000000	0.008436
967.000000	0.008338
966.000000	0.008248
965.000000	0.008163
964.000000	0.008071
963.000000	0.007958
962.000000	0.007833
961.000000	0.007715
960.000000	0.007617
959.000000	0.007542
958.000000	0.007487
957.000000	0.007445
956.000000	0.007404
955.000000	0.007346
954.000000	0.007269
953.000000	0.007189
952.000000	0.007127
951.000000	0.007089
950.000000	0.007064
949.000000	0.007035
948.000000	0.006993
947.000000	0.006935
946.000000	0.006874
945.000000	0.006833
944.000000	0.006825
943.000000	0.006843
942.000000	0.006861
941.000000	0.006858
940.000000	0.006829
939.000000	0.006787
938.000000	0.006741
937.000000	0.006693
936.000000	0.006642
935.000000	0.006593
934.000000	0.006565
933.000000	0.006566
932.000000	0.006582
931.000000	0.006576
930.000000	0.006526
929.000000	0.006448
928.000000	0.006386
927.000000	0.006367
926.000000	0.006379
925.000000	0.006397
924.000000	0.006404
923.000000	0.006391
922.000000	0.006348
921.000000	0.006271
920.000000	0.006171
919.000000	0.006070
918.000000	0.005983
917.000000	0.005911
916.000000	0.005854
915.000000	0.005815
914.000000	0.005791
913.000000	0.005767
912.000000	0.005718
911.000000	0.005637
910.000000	0.005538
909.000000	0.005458
908.000000	0.005421
907.000000	0.005420
906.000000	0.005423
905.000000	0.005403
904.000000	0.005352
903.000000	0.005283
902.000000	0.005213
901.000000	0.005158
900.000000	0.005131
899.000000	0.005126
898.000000	0.005114
897.000000	0.005066
896.000000	0.004986
895.000000	0.004907
894.000000	0.004854
893.000000	0.004823
892.000000	0.004794
891.000000	0.004761
890.000000	0.004734
889.000000	0.004736
888.000000	0.004788
887.000000	0.004902
886.000000	0.005077
885.000000	0.005300
884.000000	0.005561
883.000000	0.005873
882.000000	0.006260
881.000000	0.006744
880.000000	0.007321
879.000000	0.007945
878.000000	0.008536
877.000000	0.009005
876.000000	0.009285
875.000000	0.009352
874.000000	0.009209
873.000000	0.008883
872.000000	0.008421
871.000000	0.007902
870.000000	0.007412
869.000000	0.007009
868.000000	0.006699
867.000000	0.006463
866.000000	0.006273
865.000000	0.006110
864.000000	0.005964
863.000000	0.005831
862.000000	0.005720
861.000000	0.005637
860.000000	0.005587
859.000000	0.005567
858.000000	0.005573
857.000000	0.005589
856.000000	0.005594
855.000000	0.005578
854.000000	0.005552
853.000000	0.005531
852.000000	0.005511
851.000000	0.005486
850.000000	0.005463
849.000000	0.005455
848.000000	0.005451
847.000000	0.005418
846.000000	0.005344
845.000000	0.005263
844.000000	0.005210
843.000000	0.005179
842.000000	0.005136
841.000000	0.005063
840.000000	0.004982
839.000000	0.004926
838.000000	0.004908
837.000000	0.004914
836.000000	0.004910
835.000000	0.004872
834.000000	0.004808
833.000000	0.004758
832.000000	0.004759
831.000000	0.004807
830.000000	0.004866
829.000000	0.004906
828.000000	0.004910
827.000000	0.004871
826.000000	0.004796
825.000000	0.004733
824.000000	0.004735
823.000000	0.004812
822.000000	0.004916
821.000000	0.004994
820.000000	0.005030
819.000000	0.005034
818.000000	0.005017
817.000000	0.004993
816.000000	0.004983
815.000000	0.004999
814.000000	0.005023
813.000000	0.005034
812.000000	0.005032
811.000000	0.005027
810.000000	0.005012
809.000000	0.004968
808.000000	0.004894
807.000000	0.004822
806.000000	0.004792
805.000000	0.004807
804.000000	0.004836
803.000000	0.004843
802.000000	0.004823
801.000000	0.004805
800.000000	0.004818
799.000000	0.004871
798.000000	0.004947
797.000000	0.005024
796.000000	0.005087
795.000000	0.005124
794.000000	0.005126
793.000000	0.005091
792.000000	0.005033
791.000000	0.004980
790.000000	0.004957
789.000000	0.004980
788.000000	0.005045
787.000000	0.005130
786.000000	0.005203
785.000000	0.005235
784.000000	0.005223
783.000000	0.005196
782.000000	0.005192
781.000000	0.005225
780.000000	0.005272
779.000000	0.005291
778.000000	0.005270
777.000000	0.005235
776.000000	0.005215
775.000000	0.005214
774.000000	0.005215
773.000000	0.005207
772.000000	0.005203
771.000000	0.005221
770.000000	0.005276
769.000000	0.005362
768.000000	0.005445
767.000000	0.005477
766.000000	0.005438
765.000000	0.005358
764.000000	0.005292
763.000000	0.005274
762.000000	0.005307
761.000000	0.005383
760.000000	0.005481
759.000000	0.005573
758.000000	0.005632
757.000000	0.005655
756.000000	0.005666
755.000000	0.005682
754.000000	0.005698
753.000000	0.005702
752.000000	0.005690
751.000000	0.005669
750.000000	0.005656
749.000000	0.005676
748.000000	0.005740
747.000000	0.005837
746.000000	0.005945
745.000000	0.006037
744.000000	0.006097
743.000000	0.006114
742.000000	0.006110
741.000000	0.006130
740.000000	0.006196
739.000000	0.006270
738.000000	0.006300
737.000000	0.006290
736.000000	0.006301
735.000000	0.006368
734.000000	0.006462
733.000000	0.006544
732.000000	0.006615
731.000000	0.006691
730.000000	0.006761
729.000000	0.006819
728.000000	0.006887
727.000000	0.006987
726.000000	0.007115
725.000000	0.007245
724.000000	0.007356
723.000000	0.007436
722.000000	0.007485
721.000000	0.007528
720.000000	0.007603
719.000000	0.007715
718.000000	0.007833
717.000000	0.007949
716.000000	0.008103
715.000000	0.008324
714.000000	0.008571
713.000000	0.008760
712.000000	0.008840
711.000000	0.008834
710.000000	0.008792
709.000000	0.008763
708.000000	0.008770
707.000000	0.008802
706.000000	0.008829
705.000000	0.008851
704.000000	0.008911
703.000000	0.009028
702.000000	0.009145
701.000000	0.009178
700.000000	0.009117
699.000000	0.009032
698.000000	0.008985
697.000000	0.008979
696.000000	0.008992
695.000000	0.009027
694.000000	0.009082
693.000000	0.009118
692.000000	0.009105
691.000000	0.009068
690.000000	0.009067
689.000000	0.009138
688.000000	0.009272
687.000000	0.009439
686.000000	0.009609
685.000000	0.009748
684.000000	0.009839
683.000000	0.009898
682.000000	0.009943
681.000000	0.009975
680.000000	0.009981
679.000000	0.009957
678.000000	0.009906
677.000000	0.009865
676.000000	0.009897
675.000000	0.010035
674.000000	0.010237
673.000000	0.010410
672.000000	0.010509
671.000000	0.010564
670.000000	0.010609
669.000000	0.010656
668.000000	0.010835
667.000000	0.011007
666.000000	0.010860
665.000000	0.010687
664.000000	0.010690
663.000000	0.010793
662.000000	0.010864
661.000000	0.010868
660.000000	0.010855
659.000000	0.010845
658.000000	0.010825
657.000000	0.010801
656.000000	0.010780
655.000000	0.010735
654.000000	0.010656
653.000000	0.010588
652.000000	0.010570
651.000000	0.010594
650.000000	0.010642
649.000000	0.010703
648.000000	0.010735
647.000000	0.010683
646.000000	0.010579
645.000000	0.010532
644.000000	0.010597
643.000000	0.010724
642.000000	0.010834
641.000000	0.010911
640.000000	0.010977
639.000000	0.011027
638.000000	0.011046
637.000000	0.011040
636.000000	0.011000
635.000000	0.010898
634.000000	0.010743
633.000000	0.010614
632.000000	0.010586
631.000000	0.010648
630.000000	0.010723
629.000000	0.010768
628.000000	0.010799
627.000000	0.010851
626.000000	0.010939
625.000000	0.011046
624.000000	0.011133
623.000000	0.011175
622.000000	0.011177
621.000000	0.011153
620.000000	0.011100
619.000000	0.011019
618.000000	0.010956
617.000000	0.010968
616.000000	0.011044
615.000000	0.011115
614.000000	0.011146
613.000000	0.011166
612.000000	0.011196
611.000000	0.011209
610.000000	0.011183
609.000000	0.011144
608.000000	0.011119
607.000000	0.011096
606.000000	0.011069
605.000000	0.011067
604.000000	0.011113
603.000000	0.011176
602.000000	0.011201
601.000000	0.011174
600.000000	0.011103
599.000000	0.010999
598.000000	0.010873
597.000000	0.010757
596.000000	0.010678
595.000000	0.010641
594.000000	0.010649
593.000000	0.010719
592.000000	0.010834
591.000000	0.010912
590.000000	0.010888
589.000000	0.010788
588.000000	0.010685
587.000000	0.010618
586.000000	0.010582
585.000000	0.010585
584.000000	0.010652
583.000000	0.010778
582.000000	0.010912
581.000000	0.011002
580.000000	0.011030
579.000000	0.011005
578.000000	0.010961
577.000000	0.010932
576.000000	0.010922
575.000000	0.010903
574.000000	0.010880
573.000000	0.010927
572.000000	0.011113
571.000000	0.011399
570.000000	0.011645
569.000000	0.011740
568.000000	0.011696
567.000000	0.011612
566.000000	0.011578
565.000000	0.011619
564.000000	0.011698
563.000000	0.011773
562.000000	0.011836
561.000000	0.011915
560.000000	0.012027
559.000000	0.012151
558.000000	0.012254
557.000000	0.012306
556.000000	0.012282
555.000000	0.012178
554.000000	0.012044
553.000000	0.011953
552.000000	0.011915
551.000000	0.011870
550.000000	0.011770
549.000000	0.011635
548.000000	0.011503
547.000000	0.011390
546.000000	0.011303
545.000000	0.011262
544.000000	0.011257
543.000000	0.011266
542.000000	0.011305
541.000000	0.011410
540.000000	0.011539
539.000000	0.011563
538.000000	0.011422
537.000000	0.011227
536.000000	0.011153
535.000000	0.011267
534.000000	0.011499
533.000000	0.011730
532.000000	0.011863
531.000000	0.011857
530.000000	0.011755
529.000000	0.011653
528.000000	0.011604
527.000000	0.011580
526.000000	0.011539
525.000000	0.011472
524.000000	0.011364
523.000000	0.011182
522.000000	0.010942
521.000000	0.010707
520.000000	0.010494
519.000000	0.010244
518.000000	0.009946
517.000000	0.009692
516.000000	0.009550
515.000000	0.009468
514.000000	0.009378
513.000000	0.009295
512.000000	0.009235
511.000000	0.009144
510.000000	0.009000
509.000000	0.008910
508.000000	0.008996
507.000000	0.009211
506.000000	0.009361
505.000000	0.009309
504.000000	0.009073
503.000000	0.008756
502.000000	0.008478
501.000000	0.008314
500.000000	0.008230
499.000000	0.008122
498.000000	0.007955
497.000000	0.007817
496.000000	0.007778
495.000000	0.007798
494.000000	0.007811
493.000000	0.007834
492.000000	0.007887
491.000000	0.007891
490.000000	0.007761
489.000000	0.007556
488.000000	0.007401
487.000000	0.007309
486.000000	0.007182
485.000000	0.006975
484.000000	0.006757
483.000000	0.006626
482.000000	0.006662
481.000000	0.006897
480.000000	0.007235
479.000000	0.007435
478.000000	0.007317
477.000000	0.006973
476.000000	0.006662
475.000000	0.006534
474.000000	0.006591
473.000000	0.006810
472.000000	0.007147
471.000000	0.007441
470.000000	0.007557
469.000000	0.007587
468.000000	0.007731
467.000000	0.008001
466.000000	0.008175
465.000000	0.008075
464.000000	0.007740
463.000000	0.007326
462.000000	0.006973
461.000000	0.006749
460.000000	0.006598
459.000000	0.006335
458.000000	0.005869
457.000000	0.005399
456.000000	0.005229
455.000000	0.005354
454.000000	0.005262
453.000000	0.005080
452.000000	0.004947
451.000000	0.004947
450.000000	0.004869
