PE IR       SUBTECH     SPECTRUM    ASCII       PEDS        4.00        
   -1
3G-N10-F004_1.ASC
22/02/24
10:29:53.00
22/02/24
11:04:21.00
uco
Sample 004 By uco Date Thursday, February 24 2022
450.000000
#HDR
-1
-1
#GR
cm-1
A
1.0
0.0
4000.000000
-1.000000
3551
8
0.028677
0.003260
#DATA
4000.000000	0.003714
3999.000000	0.003725
3998.000000	0.003745
3997.000000	0.003753
3996.000000	0.003743
3995.000000	0.003723
3994.000000	0.003712
3993.000000	0.003723
3992.000000	0.003750
3991.000000	0.003773
3990.000000	0.003778
3989.000000	0.003764
3988.000000	0.003747
3987.000000	0.003742
3986.000000	0.003753
3985.000000	0.003776
3984.000000	0.003800
3983.000000	0.003820
3982.000000	0.003834
3981.000000	0.003841
3980.000000	0.003841
3979.000000	0.003835
3978.000000	0.003825
3977.000000	0.003818
3976.000000	0.003819
3975.000000	0.003825
3974.000000	0.003829
3973.000000	0.003819
3972.000000	0.003789
3971.000000	0.003750
3970.000000	0.003720
3969.000000	0.003718
3968.000000	0.003750
3967.000000	0.003802
3966.000000	0.003851
3965.000000	0.003881
3964.000000	0.003887
3963.000000	0.003876
3962.000000	0.003855
3961.000000	0.003827
3960.000000	0.003801
3959.000000	0.003783
3958.000000	0.003782
3957.000000	0.003801
3956.000000	0.003835
3955.000000	0.003873
3954.000000	0.003898
3953.000000	0.003903
3952.000000	0.003892
3951.000000	0.003877
3950.000000	0.003873
3949.000000	0.003880
3948.000000	0.003887
3947.000000	0.003884
3946.000000	0.003867
3945.000000	0.003842
3944.000000	0.003825
3943.000000	0.003827
3942.000000	0.003846
3941.000000	0.003869
3940.000000	0.003877
3939.000000	0.003862
3938.000000	0.003832
3937.000000	0.003806
3936.000000	0.003798
3935.000000	0.003810
3934.000000	0.003835
3933.000000	0.003862
3932.000000	0.003887
3931.000000	0.003906
3930.000000	0.003918
3929.000000	0.003918
3928.000000	0.003911
3927.000000	0.003902
3926.000000	0.003895
3925.000000	0.003888
3924.000000	0.003878
3923.000000	0.003867
3922.000000	0.003858
3921.000000	0.003850
3920.000000	0.003840
3919.000000	0.003829
3918.000000	0.003822
3917.000000	0.003823
3916.000000	0.003829
3915.000000	0.003838
3914.000000	0.003851
3913.000000	0.003861
3912.000000	0.003866
3911.000000	0.003864
3910.000000	0.003860
3909.000000	0.003862
3908.000000	0.003870
3907.000000	0.003880
3906.000000	0.003886
3905.000000	0.003889
3904.000000	0.003889
3903.000000	0.003892
3902.000000	0.003896
3901.000000	0.003898
3900.000000	0.003892
3899.000000	0.003883
3898.000000	0.003880
3897.000000	0.003887
3896.000000	0.003900
3895.000000	0.003909
3894.000000	0.003913
3893.000000	0.003914
3892.000000	0.003916
3891.000000	0.003913
3890.000000	0.003902
3889.000000	0.003887
3888.000000	0.003879
3887.000000	0.003884
3886.000000	0.003891
3885.000000	0.003888
3884.000000	0.003879
3883.000000	0.003873
3882.000000	0.003877
3881.000000	0.003886
3880.000000	0.003896
3879.000000	0.003906
3878.000000	0.003917
3877.000000	0.003927
3876.000000	0.003932
3875.000000	0.003926
3874.000000	0.003909
3873.000000	0.003890
3872.000000	0.003883
3871.000000	0.003888
3870.000000	0.003893
3869.000000	0.003894
3868.000000	0.003900
3867.000000	0.003923
3866.000000	0.003956
3865.000000	0.003974
3864.000000	0.003963
3863.000000	0.003936
3862.000000	0.003914
3861.000000	0.003906
3860.000000	0.003907
3859.000000	0.003898
3858.000000	0.003866
3857.000000	0.003812
3856.000000	0.003753
3855.000000	0.003717
3854.000000	0.003721
3853.000000	0.003763
3852.000000	0.003828
3851.000000	0.003894
3850.000000	0.003943
3849.000000	0.003967
3848.000000	0.003966
3847.000000	0.003950
3846.000000	0.003929
3845.000000	0.003910
3844.000000	0.003896
3843.000000	0.003882
3842.000000	0.003867
3841.000000	0.003856
3840.000000	0.003855
3839.000000	0.003863
3838.000000	0.003873
3837.000000	0.003876
3836.000000	0.003868
3835.000000	0.003850
3834.000000	0.003830
3833.000000	0.003814
3832.000000	0.003810
3831.000000	0.003822
3830.000000	0.003848
3829.000000	0.003878
3828.000000	0.003901
3827.000000	0.003906
3826.000000	0.003892
3825.000000	0.003873
3824.000000	0.003864
3823.000000	0.003870
3822.000000	0.003874
3821.000000	0.003853
3820.000000	0.003810
3819.000000	0.003773
3818.000000	0.003763
3817.000000	0.003779
3816.000000	0.003801
3815.000000	0.003812
3814.000000	0.003817
3813.000000	0.003824
3812.000000	0.003831
3811.000000	0.003829
3810.000000	0.003815
3809.000000	0.003801
3808.000000	0.003805
3807.000000	0.003831
3806.000000	0.003862
3805.000000	0.003884
3804.000000	0.003895
3803.000000	0.003894
3802.000000	0.003874
3801.000000	0.003835
3800.000000	0.003794
3799.000000	0.003766
3798.000000	0.003754
3797.000000	0.003752
3796.000000	0.003755
3795.000000	0.003763
3794.000000	0.003777
3793.000000	0.003793
3792.000000	0.003804
3791.000000	0.003808
3790.000000	0.003808
3789.000000	0.003809
3788.000000	0.003820
3787.000000	0.003840
3786.000000	0.003864
3785.000000	0.003878
3784.000000	0.003876
3783.000000	0.003868
3782.000000	0.003867
3781.000000	0.003876
3780.000000	0.003883
3779.000000	0.003876
3778.000000	0.003855
3777.000000	0.003831
3776.000000	0.003811
3775.000000	0.003796
3774.000000	0.003783
3773.000000	0.003774
3772.000000	0.003772
3771.000000	0.003771
3770.000000	0.003765
3769.000000	0.003757
3768.000000	0.003750
3767.000000	0.003744
3766.000000	0.003734
3765.000000	0.003721
3764.000000	0.003715
3763.000000	0.003723
3762.000000	0.003741
3761.000000	0.003754
3760.000000	0.003757
3759.000000	0.003763
3758.000000	0.003788
3757.000000	0.003823
3756.000000	0.003846
3755.000000	0.003845
3754.000000	0.003828
3753.000000	0.003806
3752.000000	0.003794
3751.000000	0.003802
3750.000000	0.003825
3749.000000	0.003844
3748.000000	0.003843
3747.000000	0.003830
3746.000000	0.003828
3745.000000	0.003835
3744.000000	0.003832
3743.000000	0.003807
3742.000000	0.003767
3741.000000	0.003727
3740.000000	0.003700
3739.000000	0.003702
3738.000000	0.003740
3737.000000	0.003800
3736.000000	0.003836
3735.000000	0.003818
3734.000000	0.003760
3733.000000	0.003706
3732.000000	0.003688
3731.000000	0.003700
3730.000000	0.003721
3729.000000	0.003736
3728.000000	0.003738
3727.000000	0.003724
3726.000000	0.003706
3725.000000	0.003698
3724.000000	0.003707
3723.000000	0.003723
3722.000000	0.003733
3721.000000	0.003734
3720.000000	0.003733
3719.000000	0.003741
3718.000000	0.003753
3717.000000	0.003758
3716.000000	0.003752
3715.000000	0.003747
3714.000000	0.003757
3713.000000	0.003785
3712.000000	0.003815
3711.000000	0.003826
3710.000000	0.003815
3709.000000	0.003794
3708.000000	0.003774
3707.000000	0.003756
3706.000000	0.003739
3705.000000	0.003721
3704.000000	0.003707
3703.000000	0.003700
3702.000000	0.003700
3701.000000	0.003703
3700.000000	0.003710
3699.000000	0.003724
3698.000000	0.003745
3697.000000	0.003760
3696.000000	0.003758
3695.000000	0.003740
3694.000000	0.003718
3693.000000	0.003705
3692.000000	0.003705
3691.000000	0.003715
3690.000000	0.003723
3689.000000	0.003723
3688.000000	0.003722
3687.000000	0.003730
3686.000000	0.003748
3685.000000	0.003769
3684.000000	0.003781
3683.000000	0.003784
3682.000000	0.003790
3681.000000	0.003811
3680.000000	0.003851
3679.000000	0.003900
3678.000000	0.003957
3677.000000	0.004011
3676.000000	0.004037
3675.000000	0.004023
3674.000000	0.003993
3673.000000	0.003974
3672.000000	0.003971
3671.000000	0.003975
3670.000000	0.003972
3669.000000	0.003964
3668.000000	0.003958
3667.000000	0.003955
3666.000000	0.003952
3665.000000	0.003947
3664.000000	0.003937
3663.000000	0.003922
3662.000000	0.003903
3661.000000	0.003881
3660.000000	0.003858
3659.000000	0.003837
3658.000000	0.003825
3657.000000	0.003829
3656.000000	0.003851
3655.000000	0.003889
3654.000000	0.003933
3653.000000	0.003980
3652.000000	0.004021
3651.000000	0.004042
3650.000000	0.004029
3649.000000	0.003993
3648.000000	0.003961
3647.000000	0.003950
3646.000000	0.003957
3645.000000	0.003977
3644.000000	0.004006
3643.000000	0.004041
3642.000000	0.004079
3641.000000	0.004116
3640.000000	0.004151
3639.000000	0.004181
3638.000000	0.004201
3637.000000	0.004209
3636.000000	0.004204
3635.000000	0.004189
3634.000000	0.004170
3633.000000	0.004155
3632.000000	0.004153
3631.000000	0.004173
3630.000000	0.004213
3629.000000	0.004255
3628.000000	0.004289
3627.000000	0.004318
3626.000000	0.004338
3625.000000	0.004345
3624.000000	0.004338
3623.000000	0.004323
3622.000000	0.004308
3621.000000	0.004304
3620.000000	0.004318
3619.000000	0.004349
3618.000000	0.004391
3617.000000	0.004441
3616.000000	0.004490
3615.000000	0.004529
3614.000000	0.004546
3613.000000	0.004541
3612.000000	0.004534
3611.000000	0.004546
3610.000000	0.004584
3609.000000	0.004625
3608.000000	0.004641
3607.000000	0.004627
3606.000000	0.004603
3605.000000	0.004596
3604.000000	0.004619
3603.000000	0.004669
3602.000000	0.004728
3601.000000	0.004776
3600.000000	0.004804
3599.000000	0.004817
3598.000000	0.004829
3597.000000	0.004844
3596.000000	0.004859
3595.000000	0.004865
3594.000000	0.004860
3593.000000	0.004856
3592.000000	0.004863
3591.000000	0.004889
3590.000000	0.004926
3589.000000	0.004958
3588.000000	0.004976
3587.000000	0.004986
3586.000000	0.005006
3585.000000	0.005041
3584.000000	0.005080
3583.000000	0.005114
3582.000000	0.005139
3581.000000	0.005162
3580.000000	0.005188
3579.000000	0.005225
3578.000000	0.005272
3577.000000	0.005326
3576.000000	0.005383
3575.000000	0.005439
3574.000000	0.005490
3573.000000	0.005530
3572.000000	0.005554
3571.000000	0.005567
3570.000000	0.005582
3569.000000	0.005611
3568.000000	0.005645
3567.000000	0.005671
3566.000000	0.005684
3565.000000	0.005696
3564.000000	0.005717
3563.000000	0.005744
3562.000000	0.005770
3561.000000	0.005791
3560.000000	0.005804
3559.000000	0.005818
3558.000000	0.005842
3557.000000	0.005881
3556.000000	0.005929
3555.000000	0.005976
3554.000000	0.006015
3553.000000	0.006046
3552.000000	0.006073
3551.000000	0.006100
3550.000000	0.006128
3549.000000	0.006161
3548.000000	0.006203
3547.000000	0.006249
3546.000000	0.006291
3545.000000	0.006319
3544.000000	0.006331
3543.000000	0.006336
3542.000000	0.006344
3541.000000	0.006358
3540.000000	0.006374
3539.000000	0.006391
3538.000000	0.006416
3537.000000	0.006452
3536.000000	0.006495
3535.000000	0.006534
3534.000000	0.006563
3533.000000	0.006583
3532.000000	0.006601
3531.000000	0.006622
3530.000000	0.006652
3529.000000	0.006693
3528.000000	0.006741
3527.000000	0.006787
3526.000000	0.006827
3525.000000	0.006857
3524.000000	0.006869
3523.000000	0.006864
3522.000000	0.006853
3521.000000	0.006860
3520.000000	0.006899
3519.000000	0.006964
3518.000000	0.007034
3517.000000	0.007084
3516.000000	0.007104
3515.000000	0.007098
3514.000000	0.007082
3513.000000	0.007076
3512.000000	0.007096
3511.000000	0.007145
3510.000000	0.007212
3509.000000	0.007281
3508.000000	0.007343
3507.000000	0.007393
3506.000000	0.007430
3505.000000	0.007453
3504.000000	0.007462
3503.000000	0.007461
3502.000000	0.007459
3501.000000	0.007461
3500.000000	0.007468
3499.000000	0.007477
3498.000000	0.007488
3497.000000	0.007503
3496.000000	0.007524
3495.000000	0.007552
3494.000000	0.007587
3493.000000	0.007627
3492.000000	0.007661
3491.000000	0.007684
3490.000000	0.007698
3489.000000	0.007712
3488.000000	0.007734
3487.000000	0.007761
3486.000000	0.007795
3485.000000	0.007833
3484.000000	0.007873
3483.000000	0.007905
3482.000000	0.007925
3481.000000	0.007938
3480.000000	0.007948
3479.000000	0.007958
3478.000000	0.007964
3477.000000	0.007970
3476.000000	0.007982
3475.000000	0.008005
3474.000000	0.008033
3473.000000	0.008057
3472.000000	0.008075
3471.000000	0.008093
3470.000000	0.008125
3469.000000	0.008172
3468.000000	0.008224
3467.000000	0.008264
3466.000000	0.008287
3465.000000	0.008302
3464.000000	0.008321
3463.000000	0.008347
3462.000000	0.008369
3461.000000	0.008375
3460.000000	0.008362
3459.000000	0.008344
3458.000000	0.008343
3457.000000	0.008373
3456.000000	0.008430
3455.000000	0.008495
3454.000000	0.008546
3453.000000	0.008576
3452.000000	0.008589
3451.000000	0.008595
3450.000000	0.008606
3449.000000	0.008629
3448.000000	0.008663
3447.000000	0.008702
3446.000000	0.008745
3445.000000	0.008790
3444.000000	0.008832
3443.000000	0.008853
3442.000000	0.008846
3441.000000	0.008821
3440.000000	0.008800
3439.000000	0.008800
3438.000000	0.008820
3437.000000	0.008847
3436.000000	0.008872
3435.000000	0.008891
3434.000000	0.008911
3433.000000	0.008939
3432.000000	0.008983
3431.000000	0.009040
3430.000000	0.009100
3429.000000	0.009154
3428.000000	0.009194
3427.000000	0.009216
3426.000000	0.009222
3425.000000	0.009222
3424.000000	0.009227
3423.000000	0.009241
3422.000000	0.009263
3421.000000	0.009287
3420.000000	0.009312
3419.000000	0.009338
3418.000000	0.009364
3417.000000	0.009392
3416.000000	0.009422
3415.000000	0.009457
3414.000000	0.009493
3413.000000	0.009523
3412.000000	0.009543
3411.000000	0.009564
3410.000000	0.009597
3409.000000	0.009645
3408.000000	0.009695
3407.000000	0.009729
3406.000000	0.009744
3405.000000	0.009750
3404.000000	0.009764
3403.000000	0.009789
3402.000000	0.009818
3401.000000	0.009846
3400.000000	0.009870
3399.000000	0.009896
3398.000000	0.009925
3397.000000	0.009958
3396.000000	0.009989
3395.000000	0.010016
3394.000000	0.010037
3393.000000	0.010056
3392.000000	0.010078
3391.000000	0.010098
3390.000000	0.010114
3389.000000	0.010124
3388.000000	0.010137
3387.000000	0.010162
3386.000000	0.010198
3385.000000	0.010236
3384.000000	0.010270
3383.000000	0.010297
3382.000000	0.010318
3381.000000	0.010328
3380.000000	0.010331
3379.000000	0.010337
3378.000000	0.010359
3377.000000	0.010400
3376.000000	0.010448
3375.000000	0.010488
3374.000000	0.010515
3373.000000	0.010534
3372.000000	0.010559
3371.000000	0.010597
3370.000000	0.010643
3369.000000	0.010688
3368.000000	0.010720
3367.000000	0.010740
3366.000000	0.010757
3365.000000	0.010780
3364.000000	0.010811
3363.000000	0.010842
3362.000000	0.010867
3361.000000	0.010888
3360.000000	0.010911
3359.000000	0.010940
3358.000000	0.010973
3357.000000	0.011006
3356.000000	0.011037
3355.000000	0.011067
3354.000000	0.011099
3353.000000	0.011138
3352.000000	0.011182
3351.000000	0.011232
3350.000000	0.011284
3349.000000	0.011334
3348.000000	0.011379
3347.000000	0.011420
3346.000000	0.011459
3345.000000	0.011497
3344.000000	0.011535
3343.000000	0.011577
3342.000000	0.011624
3341.000000	0.011676
3340.000000	0.011731
3339.000000	0.011778
3338.000000	0.011810
3337.000000	0.011825
3336.000000	0.011831
3335.000000	0.011842
3334.000000	0.011873
3333.000000	0.011921
3332.000000	0.011973
3331.000000	0.012014
3330.000000	0.012039
3329.000000	0.012057
3328.000000	0.012076
3327.000000	0.012096
3326.000000	0.012113
3325.000000	0.012126
3324.000000	0.012138
3323.000000	0.012152
3322.000000	0.012171
3321.000000	0.012198
3320.000000	0.012233
3319.000000	0.012276
3318.000000	0.012329
3317.000000	0.012393
3316.000000	0.012463
3315.000000	0.012525
3314.000000	0.012565
3313.000000	0.012576
3312.000000	0.012561
3311.000000	0.012532
3310.000000	0.012500
3309.000000	0.012473
3308.000000	0.012458
3307.000000	0.012461
3306.000000	0.012482
3305.000000	0.012518
3304.000000	0.012561
3303.000000	0.012604
3302.000000	0.012640
3301.000000	0.012668
3300.000000	0.012684
3299.000000	0.012690
3298.000000	0.012689
3297.000000	0.012690
3296.000000	0.012696
3295.000000	0.012708
3294.000000	0.012721
3293.000000	0.012739
3292.000000	0.012762
3291.000000	0.012787
3290.000000	0.012804
3289.000000	0.012813
3288.000000	0.012818
3287.000000	0.012825
3286.000000	0.012833
3285.000000	0.012830
3284.000000	0.012811
3283.000000	0.012775
3282.000000	0.012732
3281.000000	0.012692
3280.000000	0.012666
3279.000000	0.012661
3278.000000	0.012675
3277.000000	0.012693
3276.000000	0.012698
3275.000000	0.012686
3274.000000	0.012663
3273.000000	0.012640
3272.000000	0.012618
3271.000000	0.012597
3270.000000	0.012579
3269.000000	0.012574
3268.000000	0.012584
3267.000000	0.012602
3266.000000	0.012613
3265.000000	0.012608
3264.000000	0.012594
3263.000000	0.012580
3262.000000	0.012566
3261.000000	0.012544
3260.000000	0.012507
3259.000000	0.012455
3258.000000	0.012397
3257.000000	0.012347
3256.000000	0.012314
3255.000000	0.012296
3254.000000	0.012287
3253.000000	0.012276
3252.000000	0.012254
3251.000000	0.012222
3250.000000	0.012188
3249.000000	0.012155
3248.000000	0.012125
3247.000000	0.012094
3246.000000	0.012061
3245.000000	0.012028
3244.000000	0.012002
3243.000000	0.011983
3242.000000	0.011963
3241.000000	0.011937
3240.000000	0.011904
3239.000000	0.011873
3238.000000	0.011849
3237.000000	0.011833
3236.000000	0.011820
3235.000000	0.011809
3234.000000	0.011799
3233.000000	0.011791
3232.000000	0.011774
3231.000000	0.011739
3230.000000	0.011683
3229.000000	0.011620
3228.000000	0.011572
3227.000000	0.011554
3226.000000	0.011562
3225.000000	0.011579
3224.000000	0.011589
3223.000000	0.011588
3222.000000	0.011580
3221.000000	0.011566
3220.000000	0.011540
3219.000000	0.011504
3218.000000	0.011470
3217.000000	0.011452
3216.000000	0.011449
3215.000000	0.011447
3214.000000	0.011429
3213.000000	0.011393
3212.000000	0.011346
3211.000000	0.011297
3210.000000	0.011251
3209.000000	0.011215
3208.000000	0.011193
3207.000000	0.011189
3206.000000	0.011197
3205.000000	0.011206
3204.000000	0.011207
3203.000000	0.011196
3202.000000	0.011181
3201.000000	0.011166
3200.000000	0.011147
3199.000000	0.011115
3198.000000	0.011066
3197.000000	0.011010
3196.000000	0.010964
3195.000000	0.010936
3194.000000	0.010923
3193.000000	0.010913
3192.000000	0.010898
3191.000000	0.010869
3190.000000	0.010828
3189.000000	0.010786
3188.000000	0.010754
3187.000000	0.010739
3186.000000	0.010730
3185.000000	0.010716
3184.000000	0.010693
3183.000000	0.010663
3182.000000	0.010630
3181.000000	0.010599
3180.000000	0.010574
3179.000000	0.010554
3178.000000	0.010527
3177.000000	0.010485
3176.000000	0.010433
3175.000000	0.010389
3174.000000	0.010362
3173.000000	0.010347
3172.000000	0.010329
3171.000000	0.010305
3170.000000	0.010282
3169.000000	0.010259
3168.000000	0.010227
3167.000000	0.010175
3166.000000	0.010108
3165.000000	0.010046
3164.000000	0.010011
3163.000000	0.010008
3162.000000	0.010027
3161.000000	0.010046
3160.000000	0.010047
3159.000000	0.010028
3158.000000	0.009993
3157.000000	0.009948
3156.000000	0.009892
3155.000000	0.009828
3154.000000	0.009765
3153.000000	0.009722
3152.000000	0.009713
3151.000000	0.009728
3150.000000	0.009741
3149.000000	0.009729
3148.000000	0.009693
3147.000000	0.009653
3146.000000	0.009629
3145.000000	0.009618
3144.000000	0.009603
3143.000000	0.009569
3142.000000	0.009521
3141.000000	0.009479
3140.000000	0.009463
3139.000000	0.009470
3138.000000	0.009482
3137.000000	0.009480
3136.000000	0.009457
3135.000000	0.009418
3134.000000	0.009372
3133.000000	0.009323
3132.000000	0.009277
3131.000000	0.009244
3130.000000	0.009232
3129.000000	0.009241
3128.000000	0.009259
3127.000000	0.009272
3126.000000	0.009272
3125.000000	0.009260
3124.000000	0.009246
3123.000000	0.009238
3122.000000	0.009238
3121.000000	0.009241
3120.000000	0.009241
3119.000000	0.009238
3118.000000	0.009234
3117.000000	0.009234
3116.000000	0.009236
3115.000000	0.009236
3114.000000	0.009229
3113.000000	0.009213
3112.000000	0.009195
3111.000000	0.009186
3110.000000	0.009191
3109.000000	0.009206
3108.000000	0.009224
3107.000000	0.009238
3106.000000	0.009249
3105.000000	0.009262
3104.000000	0.009280
3103.000000	0.009294
3102.000000	0.009292
3101.000000	0.009268
3100.000000	0.009234
3099.000000	0.009216
3098.000000	0.009232
3097.000000	0.009278
3096.000000	0.009329
3095.000000	0.009360
3094.000000	0.009361
3093.000000	0.009341
3092.000000	0.009318
3091.000000	0.009311
3090.000000	0.009328
3089.000000	0.009361
3088.000000	0.009389
3087.000000	0.009398
3086.000000	0.009389
3085.000000	0.009377
3084.000000	0.009378
3083.000000	0.009395
3082.000000	0.009417
3081.000000	0.009431
3080.000000	0.009431
3079.000000	0.009424
3078.000000	0.009424
3077.000000	0.009435
3076.000000	0.009454
3075.000000	0.009469
3074.000000	0.009473
3073.000000	0.009468
3072.000000	0.009458
3071.000000	0.009448
3070.000000	0.009436
3069.000000	0.009420
3068.000000	0.009403
3067.000000	0.009388
3066.000000	0.009381
3065.000000	0.009384
3064.000000	0.009395
3063.000000	0.009409
3062.000000	0.009419
3061.000000	0.009416
3060.000000	0.009396
3059.000000	0.009357
3058.000000	0.009307
3057.000000	0.009257
3056.000000	0.009216
3055.000000	0.009195
3054.000000	0.009192
3053.000000	0.009197
3052.000000	0.009197
3051.000000	0.009184
3050.000000	0.009160
3049.000000	0.009134
3048.000000	0.009108
3047.000000	0.009081
3046.000000	0.009052
3045.000000	0.009021
3044.000000	0.008991
3043.000000	0.008965
3042.000000	0.008944
3041.000000	0.008929
3040.000000	0.008918
3039.000000	0.008908
3038.000000	0.008890
3037.000000	0.008861
3036.000000	0.008829
3035.000000	0.008802
3034.000000	0.008785
3033.000000	0.008770
3032.000000	0.008752
3031.000000	0.008736
3030.000000	0.008726
3029.000000	0.008720
3028.000000	0.008708
3027.000000	0.008679
3026.000000	0.008639
3025.000000	0.008599
3024.000000	0.008567
3023.000000	0.008545
3022.000000	0.008531
3021.000000	0.008527
3020.000000	0.008526
3019.000000	0.008520
3018.000000	0.008501
3017.000000	0.008475
3016.000000	0.008454
3015.000000	0.008444
3014.000000	0.008434
3013.000000	0.008410
3012.000000	0.008369
3011.000000	0.008325
3010.000000	0.008297
3009.000000	0.008294
3008.000000	0.008312
3007.000000	0.008336
3006.000000	0.008355
3005.000000	0.008367
3004.000000	0.008376
3003.000000	0.008387
3002.000000	0.008399
3001.000000	0.008415
3000.000000	0.008435
2999.000000	0.008463
2998.000000	0.008495
2997.000000	0.008526
2996.000000	0.008550
2995.000000	0.008573
2994.000000	0.008604
2993.000000	0.008654
2992.000000	0.008716
2991.000000	0.008774
2990.000000	0.008816
2989.000000	0.008849
2988.000000	0.008885
2987.000000	0.008930
2986.000000	0.008987
2985.000000	0.009051
2984.000000	0.009119
2983.000000	0.009187
2982.000000	0.009250
2981.000000	0.009310
2980.000000	0.009372
2979.000000	0.009440
2978.000000	0.009508
2977.000000	0.009571
2976.000000	0.009628
2975.000000	0.009689
2974.000000	0.009764
2973.000000	0.009858
2972.000000	0.009962
2971.000000	0.010064
2970.000000	0.010160
2969.000000	0.010256
2968.000000	0.010360
2967.000000	0.010471
2966.000000	0.010580
2965.000000	0.010680
2964.000000	0.010770
2963.000000	0.010854
2962.000000	0.010931
2961.000000	0.010993
2960.000000	0.011036
2959.000000	0.011066
2958.000000	0.011097
2957.000000	0.011137
2956.000000	0.011185
2955.000000	0.011230
2954.000000	0.011266
2953.000000	0.011290
2952.000000	0.011301
2951.000000	0.011295
2950.000000	0.011275
2949.000000	0.011255
2948.000000	0.011255
2947.000000	0.011289
2946.000000	0.011355
2945.000000	0.011440
2944.000000	0.011532
2943.000000	0.011623
2942.000000	0.011711
2941.000000	0.011801
2940.000000	0.011901
2939.000000	0.012025
2938.000000	0.012179
2937.000000	0.012355
2936.000000	0.012532
2935.000000	0.012695
2934.000000	0.012842
2933.000000	0.012987
2932.000000	0.013146
2931.000000	0.013319
2930.000000	0.013487
2929.000000	0.013629
2928.000000	0.013743
2927.000000	0.013846
2926.000000	0.013960
2925.000000	0.014086
2924.000000	0.014207
2923.000000	0.014298
2922.000000	0.014345
2921.000000	0.014343
2920.000000	0.014292
2919.000000	0.014199
2918.000000	0.014070
2917.000000	0.013911
2916.000000	0.013725
2915.000000	0.013509
2914.000000	0.013263
2913.000000	0.012999
2912.000000	0.012730
2911.000000	0.012476
2910.000000	0.012254
2909.000000	0.012070
2908.000000	0.011919
2907.000000	0.011784
2906.000000	0.011651
2905.000000	0.011520
2904.000000	0.011399
2903.000000	0.011298
2902.000000	0.011209
2901.000000	0.011119
2900.000000	0.011021
2899.000000	0.010922
2898.000000	0.010837
2897.000000	0.010773
2896.000000	0.010718
2895.000000	0.010657
2894.000000	0.010584
2893.000000	0.010506
2892.000000	0.010434
2891.000000	0.010371
2890.000000	0.010316
2889.000000	0.010269
2888.000000	0.010230
2887.000000	0.010201
2886.000000	0.010183
2885.000000	0.010177
2884.000000	0.010176
2883.000000	0.010175
2882.000000	0.010177
2881.000000	0.010186
2880.000000	0.010211
2879.000000	0.010248
2878.000000	0.010287
2877.000000	0.010318
2876.000000	0.010340
2875.000000	0.010356
2874.000000	0.010367
2873.000000	0.010371
2872.000000	0.010360
2871.000000	0.010334
2870.000000	0.010300
2869.000000	0.010270
2868.000000	0.010254
2867.000000	0.010248
2866.000000	0.010247
2865.000000	0.010248
2864.000000	0.010255
2863.000000	0.010280
2862.000000	0.010328
2861.000000	0.010402
2860.000000	0.010496
2859.000000	0.010596
2858.000000	0.010694
2857.000000	0.010792
2856.000000	0.010903
2855.000000	0.011030
2854.000000	0.011159
2853.000000	0.011269
2852.000000	0.011336
2851.000000	0.011341
2850.000000	0.011270
2849.000000	0.011119
2848.000000	0.010902
2847.000000	0.010644
2846.000000	0.010370
2845.000000	0.010104
2844.000000	0.009862
2843.000000	0.009650
2842.000000	0.009466
2841.000000	0.009307
2840.000000	0.009177
2839.000000	0.009076
2838.000000	0.009000
2837.000000	0.008934
2836.000000	0.008869
2835.000000	0.008802
2834.000000	0.008738
2833.000000	0.008686
2832.000000	0.008651
2831.000000	0.008627
2830.000000	0.008604
2829.000000	0.008571
2828.000000	0.008527
2827.000000	0.008474
2826.000000	0.008421
2825.000000	0.008377
2824.000000	0.008351
2823.000000	0.008341
2822.000000	0.008334
2821.000000	0.008309
2820.000000	0.008264
2819.000000	0.008211
2818.000000	0.008168
2817.000000	0.008141
2816.000000	0.008132
2815.000000	0.008131
2814.000000	0.008125
2813.000000	0.008105
2812.000000	0.008075
2811.000000	0.008043
2810.000000	0.008013
2809.000000	0.007981
2808.000000	0.007950
2807.000000	0.007923
2806.000000	0.007906
2805.000000	0.007897
2804.000000	0.007892
2803.000000	0.007886
2802.000000	0.007871
2801.000000	0.007842
2800.000000	0.007809
2799.000000	0.007788
2798.000000	0.007794
2797.000000	0.007817
2796.000000	0.007839
2795.000000	0.007845
2794.000000	0.007836
2793.000000	0.007818
2792.000000	0.007798
2791.000000	0.007777
2790.000000	0.007757
2789.000000	0.007735
2788.000000	0.007711
2787.000000	0.007688
2786.000000	0.007674
2785.000000	0.007671
2784.000000	0.007673
2783.000000	0.007670
2782.000000	0.007659
2781.000000	0.007641
2780.000000	0.007621
2779.000000	0.007604
2778.000000	0.007595
2777.000000	0.007594
2776.000000	0.007599
2775.000000	0.007601
2774.000000	0.007591
2773.000000	0.007567
2772.000000	0.007536
2771.000000	0.007513
2770.000000	0.007501
2769.000000	0.007497
2768.000000	0.007498
2767.000000	0.007503
2766.000000	0.007510
2765.000000	0.007505
2764.000000	0.007480
2763.000000	0.007441
2762.000000	0.007410
2761.000000	0.007396
2760.000000	0.007392
2759.000000	0.007391
2758.000000	0.007393
2757.000000	0.007407
2756.000000	0.007426
2755.000000	0.007434
2754.000000	0.007419
2753.000000	0.007387
2752.000000	0.007354
2751.000000	0.007334
2750.000000	0.007329
2749.000000	0.007334
2748.000000	0.007339
2747.000000	0.007337
2746.000000	0.007326
2745.000000	0.007308
2744.000000	0.007291
2743.000000	0.007278
2742.000000	0.007272
2741.000000	0.007270
2740.000000	0.007274
2739.000000	0.007283
2738.000000	0.007292
2737.000000	0.007295
2736.000000	0.007290
2735.000000	0.007278
2734.000000	0.007264
2733.000000	0.007251
2732.000000	0.007241
2731.000000	0.007238
2730.000000	0.007240
2729.000000	0.007244
2728.000000	0.007244
2727.000000	0.007236
2726.000000	0.007219
2725.000000	0.007196
2724.000000	0.007176
2723.000000	0.007163
2722.000000	0.007152
2721.000000	0.007138
2720.000000	0.007118
2719.000000	0.007104
2718.000000	0.007105
2717.000000	0.007115
2716.000000	0.007120
2715.000000	0.007112
2714.000000	0.007097
2713.000000	0.007083
2712.000000	0.007075
2711.000000	0.007071
2710.000000	0.007068
2709.000000	0.007064
2708.000000	0.007059
2707.000000	0.007053
2706.000000	0.007043
2705.000000	0.007033
2704.000000	0.007025
2703.000000	0.007027
2702.000000	0.007038
2701.000000	0.007048
2700.000000	0.007049
2699.000000	0.007042
2698.000000	0.007033
2697.000000	0.007026
2696.000000	0.007014
2695.000000	0.006995
2694.000000	0.006970
2693.000000	0.006947
2692.000000	0.006935
2691.000000	0.006937
2690.000000	0.006953
2689.000000	0.006977
2688.000000	0.006999
2687.000000	0.007009
2686.000000	0.007007
2685.000000	0.006998
2684.000000	0.006993
2683.000000	0.006995
2682.000000	0.007002
2681.000000	0.007007
2680.000000	0.007010
2679.000000	0.007012
2678.000000	0.007014
2677.000000	0.007008
2676.000000	0.006987
2675.000000	0.006955
2674.000000	0.006925
2673.000000	0.006908
2672.000000	0.006905
2671.000000	0.006911
2670.000000	0.006921
2669.000000	0.006933
2668.000000	0.006940
2667.000000	0.006939
2666.000000	0.006929
2665.000000	0.006916
2664.000000	0.006907
2663.000000	0.006908
2662.000000	0.006920
2661.000000	0.006936
2660.000000	0.006943
2659.000000	0.006930
2658.000000	0.006898
2657.000000	0.006858
2656.000000	0.006822
2655.000000	0.006796
2654.000000	0.006778
2653.000000	0.006763
2652.000000	0.006747
2651.000000	0.006734
2650.000000	0.006728
2649.000000	0.006732
2648.000000	0.006738
2647.000000	0.006730
2646.000000	0.006699
2645.000000	0.006653
2644.000000	0.006607
2643.000000	0.006573
2642.000000	0.006554
2641.000000	0.006543
2640.000000	0.006536
2639.000000	0.006532
2638.000000	0.006526
2637.000000	0.006507
2636.000000	0.006473
2635.000000	0.006432
2634.000000	0.006397
2633.000000	0.006375
2632.000000	0.006359
2631.000000	0.006346
2630.000000	0.006337
2629.000000	0.006335
2628.000000	0.006335
2627.000000	0.006331
2626.000000	0.006325
2625.000000	0.006322
2624.000000	0.006323
2623.000000	0.006321
2622.000000	0.006306
2621.000000	0.006278
2620.000000	0.006246
2619.000000	0.006222
2618.000000	0.006213
2617.000000	0.006214
2616.000000	0.006211
2615.000000	0.006199
2614.000000	0.006178
2613.000000	0.006155
2612.000000	0.006131
2611.000000	0.006108
2610.000000	0.006086
2609.000000	0.006066
2608.000000	0.006048
2607.000000	0.006031
2606.000000	0.006019
2605.000000	0.006015
2604.000000	0.006015
2603.000000	0.006015
2602.000000	0.006015
2601.000000	0.006014
2600.000000	0.006010
2599.000000	0.006002
2598.000000	0.005990
2597.000000	0.005979
2596.000000	0.005968
2595.000000	0.005954
2594.000000	0.005934
2593.000000	0.005911
2592.000000	0.005893
2591.000000	0.005888
2590.000000	0.005898
2589.000000	0.005916
2588.000000	0.005930
2587.000000	0.005929
2586.000000	0.005912
2585.000000	0.005893
2584.000000	0.005887
2583.000000	0.005896
2582.000000	0.005905
2581.000000	0.005888
2580.000000	0.005839
2579.000000	0.005777
2578.000000	0.005732
2577.000000	0.005715
2576.000000	0.005713
2575.000000	0.005710
2574.000000	0.005704
2573.000000	0.005704
2572.000000	0.005716
2571.000000	0.005734
2570.000000	0.005751
2569.000000	0.005760
2568.000000	0.005759
2567.000000	0.005752
2566.000000	0.005741
2565.000000	0.005724
2564.000000	0.005699
2563.000000	0.005673
2562.000000	0.005661
2561.000000	0.005663
2560.000000	0.005665
2559.000000	0.005659
2558.000000	0.005654
2557.000000	0.005665
2556.000000	0.005684
2555.000000	0.005692
2554.000000	0.005673
2553.000000	0.005632
2552.000000	0.005582
2551.000000	0.005541
2550.000000	0.005526
2549.000000	0.005540
2548.000000	0.005568
2547.000000	0.005585
2546.000000	0.005582
2545.000000	0.005570
2544.000000	0.005560
2543.000000	0.005556
2542.000000	0.005555
2541.000000	0.005554
2540.000000	0.005556
2539.000000	0.005565
2538.000000	0.005579
2537.000000	0.005594
2536.000000	0.005600
2535.000000	0.005594
2534.000000	0.005585
2533.000000	0.005584
2532.000000	0.005591
2531.000000	0.005595
2530.000000	0.005589
2529.000000	0.005581
2528.000000	0.005581
2527.000000	0.005591
2526.000000	0.005609
2525.000000	0.005637
2524.000000	0.005673
2523.000000	0.005709
2522.000000	0.005732
2521.000000	0.005731
2520.000000	0.005704
2519.000000	0.005660
2518.000000	0.005609
2517.000000	0.005567
2516.000000	0.005549
2515.000000	0.005563
2514.000000	0.005601
2513.000000	0.005637
2512.000000	0.005644
2511.000000	0.005623
2510.000000	0.005595
2509.000000	0.005585
2508.000000	0.005588
2507.000000	0.005583
2506.000000	0.005559
2505.000000	0.005531
2504.000000	0.005518
2503.000000	0.005525
2502.000000	0.005539
2501.000000	0.005549
2500.000000	0.005560
2499.000000	0.005580
2498.000000	0.005606
2497.000000	0.005617
2496.000000	0.005590
2495.000000	0.005523
2494.000000	0.005441
2493.000000	0.005379
2492.000000	0.005361
2491.000000	0.005381
2490.000000	0.005421
2489.000000	0.005467
2488.000000	0.005509
2487.000000	0.005534
2486.000000	0.005529
2485.000000	0.005493
2484.000000	0.005442
2483.000000	0.005399
2482.000000	0.005376
2481.000000	0.005370
2480.000000	0.005372
2479.000000	0.005383
2478.000000	0.005407
2477.000000	0.005436
2476.000000	0.005457
2475.000000	0.005461
2474.000000	0.005454
2473.000000	0.005441
2472.000000	0.005425
2471.000000	0.005410
2470.000000	0.005404
2469.000000	0.005401
2468.000000	0.005392
2467.000000	0.005377
2466.000000	0.005372
2465.000000	0.005386
2464.000000	0.005406
2463.000000	0.005414
2462.000000	0.005413
2461.000000	0.005419
2460.000000	0.005438
2459.000000	0.005459
2458.000000	0.005472
2457.000000	0.005480
2456.000000	0.005486
2455.000000	0.005481
2454.000000	0.005460
2453.000000	0.005436
2452.000000	0.005430
2451.000000	0.005455
2450.000000	0.005497
2449.000000	0.005526
2448.000000	0.005524
2447.000000	0.005498
2446.000000	0.005470
2445.000000	0.005455
2444.000000	0.005454
2443.000000	0.005456
2442.000000	0.005453
2441.000000	0.005438
2440.000000	0.005405
2439.000000	0.005357
2438.000000	0.005311
2437.000000	0.005289
2436.000000	0.005299
2435.000000	0.005329
2434.000000	0.005359
2433.000000	0.005379
2432.000000	0.005390
2431.000000	0.005399
2430.000000	0.005409
2429.000000	0.005406
2428.000000	0.005379
2427.000000	0.005334
2426.000000	0.005293
2425.000000	0.005272
2424.000000	0.005267
2423.000000	0.005269
2422.000000	0.005284
2421.000000	0.005321
2420.000000	0.005367
2419.000000	0.005396
2418.000000	0.005385
2417.000000	0.005340
2416.000000	0.005290
2415.000000	0.005262
2414.000000	0.005264
2413.000000	0.005281
2412.000000	0.005297
2411.000000	0.005303
2410.000000	0.005307
2409.000000	0.005315
2408.000000	0.005327
2407.000000	0.005337
2406.000000	0.005334
2405.000000	0.005312
2404.000000	0.005271
2403.000000	0.005227
2402.000000	0.005210
2401.000000	0.005234
2400.000000	0.005283
2399.000000	0.005322
2398.000000	0.005331
2397.000000	0.005317
2396.000000	0.005305
2395.000000	0.005320
2394.000000	0.005366
2393.000000	0.005425
2392.000000	0.005463
2391.000000	0.005457
2390.000000	0.005416
2389.000000	0.005369
2388.000000	0.005348
2387.000000	0.005365
2386.000000	0.005408
2385.000000	0.005451
2384.000000	0.005471
2383.000000	0.005463
2382.000000	0.005440
2381.000000	0.005418
2380.000000	0.005405
2379.000000	0.005409
2378.000000	0.005429
2377.000000	0.005455
2376.000000	0.005467
2375.000000	0.005467
2374.000000	0.005473
2373.000000	0.005495
2372.000000	0.005508
2371.000000	0.005477
2370.000000	0.005412
2369.000000	0.005358
2368.000000	0.005353
2367.000000	0.005393
2366.000000	0.005447
2365.000000	0.005486
2364.000000	0.005508
2363.000000	0.005538
2362.000000	0.005591
2361.000000	0.005645
2360.000000	0.005669
2359.000000	0.005659
2358.000000	0.005630
2357.000000	0.005595
2356.000000	0.005566
2355.000000	0.005559
2354.000000	0.005567
2353.000000	0.005562
2352.000000	0.005550
2351.000000	0.005557
2350.000000	0.005590
2349.000000	0.005629
2348.000000	0.005647
2347.000000	0.005624
2346.000000	0.005584
2345.000000	0.005579
2344.000000	0.005620
2343.000000	0.005665
2342.000000	0.005678
2341.000000	0.005662
2340.000000	0.005647
2339.000000	0.005654
2338.000000	0.005668
2337.000000	0.005669
2336.000000	0.005646
2335.000000	0.005596
2334.000000	0.005517
2333.000000	0.005424
2332.000000	0.005362
2331.000000	0.005367
2330.000000	0.005434
2329.000000	0.005522
2328.000000	0.005608
2327.000000	0.005691
2326.000000	0.005771
2325.000000	0.005832
2324.000000	0.005855
2323.000000	0.005830
2322.000000	0.005787
2321.000000	0.005769
2320.000000	0.005798
2319.000000	0.005855
2318.000000	0.005908
2317.000000	0.005933
2316.000000	0.005921
2315.000000	0.005866
2314.000000	0.005780
2313.000000	0.005687
2312.000000	0.005611
2311.000000	0.005560
2310.000000	0.005530
2309.000000	0.005515
2308.000000	0.005504
2307.000000	0.005476
2306.000000	0.005434
2305.000000	0.005401
2304.000000	0.005397
2303.000000	0.005407
2302.000000	0.005401
2301.000000	0.005376
2300.000000	0.005357
2299.000000	0.005364
2298.000000	0.005393
2297.000000	0.005430
2296.000000	0.005469
2295.000000	0.005502
2294.000000	0.005515
2293.000000	0.005500
2292.000000	0.005461
2291.000000	0.005413
2290.000000	0.005372
2289.000000	0.005358
2288.000000	0.005388
2287.000000	0.005453
2286.000000	0.005515
2285.000000	0.005543
2284.000000	0.005541
2283.000000	0.005538
2282.000000	0.005548
2281.000000	0.005555
2280.000000	0.005536
2279.000000	0.005486
2278.000000	0.005420
2277.000000	0.005358
2276.000000	0.005313
2275.000000	0.005287
2274.000000	0.005268
2273.000000	0.005242
2272.000000	0.005210
2271.000000	0.005191
2270.000000	0.005205
2269.000000	0.005253
2268.000000	0.005311
2267.000000	0.005346
2266.000000	0.005338
2265.000000	0.005287
2264.000000	0.005214
2263.000000	0.005149
2262.000000	0.005114
2261.000000	0.005106
2260.000000	0.005094
2259.000000	0.005051
2258.000000	0.004983
2257.000000	0.004924
2256.000000	0.004898
2255.000000	0.004891
2254.000000	0.004875
2253.000000	0.004854
2252.000000	0.004857
2251.000000	0.004897
2250.000000	0.004944
2249.000000	0.004952
2248.000000	0.004915
2247.000000	0.004874
2246.000000	0.004876
2245.000000	0.004920
2244.000000	0.004966
2243.000000	0.004974
2242.000000	0.004929
2241.000000	0.004838
2240.000000	0.004725
2239.000000	0.004637
2238.000000	0.004627
2237.000000	0.004710
2236.000000	0.004836
2235.000000	0.004925
2234.000000	0.004927
2233.000000	0.004853
2232.000000	0.004749
2231.000000	0.004667
2230.000000	0.004634
2229.000000	0.004644
2228.000000	0.004673
2227.000000	0.004702
2226.000000	0.004736
2225.000000	0.004780
2224.000000	0.004824
2223.000000	0.004863
2222.000000	0.004913
2221.000000	0.004984
2220.000000	0.005045
2219.000000	0.005044
2218.000000	0.004978
2217.000000	0.004905
2216.000000	0.004895
2215.000000	0.004954
2214.000000	0.005020
2213.000000	0.005025
2212.000000	0.004956
2211.000000	0.004862
2210.000000	0.004803
2209.000000	0.004780
2208.000000	0.004747
2207.000000	0.004686
2206.000000	0.004647
2205.000000	0.004697
2204.000000	0.004822
2203.000000	0.004920
2202.000000	0.004901
2201.000000	0.004769
2200.000000	0.004618
2199.000000	0.004544
2198.000000	0.004566
2197.000000	0.004624
2196.000000	0.004648
2195.000000	0.004643
2194.000000	0.004665
2193.000000	0.004744
2192.000000	0.004840
2191.000000	0.004903
2190.000000	0.004932
2189.000000	0.004951
2188.000000	0.004953
2187.000000	0.004912
2186.000000	0.004836
2185.000000	0.004744
2184.000000	0.004620
2183.000000	0.004443
2182.000000	0.004261
2181.000000	0.004185
2180.000000	0.004262
2179.000000	0.004429
2178.000000	0.004598
2177.000000	0.004729
2176.000000	0.004817
2175.000000	0.004841
2174.000000	0.004777
2173.000000	0.004643
2172.000000	0.004504
2171.000000	0.004436
2170.000000	0.004469
2169.000000	0.004549
2168.000000	0.004574
2167.000000	0.004493
2166.000000	0.004387
2165.000000	0.004396
2164.000000	0.004560
2163.000000	0.004766
2162.000000	0.004855
2161.000000	0.004748
2160.000000	0.004463
2159.000000	0.004086
2158.000000	0.003751
2157.000000	0.003562
2156.000000	0.003514
2155.000000	0.003520
2154.000000	0.003535
2153.000000	0.003586
2152.000000	0.003716
2151.000000	0.003919
2150.000000	0.004149
2149.000000	0.004361
2148.000000	0.004506
2147.000000	0.004542
2146.000000	0.004468
2145.000000	0.004353
2144.000000	0.004294
2143.000000	0.004329
2142.000000	0.004401
2141.000000	0.004415
2140.000000	0.004328
2139.000000	0.004196
2138.000000	0.004118
2137.000000	0.004144
2136.000000	0.004233
2135.000000	0.004315
2134.000000	0.004364
2133.000000	0.004403
2132.000000	0.004460
2131.000000	0.004527
2130.000000	0.004572
2129.000000	0.004575
2128.000000	0.004549
2127.000000	0.004543
2126.000000	0.004607
2125.000000	0.004735
2124.000000	0.004860
2123.000000	0.004909
2122.000000	0.004866
2121.000000	0.004769
2120.000000	0.004678
2119.000000	0.004637
2118.000000	0.004671
2117.000000	0.004768
2116.000000	0.004874
2115.000000	0.004935
2114.000000	0.004943
2113.000000	0.004930
2112.000000	0.004920
2111.000000	0.004902
2110.000000	0.004861
2109.000000	0.004806
2108.000000	0.004754
2107.000000	0.004719
2106.000000	0.004715
2105.000000	0.004751
2104.000000	0.004813
2103.000000	0.004861
2102.000000	0.004871
2101.000000	0.004860
2100.000000	0.004860
2099.000000	0.004874
2098.000000	0.004875
2097.000000	0.004835
2096.000000	0.004750
2095.000000	0.004649
2094.000000	0.004581
2093.000000	0.004585
2092.000000	0.004663
2091.000000	0.004777
2090.000000	0.004871
2089.000000	0.004904
2088.000000	0.004865
2087.000000	0.004783
2086.000000	0.004703
2085.000000	0.004657
2084.000000	0.004647
2083.000000	0.004665
2082.000000	0.004717
2081.000000	0.004806
2080.000000	0.004905
2079.000000	0.004968
2078.000000	0.004979
2077.000000	0.004968
2076.000000	0.004980
2075.000000	0.005033
2074.000000	0.005112
2073.000000	0.005179
2072.000000	0.005188
2071.000000	0.005108
2070.000000	0.004960
2069.000000	0.004803
2068.000000	0.004678
2067.000000	0.004573
2066.000000	0.004469
2065.000000	0.004389
2064.000000	0.004376
2063.000000	0.004440
2062.000000	0.004548
2061.000000	0.004667
2060.000000	0.004783
2059.000000	0.004880
2058.000000	0.004911
2057.000000	0.004826
2056.000000	0.004621
2055.000000	0.004371
2054.000000	0.004180
2053.000000	0.004111
2052.000000	0.004166
2051.000000	0.004321
2050.000000	0.004543
2049.000000	0.004755
2048.000000	0.004837
2047.000000	0.004727
2046.000000	0.004499
2045.000000	0.004299
2044.000000	0.004191
2043.000000	0.004132
2042.000000	0.004060
2041.000000	0.003969
2040.000000	0.003893
2039.000000	0.003854
2038.000000	0.003876
2037.000000	0.003974
2036.000000	0.004122
2035.000000	0.004247
2034.000000	0.004288
2033.000000	0.004233
2032.000000	0.004099
2031.000000	0.003921
2030.000000	0.003764
2029.000000	0.003704
2028.000000	0.003742
2027.000000	0.003791
2026.000000	0.003770
2025.000000	0.003698
2024.000000	0.003657
2023.000000	0.003688
2022.000000	0.003740
2021.000000	0.003737
2020.000000	0.003674
2019.000000	0.003636
2018.000000	0.003714
2017.000000	0.003896
2016.000000	0.004061
2015.000000	0.004100
2014.000000	0.004022
2013.000000	0.003922
2012.000000	0.003887
2011.000000	0.003930
2010.000000	0.003995
2009.000000	0.003999
2008.000000	0.003898
2007.000000	0.003742
2006.000000	0.003641
2005.000000	0.003661
2004.000000	0.003764
2003.000000	0.003878
2002.000000	0.003973
2001.000000	0.004032
2000.000000	0.004015
1999.000000	0.003906
1998.000000	0.003778
1997.000000	0.003750
1996.000000	0.003876
1995.000000	0.004109
1994.000000	0.004347
1993.000000	0.004491
1992.000000	0.004480
1991.000000	0.004327
1990.000000	0.004118
1989.000000	0.003933
1988.000000	0.003801
1987.000000	0.003727
1986.000000	0.003744
1985.000000	0.003867
1984.000000	0.004055
1983.000000	0.004257
1982.000000	0.004484
1981.000000	0.004753
1980.000000	0.004991
1979.000000	0.005076
1978.000000	0.004984
1977.000000	0.004832
1976.000000	0.004724
1975.000000	0.004641
1974.000000	0.004533
1973.000000	0.004411
1972.000000	0.004306
1971.000000	0.004211
1970.000000	0.004106
1969.000000	0.003996
1968.000000	0.003907
1967.000000	0.003863
1966.000000	0.003909
1965.000000	0.004067
1964.000000	0.004279
1963.000000	0.004421
1962.000000	0.004415
1961.000000	0.004297
1960.000000	0.004156
1959.000000	0.004045
1958.000000	0.003960
1957.000000	0.003893
1956.000000	0.003857
1955.000000	0.003871
1954.000000	0.003941
1953.000000	0.004042
1952.000000	0.004125
1951.000000	0.004140
1950.000000	0.004075
1949.000000	0.003970
1948.000000	0.003889
1947.000000	0.003891
1946.000000	0.003990
1945.000000	0.004134
1944.000000	0.004244
1943.000000	0.004271
1942.000000	0.004239
1941.000000	0.004200
1940.000000	0.004176
1939.000000	0.004164
1938.000000	0.004170
1937.000000	0.004192
1936.000000	0.004206
1935.000000	0.004191
1934.000000	0.004161
1933.000000	0.004135
1932.000000	0.004106
1931.000000	0.004053
1930.000000	0.004006
1929.000000	0.004021
1928.000000	0.004108
1927.000000	0.004211
1926.000000	0.004265
1925.000000	0.004256
1924.000000	0.004216
1923.000000	0.004176
1922.000000	0.004151
1921.000000	0.004129
1920.000000	0.004076
1919.000000	0.003975
1918.000000	0.003863
1917.000000	0.003810
1916.000000	0.003847
1915.000000	0.003939
1914.000000	0.004041
1913.000000	0.004133
1912.000000	0.004208
1911.000000	0.004261
1910.000000	0.004300
1909.000000	0.004332
1908.000000	0.004349
1907.000000	0.004328
1906.000000	0.004267
1905.000000	0.004207
1904.000000	0.004194
1903.000000	0.004230
1902.000000	0.004274
1901.000000	0.004278
1900.000000	0.004225
1899.000000	0.004149
1898.000000	0.004114
1897.000000	0.004155
1896.000000	0.004235
1895.000000	0.004277
1894.000000	0.004249
1893.000000	0.004193
1892.000000	0.004165
1891.000000	0.004172
1890.000000	0.004185
1889.000000	0.004185
1888.000000	0.004185
1887.000000	0.004193
1886.000000	0.004196
1885.000000	0.004178
1884.000000	0.004145
1883.000000	0.004115
1882.000000	0.004108
1881.000000	0.004124
1880.000000	0.004152
1879.000000	0.004178
1878.000000	0.004191
1877.000000	0.004183
1876.000000	0.004158
1875.000000	0.004134
1874.000000	0.004122
1873.000000	0.004105
1872.000000	0.004049
1871.000000	0.003951
1870.000000	0.003853
1869.000000	0.003811
1868.000000	0.003845
1867.000000	0.003936
1866.000000	0.004053
1865.000000	0.004162
1864.000000	0.004222
1863.000000	0.004216
1862.000000	0.004165
1861.000000	0.004112
1860.000000	0.004079
1859.000000	0.004065
1858.000000	0.004058
1857.000000	0.004054
1856.000000	0.004053
1855.000000	0.004057
1854.000000	0.004066
1853.000000	0.004076
1852.000000	0.004069
1851.000000	0.004044
1850.000000	0.004008
1849.000000	0.003962
1848.000000	0.003900
1847.000000	0.003842
1846.000000	0.003838
1845.000000	0.003906
1844.000000	0.003993
1843.000000	0.004030
1842.000000	0.004028
1841.000000	0.004034
1840.000000	0.004057
1839.000000	0.004072
1838.000000	0.004065
1837.000000	0.004061
1836.000000	0.004073
1835.000000	0.004075
1834.000000	0.004041
1833.000000	0.003978
1832.000000	0.003916
1831.000000	0.003889
1830.000000	0.003898
1829.000000	0.003924
1828.000000	0.003955
1827.000000	0.003989
1826.000000	0.004023
1825.000000	0.004047
1824.000000	0.004055
1823.000000	0.004049
1822.000000	0.004038
1821.000000	0.004024
1820.000000	0.004009
1819.000000	0.003996
1818.000000	0.003989
1817.000000	0.003993
1816.000000	0.004006
1815.000000	0.004022
1814.000000	0.004044
1813.000000	0.004070
1812.000000	0.004087
1811.000000	0.004081
1810.000000	0.004063
1809.000000	0.004057
1808.000000	0.004069
1807.000000	0.004076
1806.000000	0.004058
1805.000000	0.004022
1804.000000	0.003989
1803.000000	0.003980
1802.000000	0.004003
1801.000000	0.004036
1800.000000	0.004058
1799.000000	0.004063
1798.000000	0.004066
1797.000000	0.004075
1796.000000	0.004082
1795.000000	0.004079
1794.000000	0.004082
1793.000000	0.004095
1792.000000	0.004101
1791.000000	0.004082
1790.000000	0.004053
1789.000000	0.004033
1788.000000	0.004022
1787.000000	0.004010
1786.000000	0.003999
1785.000000	0.003997
1784.000000	0.004001
1783.000000	0.004006
1782.000000	0.004017
1781.000000	0.004021
1780.000000	0.004002
1779.000000	0.003961
1778.000000	0.003915
1777.000000	0.003868
1776.000000	0.003814
1775.000000	0.003758
1774.000000	0.003725
1773.000000	0.003710
1772.000000	0.003681
1771.000000	0.003637
1770.000000	0.003630
1769.000000	0.003688
1768.000000	0.003765
1767.000000	0.003799
1766.000000	0.003786
1765.000000	0.003768
1764.000000	0.003774
1763.000000	0.003791
1762.000000	0.003801
1761.000000	0.003802
1760.000000	0.003814
1759.000000	0.003852
1758.000000	0.003931
1757.000000	0.004042
1756.000000	0.004149
1755.000000	0.004242
1754.000000	0.004353
1753.000000	0.004505
1752.000000	0.004677
1751.000000	0.004816
1750.000000	0.004910
1749.000000	0.005007
1748.000000	0.005118
1747.000000	0.005219
1746.000000	0.005309
1745.000000	0.005396
1744.000000	0.005468
1743.000000	0.005491
1742.000000	0.005484
1741.000000	0.005513
1740.000000	0.005596
1739.000000	0.005654
1738.000000	0.005643
1737.000000	0.005611
1736.000000	0.005617
1735.000000	0.005651
1734.000000	0.005645
1733.000000	0.005576
1732.000000	0.005498
1731.000000	0.005430
1730.000000	0.005362
1729.000000	0.005284
1728.000000	0.005195
1727.000000	0.005106
1726.000000	0.005029
1725.000000	0.004974
1724.000000	0.004933
1723.000000	0.004865
1722.000000	0.004753
1721.000000	0.004632
1720.000000	0.004545
1719.000000	0.004503
1718.000000	0.004481
1717.000000	0.004475
1716.000000	0.004500
1715.000000	0.004552
1714.000000	0.004623
1713.000000	0.004727
1712.000000	0.004862
1711.000000	0.004999
1710.000000	0.005121
1709.000000	0.005240
1708.000000	0.005380
1707.000000	0.005570
1706.000000	0.005794
1705.000000	0.005993
1704.000000	0.006131
1703.000000	0.006258
1702.000000	0.006467
1701.000000	0.006824
1700.000000	0.007255
1699.000000	0.007640
1698.000000	0.008027
1697.000000	0.008512
1696.000000	0.009044
1695.000000	0.009484
1694.000000	0.009820
1693.000000	0.010145
1692.000000	0.010512
1691.000000	0.010889
1690.000000	0.011227
1689.000000	0.011512
1688.000000	0.011762
1687.000000	0.012030
1686.000000	0.012384
1685.000000	0.012881
1684.000000	0.013403
1683.000000	0.013799
1682.000000	0.014175
1681.000000	0.014626
1680.000000	0.015097
1679.000000	0.015494
1678.000000	0.015829
1677.000000	0.016212
1676.000000	0.016704
1675.000000	0.017228
1674.000000	0.017690
1673.000000	0.018111
1672.000000	0.018568
1671.000000	0.019085
1670.000000	0.019643
1669.000000	0.020207
1668.000000	0.020737
1667.000000	0.021204
1666.000000	0.021624
1665.000000	0.022065
1664.000000	0.022569
1663.000000	0.023089
1662.000000	0.023555
1661.000000	0.023973
1660.000000	0.024380
1659.000000	0.024761
1658.000000	0.025060
1657.000000	0.025274
1656.000000	0.025473
1655.000000	0.025742
1654.000000	0.026116
1653.000000	0.026499
1652.000000	0.026794
1651.000000	0.027013
1650.000000	0.027209
1649.000000	0.027465
1648.000000	0.027762
1647.000000	0.027984
1646.000000	0.028082
1645.000000	0.028173
1644.000000	0.028317
1643.000000	0.028476
1642.000000	0.028608
1641.000000	0.028677
1640.000000	0.028670
1639.000000	0.028620
1638.000000	0.028575
1637.000000	0.028555
1636.000000	0.028503
1635.000000	0.028382
1634.000000	0.028260
1633.000000	0.028198
1632.000000	0.028161
1631.000000	0.028077
1630.000000	0.027899
1629.000000	0.027630
1628.000000	0.027305
1627.000000	0.026955
1626.000000	0.026606
1625.000000	0.026252
1624.000000	0.025862
1623.000000	0.025405
1622.000000	0.024920
1621.000000	0.024477
1620.000000	0.024100
1619.000000	0.023747
1618.000000	0.023325
1617.000000	0.022763
1616.000000	0.022118
1615.000000	0.021540
1614.000000	0.021085
1613.000000	0.020708
1612.000000	0.020337
1611.000000	0.019932
1610.000000	0.019509
1609.000000	0.019093
1608.000000	0.018694
1607.000000	0.018318
1606.000000	0.017977
1605.000000	0.017659
1604.000000	0.017351
1603.000000	0.017051
1602.000000	0.016768
1601.000000	0.016512
1600.000000	0.016290
1599.000000	0.016099
1598.000000	0.015930
1597.000000	0.015775
1596.000000	0.015634
1595.000000	0.015522
1594.000000	0.015445
1593.000000	0.015392
1592.000000	0.015354
1591.000000	0.015332
1590.000000	0.015331
1589.000000	0.015350
1588.000000	0.015381
1587.000000	0.015425
1586.000000	0.015481
1585.000000	0.015552
1584.000000	0.015642
1583.000000	0.015770
1582.000000	0.015924
1581.000000	0.016062
1580.000000	0.016169
1579.000000	0.016292
1578.000000	0.016476
1577.000000	0.016696
1576.000000	0.016864
1575.000000	0.016948
1574.000000	0.017010
1573.000000	0.017099
1572.000000	0.017232
1571.000000	0.017407
1570.000000	0.017621
1569.000000	0.017851
1568.000000	0.018087
1567.000000	0.018350
1566.000000	0.018643
1565.000000	0.018936
1564.000000	0.019168
1563.000000	0.019330
1562.000000	0.019458
1561.000000	0.019601
1560.000000	0.019839
1559.000000	0.020143
1558.000000	0.020355
1557.000000	0.020615
1556.000000	0.020968
1555.000000	0.021353
1554.000000	0.021702
1553.000000	0.021988
1552.000000	0.022250
1551.000000	0.022525
1550.000000	0.022782
1549.000000	0.022978
1548.000000	0.023119
1547.000000	0.023243
1546.000000	0.023362
1545.000000	0.023453
1544.000000	0.023493
1543.000000	0.023509
1542.000000	0.023557
1541.000000	0.023659
1540.000000	0.023754
1539.000000	0.023795
1538.000000	0.023820
1537.000000	0.023834
1536.000000	0.023831
1535.000000	0.023800
1534.000000	0.023720
1533.000000	0.023597
1532.000000	0.023507
1531.000000	0.023480
1530.000000	0.023462
1529.000000	0.023407
1528.000000	0.023304
1527.000000	0.023163
1526.000000	0.022992
1525.000000	0.022809
1524.000000	0.022646
1523.000000	0.022508
1522.000000	0.022346
1521.000000	0.022120
1520.000000	0.021900
1519.000000	0.021772
1518.000000	0.021732
1517.000000	0.021706
1516.000000	0.021628
1515.000000	0.021512
1514.000000	0.021387
1513.000000	0.021228
1512.000000	0.021002
1511.000000	0.020724
1510.000000	0.020451
1509.000000	0.020219
1508.000000	0.019978
1507.000000	0.019590
1506.000000	0.019098
1505.000000	0.018759
1504.000000	0.018580
1503.000000	0.018445
1502.000000	0.018282
1501.000000	0.018057
1500.000000	0.017777
1499.000000	0.017487
1498.000000	0.017214
1497.000000	0.016954
1496.000000	0.016700
1495.000000	0.016457
1494.000000	0.016239
1493.000000	0.016038
1492.000000	0.015836
1491.000000	0.015617
1490.000000	0.015397
1489.000000	0.015221
1488.000000	0.015121
1487.000000	0.015071
1486.000000	0.015038
1485.000000	0.015023
1484.000000	0.015031
1483.000000	0.015068
1482.000000	0.015121
1481.000000	0.015183
1480.000000	0.015254
1479.000000	0.015347
1478.000000	0.015471
1477.000000	0.015620
1476.000000	0.015778
1475.000000	0.015950
1474.000000	0.016184
1473.000000	0.016499
1472.000000	0.016851
1471.000000	0.017189
1470.000000	0.017509
1469.000000	0.017811
1468.000000	0.018079
1467.000000	0.018310
1466.000000	0.018526
1465.000000	0.018738
1464.000000	0.018937
1463.000000	0.019122
1462.000000	0.019292
1461.000000	0.019438
1460.000000	0.019563
1459.000000	0.019713
1458.000000	0.019953
1457.000000	0.020273
1456.000000	0.020578
1455.000000	0.020833
1454.000000	0.021071
1453.000000	0.021308
1452.000000	0.021503
1451.000000	0.021615
1450.000000	0.021668
1449.000000	0.021706
1448.000000	0.021740
1447.000000	0.021758
1446.000000	0.021779
1445.000000	0.021796
1444.000000	0.021791
1443.000000	0.021760
1442.000000	0.021715
1441.000000	0.021659
1440.000000	0.021577
1439.000000	0.021473
1438.000000	0.021366
1437.000000	0.021269
1436.000000	0.021167
1435.000000	0.021076
1434.000000	0.021027
1433.000000	0.021010
1432.000000	0.020974
1431.000000	0.020886
1430.000000	0.020772
1429.000000	0.020677
1428.000000	0.020610
1427.000000	0.020558
1426.000000	0.020528
1425.000000	0.020508
1424.000000	0.020454
1423.000000	0.020342
1422.000000	0.020214
1421.000000	0.020122
1420.000000	0.020082
1419.000000	0.020073
1418.000000	0.020072
1417.000000	0.020082
1416.000000	0.020091
1415.000000	0.020069
1414.000000	0.020017
1413.000000	0.019960
1412.000000	0.019910
1411.000000	0.019855
1410.000000	0.019793
1409.000000	0.019739
1408.000000	0.019696
1407.000000	0.019651
1406.000000	0.019602
1405.000000	0.019551
1404.000000	0.019490
1403.000000	0.019415
1402.000000	0.019339
1401.000000	0.019274
1400.000000	0.019207
1399.000000	0.019116
1398.000000	0.019000
1397.000000	0.018886
1396.000000	0.018781
1395.000000	0.018672
1394.000000	0.018563
1393.000000	0.018466
1392.000000	0.018370
1391.000000	0.018254
1390.000000	0.018122
1389.000000	0.017994
1388.000000	0.017870
1387.000000	0.017728
1386.000000	0.017567
1385.000000	0.017413
1384.000000	0.017278
1383.000000	0.017143
1382.000000	0.016990
1381.000000	0.016821
1380.000000	0.016646
1379.000000	0.016469
1378.000000	0.016289
1377.000000	0.016110
1376.000000	0.015925
1375.000000	0.015720
1374.000000	0.015496
1373.000000	0.015277
1372.000000	0.015085
1371.000000	0.014920
1370.000000	0.014766
1369.000000	0.014603
1368.000000	0.014412
1367.000000	0.014184
1366.000000	0.013933
1365.000000	0.013690
1364.000000	0.013485
1363.000000	0.013329
1362.000000	0.013213
1361.000000	0.013126
1360.000000	0.013059
1359.000000	0.013003
1358.000000	0.012947
1357.000000	0.012887
1356.000000	0.012832
1355.000000	0.012796
1354.000000	0.012794
1353.000000	0.012831
1352.000000	0.012897
1351.000000	0.012975
1350.000000	0.013049
1349.000000	0.013113
1348.000000	0.013172
1347.000000	0.013241
1346.000000	0.013336
1345.000000	0.013457
1344.000000	0.013594
1343.000000	0.013729
1342.000000	0.013851
1341.000000	0.013962
1340.000000	0.014058
1339.000000	0.014132
1338.000000	0.014186
1337.000000	0.014233
1336.000000	0.014273
1335.000000	0.014290
1334.000000	0.014271
1333.000000	0.014220
1332.000000	0.014153
1331.000000	0.014084
1330.000000	0.014012
1329.000000	0.013938
1328.000000	0.013858
1327.000000	0.013771
1326.000000	0.013680
1325.000000	0.013595
1324.000000	0.013529
1323.000000	0.013486
1322.000000	0.013462
1321.000000	0.013450
1320.000000	0.013441
1319.000000	0.013423
1318.000000	0.013383
1317.000000	0.013328
1316.000000	0.013270
1315.000000	0.013219
1314.000000	0.013168
1313.000000	0.013108
1312.000000	0.013038
1311.000000	0.012961
1310.000000	0.012881
1309.000000	0.012802
1308.000000	0.012723
1307.000000	0.012646
1306.000000	0.012567
1305.000000	0.012485
1304.000000	0.012400
1303.000000	0.012314
1302.000000	0.012230
1301.000000	0.012156
1300.000000	0.012094
1299.000000	0.012044
1298.000000	0.012000
1297.000000	0.011959
1296.000000	0.011926
1295.000000	0.011911
1294.000000	0.011919
1293.000000	0.011956
1292.000000	0.012016
1291.000000	0.012083
1290.000000	0.012150
1289.000000	0.012219
1288.000000	0.012298
1287.000000	0.012384
1286.000000	0.012462
1285.000000	0.012527
1284.000000	0.012587
1283.000000	0.012658
1282.000000	0.012741
1281.000000	0.012826
1280.000000	0.012899
1279.000000	0.012950
1278.000000	0.012985
1277.000000	0.013016
1276.000000	0.013048
1275.000000	0.013068
1274.000000	0.013061
1273.000000	0.013031
1272.000000	0.012996
1271.000000	0.012976
1270.000000	0.012980
1269.000000	0.013013
1268.000000	0.013076
1267.000000	0.013161
1266.000000	0.013250
1265.000000	0.013336
1264.000000	0.013431
1263.000000	0.013541
1262.000000	0.013652
1261.000000	0.013746
1260.000000	0.013825
1259.000000	0.013908
1258.000000	0.014006
1257.000000	0.014108
1256.000000	0.014201
1255.000000	0.014280
1254.000000	0.014357
1253.000000	0.014447
1252.000000	0.014557
1251.000000	0.014677
1250.000000	0.014791
1249.000000	0.014892
1248.000000	0.014988
1247.000000	0.015095
1246.000000	0.015219
1245.000000	0.015347
1244.000000	0.015455
1243.000000	0.015532
1242.000000	0.015586
1241.000000	0.015635
1240.000000	0.015687
1239.000000	0.015732
1238.000000	0.015755
1237.000000	0.015747
1236.000000	0.015708
1235.000000	0.015647
1234.000000	0.015569
1233.000000	0.015471
1232.000000	0.015348
1231.000000	0.015202
1230.000000	0.015044
1229.000000	0.014882
1228.000000	0.014708
1227.000000	0.014509
1226.000000	0.014285
1225.000000	0.014052
1224.000000	0.013823
1223.000000	0.013598
1222.000000	0.013362
1221.000000	0.013111
1220.000000	0.012853
1219.000000	0.012606
1218.000000	0.012387
1217.000000	0.012212
1216.000000	0.012091
1215.000000	0.012019
1214.000000	0.011970
1213.000000	0.011918
1212.000000	0.011858
1211.000000	0.011809
1210.000000	0.011794
1209.000000	0.011818
1208.000000	0.011864
1207.000000	0.011912
1206.000000	0.011950
1205.000000	0.011980
1204.000000	0.012002
1203.000000	0.012012
1202.000000	0.012001
1201.000000	0.011961
1200.000000	0.011892
1199.000000	0.011805
1198.000000	0.011718
1197.000000	0.011642
1196.000000	0.011576
1195.000000	0.011502
1194.000000	0.011402
1193.000000	0.011275
1192.000000	0.011138
1191.000000	0.011015
1190.000000	0.010911
1189.000000	0.010821
1188.000000	0.010737
1187.000000	0.010657
1186.000000	0.010578
1185.000000	0.010500
1184.000000	0.010427
1183.000000	0.010371
1182.000000	0.010342
1181.000000	0.010335
1180.000000	0.010340
1179.000000	0.010357
1178.000000	0.010387
1177.000000	0.010428
1176.000000	0.010473
1175.000000	0.010512
1174.000000	0.010544
1173.000000	0.010575
1172.000000	0.010613
1171.000000	0.010659
1170.000000	0.010715
1169.000000	0.010779
1168.000000	0.010853
1167.000000	0.010936
1166.000000	0.011022
1165.000000	0.011107
1164.000000	0.011184
1163.000000	0.011255
1162.000000	0.011317
1161.000000	0.011359
1160.000000	0.011368
1159.000000	0.011335
1158.000000	0.011263
1157.000000	0.011165
1156.000000	0.011055
1155.000000	0.010943
1154.000000	0.010835
1153.000000	0.010731
1152.000000	0.010622
1151.000000	0.010500
1150.000000	0.010366
1149.000000	0.010230
1148.000000	0.010103
1147.000000	0.009987
1146.000000	0.009871
1145.000000	0.009740
1144.000000	0.009586
1143.000000	0.009420
1142.000000	0.009267
1141.000000	0.009149
1140.000000	0.009062
1139.000000	0.008988
1138.000000	0.008912
1137.000000	0.008842
1136.000000	0.008789
1135.000000	0.008755
1134.000000	0.008727
1133.000000	0.008696
1132.000000	0.008668
1131.000000	0.008657
1130.000000	0.008666
1129.000000	0.008689
1128.000000	0.008718
1127.000000	0.008748
1126.000000	0.008783
1125.000000	0.008831
1124.000000	0.008891
1123.000000	0.008946
1122.000000	0.008977
1121.000000	0.008984
1120.000000	0.008995
1119.000000	0.009029
1118.000000	0.009079
1117.000000	0.009132
1116.000000	0.009191
1115.000000	0.009275
1114.000000	0.009384
1113.000000	0.009499
1112.000000	0.009599
1111.000000	0.009682
1110.000000	0.009755
1109.000000	0.009821
1108.000000	0.009877
1107.000000	0.009921
1106.000000	0.009960
1105.000000	0.009999
1104.000000	0.010036
1103.000000	0.010067
1102.000000	0.010094
1101.000000	0.010125
1100.000000	0.010168
1099.000000	0.010226
1098.000000	0.010291
1097.000000	0.010358
1096.000000	0.010427
1095.000000	0.010505
1094.000000	0.010594
1093.000000	0.010687
1092.000000	0.010784
1091.000000	0.010894
1090.000000	0.011024
1089.000000	0.011172
1088.000000	0.011325
1087.000000	0.011472
1086.000000	0.011616
1085.000000	0.011763
1084.000000	0.011904
1083.000000	0.012017
1082.000000	0.012084
1081.000000	0.012109
1080.000000	0.012112
1079.000000	0.012108
1078.000000	0.012087
1077.000000	0.012030
1076.000000	0.011933
1075.000000	0.011804
1074.000000	0.011659
1073.000000	0.011513
1072.000000	0.011382
1071.000000	0.011285
1070.000000	0.011237
1069.000000	0.011233
1068.000000	0.011252
1067.000000	0.011274
1066.000000	0.011287
1065.000000	0.011291
1064.000000	0.011297
1063.000000	0.011322
1062.000000	0.011375
1061.000000	0.011454
1060.000000	0.011532
1059.000000	0.011580
1058.000000	0.011583
1057.000000	0.011552
1056.000000	0.011518
1055.000000	0.011508
1054.000000	0.011528
1053.000000	0.011564
1052.000000	0.011595
1051.000000	0.011617
1050.000000	0.011643
1049.000000	0.011679
1048.000000	0.011723
1047.000000	0.011768
1046.000000	0.011809
1045.000000	0.011840
1044.000000	0.011852
1043.000000	0.011845
1042.000000	0.011841
1041.000000	0.011866
1040.000000	0.011933
1039.000000	0.012042
1038.000000	0.012189
1037.000000	0.012374
1036.000000	0.012581
1035.000000	0.012781
1034.000000	0.012954
1033.000000	0.013111
1032.000000	0.013271
1031.000000	0.013433
1030.000000	0.013581
1029.000000	0.013699
1028.000000	0.013794
1027.000000	0.013880
1026.000000	0.013962
1025.000000	0.014040
1024.000000	0.014129
1023.000000	0.014261
1022.000000	0.014455
1021.000000	0.014691
1020.000000	0.014917
1019.000000	0.015093
1018.000000	0.015203
1017.000000	0.015243
1016.000000	0.015195
1015.000000	0.015037
1014.000000	0.014778
1013.000000	0.014456
1012.000000	0.014117
1011.000000	0.013788
1010.000000	0.013475
1009.000000	0.013171
1008.000000	0.012863
1007.000000	0.012546
1006.000000	0.012227
1005.000000	0.011927
1004.000000	0.011666
1003.000000	0.011444
1002.000000	0.011248
1001.000000	0.011060
1000.000000	0.010870
999.000000	0.010680
998.000000	0.010498
997.000000	0.010329
996.000000	0.010170
995.000000	0.010006
994.000000	0.009830
993.000000	0.009651
992.000000	0.009482
991.000000	0.009329
990.000000	0.009189
989.000000	0.009050
988.000000	0.008913
987.000000	0.008784
986.000000	0.008671
985.000000	0.008567
984.000000	0.008464
983.000000	0.008357
982.000000	0.008249
981.000000	0.008144
980.000000	0.008045
979.000000	0.007952
978.000000	0.007865
977.000000	0.007781
976.000000	0.007706
975.000000	0.007650
974.000000	0.007618
973.000000	0.007596
972.000000	0.007556
971.000000	0.007476
970.000000	0.007365
969.000000	0.007248
968.000000	0.007143
967.000000	0.007051
966.000000	0.006965
965.000000	0.006878
964.000000	0.006788
963.000000	0.006693
962.000000	0.006600
961.000000	0.006518
960.000000	0.006451
959.000000	0.006390
958.000000	0.006324
957.000000	0.006246
956.000000	0.006163
955.000000	0.006089
954.000000	0.006031
953.000000	0.005989
952.000000	0.005948
951.000000	0.005894
950.000000	0.005817
949.000000	0.005722
948.000000	0.005626
947.000000	0.005550
946.000000	0.005506
945.000000	0.005495
944.000000	0.005502
943.000000	0.005508
942.000000	0.005499
941.000000	0.005475
940.000000	0.005445
939.000000	0.005421
938.000000	0.005399
937.000000	0.005368
936.000000	0.005321
935.000000	0.005263
934.000000	0.005208
933.000000	0.005167
932.000000	0.005137
931.000000	0.005103
930.000000	0.005058
929.000000	0.005010
928.000000	0.004982
927.000000	0.004986
926.000000	0.005013
925.000000	0.005038
924.000000	0.005039
923.000000	0.005010
922.000000	0.004961
921.000000	0.004906
920.000000	0.004852
919.000000	0.004793
918.000000	0.004722
917.000000	0.004642
916.000000	0.004566
915.000000	0.004505
914.000000	0.004456
913.000000	0.004410
912.000000	0.004358
911.000000	0.004296
910.000000	0.004225
909.000000	0.004157
908.000000	0.004110
907.000000	0.004093
906.000000	0.004099
905.000000	0.004108
904.000000	0.004103
903.000000	0.004080
902.000000	0.004046
901.000000	0.004008
900.000000	0.003972
899.000000	0.003938
898.000000	0.003895
897.000000	0.003832
896.000000	0.003757
895.000000	0.003697
894.000000	0.003673
893.000000	0.003676
892.000000	0.003674
891.000000	0.003652
890.000000	0.003628
889.000000	0.003635
888.000000	0.003694
887.000000	0.003807
886.000000	0.003966
885.000000	0.004164
884.000000	0.004400
883.000000	0.004677
882.000000	0.005004
881.000000	0.005394
880.000000	0.005847
879.000000	0.006336
878.000000	0.006804
877.000000	0.007176
876.000000	0.007377
875.000000	0.007370
874.000000	0.007169
873.000000	0.006829
872.000000	0.006407
871.000000	0.005949
870.000000	0.005501
869.000000	0.005109
868.000000	0.004804
867.000000	0.004590
866.000000	0.004452
865.000000	0.004372
864.000000	0.004330
863.000000	0.004293
862.000000	0.004231
861.000000	0.004137
860.000000	0.004037
859.000000	0.003968
858.000000	0.003951
857.000000	0.003981
856.000000	0.004036
855.000000	0.004089
854.000000	0.004119
853.000000	0.004125
852.000000	0.004116
851.000000	0.004101
850.000000	0.004082
849.000000	0.004058
848.000000	0.004027
847.000000	0.003993
846.000000	0.003967
845.000000	0.003960
844.000000	0.003970
843.000000	0.003976
842.000000	0.003960
841.000000	0.003929
840.000000	0.003903
839.000000	0.003892
838.000000	0.003890
837.000000	0.003882
836.000000	0.003858
835.000000	0.003818
834.000000	0.003766
833.000000	0.003715
832.000000	0.003674
831.000000	0.003644
830.000000	0.003630
829.000000	0.003649
828.000000	0.003703
827.000000	0.003765
826.000000	0.003792
825.000000	0.003774
824.000000	0.003743
823.000000	0.003739
822.000000	0.003773
821.000000	0.003828
820.000000	0.003869
819.000000	0.003861
818.000000	0.003790
817.000000	0.003689
816.000000	0.003621
815.000000	0.003626
814.000000	0.003687
813.000000	0.003753
812.000000	0.003788
811.000000	0.003785
810.000000	0.003758
809.000000	0.003731
808.000000	0.003725
807.000000	0.003738
806.000000	0.003747
805.000000	0.003728
804.000000	0.003686
803.000000	0.003645
802.000000	0.003625
801.000000	0.003628
800.000000	0.003644
799.000000	0.003664
798.000000	0.003699
797.000000	0.003768
796.000000	0.003865
795.000000	0.003945
794.000000	0.003953
793.000000	0.003896
792.000000	0.003841
791.000000	0.003844
790.000000	0.003894
789.000000	0.003931
788.000000	0.003920
787.000000	0.003880
786.000000	0.003844
785.000000	0.003825
784.000000	0.003813
783.000000	0.003802
782.000000	0.003798
781.000000	0.003812
780.000000	0.003840
779.000000	0.003863
778.000000	0.003862
777.000000	0.003832
776.000000	0.003787
775.000000	0.003748
774.000000	0.003727
773.000000	0.003722
772.000000	0.003717
771.000000	0.003699
770.000000	0.003681
769.000000	0.003691
768.000000	0.003734
767.000000	0.003772
766.000000	0.003755
765.000000	0.003686
764.000000	0.003622
763.000000	0.003621
762.000000	0.003679
761.000000	0.003755
760.000000	0.003823
759.000000	0.003884
758.000000	0.003938
757.000000	0.003972
756.000000	0.003973
755.000000	0.003943
754.000000	0.003892
753.000000	0.003836
752.000000	0.003790
751.000000	0.003766
750.000000	0.003770
749.000000	0.003797
748.000000	0.003832
747.000000	0.003854
746.000000	0.003855
745.000000	0.003847
744.000000	0.003856
743.000000	0.003893
742.000000	0.003948
741.000000	0.004005
740.000000	0.004051
739.000000	0.004078
738.000000	0.004083
737.000000	0.004079
736.000000	0.004088
735.000000	0.004114
734.000000	0.004135
733.000000	0.004141
732.000000	0.004141
731.000000	0.004146
730.000000	0.004143
729.000000	0.004126
728.000000	0.004122
727.000000	0.004162
726.000000	0.004242
725.000000	0.004330
724.000000	0.004410
723.000000	0.004493
722.000000	0.004589
721.000000	0.004697
720.000000	0.004794
719.000000	0.004859
718.000000	0.004889
717.000000	0.004916
716.000000	0.004990
715.000000	0.005129
714.000000	0.005294
713.000000	0.005420
712.000000	0.005478
711.000000	0.005478
710.000000	0.005443
709.000000	0.005396
708.000000	0.005364
707.000000	0.005364
706.000000	0.005385
705.000000	0.005414
704.000000	0.005457
703.000000	0.005526
702.000000	0.005614
701.000000	0.005692
700.000000	0.005747
699.000000	0.005779
698.000000	0.005779
697.000000	0.005740
696.000000	0.005681
695.000000	0.005648
694.000000	0.005644
693.000000	0.005623
692.000000	0.005572
691.000000	0.005541
690.000000	0.005590
689.000000	0.005714
688.000000	0.005846
687.000000	0.005941
686.000000	0.005992
685.000000	0.006004
684.000000	0.005986
683.000000	0.005955
682.000000	0.005926
681.000000	0.005913
680.000000	0.005930
679.000000	0.005976
678.000000	0.006013
677.000000	0.006038
676.000000	0.006104
675.000000	0.006257
674.000000	0.006453
673.000000	0.006584
672.000000	0.006584
671.000000	0.006465
670.000000	0.006277
669.000000	0.006094
668.000000	0.006096
667.000000	0.006362
666.000000	0.006542
665.000000	0.006593
664.000000	0.006602
663.000000	0.006565
662.000000	0.006483
661.000000	0.006404
660.000000	0.006366
659.000000	0.006350
658.000000	0.006303
657.000000	0.006234
656.000000	0.006190
655.000000	0.006190
654.000000	0.006220
653.000000	0.006261
652.000000	0.006285
651.000000	0.006277
650.000000	0.006269
649.000000	0.006301
648.000000	0.006339
647.000000	0.006301
646.000000	0.006180
645.000000	0.006070
644.000000	0.006041
643.000000	0.006078
642.000000	0.006126
641.000000	0.006174
640.000000	0.006236
639.000000	0.006296
638.000000	0.006305
637.000000	0.006240
636.000000	0.006115
635.000000	0.005971
634.000000	0.005849
633.000000	0.005768
632.000000	0.005724
631.000000	0.005725
630.000000	0.005797
629.000000	0.005932
628.000000	0.006064
627.000000	0.006131
626.000000	0.006146
625.000000	0.006167
624.000000	0.006203
623.000000	0.006219
622.000000	0.006204
621.000000	0.006181
620.000000	0.006165
619.000000	0.006147
618.000000	0.006136
617.000000	0.006141
616.000000	0.006139
615.000000	0.006099
614.000000	0.006049
613.000000	0.006051
612.000000	0.006120
611.000000	0.006203
610.000000	0.006262
609.000000	0.006296
608.000000	0.006291
607.000000	0.006210
606.000000	0.006079
605.000000	0.005995
604.000000	0.006016
603.000000	0.006104
602.000000	0.006185
601.000000	0.006215
600.000000	0.006168
599.000000	0.006023
598.000000	0.005825
597.000000	0.005685
596.000000	0.005669
595.000000	0.005721
594.000000	0.005745
593.000000	0.005730
592.000000	0.005734
591.000000	0.005782
590.000000	0.005825
589.000000	0.005805
588.000000	0.005705
587.000000	0.005549
586.000000	0.005390
585.000000	0.005289
584.000000	0.005281
583.000000	0.005339
582.000000	0.005416
581.000000	0.005490
580.000000	0.005548
579.000000	0.005556
578.000000	0.005470
577.000000	0.005297
576.000000	0.005117
575.000000	0.005041
574.000000	0.005145
573.000000	0.005414
572.000000	0.005744
571.000000	0.005998
570.000000	0.006093
569.000000	0.006045
568.000000	0.005923
567.000000	0.005799
566.000000	0.005746
565.000000	0.005817
564.000000	0.005982
563.000000	0.006128
562.000000	0.006156
561.000000	0.006070
560.000000	0.005961
559.000000	0.005916
558.000000	0.005970
557.000000	0.006098
556.000000	0.006232
555.000000	0.006304
554.000000	0.006303
553.000000	0.006267
552.000000	0.006229
551.000000	0.006193
550.000000	0.006171
549.000000	0.006182
548.000000	0.006217
547.000000	0.006232
546.000000	0.006207
545.000000	0.006166
544.000000	0.006118
543.000000	0.006053
542.000000	0.006007
541.000000	0.006046
540.000000	0.006159
539.000000	0.006231
538.000000	0.006188
537.000000	0.006110
536.000000	0.006145
535.000000	0.006335
534.000000	0.006589
533.000000	0.006778
532.000000	0.006819
531.000000	0.006694
530.000000	0.006463
529.000000	0.006225
528.000000	0.006045
527.000000	0.005921
526.000000	0.005819
525.000000	0.005727
524.000000	0.005648
523.000000	0.005599
522.000000	0.005615
521.000000	0.005692
520.000000	0.005728
519.000000	0.005592
518.000000	0.005301
517.000000	0.005046
516.000000	0.004976
515.000000	0.005055
514.000000	0.005166
513.000000	0.005239
512.000000	0.005239
511.000000	0.005133
510.000000	0.004968
509.000000	0.004888
508.000000	0.004986
507.000000	0.005165
506.000000	0.005249
505.000000	0.005181
504.000000	0.005029
503.000000	0.004857
502.000000	0.004706
501.000000	0.004628
500.000000	0.004638
499.000000	0.004651
498.000000	0.004561
497.000000	0.004376
496.000000	0.004202
495.000000	0.004113
494.000000	0.004093
493.000000	0.004089
492.000000	0.004061
491.000000	0.003983
490.000000	0.003867
489.000000	0.003773
488.000000	0.003741
487.000000	0.003739
486.000000	0.003721
485.000000	0.003699
484.000000	0.003717
483.000000	0.003777
482.000000	0.003867
481.000000	0.004014
480.000000	0.004230
479.000000	0.004432
478.000000	0.004502
477.000000	0.004423
476.000000	0.004276
475.000000	0.004151
474.000000	0.004119
473.000000	0.004233
472.000000	0.004454
471.000000	0.004636
470.000000	0.004707
469.000000	0.004792
468.000000	0.005060
467.000000	0.005496
466.000000	0.005894
465.000000	0.006073
464.000000	0.005973
463.000000	0.005592
462.000000	0.004975
461.000000	0.004263
460.000000	0.003647
459.000000	0.003285
458.000000	0.003260
457.000000	0.003491
456.000000	0.003719
455.000000	0.003737
454.000000	0.003607
453.000000	0.003596
452.000000	0.003827
451.000000	0.004053
450.000000	0.003899
