PE IR       SUBTECH     SPECTRUM    ASCII       PEDS        4.00        
   -1
3G-N10-F020_1.ASC
22/02/24
10:45:04.00
22/02/24
11:04:21.00
uco
Sample 020 By uco Date Thursday, February 24 2022
450.000000
#HDR
-1
-1
#GR
cm-1
A
1.0
0.0
4000.000000
-1.000000
3551
8
0.046175
0.006652
#DATA
4000.000000	0.007191
3999.000000	0.007217
3998.000000	0.007240
3997.000000	0.007256
3996.000000	0.007261
3995.000000	0.007258
3994.000000	0.007250
3993.000000	0.007244
3992.000000	0.007242
3991.000000	0.007242
3990.000000	0.007242
3989.000000	0.007242
3988.000000	0.007242
3987.000000	0.007244
3986.000000	0.007250
3985.000000	0.007261
3984.000000	0.007278
3983.000000	0.007299
3982.000000	0.007321
3981.000000	0.007338
3980.000000	0.007346
3979.000000	0.007346
3978.000000	0.007339
3977.000000	0.007328
3976.000000	0.007313
3975.000000	0.007299
3974.000000	0.007291
3973.000000	0.007290
3972.000000	0.007290
3971.000000	0.007286
3970.000000	0.007279
3969.000000	0.007280
3968.000000	0.007298
3967.000000	0.007328
3966.000000	0.007356
3965.000000	0.007370
3964.000000	0.007372
3963.000000	0.007368
3962.000000	0.007365
3961.000000	0.007359
3960.000000	0.007348
3959.000000	0.007332
3958.000000	0.007318
3957.000000	0.007314
3956.000000	0.007325
3955.000000	0.007347
3954.000000	0.007368
3953.000000	0.007377
3952.000000	0.007373
3951.000000	0.007363
3950.000000	0.007351
3949.000000	0.007339
3948.000000	0.007323
3947.000000	0.007301
3946.000000	0.007275
3945.000000	0.007255
3944.000000	0.007256
3943.000000	0.007287
3942.000000	0.007347
3941.000000	0.007415
3940.000000	0.007462
3939.000000	0.007465
3938.000000	0.007428
3937.000000	0.007374
3936.000000	0.007333
3935.000000	0.007322
3934.000000	0.007340
3933.000000	0.007371
3932.000000	0.007402
3931.000000	0.007423
3930.000000	0.007432
3929.000000	0.007426
3928.000000	0.007403
3927.000000	0.007372
3926.000000	0.007346
3925.000000	0.007334
3924.000000	0.007335
3923.000000	0.007340
3922.000000	0.007341
3921.000000	0.007332
3920.000000	0.007317
3919.000000	0.007304
3918.000000	0.007301
3917.000000	0.007309
3916.000000	0.007325
3915.000000	0.007341
3914.000000	0.007350
3913.000000	0.007350
3912.000000	0.007346
3911.000000	0.007343
3910.000000	0.007346
3909.000000	0.007356
3908.000000	0.007369
3907.000000	0.007381
3906.000000	0.007393
3905.000000	0.007405
3904.000000	0.007422
3903.000000	0.007441
3902.000000	0.007461
3901.000000	0.007479
3900.000000	0.007493
3899.000000	0.007501
3898.000000	0.007498
3897.000000	0.007486
3896.000000	0.007466
3895.000000	0.007446
3894.000000	0.007430
3893.000000	0.007426
3892.000000	0.007432
3891.000000	0.007446
3890.000000	0.007457
3889.000000	0.007465
3888.000000	0.007466
3887.000000	0.007460
3886.000000	0.007445
3885.000000	0.007430
3884.000000	0.007419
3883.000000	0.007411
3882.000000	0.007402
3881.000000	0.007394
3880.000000	0.007395
3879.000000	0.007411
3878.000000	0.007438
3877.000000	0.007465
3876.000000	0.007478
3875.000000	0.007470
3874.000000	0.007448
3873.000000	0.007431
3872.000000	0.007432
3871.000000	0.007450
3870.000000	0.007477
3869.000000	0.007503
3868.000000	0.007523
3867.000000	0.007540
3866.000000	0.007553
3865.000000	0.007559
3864.000000	0.007552
3863.000000	0.007529
3862.000000	0.007493
3861.000000	0.007456
3860.000000	0.007431
3859.000000	0.007422
3858.000000	0.007426
3857.000000	0.007435
3856.000000	0.007443
3855.000000	0.007442
3854.000000	0.007428
3853.000000	0.007419
3852.000000	0.007427
3851.000000	0.007452
3850.000000	0.007485
3849.000000	0.007513
3848.000000	0.007522
3847.000000	0.007509
3846.000000	0.007481
3845.000000	0.007454
3844.000000	0.007444
3843.000000	0.007452
3842.000000	0.007464
3841.000000	0.007463
3840.000000	0.007447
3839.000000	0.007425
3838.000000	0.007413
3837.000000	0.007415
3836.000000	0.007418
3835.000000	0.007416
3834.000000	0.007412
3833.000000	0.007414
3832.000000	0.007427
3831.000000	0.007453
3830.000000	0.007486
3829.000000	0.007517
3828.000000	0.007537
3827.000000	0.007540
3826.000000	0.007530
3825.000000	0.007522
3824.000000	0.007528
3823.000000	0.007544
3822.000000	0.007552
3821.000000	0.007545
3820.000000	0.007527
3819.000000	0.007512
3818.000000	0.007502
3817.000000	0.007493
3816.000000	0.007476
3815.000000	0.007450
3814.000000	0.007423
3813.000000	0.007402
3812.000000	0.007389
3811.000000	0.007386
3810.000000	0.007395
3809.000000	0.007413
3808.000000	0.007432
3807.000000	0.007447
3806.000000	0.007466
3805.000000	0.007495
3804.000000	0.007532
3803.000000	0.007555
3802.000000	0.007544
3801.000000	0.007504
3800.000000	0.007462
3799.000000	0.007435
3798.000000	0.007419
3797.000000	0.007403
3796.000000	0.007378
3795.000000	0.007352
3794.000000	0.007335
3793.000000	0.007333
3792.000000	0.007342
3791.000000	0.007353
3790.000000	0.007362
3789.000000	0.007371
3788.000000	0.007379
3787.000000	0.007385
3786.000000	0.007384
3785.000000	0.007373
3784.000000	0.007359
3783.000000	0.007354
3782.000000	0.007364
3781.000000	0.007381
3780.000000	0.007391
3779.000000	0.007390
3778.000000	0.007380
3777.000000	0.007367
3776.000000	0.007352
3775.000000	0.007337
3774.000000	0.007326
3773.000000	0.007326
3772.000000	0.007339
3771.000000	0.007359
3770.000000	0.007381
3769.000000	0.007401
3768.000000	0.007416
3767.000000	0.007420
3766.000000	0.007407
3765.000000	0.007384
3764.000000	0.007360
3763.000000	0.007343
3762.000000	0.007329
3761.000000	0.007309
3760.000000	0.007284
3759.000000	0.007266
3758.000000	0.007268
3757.000000	0.007289
3756.000000	0.007318
3755.000000	0.007343
3754.000000	0.007362
3753.000000	0.007381
3752.000000	0.007412
3751.000000	0.007457
3750.000000	0.007495
3749.000000	0.007506
3748.000000	0.007494
3747.000000	0.007481
3746.000000	0.007474
3745.000000	0.007459
3744.000000	0.007418
3743.000000	0.007356
3742.000000	0.007293
3741.000000	0.007243
3740.000000	0.007212
3739.000000	0.007200
3738.000000	0.007206
3737.000000	0.007222
3736.000000	0.007237
3735.000000	0.007248
3734.000000	0.007256
3733.000000	0.007261
3732.000000	0.007264
3731.000000	0.007265
3730.000000	0.007268
3729.000000	0.007272
3728.000000	0.007271
3727.000000	0.007260
3726.000000	0.007240
3725.000000	0.007216
3724.000000	0.007197
3723.000000	0.007184
3722.000000	0.007180
3721.000000	0.007187
3720.000000	0.007199
3719.000000	0.007212
3718.000000	0.007219
3717.000000	0.007217
3716.000000	0.007213
3715.000000	0.007219
3714.000000	0.007242
3713.000000	0.007280
3712.000000	0.007315
3711.000000	0.007332
3710.000000	0.007331
3709.000000	0.007319
3708.000000	0.007304
3707.000000	0.007288
3706.000000	0.007274
3705.000000	0.007264
3704.000000	0.007253
3703.000000	0.007239
3702.000000	0.007222
3701.000000	0.007209
3700.000000	0.007207
3699.000000	0.007219
3698.000000	0.007238
3697.000000	0.007251
3696.000000	0.007255
3695.000000	0.007255
3694.000000	0.007261
3693.000000	0.007277
3692.000000	0.007302
3691.000000	0.007335
3690.000000	0.007367
3689.000000	0.007384
3688.000000	0.007372
3687.000000	0.007337
3686.000000	0.007295
3685.000000	0.007262
3684.000000	0.007243
3683.000000	0.007243
3682.000000	0.007267
3681.000000	0.007320
3680.000000	0.007402
3679.000000	0.007517
3678.000000	0.007656
3677.000000	0.007781
3676.000000	0.007846
3675.000000	0.007836
3674.000000	0.007788
3673.000000	0.007738
3672.000000	0.007704
3671.000000	0.007677
3670.000000	0.007648
3669.000000	0.007615
3668.000000	0.007574
3667.000000	0.007527
3666.000000	0.007485
3665.000000	0.007461
3664.000000	0.007456
3663.000000	0.007461
3662.000000	0.007465
3661.000000	0.007465
3660.000000	0.007466
3659.000000	0.007477
3658.000000	0.007501
3657.000000	0.007533
3656.000000	0.007573
3655.000000	0.007631
3654.000000	0.007713
3653.000000	0.007810
3652.000000	0.007889
3651.000000	0.007907
3650.000000	0.007853
3649.000000	0.007772
3648.000000	0.007717
3647.000000	0.007701
3646.000000	0.007711
3645.000000	0.007727
3644.000000	0.007739
3643.000000	0.007748
3642.000000	0.007764
3641.000000	0.007795
3640.000000	0.007841
3639.000000	0.007891
3638.000000	0.007935
3637.000000	0.007967
3636.000000	0.007984
3635.000000	0.007987
3634.000000	0.007985
3633.000000	0.007993
3632.000000	0.008025
3631.000000	0.008086
3630.000000	0.008159
3629.000000	0.008218
3628.000000	0.008246
3627.000000	0.008243
3626.000000	0.008224
3625.000000	0.008203
3624.000000	0.008189
3623.000000	0.008190
3622.000000	0.008212
3621.000000	0.008261
3620.000000	0.008331
3619.000000	0.008404
3618.000000	0.008462
3617.000000	0.008499
3616.000000	0.008523
3615.000000	0.008545
3614.000000	0.008568
3613.000000	0.008594
3612.000000	0.008625
3611.000000	0.008663
3610.000000	0.008705
3609.000000	0.008743
3608.000000	0.008773
3607.000000	0.008799
3606.000000	0.008825
3605.000000	0.008852
3604.000000	0.008873
3603.000000	0.008893
3602.000000	0.008920
3601.000000	0.008961
3600.000000	0.009008
3599.000000	0.009051
3598.000000	0.009091
3597.000000	0.009135
3596.000000	0.009181
3595.000000	0.009219
3594.000000	0.009237
3593.000000	0.009243
3592.000000	0.009254
3591.000000	0.009279
3590.000000	0.009313
3589.000000	0.009344
3588.000000	0.009375
3587.000000	0.009419
3586.000000	0.009480
3585.000000	0.009545
3584.000000	0.009604
3583.000000	0.009653
3582.000000	0.009693
3581.000000	0.009726
3580.000000	0.009756
3579.000000	0.009796
3578.000000	0.009855
3577.000000	0.009933
3576.000000	0.010019
3575.000000	0.010099
3574.000000	0.010164
3573.000000	0.010207
3572.000000	0.010230
3571.000000	0.010240
3570.000000	0.010248
3569.000000	0.010268
3568.000000	0.010308
3567.000000	0.010370
3566.000000	0.010447
3565.000000	0.010522
3564.000000	0.010580
3563.000000	0.010616
3562.000000	0.010641
3561.000000	0.010673
3560.000000	0.010726
3559.000000	0.010797
3558.000000	0.010878
3557.000000	0.010958
3556.000000	0.011031
3555.000000	0.011094
3554.000000	0.011150
3553.000000	0.011201
3552.000000	0.011245
3551.000000	0.011279
3550.000000	0.011304
3549.000000	0.011328
3548.000000	0.011360
3547.000000	0.011408
3546.000000	0.011474
3545.000000	0.011550
3544.000000	0.011626
3543.000000	0.011689
3542.000000	0.011737
3541.000000	0.011769
3540.000000	0.011791
3539.000000	0.011808
3538.000000	0.011828
3537.000000	0.011863
3536.000000	0.011918
3535.000000	0.011985
3534.000000	0.012049
3533.000000	0.012097
3532.000000	0.012132
3531.000000	0.012168
3530.000000	0.012220
3529.000000	0.012293
3528.000000	0.012384
3527.000000	0.012477
3526.000000	0.012558
3525.000000	0.012611
3524.000000	0.012633
3523.000000	0.012637
3522.000000	0.012645
3521.000000	0.012677
3520.000000	0.012738
3519.000000	0.012815
3518.000000	0.012889
3517.000000	0.012947
3516.000000	0.012982
3515.000000	0.013000
3514.000000	0.013012
3513.000000	0.013034
3512.000000	0.013077
3511.000000	0.013139
3510.000000	0.013214
3509.000000	0.013287
3508.000000	0.013348
3507.000000	0.013397
3506.000000	0.013438
3505.000000	0.013480
3504.000000	0.013526
3503.000000	0.013577
3502.000000	0.013630
3501.000000	0.013681
3500.000000	0.013725
3499.000000	0.013760
3498.000000	0.013790
3497.000000	0.013823
3496.000000	0.013861
3495.000000	0.013904
3494.000000	0.013949
3493.000000	0.013994
3492.000000	0.014039
3491.000000	0.014080
3490.000000	0.014120
3489.000000	0.014164
3488.000000	0.014214
3487.000000	0.014273
3486.000000	0.014338
3485.000000	0.014403
3484.000000	0.014460
3483.000000	0.014500
3482.000000	0.014524
3481.000000	0.014543
3480.000000	0.014568
3479.000000	0.014598
3478.000000	0.014626
3477.000000	0.014652
3476.000000	0.014681
3475.000000	0.014722
3474.000000	0.014776
3473.000000	0.014837
3472.000000	0.014899
3471.000000	0.014960
3470.000000	0.015023
3469.000000	0.015086
3468.000000	0.015145
3467.000000	0.015194
3466.000000	0.015229
3465.000000	0.015258
3464.000000	0.015290
3463.000000	0.015331
3462.000000	0.015378
3461.000000	0.015420
3460.000000	0.015442
3459.000000	0.015450
3458.000000	0.015462
3457.000000	0.015500
3456.000000	0.015567
3455.000000	0.015646
3454.000000	0.015711
3453.000000	0.015751
3452.000000	0.015772
3451.000000	0.015791
3450.000000	0.015825
3449.000000	0.015879
3448.000000	0.015941
3447.000000	0.016003
3446.000000	0.016065
3445.000000	0.016128
3444.000000	0.016188
3443.000000	0.016232
3442.000000	0.016255
3441.000000	0.016269
3440.000000	0.016290
3439.000000	0.016329
3438.000000	0.016383
3437.000000	0.016444
3436.000000	0.016506
3435.000000	0.016564
3434.000000	0.016610
3433.000000	0.016642
3432.000000	0.016664
3431.000000	0.016689
3430.000000	0.016735
3429.000000	0.016810
3428.000000	0.016904
3427.000000	0.016998
3426.000000	0.017076
3425.000000	0.017132
3424.000000	0.017172
3423.000000	0.017200
3422.000000	0.017219
3421.000000	0.017235
3420.000000	0.017259
3419.000000	0.017297
3418.000000	0.017346
3417.000000	0.017400
3416.000000	0.017454
3415.000000	0.017507
3414.000000	0.017559
3413.000000	0.017607
3412.000000	0.017651
3411.000000	0.017691
3410.000000	0.017732
3409.000000	0.017778
3408.000000	0.017826
3407.000000	0.017873
3406.000000	0.017914
3405.000000	0.017951
3404.000000	0.017992
3403.000000	0.018036
3402.000000	0.018078
3401.000000	0.018111
3400.000000	0.018140
3399.000000	0.018174
3398.000000	0.018221
3397.000000	0.018277
3396.000000	0.018336
3395.000000	0.018393
3394.000000	0.018448
3393.000000	0.018505
3392.000000	0.018563
3391.000000	0.018616
3390.000000	0.018653
3389.000000	0.018672
3388.000000	0.018682
3387.000000	0.018700
3386.000000	0.018735
3385.000000	0.018786
3384.000000	0.018843
3383.000000	0.018899
3382.000000	0.018947
3381.000000	0.018981
3380.000000	0.019003
3379.000000	0.019024
3378.000000	0.019059
3377.000000	0.019116
3376.000000	0.019189
3375.000000	0.019262
3374.000000	0.019323
3373.000000	0.019371
3372.000000	0.019411
3371.000000	0.019452
3370.000000	0.019499
3369.000000	0.019556
3368.000000	0.019623
3367.000000	0.019695
3366.000000	0.019768
3365.000000	0.019833
3364.000000	0.019885
3363.000000	0.019932
3362.000000	0.019985
3361.000000	0.020052
3360.000000	0.020126
3359.000000	0.020197
3358.000000	0.020259
3357.000000	0.020313
3356.000000	0.020366
3355.000000	0.020424
3354.000000	0.020483
3353.000000	0.020539
3352.000000	0.020593
3351.000000	0.020647
3350.000000	0.020708
3349.000000	0.020783
3348.000000	0.020872
3347.000000	0.020969
3346.000000	0.021065
3345.000000	0.021148
3344.000000	0.021214
3343.000000	0.021266
3342.000000	0.021315
3341.000000	0.021370
3340.000000	0.021430
3339.000000	0.021491
3338.000000	0.021549
3337.000000	0.021598
3336.000000	0.021638
3335.000000	0.021675
3334.000000	0.021719
3333.000000	0.021772
3332.000000	0.021829
3331.000000	0.021885
3330.000000	0.021938
3329.000000	0.021990
3328.000000	0.022036
3327.000000	0.022075
3326.000000	0.022112
3325.000000	0.022160
3324.000000	0.022219
3323.000000	0.022281
3322.000000	0.022331
3321.000000	0.022366
3320.000000	0.022396
3319.000000	0.022435
3318.000000	0.022489
3317.000000	0.022555
3316.000000	0.022625
3315.000000	0.022688
3314.000000	0.022738
3313.000000	0.022771
3312.000000	0.022786
3311.000000	0.022789
3310.000000	0.022787
3309.000000	0.022788
3308.000000	0.022797
3307.000000	0.022818
3306.000000	0.022856
3305.000000	0.022907
3304.000000	0.022963
3303.000000	0.023016
3302.000000	0.023065
3301.000000	0.023110
3300.000000	0.023154
3299.000000	0.023191
3298.000000	0.023216
3297.000000	0.023231
3296.000000	0.023244
3295.000000	0.023261
3294.000000	0.023282
3293.000000	0.023302
3292.000000	0.023320
3291.000000	0.023336
3290.000000	0.023350
3289.000000	0.023359
3288.000000	0.023359
3287.000000	0.023352
3286.000000	0.023340
3285.000000	0.023325
3284.000000	0.023306
3283.000000	0.023284
3282.000000	0.023263
3281.000000	0.023245
3280.000000	0.023226
3279.000000	0.023206
3278.000000	0.023188
3277.000000	0.023173
3276.000000	0.023156
3275.000000	0.023127
3274.000000	0.023085
3273.000000	0.023034
3272.000000	0.022983
3271.000000	0.022944
3270.000000	0.022920
3269.000000	0.022909
3268.000000	0.022897
3267.000000	0.022870
3266.000000	0.022825
3265.000000	0.022771
3264.000000	0.022721
3263.000000	0.022683
3262.000000	0.022657
3261.000000	0.022634
3260.000000	0.022604
3259.000000	0.022568
3258.000000	0.022529
3257.000000	0.022488
3256.000000	0.022443
3255.000000	0.022388
3254.000000	0.022326
3253.000000	0.022263
3252.000000	0.022203
3251.000000	0.022143
3250.000000	0.022079
3249.000000	0.022012
3248.000000	0.021944
3247.000000	0.021875
3246.000000	0.021809
3245.000000	0.021751
3244.000000	0.021705
3243.000000	0.021665
3242.000000	0.021621
3241.000000	0.021571
3240.000000	0.021520
3239.000000	0.021478
3238.000000	0.021444
3237.000000	0.021411
3236.000000	0.021370
3235.000000	0.021322
3234.000000	0.021275
3233.000000	0.021233
3232.000000	0.021194
3231.000000	0.021155
3230.000000	0.021117
3229.000000	0.021081
3228.000000	0.021046
3227.000000	0.021011
3226.000000	0.020972
3225.000000	0.020931
3224.000000	0.020894
3223.000000	0.020864
3222.000000	0.020841
3221.000000	0.020817
3220.000000	0.020787
3219.000000	0.020753
3218.000000	0.020722
3217.000000	0.020699
3216.000000	0.020676
3215.000000	0.020645
3214.000000	0.020596
3213.000000	0.020531
3212.000000	0.020456
3211.000000	0.020385
3210.000000	0.020330
3209.000000	0.020297
3208.000000	0.020280
3207.000000	0.020266
3206.000000	0.020248
3205.000000	0.020223
3204.000000	0.020190
3203.000000	0.020151
3202.000000	0.020111
3201.000000	0.020076
3200.000000	0.020048
3199.000000	0.020017
3198.000000	0.019974
3197.000000	0.019917
3196.000000	0.019859
3195.000000	0.019815
3194.000000	0.019785
3193.000000	0.019763
3192.000000	0.019735
3191.000000	0.019690
3190.000000	0.019625
3189.000000	0.019550
3188.000000	0.019481
3187.000000	0.019434
3186.000000	0.019407
3185.000000	0.019380
3184.000000	0.019340
3183.000000	0.019287
3182.000000	0.019234
3181.000000	0.019185
3180.000000	0.019138
3179.000000	0.019085
3178.000000	0.019023
3177.000000	0.018954
3176.000000	0.018885
3175.000000	0.018824
3174.000000	0.018773
3173.000000	0.018727
3172.000000	0.018683
3171.000000	0.018643
3170.000000	0.018607
3169.000000	0.018569
3168.000000	0.018515
3167.000000	0.018443
3166.000000	0.018364
3165.000000	0.018295
3164.000000	0.018244
3163.000000	0.018206
3162.000000	0.018171
3161.000000	0.018134
3160.000000	0.018094
3159.000000	0.018052
3158.000000	0.018006
3157.000000	0.017956
3156.000000	0.017898
3155.000000	0.017837
3154.000000	0.017776
3153.000000	0.017724
3152.000000	0.017683
3151.000000	0.017648
3150.000000	0.017609
3149.000000	0.017557
3148.000000	0.017492
3147.000000	0.017428
3146.000000	0.017384
3145.000000	0.017363
3144.000000	0.017350
3143.000000	0.017328
3142.000000	0.017291
3141.000000	0.017249
3140.000000	0.017217
3139.000000	0.017196
3138.000000	0.017179
3137.000000	0.017153
3136.000000	0.017111
3135.000000	0.017055
3134.000000	0.016993
3133.000000	0.016931
3132.000000	0.016875
3131.000000	0.016830
3130.000000	0.016802
3129.000000	0.016796
3128.000000	0.016806
3127.000000	0.016815
3126.000000	0.016809
3125.000000	0.016785
3124.000000	0.016747
3123.000000	0.016705
3122.000000	0.016661
3121.000000	0.016620
3120.000000	0.016587
3119.000000	0.016568
3118.000000	0.016566
3117.000000	0.016571
3116.000000	0.016575
3115.000000	0.016570
3114.000000	0.016557
3113.000000	0.016538
3112.000000	0.016517
3111.000000	0.016502
3110.000000	0.016503
3109.000000	0.016521
3108.000000	0.016544
3107.000000	0.016561
3106.000000	0.016571
3105.000000	0.016578
3104.000000	0.016586
3103.000000	0.016589
3102.000000	0.016577
3101.000000	0.016552
3100.000000	0.016524
3099.000000	0.016510
3098.000000	0.016523
3097.000000	0.016555
3096.000000	0.016592
3095.000000	0.016620
3094.000000	0.016635
3093.000000	0.016637
3092.000000	0.016629
3091.000000	0.016620
3090.000000	0.016623
3089.000000	0.016644
3088.000000	0.016674
3087.000000	0.016696
3086.000000	0.016700
3085.000000	0.016690
3084.000000	0.016674
3083.000000	0.016659
3082.000000	0.016650
3081.000000	0.016653
3080.000000	0.016672
3079.000000	0.016702
3078.000000	0.016731
3077.000000	0.016749
3076.000000	0.016753
3075.000000	0.016747
3074.000000	0.016740
3073.000000	0.016738
3072.000000	0.016736
3071.000000	0.016728
3070.000000	0.016711
3069.000000	0.016693
3068.000000	0.016683
3067.000000	0.016681
3066.000000	0.016677
3065.000000	0.016661
3064.000000	0.016634
3063.000000	0.016608
3062.000000	0.016592
3061.000000	0.016582
3060.000000	0.016564
3059.000000	0.016528
3058.000000	0.016482
3057.000000	0.016438
3056.000000	0.016411
3055.000000	0.016401
3054.000000	0.016397
3053.000000	0.016383
3052.000000	0.016347
3051.000000	0.016290
3050.000000	0.016224
3049.000000	0.016160
3048.000000	0.016104
3047.000000	0.016052
3046.000000	0.015998
3045.000000	0.015945
3044.000000	0.015900
3043.000000	0.015868
3042.000000	0.015845
3041.000000	0.015822
3040.000000	0.015793
3039.000000	0.015761
3038.000000	0.015731
3037.000000	0.015707
3036.000000	0.015687
3035.000000	0.015665
3034.000000	0.015632
3033.000000	0.015586
3032.000000	0.015531
3031.000000	0.015474
3030.000000	0.015427
3029.000000	0.015391
3028.000000	0.015363
3027.000000	0.015338
3026.000000	0.015311
3025.000000	0.015278
3024.000000	0.015241
3023.000000	0.015206
3022.000000	0.015179
3021.000000	0.015160
3020.000000	0.015146
3019.000000	0.015130
3018.000000	0.015104
3017.000000	0.015062
3016.000000	0.015006
3015.000000	0.014950
3014.000000	0.014911
3013.000000	0.014895
3012.000000	0.014892
3011.000000	0.014884
3010.000000	0.014871
3009.000000	0.014860
3008.000000	0.014861
3007.000000	0.014876
3006.000000	0.014900
3005.000000	0.014925
3004.000000	0.014949
3003.000000	0.014973
3002.000000	0.014998
3001.000000	0.015020
3000.000000	0.015036
2999.000000	0.015051
2998.000000	0.015075
2997.000000	0.015119
2996.000000	0.015179
2995.000000	0.015249
2994.000000	0.015323
2993.000000	0.015396
2992.000000	0.015462
2991.000000	0.015518
2990.000000	0.015573
2989.000000	0.015639
2988.000000	0.015725
2987.000000	0.015833
2986.000000	0.015960
2985.000000	0.016099
2984.000000	0.016246
2983.000000	0.016393
2982.000000	0.016537
2981.000000	0.016677
2980.000000	0.016815
2979.000000	0.016951
2978.000000	0.017087
2977.000000	0.017224
2976.000000	0.017366
2975.000000	0.017515
2974.000000	0.017678
2973.000000	0.017857
2972.000000	0.018049
2971.000000	0.018249
2970.000000	0.018458
2969.000000	0.018674
2968.000000	0.018894
2967.000000	0.019112
2966.000000	0.019329
2965.000000	0.019548
2964.000000	0.019766
2963.000000	0.019975
2962.000000	0.020161
2961.000000	0.020318
2960.000000	0.020445
2959.000000	0.020550
2958.000000	0.020646
2957.000000	0.020741
2956.000000	0.020828
2955.000000	0.020893
2954.000000	0.020932
2953.000000	0.020950
2952.000000	0.020953
2951.000000	0.020945
2950.000000	0.020933
2949.000000	0.020932
2948.000000	0.020958
2947.000000	0.021017
2946.000000	0.021108
2945.000000	0.021227
2944.000000	0.021371
2943.000000	0.021538
2942.000000	0.021733
2941.000000	0.021961
2940.000000	0.022228
2939.000000	0.022536
2938.000000	0.022875
2937.000000	0.023232
2936.000000	0.023595
2935.000000	0.023955
2934.000000	0.024317
2933.000000	0.024694
2932.000000	0.025098
2931.000000	0.025523
2930.000000	0.025946
2929.000000	0.026343
2928.000000	0.026704
2927.000000	0.027036
2926.000000	0.027351
2925.000000	0.027647
2924.000000	0.027908
2923.000000	0.028115
2922.000000	0.028253
2921.000000	0.028315
2920.000000	0.028296
2919.000000	0.028188
2918.000000	0.027979
2917.000000	0.027659
2916.000000	0.027232
2915.000000	0.026716
2914.000000	0.026139
2913.000000	0.025535
2912.000000	0.024935
2911.000000	0.024370
2910.000000	0.023867
2909.000000	0.023434
2908.000000	0.023064
2907.000000	0.022736
2906.000000	0.022437
2905.000000	0.022164
2904.000000	0.021917
2903.000000	0.021695
2902.000000	0.021490
2901.000000	0.021294
2900.000000	0.021108
2899.000000	0.020936
2898.000000	0.020782
2897.000000	0.020642
2896.000000	0.020505
2895.000000	0.020361
2894.000000	0.020211
2893.000000	0.020057
2892.000000	0.019908
2891.000000	0.019770
2890.000000	0.019651
2889.000000	0.019555
2888.000000	0.019475
2887.000000	0.019403
2886.000000	0.019334
2885.000000	0.019273
2884.000000	0.019221
2883.000000	0.019176
2882.000000	0.019138
2881.000000	0.019114
2880.000000	0.019113
2879.000000	0.019134
2878.000000	0.019166
2877.000000	0.019202
2876.000000	0.019238
2875.000000	0.019275
2874.000000	0.019306
2873.000000	0.019325
2872.000000	0.019328
2871.000000	0.019318
2870.000000	0.019296
2869.000000	0.019265
2868.000000	0.019230
2867.000000	0.019199
2866.000000	0.019183
2865.000000	0.019196
2864.000000	0.019248
2863.000000	0.019345
2862.000000	0.019490
2861.000000	0.019682
2860.000000	0.019917
2859.000000	0.020191
2858.000000	0.020501
2857.000000	0.020837
2856.000000	0.021187
2855.000000	0.021534
2854.000000	0.021860
2853.000000	0.022142
2852.000000	0.022346
2851.000000	0.022415
2850.000000	0.022299
2849.000000	0.021972
2848.000000	0.021463
2847.000000	0.020839
2846.000000	0.020182
2845.000000	0.019552
2844.000000	0.018979
2843.000000	0.018468
2842.000000	0.018021
2841.000000	0.017642
2840.000000	0.017332
2839.000000	0.017080
2838.000000	0.016863
2837.000000	0.016660
2836.000000	0.016464
2835.000000	0.016279
2834.000000	0.016116
2833.000000	0.015983
2832.000000	0.015880
2831.000000	0.015800
2830.000000	0.015728
2829.000000	0.015653
2828.000000	0.015568
2827.000000	0.015477
2826.000000	0.015391
2825.000000	0.015318
2824.000000	0.015259
2823.000000	0.015203
2822.000000	0.015138
2821.000000	0.015061
2820.000000	0.014980
2819.000000	0.014907
2818.000000	0.014846
2817.000000	0.014790
2816.000000	0.014733
2815.000000	0.014675
2814.000000	0.014620
2813.000000	0.014573
2812.000000	0.014537
2811.000000	0.014506
2810.000000	0.014476
2809.000000	0.014445
2808.000000	0.014416
2807.000000	0.014392
2806.000000	0.014368
2805.000000	0.014337
2804.000000	0.014296
2803.000000	0.014244
2802.000000	0.014185
2801.000000	0.014125
2800.000000	0.014074
2799.000000	0.014041
2798.000000	0.014030
2797.000000	0.014031
2796.000000	0.014032
2795.000000	0.014021
2794.000000	0.013994
2793.000000	0.013953
2792.000000	0.013906
2791.000000	0.013866
2790.000000	0.013839
2789.000000	0.013820
2788.000000	0.013799
2787.000000	0.013771
2786.000000	0.013739
2785.000000	0.013710
2784.000000	0.013684
2783.000000	0.013658
2782.000000	0.013634
2781.000000	0.013612
2780.000000	0.013594
2779.000000	0.013580
2778.000000	0.013570
2777.000000	0.013562
2776.000000	0.013554
2775.000000	0.013543
2774.000000	0.013523
2773.000000	0.013492
2772.000000	0.013457
2771.000000	0.013424
2770.000000	0.013399
2769.000000	0.013382
2768.000000	0.013370
2767.000000	0.013363
2766.000000	0.013355
2765.000000	0.013343
2764.000000	0.013324
2763.000000	0.013302
2762.000000	0.013282
2761.000000	0.013261
2760.000000	0.013235
2759.000000	0.013207
2758.000000	0.013191
2757.000000	0.013194
2756.000000	0.013208
2755.000000	0.013216
2754.000000	0.013210
2753.000000	0.013190
2752.000000	0.013165
2751.000000	0.013137
2750.000000	0.013110
2749.000000	0.013086
2748.000000	0.013064
2747.000000	0.013042
2746.000000	0.013021
2745.000000	0.013002
2744.000000	0.012989
2743.000000	0.012983
2742.000000	0.012983
2741.000000	0.012988
2740.000000	0.012998
2739.000000	0.013007
2738.000000	0.013008
2737.000000	0.012995
2736.000000	0.012970
2735.000000	0.012940
2734.000000	0.012911
2733.000000	0.012887
2732.000000	0.012869
2731.000000	0.012860
2730.000000	0.012861
2729.000000	0.012873
2728.000000	0.012888
2727.000000	0.012894
2726.000000	0.012883
2725.000000	0.012857
2724.000000	0.012825
2723.000000	0.012797
2722.000000	0.012778
2721.000000	0.012761
2720.000000	0.012744
2719.000000	0.012726
2718.000000	0.012711
2717.000000	0.012694
2716.000000	0.012673
2715.000000	0.012650
2714.000000	0.012630
2713.000000	0.012618
2712.000000	0.012613
2711.000000	0.012614
2710.000000	0.012624
2709.000000	0.012636
2708.000000	0.012633
2707.000000	0.012607
2706.000000	0.012567
2705.000000	0.012534
2704.000000	0.012521
2703.000000	0.012526
2702.000000	0.012533
2701.000000	0.012534
2700.000000	0.012524
2699.000000	0.012509
2698.000000	0.012498
2697.000000	0.012492
2696.000000	0.012486
2695.000000	0.012472
2694.000000	0.012448
2693.000000	0.012421
2692.000000	0.012400
2691.000000	0.012389
2690.000000	0.012390
2689.000000	0.012399
2688.000000	0.012410
2687.000000	0.012417
2686.000000	0.012414
2685.000000	0.012401
2684.000000	0.012386
2683.000000	0.012378
2682.000000	0.012380
2681.000000	0.012388
2680.000000	0.012395
2679.000000	0.012398
2678.000000	0.012396
2677.000000	0.012387
2676.000000	0.012368
2675.000000	0.012342
2674.000000	0.012312
2673.000000	0.012282
2672.000000	0.012255
2671.000000	0.012237
2670.000000	0.012229
2669.000000	0.012229
2668.000000	0.012225
2667.000000	0.012212
2666.000000	0.012196
2665.000000	0.012186
2664.000000	0.012185
2663.000000	0.012191
2662.000000	0.012199
2661.000000	0.012204
2660.000000	0.012201
2659.000000	0.012190
2658.000000	0.012171
2657.000000	0.012147
2656.000000	0.012115
2655.000000	0.012078
2654.000000	0.012044
2653.000000	0.012018
2652.000000	0.011998
2651.000000	0.011975
2650.000000	0.011950
2649.000000	0.011930
2648.000000	0.011912
2647.000000	0.011887
2646.000000	0.011849
2645.000000	0.011803
2644.000000	0.011766
2643.000000	0.011745
2642.000000	0.011736
2641.000000	0.011726
2640.000000	0.011709
2639.000000	0.011684
2638.000000	0.011653
2637.000000	0.011617
2636.000000	0.011576
2635.000000	0.011538
2634.000000	0.011509
2633.000000	0.011488
2632.000000	0.011467
2631.000000	0.011440
2630.000000	0.011415
2629.000000	0.011402
2628.000000	0.011402
2627.000000	0.011410
2626.000000	0.011414
2625.000000	0.011404
2624.000000	0.011376
2623.000000	0.011333
2622.000000	0.011287
2621.000000	0.011251
2620.000000	0.011230
2619.000000	0.011219
2618.000000	0.011210
2617.000000	0.011200
2616.000000	0.011186
2615.000000	0.011170
2614.000000	0.011153
2613.000000	0.011135
2612.000000	0.011114
2611.000000	0.011092
2610.000000	0.011073
2609.000000	0.011059
2608.000000	0.011044
2607.000000	0.011026
2606.000000	0.011007
2605.000000	0.010990
2604.000000	0.010976
2603.000000	0.010963
2602.000000	0.010952
2601.000000	0.010940
2600.000000	0.010925
2599.000000	0.010906
2598.000000	0.010890
2597.000000	0.010885
2596.000000	0.010889
2595.000000	0.010892
2594.000000	0.010884
2593.000000	0.010861
2592.000000	0.010829
2591.000000	0.010801
2590.000000	0.010796
2589.000000	0.010821
2588.000000	0.010858
2587.000000	0.010874
2586.000000	0.010852
2585.000000	0.010804
2584.000000	0.010757
2583.000000	0.010729
2582.000000	0.010717
2581.000000	0.010708
2580.000000	0.010693
2579.000000	0.010677
2578.000000	0.010668
2577.000000	0.010665
2576.000000	0.010657
2575.000000	0.010638
2574.000000	0.010610
2573.000000	0.010584
2572.000000	0.010568
2571.000000	0.010565
2570.000000	0.010570
2569.000000	0.010579
2568.000000	0.010589
2567.000000	0.010604
2566.000000	0.010623
2565.000000	0.010632
2564.000000	0.010619
2563.000000	0.010588
2562.000000	0.010560
2561.000000	0.010547
2560.000000	0.010545
2559.000000	0.010547
2558.000000	0.010559
2557.000000	0.010577
2556.000000	0.010582
2555.000000	0.010553
2554.000000	0.010497
2553.000000	0.010437
2552.000000	0.010388
2551.000000	0.010353
2550.000000	0.010336
2549.000000	0.010342
2548.000000	0.010365
2547.000000	0.010387
2546.000000	0.010400
2545.000000	0.010407
2544.000000	0.010419
2543.000000	0.010432
2542.000000	0.010436
2541.000000	0.010423
2540.000000	0.010400
2539.000000	0.010382
2538.000000	0.010380
2537.000000	0.010386
2536.000000	0.010380
2535.000000	0.010349
2534.000000	0.010303
2533.000000	0.010268
2532.000000	0.010257
2531.000000	0.010266
2530.000000	0.010287
2529.000000	0.010311
2528.000000	0.010330
2527.000000	0.010340
2526.000000	0.010343
2525.000000	0.010351
2524.000000	0.010373
2523.000000	0.010403
2522.000000	0.010428
2521.000000	0.010431
2520.000000	0.010404
2519.000000	0.010348
2518.000000	0.010284
2517.000000	0.010239
2516.000000	0.010237
2515.000000	0.010275
2514.000000	0.010324
2513.000000	0.010345
2512.000000	0.010325
2511.000000	0.010284
2510.000000	0.010257
2509.000000	0.010258
2508.000000	0.010271
2507.000000	0.010272
2506.000000	0.010262
2505.000000	0.010260
2504.000000	0.010281
2503.000000	0.010315
2502.000000	0.010338
2501.000000	0.010332
2500.000000	0.010307
2499.000000	0.010285
2498.000000	0.010282
2497.000000	0.010284
2496.000000	0.010256
2495.000000	0.010181
2494.000000	0.010084
2493.000000	0.010006
2492.000000	0.009970
2491.000000	0.009976
2490.000000	0.010013
2489.000000	0.010065
2488.000000	0.010114
2487.000000	0.010136
2486.000000	0.010123
2485.000000	0.010087
2484.000000	0.010052
2483.000000	0.010029
2482.000000	0.010016
2481.000000	0.009999
2480.000000	0.009978
2479.000000	0.009968
2478.000000	0.009984
2477.000000	0.010024
2476.000000	0.010071
2475.000000	0.010109
2474.000000	0.010130
2473.000000	0.010128
2472.000000	0.010102
2471.000000	0.010058
2470.000000	0.010011
2469.000000	0.009968
2468.000000	0.009930
2467.000000	0.009900
2466.000000	0.009889
2465.000000	0.009899
2464.000000	0.009912
2463.000000	0.009913
2462.000000	0.009906
2461.000000	0.009907
2460.000000	0.009925
2459.000000	0.009958
2458.000000	0.010005
2457.000000	0.010062
2456.000000	0.010111
2455.000000	0.010129
2454.000000	0.010106
2453.000000	0.010051
2452.000000	0.009988
2451.000000	0.009940
2450.000000	0.009917
2449.000000	0.009918
2448.000000	0.009931
2447.000000	0.009948
2446.000000	0.009970
2445.000000	0.009998
2444.000000	0.010020
2443.000000	0.010024
2442.000000	0.010015
2441.000000	0.010008
2440.000000	0.010005
2439.000000	0.009993
2438.000000	0.009956
2437.000000	0.009904
2436.000000	0.009865
2435.000000	0.009867
2434.000000	0.009914
2433.000000	0.009979
2432.000000	0.010025
2431.000000	0.010030
2430.000000	0.010002
2429.000000	0.009959
2428.000000	0.009910
2427.000000	0.009860
2426.000000	0.009820
2425.000000	0.009802
2424.000000	0.009803
2423.000000	0.009813
2422.000000	0.009823
2421.000000	0.009836
2420.000000	0.009854
2419.000000	0.009871
2418.000000	0.009875
2417.000000	0.009856
2416.000000	0.009822
2415.000000	0.009796
2414.000000	0.009801
2413.000000	0.009838
2412.000000	0.009883
2411.000000	0.009914
2410.000000	0.009925
2409.000000	0.009923
2408.000000	0.009907
2407.000000	0.009881
2406.000000	0.009853
2405.000000	0.009830
2404.000000	0.009805
2403.000000	0.009776
2402.000000	0.009756
2401.000000	0.009757
2400.000000	0.009775
2399.000000	0.009786
2398.000000	0.009776
2397.000000	0.009750
2396.000000	0.009726
2395.000000	0.009732
2394.000000	0.009783
2393.000000	0.009860
2392.000000	0.009914
2391.000000	0.009907
2390.000000	0.009847
2389.000000	0.009783
2388.000000	0.009757
2387.000000	0.009773
2386.000000	0.009806
2385.000000	0.009828
2384.000000	0.009832
2383.000000	0.009821
2382.000000	0.009805
2381.000000	0.009784
2380.000000	0.009750
2379.000000	0.009714
2378.000000	0.009703
2377.000000	0.009729
2376.000000	0.009775
2375.000000	0.009808
2374.000000	0.009818
2373.000000	0.009813
2372.000000	0.009799
2371.000000	0.009768
2370.000000	0.009723
2369.000000	0.009672
2368.000000	0.009625
2367.000000	0.009597
2366.000000	0.009607
2365.000000	0.009658
2364.000000	0.009733
2363.000000	0.009820
2362.000000	0.009916
2361.000000	0.010007
2360.000000	0.010058
2359.000000	0.010047
2358.000000	0.009983
2357.000000	0.009902
2356.000000	0.009852
2355.000000	0.009856
2354.000000	0.009870
2353.000000	0.009835
2352.000000	0.009759
2351.000000	0.009712
2350.000000	0.009740
2349.000000	0.009832
2348.000000	0.009933
2347.000000	0.009972
2346.000000	0.009938
2345.000000	0.009902
2344.000000	0.009919
2343.000000	0.009968
2342.000000	0.009999
2341.000000	0.009993
2340.000000	0.009969
2339.000000	0.009951
2338.000000	0.009936
2337.000000	0.009910
2336.000000	0.009872
2335.000000	0.009833
2334.000000	0.009797
2333.000000	0.009766
2332.000000	0.009755
2331.000000	0.009780
2330.000000	0.009839
2329.000000	0.009920
2328.000000	0.010016
2327.000000	0.010116
2326.000000	0.010196
2325.000000	0.010226
2324.000000	0.010187
2323.000000	0.010092
2322.000000	0.009989
2321.000000	0.009937
2320.000000	0.009958
2319.000000	0.010018
2318.000000	0.010068
2317.000000	0.010079
2316.000000	0.010049
2315.000000	0.009982
2314.000000	0.009886
2313.000000	0.009782
2312.000000	0.009694
2311.000000	0.009638
2310.000000	0.009617
2309.000000	0.009622
2308.000000	0.009629
2307.000000	0.009610
2306.000000	0.009568
2305.000000	0.009540
2304.000000	0.009551
2303.000000	0.009579
2302.000000	0.009586
2301.000000	0.009568
2300.000000	0.009555
2299.000000	0.009573
2298.000000	0.009611
2297.000000	0.009639
2296.000000	0.009639
2295.000000	0.009620
2294.000000	0.009603
2293.000000	0.009610
2292.000000	0.009635
2291.000000	0.009650
2290.000000	0.009634
2289.000000	0.009607
2288.000000	0.009607
2287.000000	0.009651
2286.000000	0.009715
2285.000000	0.009760
2284.000000	0.009764
2283.000000	0.009733
2282.000000	0.009691
2281.000000	0.009655
2280.000000	0.009629
2279.000000	0.009601
2278.000000	0.009558
2277.000000	0.009506
2276.000000	0.009470
2275.000000	0.009457
2274.000000	0.009451
2273.000000	0.009425
2272.000000	0.009374
2271.000000	0.009327
2270.000000	0.009313
2269.000000	0.009335
2268.000000	0.009370
2267.000000	0.009389
2266.000000	0.009384
2265.000000	0.009364
2264.000000	0.009339
2263.000000	0.009310
2262.000000	0.009278
2261.000000	0.009248
2260.000000	0.009223
2259.000000	0.009205
2258.000000	0.009194
2257.000000	0.009189
2256.000000	0.009186
2255.000000	0.009180
2254.000000	0.009167
2253.000000	0.009133
2252.000000	0.009066
2251.000000	0.008977
2250.000000	0.008902
2249.000000	0.008873
2248.000000	0.008885
2247.000000	0.008920
2246.000000	0.008975
2245.000000	0.009053
2244.000000	0.009129
2243.000000	0.009156
2242.000000	0.009120
2241.000000	0.009054
2240.000000	0.008991
2239.000000	0.008935
2238.000000	0.008884
2237.000000	0.008857
2236.000000	0.008875
2235.000000	0.008926
2234.000000	0.008967
2233.000000	0.008963
2232.000000	0.008920
2231.000000	0.008864
2230.000000	0.008822
2229.000000	0.008800
2228.000000	0.008791
2227.000000	0.008789
2226.000000	0.008797
2225.000000	0.008813
2224.000000	0.008824
2223.000000	0.008829
2222.000000	0.008845
2221.000000	0.008884
2220.000000	0.008930
2219.000000	0.008957
2218.000000	0.008974
2217.000000	0.009014
2216.000000	0.009087
2215.000000	0.009153
2214.000000	0.009167
2213.000000	0.009109
2212.000000	0.009002
2211.000000	0.008879
2210.000000	0.008772
2209.000000	0.008683
2208.000000	0.008602
2207.000000	0.008536
2206.000000	0.008536
2205.000000	0.008642
2204.000000	0.008812
2203.000000	0.008942
2202.000000	0.008953
2201.000000	0.008863
2200.000000	0.008742
2199.000000	0.008642
2198.000000	0.008564
2197.000000	0.008487
2196.000000	0.008415
2195.000000	0.008396
2194.000000	0.008470
2193.000000	0.008614
2192.000000	0.008740
2191.000000	0.008782
2190.000000	0.008756
2189.000000	0.008712
2188.000000	0.008662
2187.000000	0.008603
2186.000000	0.008568
2185.000000	0.008606
2184.000000	0.008693
2183.000000	0.008747
2182.000000	0.008722
2181.000000	0.008652
2180.000000	0.008581
2179.000000	0.008519
2178.000000	0.008472
2177.000000	0.008466
2176.000000	0.008498
2175.000000	0.008518
2174.000000	0.008481
2173.000000	0.008396
2172.000000	0.008307
2171.000000	0.008254
2170.000000	0.008259
2169.000000	0.008318
2168.000000	0.008387
2167.000000	0.008421
2166.000000	0.008428
2165.000000	0.008456
2164.000000	0.008531
2163.000000	0.008621
2162.000000	0.008656
2161.000000	0.008556
2160.000000	0.008266
2159.000000	0.007843
2158.000000	0.007475
2157.000000	0.007315
2156.000000	0.007327
2155.000000	0.007381
2154.000000	0.007438
2153.000000	0.007547
2152.000000	0.007730
2151.000000	0.007933
2150.000000	0.008100
2149.000000	0.008216
2148.000000	0.008276
2147.000000	0.008261
2146.000000	0.008185
2145.000000	0.008114
2144.000000	0.008111
2143.000000	0.008177
2142.000000	0.008267
2141.000000	0.008327
2140.000000	0.008320
2139.000000	0.008244
2138.000000	0.008137
2137.000000	0.008042
2136.000000	0.007979
2135.000000	0.007952
2134.000000	0.007979
2133.000000	0.008071
2132.000000	0.008204
2131.000000	0.008326
2130.000000	0.008414
2129.000000	0.008486
2128.000000	0.008560
2127.000000	0.008635
2126.000000	0.008700
2125.000000	0.008746
2124.000000	0.008762
2123.000000	0.008749
2122.000000	0.008729
2121.000000	0.008737
2120.000000	0.008777
2119.000000	0.008825
2118.000000	0.008866
2117.000000	0.008901
2116.000000	0.008921
2115.000000	0.008906
2114.000000	0.008860
2113.000000	0.008832
2112.000000	0.008868
2111.000000	0.008959
2110.000000	0.009045
2109.000000	0.009073
2108.000000	0.009034
2107.000000	0.008955
2106.000000	0.008873
2105.000000	0.008807
2104.000000	0.008756
2103.000000	0.008717
2102.000000	0.008700
2101.000000	0.008717
2100.000000	0.008761
2099.000000	0.008810
2098.000000	0.008846
2097.000000	0.008861
2096.000000	0.008849
2095.000000	0.008803
2094.000000	0.008743
2093.000000	0.008708
2092.000000	0.008726
2091.000000	0.008784
2090.000000	0.008843
2089.000000	0.008864
2088.000000	0.008837
2087.000000	0.008793
2086.000000	0.008777
2085.000000	0.008793
2084.000000	0.008802
2083.000000	0.008774
2082.000000	0.008741
2081.000000	0.008755
2080.000000	0.008816
2079.000000	0.008860
2078.000000	0.008839
2077.000000	0.008769
2076.000000	0.008704
2075.000000	0.008678
2074.000000	0.008697
2073.000000	0.008740
2072.000000	0.008779
2071.000000	0.008810
2070.000000	0.008858
2069.000000	0.008938
2068.000000	0.008999
2067.000000	0.008962
2066.000000	0.008814
2065.000000	0.008640
2064.000000	0.008529
2063.000000	0.008487
2062.000000	0.008463
2061.000000	0.008425
2060.000000	0.008393
2059.000000	0.008392
2058.000000	0.008419
2057.000000	0.008442
2056.000000	0.008430
2055.000000	0.008385
2054.000000	0.008333
2053.000000	0.008295
2052.000000	0.008275
2051.000000	0.008277
2050.000000	0.008313
2049.000000	0.008356
2048.000000	0.008343
2047.000000	0.008256
2046.000000	0.008179
2045.000000	0.008197
2044.000000	0.008266
2043.000000	0.008258
2042.000000	0.008113
2041.000000	0.007883
2040.000000	0.007646
2039.000000	0.007460
2038.000000	0.007386
2037.000000	0.007465
2036.000000	0.007637
2035.000000	0.007768
2034.000000	0.007786
2033.000000	0.007712
2032.000000	0.007565
2031.000000	0.007338
2030.000000	0.007090
2029.000000	0.006948
2028.000000	0.006977
2027.000000	0.007107
2026.000000	0.007236
2025.000000	0.007334
2024.000000	0.007403
2023.000000	0.007427
2022.000000	0.007396
2021.000000	0.007340
2020.000000	0.007304
2019.000000	0.007324
2018.000000	0.007426
2017.000000	0.007597
2016.000000	0.007756
2015.000000	0.007825
2014.000000	0.007796
2013.000000	0.007711
2012.000000	0.007574
2011.000000	0.007369
2010.000000	0.007140
2009.000000	0.006982
2008.000000	0.006933
2007.000000	0.006960
2006.000000	0.007055
2005.000000	0.007256
2004.000000	0.007541
2003.000000	0.007801
2002.000000	0.007946
2001.000000	0.007978
2000.000000	0.007948
1999.000000	0.007900
1998.000000	0.007867
1997.000000	0.007883
1996.000000	0.007952
1995.000000	0.008037
1994.000000	0.008086
1993.000000	0.008063
1992.000000	0.007950
1991.000000	0.007773
1990.000000	0.007600
1989.000000	0.007497
1988.000000	0.007479
1987.000000	0.007532
1986.000000	0.007663
1985.000000	0.007866
1984.000000	0.008085
1983.000000	0.008265
1982.000000	0.008434
1981.000000	0.008639
1980.000000	0.008818
1979.000000	0.008817
1978.000000	0.008573
1977.000000	0.008225
1976.000000	0.007948
1975.000000	0.007772
1974.000000	0.007633
1973.000000	0.007508
1972.000000	0.007435
1971.000000	0.007436
1970.000000	0.007493
1969.000000	0.007556
1968.000000	0.007580
1967.000000	0.007568
1966.000000	0.007585
1965.000000	0.007684
1964.000000	0.007830
1963.000000	0.007915
1962.000000	0.007875
1961.000000	0.007738
1960.000000	0.007588
1959.000000	0.007508
1958.000000	0.007531
1957.000000	0.007622
1956.000000	0.007702
1955.000000	0.007732
1954.000000	0.007751
1953.000000	0.007799
1952.000000	0.007848
1951.000000	0.007830
1950.000000	0.007733
1949.000000	0.007615
1948.000000	0.007541
1947.000000	0.007545
1946.000000	0.007638
1945.000000	0.007782
1944.000000	0.007887
1943.000000	0.007876
1942.000000	0.007775
1941.000000	0.007692
1940.000000	0.007694
1939.000000	0.007765
1938.000000	0.007870
1937.000000	0.007983
1936.000000	0.008072
1935.000000	0.008113
1934.000000	0.008113
1933.000000	0.008097
1932.000000	0.008061
1931.000000	0.007985
1930.000000	0.007898
1929.000000	0.007865
1928.000000	0.007915
1927.000000	0.008004
1926.000000	0.008070
1925.000000	0.008092
1924.000000	0.008081
1923.000000	0.008067
1922.000000	0.008078
1921.000000	0.008110
1920.000000	0.008112
1919.000000	0.008039
1918.000000	0.007914
1917.000000	0.007819
1916.000000	0.007793
1915.000000	0.007804
1914.000000	0.007827
1913.000000	0.007877
1912.000000	0.007963
1911.000000	0.008050
1910.000000	0.008095
1909.000000	0.008083
1908.000000	0.008029
1907.000000	0.007952
1906.000000	0.007879
1905.000000	0.007842
1904.000000	0.007847
1903.000000	0.007870
1902.000000	0.007886
1901.000000	0.007892
1900.000000	0.007891
1899.000000	0.007880
1898.000000	0.007859
1897.000000	0.007844
1896.000000	0.007840
1895.000000	0.007832
1894.000000	0.007811
1893.000000	0.007792
1892.000000	0.007793
1891.000000	0.007807
1890.000000	0.007815
1889.000000	0.007807
1888.000000	0.007792
1887.000000	0.007779
1886.000000	0.007773
1885.000000	0.007778
1884.000000	0.007794
1883.000000	0.007813
1882.000000	0.007826
1881.000000	0.007827
1880.000000	0.007813
1879.000000	0.007788
1878.000000	0.007765
1877.000000	0.007755
1876.000000	0.007760
1875.000000	0.007770
1874.000000	0.007769
1873.000000	0.007741
1872.000000	0.007675
1871.000000	0.007594
1870.000000	0.007550
1869.000000	0.007577
1868.000000	0.007649
1867.000000	0.007720
1866.000000	0.007766
1865.000000	0.007788
1864.000000	0.007788
1863.000000	0.007764
1862.000000	0.007722
1861.000000	0.007673
1860.000000	0.007621
1859.000000	0.007571
1858.000000	0.007535
1857.000000	0.007523
1856.000000	0.007529
1855.000000	0.007544
1854.000000	0.007565
1853.000000	0.007587
1852.000000	0.007598
1851.000000	0.007594
1850.000000	0.007592
1849.000000	0.007598
1848.000000	0.007595
1847.000000	0.007572
1846.000000	0.007552
1845.000000	0.007566
1844.000000	0.007598
1843.000000	0.007613
1842.000000	0.007615
1841.000000	0.007628
1840.000000	0.007649
1839.000000	0.007658
1838.000000	0.007651
1837.000000	0.007641
1836.000000	0.007625
1835.000000	0.007590
1834.000000	0.007538
1833.000000	0.007494
1832.000000	0.007473
1831.000000	0.007470
1830.000000	0.007469
1829.000000	0.007473
1828.000000	0.007498
1827.000000	0.007544
1826.000000	0.007596
1825.000000	0.007633
1824.000000	0.007636
1823.000000	0.007612
1822.000000	0.007585
1821.000000	0.007566
1820.000000	0.007542
1819.000000	0.007494
1818.000000	0.007440
1817.000000	0.007416
1816.000000	0.007431
1815.000000	0.007463
1814.000000	0.007496
1813.000000	0.007527
1812.000000	0.007549
1811.000000	0.007551
1810.000000	0.007543
1809.000000	0.007546
1808.000000	0.007556
1807.000000	0.007549
1806.000000	0.007516
1805.000000	0.007475
1804.000000	0.007455
1803.000000	0.007467
1802.000000	0.007508
1801.000000	0.007560
1800.000000	0.007605
1799.000000	0.007636
1798.000000	0.007659
1797.000000	0.007672
1796.000000	0.007666
1795.000000	0.007638
1794.000000	0.007611
1793.000000	0.007603
1792.000000	0.007589
1791.000000	0.007541
1790.000000	0.007482
1789.000000	0.007448
1788.000000	0.007441
1787.000000	0.007440
1786.000000	0.007431
1785.000000	0.007415
1784.000000	0.007401
1783.000000	0.007396
1782.000000	0.007403
1781.000000	0.007409
1780.000000	0.007398
1779.000000	0.007361
1778.000000	0.007317
1777.000000	0.007283
1776.000000	0.007254
1775.000000	0.007217
1774.000000	0.007181
1773.000000	0.007170
1772.000000	0.007170
1771.000000	0.007159
1770.000000	0.007159
1769.000000	0.007190
1768.000000	0.007231
1767.000000	0.007247
1766.000000	0.007242
1765.000000	0.007243
1764.000000	0.007258
1763.000000	0.007277
1762.000000	0.007294
1761.000000	0.007323
1760.000000	0.007377
1759.000000	0.007448
1758.000000	0.007539
1757.000000	0.007660
1756.000000	0.007804
1755.000000	0.007957
1754.000000	0.008127
1753.000000	0.008332
1752.000000	0.008571
1751.000000	0.008806
1750.000000	0.009013
1749.000000	0.009204
1748.000000	0.009374
1747.000000	0.009511
1746.000000	0.009638
1745.000000	0.009792
1744.000000	0.009949
1743.000000	0.010049
1742.000000	0.010091
1741.000000	0.010142
1740.000000	0.010238
1739.000000	0.010321
1738.000000	0.010351
1737.000000	0.010347
1736.000000	0.010335
1735.000000	0.010325
1734.000000	0.010309
1733.000000	0.010281
1732.000000	0.010229
1731.000000	0.010111
1730.000000	0.009926
1729.000000	0.009728
1728.000000	0.009560
1727.000000	0.009415
1726.000000	0.009280
1725.000000	0.009168
1724.000000	0.009082
1723.000000	0.008981
1722.000000	0.008852
1721.000000	0.008737
1720.000000	0.008677
1719.000000	0.008671
1718.000000	0.008687
1717.000000	0.008710
1716.000000	0.008751
1715.000000	0.008796
1714.000000	0.008848
1713.000000	0.008951
1712.000000	0.009122
1711.000000	0.009327
1710.000000	0.009536
1709.000000	0.009752
1708.000000	0.010001
1707.000000	0.010300
1706.000000	0.010642
1705.000000	0.010998
1704.000000	0.011334
1703.000000	0.011644
1702.000000	0.011993
1701.000000	0.012533
1700.000000	0.013248
1699.000000	0.013925
1698.000000	0.014518
1697.000000	0.015122
1696.000000	0.015766
1695.000000	0.016391
1694.000000	0.016962
1693.000000	0.017520
1692.000000	0.018110
1691.000000	0.018724
1690.000000	0.019335
1689.000000	0.019919
1688.000000	0.020461
1687.000000	0.020966
1686.000000	0.021497
1685.000000	0.022180
1684.000000	0.022943
1683.000000	0.023615
1682.000000	0.024251
1681.000000	0.024935
1680.000000	0.025628
1679.000000	0.026251
1678.000000	0.026807
1677.000000	0.027403
1676.000000	0.028123
1675.000000	0.028914
1674.000000	0.029671
1673.000000	0.030393
1672.000000	0.031127
1671.000000	0.031896
1670.000000	0.032702
1669.000000	0.033524
1668.000000	0.034320
1667.000000	0.035040
1666.000000	0.035696
1665.000000	0.036366
1664.000000	0.037104
1663.000000	0.037867
1662.000000	0.038586
1661.000000	0.039272
1660.000000	0.039956
1659.000000	0.040605
1658.000000	0.041173
1657.000000	0.041685
1656.000000	0.042189
1655.000000	0.042702
1654.000000	0.043200
1653.000000	0.043605
1652.000000	0.043970
1651.000000	0.044371
1650.000000	0.044776
1649.000000	0.045188
1648.000000	0.045552
1647.000000	0.045732
1646.000000	0.045736
1645.000000	0.045761
1644.000000	0.045886
1643.000000	0.046035
1642.000000	0.046138
1641.000000	0.046174
1640.000000	0.046175
1639.000000	0.046169
1638.000000	0.046137
1637.000000	0.046006
1636.000000	0.045693
1635.000000	0.045277
1634.000000	0.044969
1633.000000	0.044812
1632.000000	0.044682
1631.000000	0.044458
1630.000000	0.044083
1629.000000	0.043579
1628.000000	0.043007
1627.000000	0.042428
1626.000000	0.041867
1625.000000	0.041285
1624.000000	0.040610
1623.000000	0.039817
1622.000000	0.039010
1621.000000	0.038314
1620.000000	0.037730
1619.000000	0.037145
1618.000000	0.036418
1617.000000	0.035494
1616.000000	0.034526
1615.000000	0.033723
1614.000000	0.033105
1613.000000	0.032552
1612.000000	0.031973
1611.000000	0.031359
1610.000000	0.030750
1609.000000	0.030159
1608.000000	0.029572
1607.000000	0.029003
1606.000000	0.028493
1605.000000	0.028047
1604.000000	0.027638
1603.000000	0.027245
1602.000000	0.026875
1601.000000	0.026544
1600.000000	0.026254
1599.000000	0.026001
1598.000000	0.025779
1597.000000	0.025576
1596.000000	0.025392
1595.000000	0.025240
1594.000000	0.025136
1593.000000	0.025076
1592.000000	0.025042
1591.000000	0.025028
1590.000000	0.025038
1589.000000	0.025068
1588.000000	0.025113
1587.000000	0.025179
1586.000000	0.025278
1585.000000	0.025410
1584.000000	0.025571
1583.000000	0.025764
1582.000000	0.025985
1581.000000	0.026214
1580.000000	0.026446
1579.000000	0.026702
1578.000000	0.026987
1577.000000	0.027251
1576.000000	0.027427
1575.000000	0.027544
1574.000000	0.027696
1573.000000	0.027909
1572.000000	0.028153
1571.000000	0.028422
1570.000000	0.028726
1569.000000	0.029049
1568.000000	0.029384
1567.000000	0.029751
1566.000000	0.030155
1565.000000	0.030571
1564.000000	0.030954
1563.000000	0.031287
1562.000000	0.031588
1561.000000	0.031879
1560.000000	0.032282
1559.000000	0.032713
1558.000000	0.033051
1557.000000	0.033495
1556.000000	0.034033
1555.000000	0.034539
1554.000000	0.034982
1553.000000	0.035387
1552.000000	0.035798
1551.000000	0.036208
1550.000000	0.036580
1549.000000	0.036897
1548.000000	0.037183
1547.000000	0.037461
1546.000000	0.037740
1545.000000	0.037999
1544.000000	0.038203
1543.000000	0.038353
1542.000000	0.038492
1541.000000	0.038619
1540.000000	0.038623
1539.000000	0.038515
1538.000000	0.038450
1537.000000	0.038458
1536.000000	0.038474
1535.000000	0.038433
1534.000000	0.038286
1533.000000	0.038062
1532.000000	0.037876
1531.000000	0.037777
1530.000000	0.037712
1529.000000	0.037628
1528.000000	0.037506
1527.000000	0.037333
1526.000000	0.037121
1525.000000	0.036917
1524.000000	0.036755
1523.000000	0.036596
1522.000000	0.036348
1521.000000	0.036008
1520.000000	0.035718
1519.000000	0.035564
1518.000000	0.035472
1517.000000	0.035325
1516.000000	0.035083
1515.000000	0.034813
1514.000000	0.034552
1513.000000	0.034265
1512.000000	0.033934
1511.000000	0.033597
1510.000000	0.033301
1509.000000	0.033018
1508.000000	0.032610
1507.000000	0.031868
1506.000000	0.030972
1505.000000	0.030373
1504.000000	0.030076
1503.000000	0.029862
1502.000000	0.029610
1501.000000	0.029279
1500.000000	0.028888
1499.000000	0.028466
1498.000000	0.028025
1497.000000	0.027570
1496.000000	0.027133
1495.000000	0.026762
1494.000000	0.026470
1493.000000	0.026225
1492.000000	0.025978
1491.000000	0.025690
1490.000000	0.025361
1489.000000	0.025057
1488.000000	0.024846
1487.000000	0.024723
1486.000000	0.024652
1485.000000	0.024628
1484.000000	0.024652
1483.000000	0.024715
1482.000000	0.024807
1481.000000	0.024934
1480.000000	0.025101
1479.000000	0.025311
1478.000000	0.025578
1477.000000	0.025919
1476.000000	0.026315
1475.000000	0.026743
1474.000000	0.027233
1473.000000	0.027809
1472.000000	0.028413
1471.000000	0.028976
1470.000000	0.029496
1469.000000	0.029985
1468.000000	0.030434
1467.000000	0.030833
1466.000000	0.031199
1465.000000	0.031539
1464.000000	0.031841
1463.000000	0.032106
1462.000000	0.032358
1461.000000	0.032614
1460.000000	0.032886
1459.000000	0.033192
1458.000000	0.033567
1457.000000	0.034003
1456.000000	0.034433
1455.000000	0.034810
1454.000000	0.035130
1453.000000	0.035397
1452.000000	0.035591
1451.000000	0.035709
1450.000000	0.035786
1449.000000	0.035852
1448.000000	0.035893
1447.000000	0.035901
1446.000000	0.035906
1445.000000	0.035923
1444.000000	0.035934
1443.000000	0.035918
1442.000000	0.035889
1441.000000	0.035858
1440.000000	0.035809
1439.000000	0.035717
1438.000000	0.035587
1437.000000	0.035444
1436.000000	0.035311
1435.000000	0.035223
1434.000000	0.035193
1433.000000	0.035180
1432.000000	0.035130
1431.000000	0.035021
1430.000000	0.034875
1429.000000	0.034729
1428.000000	0.034609
1427.000000	0.034535
1426.000000	0.034509
1425.000000	0.034497
1424.000000	0.034435
1423.000000	0.034309
1422.000000	0.034170
1421.000000	0.034065
1420.000000	0.034003
1419.000000	0.033965
1418.000000	0.033934
1417.000000	0.033911
1416.000000	0.033866
1415.000000	0.033772
1414.000000	0.033645
1413.000000	0.033512
1412.000000	0.033367
1411.000000	0.033198
1410.000000	0.033025
1409.000000	0.032878
1408.000000	0.032752
1407.000000	0.032630
1406.000000	0.032508
1405.000000	0.032380
1404.000000	0.032232
1403.000000	0.032068
1402.000000	0.031913
1401.000000	0.031785
1400.000000	0.031669
1399.000000	0.031530
1398.000000	0.031361
1397.000000	0.031178
1396.000000	0.030973
1395.000000	0.030734
1394.000000	0.030487
1393.000000	0.030268
1392.000000	0.030068
1391.000000	0.029858
1390.000000	0.029634
1389.000000	0.029410
1388.000000	0.029180
1387.000000	0.028924
1386.000000	0.028655
1385.000000	0.028404
1384.000000	0.028185
1383.000000	0.027982
1382.000000	0.027783
1381.000000	0.027581
1380.000000	0.027371
1379.000000	0.027152
1378.000000	0.026926
1377.000000	0.026692
1376.000000	0.026438
1375.000000	0.026145
1374.000000	0.025822
1373.000000	0.025508
1372.000000	0.025236
1371.000000	0.024996
1370.000000	0.024754
1369.000000	0.024478
1368.000000	0.024162
1367.000000	0.023829
1366.000000	0.023511
1365.000000	0.023226
1364.000000	0.022970
1363.000000	0.022723
1362.000000	0.022476
1361.000000	0.022247
1360.000000	0.022058
1359.000000	0.021915
1358.000000	0.021802
1357.000000	0.021705
1356.000000	0.021616
1355.000000	0.021541
1354.000000	0.021496
1353.000000	0.021486
1352.000000	0.021511
1351.000000	0.021561
1350.000000	0.021623
1349.000000	0.021684
1348.000000	0.021742
1347.000000	0.021809
1346.000000	0.021897
1345.000000	0.022014
1344.000000	0.022162
1343.000000	0.022335
1342.000000	0.022524
1341.000000	0.022710
1340.000000	0.022862
1339.000000	0.022959
1338.000000	0.023011
1337.000000	0.023037
1336.000000	0.023037
1335.000000	0.022999
1334.000000	0.022927
1333.000000	0.022835
1332.000000	0.022735
1331.000000	0.022625
1330.000000	0.022504
1329.000000	0.022374
1328.000000	0.022245
1327.000000	0.022121
1326.000000	0.022011
1325.000000	0.021928
1324.000000	0.021880
1323.000000	0.021861
1322.000000	0.021851
1321.000000	0.021835
1320.000000	0.021804
1319.000000	0.021753
1318.000000	0.021683
1317.000000	0.021605
1316.000000	0.021530
1315.000000	0.021460
1314.000000	0.021388
1313.000000	0.021302
1312.000000	0.021199
1311.000000	0.021084
1310.000000	0.020962
1309.000000	0.020833
1308.000000	0.020700
1307.000000	0.020568
1306.000000	0.020439
1305.000000	0.020311
1304.000000	0.020186
1303.000000	0.020069
1302.000000	0.019969
1301.000000	0.019890
1300.000000	0.019824
1299.000000	0.019761
1298.000000	0.019694
1297.000000	0.019623
1296.000000	0.019560
1295.000000	0.019519
1294.000000	0.019502
1293.000000	0.019503
1292.000000	0.019515
1291.000000	0.019543
1290.000000	0.019593
1289.000000	0.019665
1288.000000	0.019745
1287.000000	0.019823
1286.000000	0.019899
1285.000000	0.019986
1284.000000	0.020088
1283.000000	0.020195
1282.000000	0.020288
1281.000000	0.020360
1280.000000	0.020414
1279.000000	0.020458
1278.000000	0.020502
1277.000000	0.020546
1276.000000	0.020589
1275.000000	0.020622
1274.000000	0.020643
1273.000000	0.020659
1272.000000	0.020686
1271.000000	0.020732
1270.000000	0.020800
1269.000000	0.020898
1268.000000	0.021027
1267.000000	0.021179
1266.000000	0.021337
1265.000000	0.021493
1264.000000	0.021650
1263.000000	0.021808
1262.000000	0.021957
1261.000000	0.022086
1260.000000	0.022202
1259.000000	0.022323
1258.000000	0.022463
1257.000000	0.022617
1256.000000	0.022774
1255.000000	0.022922
1254.000000	0.023065
1253.000000	0.023213
1252.000000	0.023372
1251.000000	0.023531
1250.000000	0.023675
1249.000000	0.023801
1248.000000	0.023924
1247.000000	0.024065
1246.000000	0.024231
1245.000000	0.024404
1244.000000	0.024558
1243.000000	0.024675
1242.000000	0.024759
1241.000000	0.024824
1240.000000	0.024883
1239.000000	0.024929
1238.000000	0.024951
1237.000000	0.024940
1236.000000	0.024894
1235.000000	0.024815
1234.000000	0.024702
1233.000000	0.024558
1232.000000	0.024388
1231.000000	0.024198
1230.000000	0.023994
1229.000000	0.023776
1228.000000	0.023540
1227.000000	0.023279
1226.000000	0.022994
1225.000000	0.022700
1224.000000	0.022409
1223.000000	0.022122
1222.000000	0.021825
1221.000000	0.021500
1220.000000	0.021152
1219.000000	0.020808
1218.000000	0.020504
1217.000000	0.020268
1216.000000	0.020105
1215.000000	0.020000
1214.000000	0.019921
1213.000000	0.019837
1212.000000	0.019740
1211.000000	0.019649
1210.000000	0.019587
1209.000000	0.019565
1208.000000	0.019574
1207.000000	0.019598
1206.000000	0.019629
1205.000000	0.019662
1204.000000	0.019691
1203.000000	0.019704
1202.000000	0.019685
1201.000000	0.019619
1200.000000	0.019510
1199.000000	0.019379
1198.000000	0.019251
1197.000000	0.019132
1196.000000	0.019005
1195.000000	0.018851
1194.000000	0.018671
1193.000000	0.018481
1192.000000	0.018297
1191.000000	0.018126
1190.000000	0.017967
1189.000000	0.017823
1188.000000	0.017692
1187.000000	0.017572
1186.000000	0.017453
1185.000000	0.017336
1184.000000	0.017230
1183.000000	0.017150
1182.000000	0.017102
1181.000000	0.017080
1180.000000	0.017079
1179.000000	0.017098
1178.000000	0.017140
1177.000000	0.017199
1176.000000	0.017268
1175.000000	0.017335
1174.000000	0.017396
1173.000000	0.017456
1172.000000	0.017531
1171.000000	0.017629
1170.000000	0.017749
1169.000000	0.017878
1168.000000	0.018012
1167.000000	0.018156
1166.000000	0.018313
1165.000000	0.018479
1164.000000	0.018641
1163.000000	0.018785
1162.000000	0.018901
1161.000000	0.018983
1160.000000	0.019020
1159.000000	0.019012
1158.000000	0.018965
1157.000000	0.018892
1156.000000	0.018800
1155.000000	0.018690
1154.000000	0.018564
1153.000000	0.018429
1152.000000	0.018293
1151.000000	0.018155
1150.000000	0.018005
1149.000000	0.017832
1148.000000	0.017636
1147.000000	0.017430
1146.000000	0.017228
1145.000000	0.017032
1144.000000	0.016840
1143.000000	0.016654
1142.000000	0.016482
1141.000000	0.016324
1140.000000	0.016177
1139.000000	0.016038
1138.000000	0.015919
1137.000000	0.015832
1136.000000	0.015782
1135.000000	0.015758
1134.000000	0.015749
1133.000000	0.015748
1132.000000	0.015756
1131.000000	0.015776
1130.000000	0.015803
1129.000000	0.015838
1128.000000	0.015885
1127.000000	0.015953
1126.000000	0.016046
1125.000000	0.016159
1124.000000	0.016278
1123.000000	0.016382
1122.000000	0.016456
1121.000000	0.016505
1120.000000	0.016550
1119.000000	0.016619
1118.000000	0.016731
1117.000000	0.016889
1116.000000	0.017074
1115.000000	0.017256
1114.000000	0.017413
1113.000000	0.017542
1112.000000	0.017656
1111.000000	0.017769
1110.000000	0.017876
1109.000000	0.017967
1108.000000	0.018038
1107.000000	0.018096
1106.000000	0.018147
1105.000000	0.018195
1104.000000	0.018240
1103.000000	0.018287
1102.000000	0.018342
1101.000000	0.018405
1100.000000	0.018468
1099.000000	0.018526
1098.000000	0.018588
1097.000000	0.018662
1096.000000	0.018751
1095.000000	0.018849
1094.000000	0.018954
1093.000000	0.019070
1092.000000	0.019204
1091.000000	0.019372
1090.000000	0.019583
1089.000000	0.019832
1088.000000	0.020098
1087.000000	0.020356
1086.000000	0.020604
1085.000000	0.020847
1084.000000	0.021078
1083.000000	0.021271
1082.000000	0.021411
1081.000000	0.021501
1080.000000	0.021547
1079.000000	0.021545
1078.000000	0.021489
1077.000000	0.021384
1076.000000	0.021245
1075.000000	0.021082
1074.000000	0.020900
1073.000000	0.020711
1072.000000	0.020529
1071.000000	0.020369
1070.000000	0.020249
1069.000000	0.020187
1068.000000	0.020188
1067.000000	0.020232
1066.000000	0.020290
1065.000000	0.020348
1064.000000	0.020424
1063.000000	0.020539
1062.000000	0.020696
1061.000000	0.020873
1060.000000	0.021040
1059.000000	0.021173
1058.000000	0.021259
1057.000000	0.021307
1056.000000	0.021342
1055.000000	0.021389
1054.000000	0.021455
1053.000000	0.021522
1052.000000	0.021577
1051.000000	0.021623
1050.000000	0.021675
1049.000000	0.021743
1048.000000	0.021820
1047.000000	0.021892
1046.000000	0.021948
1045.000000	0.021984
1044.000000	0.022008
1043.000000	0.022038
1042.000000	0.022099
1041.000000	0.022204
1040.000000	0.022352
1039.000000	0.022535
1038.000000	0.022752
1037.000000	0.022999
1036.000000	0.023262
1035.000000	0.023529
1034.000000	0.023795
1033.000000	0.024060
1032.000000	0.024321
1031.000000	0.024570
1030.000000	0.024805
1029.000000	0.025027
1028.000000	0.025230
1027.000000	0.025395
1026.000000	0.025520
1025.000000	0.025631
1024.000000	0.025772
1023.000000	0.025970
1022.000000	0.026219
1021.000000	0.026483
1020.000000	0.026731
1019.000000	0.026939
1018.000000	0.027092
1017.000000	0.027156
1016.000000	0.027084
1015.000000	0.026848
1014.000000	0.026459
1013.000000	0.025964
1012.000000	0.025420
1011.000000	0.024877
1010.000000	0.024364
1009.000000	0.023884
1008.000000	0.023417
1007.000000	0.022943
1006.000000	0.022473
1005.000000	0.022033
1004.000000	0.021642
1003.000000	0.021299
1002.000000	0.020988
1001.000000	0.020698
1000.000000	0.020421
999.000000	0.020157
998.000000	0.019905
997.000000	0.019663
996.000000	0.019426
995.000000	0.019180
994.000000	0.018916
993.000000	0.018633
992.000000	0.018338
991.000000	0.018045
990.000000	0.017769
989.000000	0.017515
988.000000	0.017276
987.000000	0.017046
986.000000	0.016820
985.000000	0.016592
984.000000	0.016363
983.000000	0.016138
982.000000	0.015924
981.000000	0.015718
980.000000	0.015503
979.000000	0.015277
978.000000	0.015055
977.000000	0.014852
976.000000	0.014668
975.000000	0.014497
974.000000	0.014340
973.000000	0.014205
972.000000	0.014086
971.000000	0.013967
970.000000	0.013837
969.000000	0.013689
968.000000	0.013516
967.000000	0.013315
966.000000	0.013091
965.000000	0.012864
964.000000	0.012648
963.000000	0.012446
962.000000	0.012263
961.000000	0.012105
960.000000	0.011967
959.000000	0.011836
958.000000	0.011699
957.000000	0.011553
956.000000	0.011405
955.000000	0.011262
954.000000	0.011131
953.000000	0.011017
952.000000	0.010918
951.000000	0.010822
950.000000	0.010719
949.000000	0.010605
948.000000	0.010487
947.000000	0.010382
946.000000	0.010305
945.000000	0.010265
944.000000	0.010255
943.000000	0.010250
942.000000	0.010234
941.000000	0.010205
940.000000	0.010172
939.000000	0.010140
938.000000	0.010104
937.000000	0.010055
936.000000	0.009980
935.000000	0.009884
934.000000	0.009792
933.000000	0.009734
932.000000	0.009708
931.000000	0.009678
930.000000	0.009611
929.000000	0.009517
928.000000	0.009441
927.000000	0.009413
926.000000	0.009426
925.000000	0.009450
924.000000	0.009453
923.000000	0.009418
922.000000	0.009349
921.000000	0.009267
920.000000	0.009187
919.000000	0.009102
918.000000	0.008993
917.000000	0.008863
916.000000	0.008739
915.000000	0.008645
914.000000	0.008571
913.000000	0.008494
912.000000	0.008396
911.000000	0.008285
910.000000	0.008180
909.000000	0.008100
908.000000	0.008055
907.000000	0.008037
906.000000	0.008020
905.000000	0.007982
904.000000	0.007916
903.000000	0.007834
902.000000	0.007744
901.000000	0.007653
900.000000	0.007567
899.000000	0.007497
898.000000	0.007446
897.000000	0.007408
896.000000	0.007367
895.000000	0.007309
894.000000	0.007231
893.000000	0.007153
892.000000	0.007101
891.000000	0.007084
890.000000	0.007091
889.000000	0.007115
888.000000	0.007176
887.000000	0.007302
886.000000	0.007509
885.000000	0.007790
884.000000	0.008131
883.000000	0.008540
882.000000	0.009042
881.000000	0.009672
880.000000	0.010434
879.000000	0.011267
878.000000	0.012050
877.000000	0.012647
876.000000	0.012969
875.000000	0.012990
874.000000	0.012723
873.000000	0.012209
872.000000	0.011512
871.000000	0.010731
870.000000	0.009981
869.000000	0.009355
868.000000	0.008892
867.000000	0.008579
866.000000	0.008369
865.000000	0.008211
864.000000	0.008071
863.000000	0.007932
862.000000	0.007798
861.000000	0.007682
860.000000	0.007604
859.000000	0.007578
858.000000	0.007605
857.000000	0.007660
856.000000	0.007709
855.000000	0.007731
854.000000	0.007728
853.000000	0.007709
852.000000	0.007681
851.000000	0.007656
850.000000	0.007654
849.000000	0.007681
848.000000	0.007705
847.000000	0.007676
846.000000	0.007580
845.000000	0.007459
844.000000	0.007367
843.000000	0.007320
842.000000	0.007300
841.000000	0.007292
840.000000	0.007289
839.000000	0.007281
838.000000	0.007257
837.000000	0.007226
836.000000	0.007208
835.000000	0.007197
834.000000	0.007176
833.000000	0.007144
832.000000	0.007129
831.000000	0.007150
830.000000	0.007193
829.000000	0.007222
828.000000	0.007215
827.000000	0.007180
826.000000	0.007144
825.000000	0.007136
824.000000	0.007170
823.000000	0.007229
822.000000	0.007276
821.000000	0.007291
820.000000	0.007280
819.000000	0.007256
818.000000	0.007224
817.000000	0.007184
816.000000	0.007146
815.000000	0.007130
814.000000	0.007143
813.000000	0.007178
812.000000	0.007217
811.000000	0.007240
810.000000	0.007235
809.000000	0.007218
808.000000	0.007212
807.000000	0.007226
806.000000	0.007239
805.000000	0.007226
804.000000	0.007183
803.000000	0.007133
802.000000	0.007111
801.000000	0.007135
800.000000	0.007187
799.000000	0.007227
798.000000	0.007234
797.000000	0.007227
796.000000	0.007229
795.000000	0.007224
794.000000	0.007186
793.000000	0.007134
792.000000	0.007123
791.000000	0.007183
790.000000	0.007272
789.000000	0.007328
788.000000	0.007334
787.000000	0.007320
786.000000	0.007315
785.000000	0.007325
784.000000	0.007333
783.000000	0.007326
782.000000	0.007314
781.000000	0.007317
780.000000	0.007341
779.000000	0.007363
778.000000	0.007352
777.000000	0.007303
776.000000	0.007239
775.000000	0.007194
774.000000	0.007184
773.000000	0.007210
772.000000	0.007245
771.000000	0.007255
770.000000	0.007229
769.000000	0.007206
768.000000	0.007228
767.000000	0.007287
766.000000	0.007330
765.000000	0.007323
764.000000	0.007286
763.000000	0.007250
762.000000	0.007232
761.000000	0.007236
760.000000	0.007269
759.000000	0.007314
758.000000	0.007329
757.000000	0.007297
756.000000	0.007252
755.000000	0.007234
754.000000	0.007238
753.000000	0.007230
752.000000	0.007202
751.000000	0.007177
750.000000	0.007175
749.000000	0.007192
748.000000	0.007216
747.000000	0.007241
746.000000	0.007265
745.000000	0.007285
744.000000	0.007296
743.000000	0.007295
742.000000	0.007282
741.000000	0.007281
740.000000	0.007320
739.000000	0.007393
738.000000	0.007457
737.000000	0.007483
736.000000	0.007488
735.000000	0.007508
734.000000	0.007547
733.000000	0.007595
732.000000	0.007660
731.000000	0.007751
730.000000	0.007851
729.000000	0.007929
728.000000	0.007985
727.000000	0.008054
726.000000	0.008166
725.000000	0.008326
724.000000	0.008515
723.000000	0.008710
722.000000	0.008885
721.000000	0.009020
720.000000	0.009103
719.000000	0.009129
718.000000	0.009122
717.000000	0.009146
716.000000	0.009278
715.000000	0.009532
714.000000	0.009826
713.000000	0.010044
712.000000	0.010131
711.000000	0.010117
710.000000	0.010062
709.000000	0.010009
708.000000	0.009979
707.000000	0.009965
706.000000	0.009958
705.000000	0.009961
704.000000	0.009993
703.000000	0.010054
702.000000	0.010112
701.000000	0.010139
700.000000	0.010145
699.000000	0.010145
698.000000	0.010115
697.000000	0.010029
696.000000	0.009925
695.000000	0.009889
694.000000	0.009944
693.000000	0.010010
692.000000	0.010003
691.000000	0.009925
690.000000	0.009852
689.000000	0.009852
688.000000	0.009942
687.000000	0.010094
686.000000	0.010258
685.000000	0.010376
684.000000	0.010426
683.000000	0.010429
682.000000	0.010410
681.000000	0.010389
680.000000	0.010397
679.000000	0.010457
678.000000	0.010544
677.000000	0.010635
676.000000	0.010760
675.000000	0.010965
674.000000	0.011231
673.000000	0.011474
672.000000	0.011638
671.000000	0.011729
670.000000	0.011757
669.000000	0.011688
668.000000	0.011645
667.000000	0.011724
666.000000	0.011688
665.000000	0.011625
664.000000	0.011628
663.000000	0.011635
662.000000	0.011589
661.000000	0.011497
660.000000	0.011395
659.000000	0.011287
658.000000	0.011177
657.000000	0.011098
656.000000	0.011044
655.000000	0.010969
654.000000	0.010869
653.000000	0.010802
652.000000	0.010795
651.000000	0.010812
650.000000	0.010837
649.000000	0.010899
648.000000	0.010972
647.000000	0.010964
646.000000	0.010848
645.000000	0.010715
644.000000	0.010665
643.000000	0.010697
642.000000	0.010752
641.000000	0.010796
640.000000	0.010831
639.000000	0.010852
638.000000	0.010861
637.000000	0.010883
636.000000	0.010920
635.000000	0.010925
634.000000	0.010870
633.000000	0.010795
632.000000	0.010767
631.000000	0.010788
630.000000	0.010802
629.000000	0.010773
628.000000	0.010720
627.000000	0.010688
626.000000	0.010711
625.000000	0.010785
624.000000	0.010866
623.000000	0.010910
622.000000	0.010902
621.000000	0.010859
620.000000	0.010813
619.000000	0.010803
618.000000	0.010867
617.000000	0.010998
616.000000	0.011122
615.000000	0.011159
614.000000	0.011115
613.000000	0.011070
612.000000	0.011068
611.000000	0.011080
610.000000	0.011064
609.000000	0.011026
608.000000	0.010981
607.000000	0.010919
606.000000	0.010842
605.000000	0.010797
604.000000	0.010821
603.000000	0.010875
602.000000	0.010862
601.000000	0.010723
600.000000	0.010502
599.000000	0.010323
598.000000	0.010294
597.000000	0.010406
596.000000	0.010530
595.000000	0.010536
594.000000	0.010420
593.000000	0.010307
592.000000	0.010295
591.000000	0.010367
590.000000	0.010444
589.000000	0.010490
588.000000	0.010502
587.000000	0.010460
586.000000	0.010353
585.000000	0.010229
584.000000	0.010169
583.000000	0.010204
582.000000	0.010287
581.000000	0.010348
580.000000	0.010352
579.000000	0.010302
578.000000	0.010222
577.000000	0.010140
576.000000	0.010084
575.000000	0.010076
574.000000	0.010131
573.000000	0.010253
572.000000	0.010418
571.000000	0.010580
570.000000	0.010703
569.000000	0.010777
568.000000	0.010809
567.000000	0.010817
566.000000	0.010841
565.000000	0.010926
564.000000	0.011084
563.000000	0.011279
562.000000	0.011450
561.000000	0.011543
560.000000	0.011518
559.000000	0.011384
558.000000	0.011210
557.000000	0.011076
556.000000	0.011001
555.000000	0.010952
554.000000	0.010914
553.000000	0.010893
552.000000	0.010868
551.000000	0.010790
550.000000	0.010657
549.000000	0.010515
548.000000	0.010406
547.000000	0.010347
546.000000	0.010377
545.000000	0.010525
544.000000	0.010739
543.000000	0.010921
542.000000	0.011051
541.000000	0.011175
540.000000	0.011265
539.000000	0.011204
538.000000	0.010978
537.000000	0.010779
536.000000	0.010817
535.000000	0.011077
534.000000	0.011352
533.000000	0.011453
532.000000	0.011357
531.000000	0.011174
530.000000	0.011036
529.000000	0.011005
528.000000	0.011017
527.000000	0.010953
526.000000	0.010772
525.000000	0.010552
524.000000	0.010369
523.000000	0.010220
522.000000	0.010085
521.000000	0.009963
520.000000	0.009813
519.000000	0.009567
518.000000	0.009264
517.000000	0.009075
516.000000	0.009103
515.000000	0.009246
514.000000	0.009316
513.000000	0.009221
512.000000	0.008971
511.000000	0.008639
510.000000	0.008384
509.000000	0.008393
508.000000	0.008691
507.000000	0.009040
506.000000	0.009136
505.000000	0.008913
504.000000	0.008521
503.000000	0.008118
502.000000	0.007789
501.000000	0.007598
500.000000	0.007576
499.000000	0.007668
498.000000	0.007774
497.000000	0.007824
496.000000	0.007786
495.000000	0.007651
494.000000	0.007480
493.000000	0.007399
492.000000	0.007469
491.000000	0.007579
490.000000	0.007556
489.000000	0.007363
488.000000	0.007106
487.000000	0.006908
486.000000	0.006844
485.000000	0.006950
484.000000	0.007195
483.000000	0.007466
482.000000	0.007684
481.000000	0.007893
480.000000	0.008137
479.000000	0.008306
478.000000	0.008242
477.000000	0.007972
476.000000	0.007716
475.000000	0.007667
474.000000	0.007846
473.000000	0.008135
472.000000	0.008372
471.000000	0.008469
470.000000	0.008518
469.000000	0.008711
468.000000	0.009115
467.000000	0.009543
466.000000	0.009759
465.000000	0.009734
464.000000	0.009588
463.000000	0.009340
462.000000	0.008888
461.000000	0.008215
460.000000	0.007461
459.000000	0.006857
458.000000	0.006652
457.000000	0.006906
456.000000	0.007303
455.000000	0.007410
454.000000	0.007159
453.000000	0.006934
452.000000	0.007104
451.000000	0.007453
450.000000	0.007456
