PE IR       SUBTECH     SPECTRUM    ASCII       PEDS        4.00        
   -1
3G-N10-F028_1.ASC
22/02/24
10:52:24.00
22/02/24
11:04:21.00
uco
Sample 028 By uco Date Thursday, February 24 2022
450.000000
#HDR
-1
-1
#GR
cm-1
A
1.0
0.0
4000.000000
-1.000000
3551
8
0.064783
0.009245
#DATA
4000.000000	0.009462
3999.000000	0.009457
3998.000000	0.009458
3997.000000	0.009455
3996.000000	0.009449
3995.000000	0.009441
3994.000000	0.009432
3993.000000	0.009423
3992.000000	0.009419
3991.000000	0.009422
3990.000000	0.009436
3989.000000	0.009461
3988.000000	0.009487
3987.000000	0.009507
3986.000000	0.009514
3985.000000	0.009509
3984.000000	0.009500
3983.000000	0.009497
3982.000000	0.009507
3981.000000	0.009528
3980.000000	0.009553
3979.000000	0.009572
3978.000000	0.009580
3977.000000	0.009578
3976.000000	0.009572
3975.000000	0.009564
3974.000000	0.009555
3973.000000	0.009544
3972.000000	0.009532
3971.000000	0.009522
3970.000000	0.009523
3969.000000	0.009542
3968.000000	0.009577
3967.000000	0.009618
3966.000000	0.009650
3965.000000	0.009668
3964.000000	0.009678
3963.000000	0.009683
3962.000000	0.009684
3961.000000	0.009676
3960.000000	0.009656
3959.000000	0.009632
3958.000000	0.009613
3957.000000	0.009609
3956.000000	0.009620
3955.000000	0.009636
3954.000000	0.009641
3953.000000	0.009627
3952.000000	0.009606
3951.000000	0.009593
3950.000000	0.009597
3949.000000	0.009615
3948.000000	0.009631
3947.000000	0.009633
3946.000000	0.009622
3945.000000	0.009609
3944.000000	0.009607
3943.000000	0.009629
3942.000000	0.009677
3941.000000	0.009732
3940.000000	0.009771
3939.000000	0.009776
3938.000000	0.009745
3937.000000	0.009694
3936.000000	0.009644
3935.000000	0.009610
3934.000000	0.009601
3933.000000	0.009615
3932.000000	0.009646
3931.000000	0.009684
3930.000000	0.009713
3929.000000	0.009723
3928.000000	0.009711
3927.000000	0.009689
3926.000000	0.009669
3925.000000	0.009659
3924.000000	0.009655
3923.000000	0.009654
3922.000000	0.009651
3921.000000	0.009648
3920.000000	0.009647
3919.000000	0.009651
3918.000000	0.009660
3917.000000	0.009673
3916.000000	0.009687
3915.000000	0.009695
3914.000000	0.009697
3913.000000	0.009694
3912.000000	0.009689
3911.000000	0.009684
3910.000000	0.009677
3909.000000	0.009664
3908.000000	0.009645
3907.000000	0.009625
3906.000000	0.009613
3905.000000	0.009619
3904.000000	0.009642
3903.000000	0.009679
3902.000000	0.009719
3901.000000	0.009754
3900.000000	0.009774
3899.000000	0.009778
3898.000000	0.009769
3897.000000	0.009754
3896.000000	0.009738
3895.000000	0.009722
3894.000000	0.009709
3893.000000	0.009704
3892.000000	0.009709
3891.000000	0.009715
3890.000000	0.009716
3889.000000	0.009713
3888.000000	0.009711
3887.000000	0.009717
3886.000000	0.009725
3885.000000	0.009731
3884.000000	0.009728
3883.000000	0.009715
3882.000000	0.009696
3881.000000	0.009681
3880.000000	0.009676
3879.000000	0.009682
3878.000000	0.009689
3877.000000	0.009690
3876.000000	0.009688
3875.000000	0.009688
3874.000000	0.009698
3873.000000	0.009719
3872.000000	0.009744
3871.000000	0.009760
3870.000000	0.009763
3869.000000	0.009762
3868.000000	0.009770
3867.000000	0.009789
3866.000000	0.009807
3865.000000	0.009812
3864.000000	0.009805
3863.000000	0.009790
3862.000000	0.009773
3861.000000	0.009763
3860.000000	0.009761
3859.000000	0.009765
3858.000000	0.009766
3857.000000	0.009754
3856.000000	0.009725
3855.000000	0.009687
3854.000000	0.009677
3853.000000	0.009719
3852.000000	0.009786
3851.000000	0.009837
3850.000000	0.009859
3849.000000	0.009855
3848.000000	0.009834
3847.000000	0.009802
3846.000000	0.009762
3845.000000	0.009720
3844.000000	0.009684
3843.000000	0.009659
3842.000000	0.009649
3841.000000	0.009652
3840.000000	0.009660
3839.000000	0.009667
3838.000000	0.009671
3837.000000	0.009669
3836.000000	0.009662
3835.000000	0.009655
3834.000000	0.009657
3833.000000	0.009671
3832.000000	0.009693
3831.000000	0.009719
3830.000000	0.009740
3829.000000	0.009755
3828.000000	0.009763
3827.000000	0.009765
3826.000000	0.009760
3825.000000	0.009750
3824.000000	0.009737
3823.000000	0.009722
3822.000000	0.009705
3821.000000	0.009695
3820.000000	0.009700
3819.000000	0.009722
3818.000000	0.009758
3817.000000	0.009791
3816.000000	0.009804
3815.000000	0.009792
3814.000000	0.009768
3813.000000	0.009747
3812.000000	0.009736
3811.000000	0.009732
3810.000000	0.009733
3809.000000	0.009737
3808.000000	0.009743
3807.000000	0.009749
3806.000000	0.009758
3805.000000	0.009772
3804.000000	0.009791
3803.000000	0.009801
3802.000000	0.009786
3801.000000	0.009751
3800.000000	0.009718
3799.000000	0.009702
3798.000000	0.009700
3797.000000	0.009699
3796.000000	0.009690
3795.000000	0.009676
3794.000000	0.009662
3793.000000	0.009652
3792.000000	0.009648
3791.000000	0.009651
3790.000000	0.009655
3789.000000	0.009654
3788.000000	0.009642
3787.000000	0.009617
3786.000000	0.009590
3785.000000	0.009573
3784.000000	0.009577
3783.000000	0.009602
3782.000000	0.009643
3781.000000	0.009680
3780.000000	0.009696
3779.000000	0.009688
3778.000000	0.009668
3777.000000	0.009648
3776.000000	0.009633
3775.000000	0.009617
3774.000000	0.009595
3773.000000	0.009569
3772.000000	0.009543
3771.000000	0.009523
3770.000000	0.009516
3769.000000	0.009525
3768.000000	0.009544
3767.000000	0.009563
3766.000000	0.009574
3765.000000	0.009577
3764.000000	0.009574
3763.000000	0.009571
3762.000000	0.009564
3761.000000	0.009552
3760.000000	0.009540
3759.000000	0.009539
3758.000000	0.009547
3757.000000	0.009555
3756.000000	0.009551
3755.000000	0.009537
3754.000000	0.009518
3753.000000	0.009503
3752.000000	0.009508
3751.000000	0.009542
3750.000000	0.009592
3749.000000	0.009627
3748.000000	0.009639
3747.000000	0.009649
3746.000000	0.009669
3745.000000	0.009692
3744.000000	0.009696
3743.000000	0.009663
3742.000000	0.009604
3741.000000	0.009543
3740.000000	0.009502
3739.000000	0.009491
3738.000000	0.009505
3737.000000	0.009521
3736.000000	0.009511
3735.000000	0.009469
3734.000000	0.009425
3733.000000	0.009410
3732.000000	0.009426
3731.000000	0.009453
3730.000000	0.009471
3729.000000	0.009473
3728.000000	0.009461
3727.000000	0.009442
3726.000000	0.009424
3725.000000	0.009419
3724.000000	0.009426
3723.000000	0.009438
3722.000000	0.009449
3721.000000	0.009454
3720.000000	0.009456
3719.000000	0.009457
3718.000000	0.009459
3717.000000	0.009458
3716.000000	0.009451
3715.000000	0.009445
3714.000000	0.009456
3713.000000	0.009490
3712.000000	0.009534
3711.000000	0.009563
3710.000000	0.009564
3709.000000	0.009547
3708.000000	0.009528
3707.000000	0.009511
3706.000000	0.009494
3705.000000	0.009471
3704.000000	0.009444
3703.000000	0.009420
3702.000000	0.009408
3701.000000	0.009412
3700.000000	0.009430
3699.000000	0.009456
3698.000000	0.009482
3697.000000	0.009504
3696.000000	0.009520
3695.000000	0.009538
3694.000000	0.009557
3693.000000	0.009571
3692.000000	0.009573
3691.000000	0.009558
3690.000000	0.009533
3689.000000	0.009507
3688.000000	0.009487
3687.000000	0.009478
3686.000000	0.009488
3685.000000	0.009514
3684.000000	0.009547
3683.000000	0.009575
3682.000000	0.009598
3681.000000	0.009630
3680.000000	0.009693
3679.000000	0.009800
3678.000000	0.009940
3677.000000	0.010060
3676.000000	0.010095
3675.000000	0.010032
3674.000000	0.009934
3673.000000	0.009859
3672.000000	0.009824
3671.000000	0.009811
3670.000000	0.009807
3669.000000	0.009809
3668.000000	0.009816
3667.000000	0.009823
3666.000000	0.009825
3665.000000	0.009821
3664.000000	0.009815
3663.000000	0.009811
3662.000000	0.009810
3661.000000	0.009811
3660.000000	0.009808
3659.000000	0.009801
3658.000000	0.009795
3657.000000	0.009802
3656.000000	0.009831
3655.000000	0.009882
3654.000000	0.009946
3653.000000	0.010014
3652.000000	0.010077
3651.000000	0.010119
3650.000000	0.010132
3649.000000	0.010125
3648.000000	0.010111
3647.000000	0.010103
3646.000000	0.010110
3645.000000	0.010134
3644.000000	0.010169
3643.000000	0.010209
3642.000000	0.010251
3641.000000	0.010293
3640.000000	0.010338
3639.000000	0.010387
3638.000000	0.010436
3637.000000	0.010480
3636.000000	0.010510
3635.000000	0.010527
3634.000000	0.010538
3633.000000	0.010557
3632.000000	0.010594
3631.000000	0.010648
3630.000000	0.010712
3629.000000	0.010776
3628.000000	0.010830
3627.000000	0.010863
3626.000000	0.010876
3625.000000	0.010877
3624.000000	0.010875
3623.000000	0.010875
3622.000000	0.010881
3621.000000	0.010900
3620.000000	0.010938
3619.000000	0.011001
3618.000000	0.011076
3617.000000	0.011148
3616.000000	0.011212
3615.000000	0.011275
3614.000000	0.011344
3613.000000	0.011417
3612.000000	0.011488
3611.000000	0.011552
3610.000000	0.011607
3609.000000	0.011652
3608.000000	0.011683
3607.000000	0.011707
3606.000000	0.011733
3605.000000	0.011767
3604.000000	0.011805
3603.000000	0.011840
3602.000000	0.011874
3601.000000	0.011911
3600.000000	0.011955
3599.000000	0.012006
3598.000000	0.012061
3597.000000	0.012118
3596.000000	0.012174
3595.000000	0.012223
3594.000000	0.012264
3593.000000	0.012307
3592.000000	0.012361
3591.000000	0.012424
3590.000000	0.012483
3589.000000	0.012528
3588.000000	0.012568
3587.000000	0.012621
3586.000000	0.012695
3585.000000	0.012776
3584.000000	0.012850
3583.000000	0.012915
3582.000000	0.012978
3581.000000	0.013047
3580.000000	0.013125
3579.000000	0.013208
3578.000000	0.013294
3577.000000	0.013377
3576.000000	0.013455
3575.000000	0.013530
3574.000000	0.013599
3573.000000	0.013661
3572.000000	0.013710
3571.000000	0.013749
3570.000000	0.013788
3569.000000	0.013839
3568.000000	0.013908
3567.000000	0.013992
3566.000000	0.014084
3565.000000	0.014173
3564.000000	0.014249
3563.000000	0.014312
3562.000000	0.014369
3561.000000	0.014429
3560.000000	0.014500
3559.000000	0.014588
3558.000000	0.014690
3557.000000	0.014797
3556.000000	0.014899
3555.000000	0.014986
3554.000000	0.015063
3553.000000	0.015133
3552.000000	0.015195
3551.000000	0.015240
3550.000000	0.015272
3549.000000	0.015305
3548.000000	0.015355
3547.000000	0.015432
3546.000000	0.015528
3545.000000	0.015629
3544.000000	0.015719
3543.000000	0.015790
3542.000000	0.015846
3541.000000	0.015892
3540.000000	0.015937
3539.000000	0.015988
3538.000000	0.016052
3537.000000	0.016132
3536.000000	0.016220
3535.000000	0.016300
3534.000000	0.016362
3533.000000	0.016410
3532.000000	0.016459
3531.000000	0.016528
3530.000000	0.016621
3529.000000	0.016730
3528.000000	0.016835
3527.000000	0.016920
3526.000000	0.016982
3525.000000	0.017026
3524.000000	0.017056
3523.000000	0.017079
3522.000000	0.017110
3521.000000	0.017167
3520.000000	0.017257
3519.000000	0.017367
3518.000000	0.017472
3517.000000	0.017556
3516.000000	0.017615
3515.000000	0.017659
3514.000000	0.017701
3513.000000	0.017751
3512.000000	0.017813
3511.000000	0.017889
3510.000000	0.017978
3509.000000	0.018070
3508.000000	0.018155
3507.000000	0.018231
3506.000000	0.018299
3505.000000	0.018365
3504.000000	0.018432
3503.000000	0.018497
3502.000000	0.018559
3501.000000	0.018618
3500.000000	0.018673
3499.000000	0.018727
3498.000000	0.018778
3497.000000	0.018828
3496.000000	0.018880
3495.000000	0.018938
3494.000000	0.019005
3493.000000	0.019076
3492.000000	0.019144
3491.000000	0.019202
3490.000000	0.019251
3489.000000	0.019296
3488.000000	0.019345
3487.000000	0.019408
3486.000000	0.019485
3485.000000	0.019571
3484.000000	0.019654
3483.000000	0.019725
3482.000000	0.019789
3481.000000	0.019851
3480.000000	0.019911
3479.000000	0.019965
3478.000000	0.020014
3477.000000	0.020063
3476.000000	0.020116
3475.000000	0.020178
3474.000000	0.020248
3473.000000	0.020323
3472.000000	0.020395
3471.000000	0.020457
3470.000000	0.020509
3469.000000	0.020558
3468.000000	0.020608
3467.000000	0.020659
3466.000000	0.020707
3465.000000	0.020757
3464.000000	0.020814
3463.000000	0.020880
3462.000000	0.020947
3461.000000	0.021000
3460.000000	0.021037
3459.000000	0.021073
3458.000000	0.021124
3457.000000	0.021198
3456.000000	0.021285
3455.000000	0.021371
3454.000000	0.021444
3453.000000	0.021499
3452.000000	0.021539
3451.000000	0.021572
3450.000000	0.021612
3449.000000	0.021668
3448.000000	0.021739
3447.000000	0.021818
3446.000000	0.021902
3445.000000	0.021998
3444.000000	0.022100
3443.000000	0.022196
3442.000000	0.022273
3441.000000	0.022331
3440.000000	0.022381
3439.000000	0.022432
3438.000000	0.022485
3437.000000	0.022539
3436.000000	0.022596
3435.000000	0.022660
3434.000000	0.022728
3433.000000	0.022796
3432.000000	0.022860
3431.000000	0.022925
3430.000000	0.023001
3429.000000	0.023087
3428.000000	0.023173
3427.000000	0.023238
3426.000000	0.023281
3425.000000	0.023318
3424.000000	0.023371
3423.000000	0.023446
3422.000000	0.023532
3421.000000	0.023614
3420.000000	0.023689
3419.000000	0.023760
3418.000000	0.023835
3417.000000	0.023913
3416.000000	0.023989
3415.000000	0.024056
3414.000000	0.024112
3413.000000	0.024160
3412.000000	0.024210
3411.000000	0.024271
3410.000000	0.024344
3409.000000	0.024424
3408.000000	0.024498
3407.000000	0.024560
3406.000000	0.024606
3405.000000	0.024649
3404.000000	0.024701
3403.000000	0.024766
3402.000000	0.024837
3401.000000	0.024901
3400.000000	0.024954
3399.000000	0.024998
3398.000000	0.025043
3397.000000	0.025094
3396.000000	0.025152
3395.000000	0.025216
3394.000000	0.025284
3393.000000	0.025355
3392.000000	0.025430
3391.000000	0.025507
3390.000000	0.025582
3389.000000	0.025647
3388.000000	0.025699
3387.000000	0.025745
3386.000000	0.025793
3385.000000	0.025853
3384.000000	0.025923
3383.000000	0.025996
3382.000000	0.026058
3381.000000	0.026103
3380.000000	0.026138
3379.000000	0.026185
3378.000000	0.026260
3377.000000	0.026363
3376.000000	0.026475
3375.000000	0.026576
3374.000000	0.026661
3373.000000	0.026737
3372.000000	0.026810
3371.000000	0.026883
3370.000000	0.026959
3369.000000	0.027039
3368.000000	0.027125
3367.000000	0.027217
3366.000000	0.027314
3365.000000	0.027413
3364.000000	0.027507
3363.000000	0.027590
3362.000000	0.027664
3361.000000	0.027738
3360.000000	0.027819
3359.000000	0.027908
3358.000000	0.028000
3357.000000	0.028091
3356.000000	0.028176
3355.000000	0.028256
3354.000000	0.028337
3353.000000	0.028425
3352.000000	0.028517
3351.000000	0.028610
3350.000000	0.028703
3349.000000	0.028805
3348.000000	0.028919
3347.000000	0.029042
3346.000000	0.029158
3345.000000	0.029256
3344.000000	0.029332
3343.000000	0.029400
3342.000000	0.029473
3341.000000	0.029562
3340.000000	0.029663
3339.000000	0.029768
3338.000000	0.029866
3337.000000	0.029951
3336.000000	0.030020
3335.000000	0.030076
3334.000000	0.030128
3333.000000	0.030189
3332.000000	0.030269
3331.000000	0.030366
3330.000000	0.030469
3329.000000	0.030562
3328.000000	0.030634
3327.000000	0.030689
3326.000000	0.030740
3325.000000	0.030805
3324.000000	0.030885
3323.000000	0.030972
3322.000000	0.031052
3321.000000	0.031119
3320.000000	0.031177
3319.000000	0.031233
3318.000000	0.031296
3317.000000	0.031369
3316.000000	0.031450
3315.000000	0.031531
3314.000000	0.031602
3313.000000	0.031659
3312.000000	0.031701
3311.000000	0.031732
3310.000000	0.031751
3309.000000	0.031761
3308.000000	0.031768
3307.000000	0.031789
3306.000000	0.031840
3305.000000	0.031922
3304.000000	0.032021
3303.000000	0.032122
3302.000000	0.032216
3301.000000	0.032293
3300.000000	0.032344
3299.000000	0.032363
3298.000000	0.032360
3297.000000	0.032355
3296.000000	0.032369
3295.000000	0.032405
3294.000000	0.032450
3293.000000	0.032486
3292.000000	0.032508
3291.000000	0.032521
3290.000000	0.032532
3289.000000	0.032547
3288.000000	0.032563
3287.000000	0.032577
3286.000000	0.032584
3285.000000	0.032578
3284.000000	0.032559
3283.000000	0.032530
3282.000000	0.032501
3281.000000	0.032477
3280.000000	0.032458
3279.000000	0.032437
3278.000000	0.032412
3277.000000	0.032383
3276.000000	0.032350
3275.000000	0.032312
3274.000000	0.032267
3273.000000	0.032215
3272.000000	0.032156
3271.000000	0.032099
3270.000000	0.032052
3269.000000	0.032022
3268.000000	0.032005
3267.000000	0.031986
3266.000000	0.031947
3265.000000	0.031882
3264.000000	0.031796
3263.000000	0.031708
3262.000000	0.031632
3261.000000	0.031568
3260.000000	0.031505
3259.000000	0.031434
3258.000000	0.031355
3257.000000	0.031276
3256.000000	0.031206
3255.000000	0.031146
3254.000000	0.031092
3253.000000	0.031031
3252.000000	0.030954
3251.000000	0.030861
3250.000000	0.030766
3249.000000	0.030679
3248.000000	0.030604
3247.000000	0.030534
3246.000000	0.030462
3245.000000	0.030385
3244.000000	0.030307
3243.000000	0.030232
3242.000000	0.030160
3241.000000	0.030088
3240.000000	0.030017
3239.000000	0.029946
3238.000000	0.029876
3237.000000	0.029807
3236.000000	0.029744
3235.000000	0.029690
3234.000000	0.029645
3233.000000	0.029600
3232.000000	0.029547
3231.000000	0.029485
3230.000000	0.029416
3229.000000	0.029348
3228.000000	0.029288
3227.000000	0.029239
3226.000000	0.029200
3225.000000	0.029161
3224.000000	0.029115
3223.000000	0.029063
3222.000000	0.029007
3221.000000	0.028949
3220.000000	0.028889
3219.000000	0.028834
3218.000000	0.028796
3217.000000	0.028775
3216.000000	0.028754
3215.000000	0.028712
3214.000000	0.028642
3213.000000	0.028552
3212.000000	0.028458
3211.000000	0.028378
3210.000000	0.028324
3209.000000	0.028294
3208.000000	0.028276
3207.000000	0.028258
3206.000000	0.028234
3205.000000	0.028195
3204.000000	0.028138
3203.000000	0.028063
3202.000000	0.027987
3201.000000	0.027929
3200.000000	0.027892
3199.000000	0.027858
3198.000000	0.027805
3197.000000	0.027729
3196.000000	0.027644
3195.000000	0.027571
3194.000000	0.027514
3193.000000	0.027466
3192.000000	0.027407
3191.000000	0.027329
3190.000000	0.027237
3189.000000	0.027150
3188.000000	0.027082
3187.000000	0.027032
3186.000000	0.026979
3185.000000	0.026907
3184.000000	0.026819
3183.000000	0.026732
3182.000000	0.026660
3181.000000	0.026599
3180.000000	0.026538
3179.000000	0.026468
3178.000000	0.026385
3177.000000	0.026290
3176.000000	0.026193
3175.000000	0.026106
3174.000000	0.026039
3173.000000	0.025990
3172.000000	0.025946
3171.000000	0.025896
3170.000000	0.025837
3169.000000	0.025772
3168.000000	0.025698
3167.000000	0.025612
3166.000000	0.025520
3165.000000	0.025433
3164.000000	0.025359
3163.000000	0.025296
3162.000000	0.025237
3161.000000	0.025176
3160.000000	0.025112
3159.000000	0.025045
3158.000000	0.024967
3157.000000	0.024874
3156.000000	0.024769
3155.000000	0.024668
3154.000000	0.024585
3153.000000	0.024530
3152.000000	0.024499
3151.000000	0.024476
3150.000000	0.024441
3149.000000	0.024379
3148.000000	0.024291
3147.000000	0.024201
3146.000000	0.024131
3145.000000	0.024082
3144.000000	0.024039
3143.000000	0.023985
3142.000000	0.023918
3141.000000	0.023852
3140.000000	0.023795
3139.000000	0.023751
3138.000000	0.023715
3137.000000	0.023681
3136.000000	0.023646
3135.000000	0.023609
3134.000000	0.023566
3133.000000	0.023509
3132.000000	0.023438
3131.000000	0.023368
3130.000000	0.023315
3129.000000	0.023290
3128.000000	0.023283
3127.000000	0.023281
3126.000000	0.023271
3125.000000	0.023241
3124.000000	0.023185
3123.000000	0.023107
3122.000000	0.023022
3121.000000	0.022950
3120.000000	0.022901
3119.000000	0.022877
3118.000000	0.022873
3117.000000	0.022881
3116.000000	0.022892
3115.000000	0.022900
3114.000000	0.022902
3113.000000	0.022895
3112.000000	0.022883
3111.000000	0.022871
3110.000000	0.022866
3109.000000	0.022871
3108.000000	0.022884
3107.000000	0.022896
3106.000000	0.022906
3105.000000	0.022913
3104.000000	0.022919
3103.000000	0.022921
3102.000000	0.022912
3101.000000	0.022891
3100.000000	0.022868
3099.000000	0.022862
3098.000000	0.022889
3097.000000	0.022941
3096.000000	0.022996
3095.000000	0.023035
3094.000000	0.023054
3093.000000	0.023061
3092.000000	0.023065
3091.000000	0.023070
3090.000000	0.023078
3089.000000	0.023090
3088.000000	0.023101
3087.000000	0.023103
3086.000000	0.023094
3085.000000	0.023084
3084.000000	0.023085
3083.000000	0.023102
3082.000000	0.023125
3081.000000	0.023138
3080.000000	0.023138
3079.000000	0.023138
3078.000000	0.023150
3077.000000	0.023172
3076.000000	0.023190
3075.000000	0.023189
3074.000000	0.023174
3073.000000	0.023157
3072.000000	0.023148
3071.000000	0.023144
3070.000000	0.023136
3069.000000	0.023119
3068.000000	0.023096
3067.000000	0.023074
3066.000000	0.023056
3065.000000	0.023033
3064.000000	0.023001
3063.000000	0.022964
3062.000000	0.022936
3061.000000	0.022921
3060.000000	0.022910
3059.000000	0.022882
3058.000000	0.022832
3057.000000	0.022770
3056.000000	0.022711
3055.000000	0.022663
3054.000000	0.022622
3053.000000	0.022578
3052.000000	0.022524
3051.000000	0.022460
3050.000000	0.022390
3049.000000	0.022318
3048.000000	0.022250
3047.000000	0.022190
3046.000000	0.022140
3045.000000	0.022093
3044.000000	0.022043
3043.000000	0.021991
3042.000000	0.021941
3041.000000	0.021896
3040.000000	0.021852
3039.000000	0.021801
3038.000000	0.021743
3037.000000	0.021681
3036.000000	0.021621
3035.000000	0.021567
3034.000000	0.021516
3033.000000	0.021465
3032.000000	0.021415
3031.000000	0.021371
3030.000000	0.021334
3029.000000	0.021298
3028.000000	0.021253
3027.000000	0.021195
3026.000000	0.021127
3025.000000	0.021054
3024.000000	0.020978
3023.000000	0.020906
3022.000000	0.020849
3021.000000	0.020816
3020.000000	0.020799
3019.000000	0.020782
3018.000000	0.020752
3017.000000	0.020709
3016.000000	0.020662
3015.000000	0.020627
3014.000000	0.020610
3013.000000	0.020604
3012.000000	0.020591
3011.000000	0.020566
3010.000000	0.020536
3009.000000	0.020520
3008.000000	0.020523
3007.000000	0.020537
3006.000000	0.020555
3005.000000	0.020572
3004.000000	0.020590
3003.000000	0.020606
3002.000000	0.020621
3001.000000	0.020637
3000.000000	0.020659
2999.000000	0.020693
2998.000000	0.020739
2997.000000	0.020791
2996.000000	0.020842
2995.000000	0.020894
2994.000000	0.020958
2993.000000	0.021042
2992.000000	0.021144
2991.000000	0.021249
2990.000000	0.021355
2989.000000	0.021471
2988.000000	0.021605
2987.000000	0.021754
2986.000000	0.021910
2985.000000	0.022067
2984.000000	0.022227
2983.000000	0.022393
2982.000000	0.022564
2981.000000	0.022741
2980.000000	0.022926
2979.000000	0.023120
2978.000000	0.023320
2977.000000	0.023524
2976.000000	0.023725
2975.000000	0.023927
2974.000000	0.024136
2973.000000	0.024360
2972.000000	0.024599
2971.000000	0.024848
2970.000000	0.025103
2969.000000	0.025364
2968.000000	0.025634
2967.000000	0.025912
2966.000000	0.026192
2965.000000	0.026472
2964.000000	0.026744
2963.000000	0.027003
2962.000000	0.027237
2961.000000	0.027438
2960.000000	0.027601
2959.000000	0.027733
2958.000000	0.027854
2957.000000	0.027980
2956.000000	0.028108
2955.000000	0.028217
2954.000000	0.028290
2953.000000	0.028324
2952.000000	0.028334
2951.000000	0.028334
2950.000000	0.028336
2949.000000	0.028353
2948.000000	0.028400
2947.000000	0.028485
2946.000000	0.028611
2945.000000	0.028775
2944.000000	0.028975
2943.000000	0.029214
2942.000000	0.029488
2941.000000	0.029794
2940.000000	0.030127
2939.000000	0.030488
2938.000000	0.030878
2937.000000	0.031297
2936.000000	0.031742
2935.000000	0.032210
2934.000000	0.032702
2933.000000	0.033221
2932.000000	0.033761
2931.000000	0.034307
2930.000000	0.034834
2929.000000	0.035325
2928.000000	0.035779
2927.000000	0.036212
2926.000000	0.036631
2925.000000	0.037023
2924.000000	0.037361
2923.000000	0.037621
2922.000000	0.037795
2921.000000	0.037883
2920.000000	0.037875
2919.000000	0.037750
2918.000000	0.037482
2917.000000	0.037056
2916.000000	0.036476
2915.000000	0.035771
2914.000000	0.034986
2913.000000	0.034169
2912.000000	0.033365
2911.000000	0.032616
2910.000000	0.031953
2909.000000	0.031388
2908.000000	0.030913
2907.000000	0.030501
2906.000000	0.030128
2905.000000	0.029781
2904.000000	0.029460
2903.000000	0.029166
2902.000000	0.028894
2901.000000	0.028634
2900.000000	0.028384
2899.000000	0.028151
2898.000000	0.027941
2897.000000	0.027747
2896.000000	0.027556
2895.000000	0.027358
2894.000000	0.027155
2893.000000	0.026954
2892.000000	0.026762
2891.000000	0.026582
2890.000000	0.026421
2889.000000	0.026282
2888.000000	0.026165
2887.000000	0.026064
2886.000000	0.025975
2885.000000	0.025899
2884.000000	0.025837
2883.000000	0.025785
2882.000000	0.025742
2881.000000	0.025712
2880.000000	0.025705
2879.000000	0.025726
2878.000000	0.025771
2877.000000	0.025827
2876.000000	0.025884
2875.000000	0.025934
2874.000000	0.025975
2873.000000	0.026004
2872.000000	0.026011
2871.000000	0.025992
2870.000000	0.025950
2869.000000	0.025899
2868.000000	0.025853
2867.000000	0.025822
2866.000000	0.025812
2865.000000	0.025831
2864.000000	0.025888
2863.000000	0.025993
2862.000000	0.026152
2861.000000	0.026371
2860.000000	0.026656
2859.000000	0.027006
2858.000000	0.027411
2857.000000	0.027853
2856.000000	0.028315
2855.000000	0.028779
2854.000000	0.029228
2853.000000	0.029625
2852.000000	0.029911
2851.000000	0.030011
2850.000000	0.029860
2849.000000	0.029439
2848.000000	0.028783
2847.000000	0.027974
2846.000000	0.027101
2845.000000	0.026245
2844.000000	0.025458
2843.000000	0.024768
2842.000000	0.024177
2841.000000	0.023678
2840.000000	0.023266
2839.000000	0.022929
2838.000000	0.022649
2837.000000	0.022400
2836.000000	0.022164
2835.000000	0.021936
2834.000000	0.021727
2833.000000	0.021551
2832.000000	0.021417
2831.000000	0.021317
2830.000000	0.021229
2829.000000	0.021131
2828.000000	0.021012
2827.000000	0.020877
2826.000000	0.020746
2825.000000	0.020638
2824.000000	0.020558
2823.000000	0.020490
2822.000000	0.020411
2821.000000	0.020312
2820.000000	0.020207
2819.000000	0.020115
2818.000000	0.020043
2817.000000	0.019980
2816.000000	0.019913
2815.000000	0.019839
2814.000000	0.019760
2813.000000	0.019683
2812.000000	0.019613
2811.000000	0.019556
2810.000000	0.019511
2809.000000	0.019470
2808.000000	0.019427
2807.000000	0.019379
2806.000000	0.019322
2805.000000	0.019259
2804.000000	0.019193
2803.000000	0.019130
2802.000000	0.019075
2801.000000	0.019025
2800.000000	0.018981
2799.000000	0.018952
2798.000000	0.018940
2797.000000	0.018937
2796.000000	0.018929
2795.000000	0.018904
2794.000000	0.018863
2793.000000	0.018813
2792.000000	0.018767
2791.000000	0.018731
2790.000000	0.018702
2789.000000	0.018669
2788.000000	0.018625
2787.000000	0.018578
2786.000000	0.018541
2785.000000	0.018515
2784.000000	0.018491
2783.000000	0.018459
2782.000000	0.018418
2781.000000	0.018373
2780.000000	0.018332
2779.000000	0.018297
2778.000000	0.018270
2777.000000	0.018248
2776.000000	0.018229
2775.000000	0.018209
2774.000000	0.018191
2773.000000	0.018172
2772.000000	0.018150
2771.000000	0.018126
2770.000000	0.018101
2769.000000	0.018073
2768.000000	0.018038
2767.000000	0.018001
2766.000000	0.017967
2765.000000	0.017936
2764.000000	0.017904
2763.000000	0.017873
2762.000000	0.017849
2761.000000	0.017832
2760.000000	0.017817
2759.000000	0.017797
2758.000000	0.017777
2757.000000	0.017761
2756.000000	0.017747
2755.000000	0.017727
2754.000000	0.017701
2753.000000	0.017671
2752.000000	0.017641
2751.000000	0.017614
2750.000000	0.017592
2749.000000	0.017578
2748.000000	0.017569
2747.000000	0.017558
2746.000000	0.017539
2745.000000	0.017514
2744.000000	0.017487
2743.000000	0.017464
2742.000000	0.017449
2741.000000	0.017443
2740.000000	0.017441
2739.000000	0.017437
2738.000000	0.017420
2737.000000	0.017391
2736.000000	0.017356
2735.000000	0.017327
2734.000000	0.017307
2733.000000	0.017289
2732.000000	0.017268
2731.000000	0.017245
2730.000000	0.017227
2729.000000	0.017220
2728.000000	0.017220
2727.000000	0.017217
2726.000000	0.017204
2725.000000	0.017180
2724.000000	0.017148
2723.000000	0.017117
2722.000000	0.017092
2721.000000	0.017075
2720.000000	0.017060
2719.000000	0.017042
2718.000000	0.017022
2717.000000	0.017002
2716.000000	0.016981
2715.000000	0.016961
2714.000000	0.016940
2713.000000	0.016915
2712.000000	0.016885
2711.000000	0.016857
2710.000000	0.016838
2709.000000	0.016830
2708.000000	0.016826
2707.000000	0.016818
2706.000000	0.016801
2705.000000	0.016778
2704.000000	0.016759
2703.000000	0.016752
2702.000000	0.016757
2701.000000	0.016762
2700.000000	0.016751
2699.000000	0.016726
2698.000000	0.016700
2697.000000	0.016682
2696.000000	0.016666
2695.000000	0.016641
2694.000000	0.016606
2693.000000	0.016574
2692.000000	0.016551
2691.000000	0.016539
2690.000000	0.016534
2689.000000	0.016535
2688.000000	0.016538
2687.000000	0.016540
2686.000000	0.016542
2685.000000	0.016551
2684.000000	0.016569
2683.000000	0.016588
2682.000000	0.016593
2681.000000	0.016580
2680.000000	0.016553
2679.000000	0.016524
2678.000000	0.016500
2677.000000	0.016479
2676.000000	0.016456
2675.000000	0.016427
2674.000000	0.016395
2673.000000	0.016362
2672.000000	0.016335
2671.000000	0.016316
2670.000000	0.016311
2669.000000	0.016316
2668.000000	0.016324
2667.000000	0.016326
2666.000000	0.016321
2665.000000	0.016314
2664.000000	0.016308
2663.000000	0.016304
2662.000000	0.016301
2661.000000	0.016298
2660.000000	0.016292
2659.000000	0.016280
2658.000000	0.016256
2657.000000	0.016218
2656.000000	0.016169
2655.000000	0.016117
2654.000000	0.016072
2653.000000	0.016038
2652.000000	0.016010
2651.000000	0.015981
2650.000000	0.015950
2649.000000	0.015923
2648.000000	0.015900
2647.000000	0.015872
2646.000000	0.015829
2645.000000	0.015771
2644.000000	0.015713
2643.000000	0.015670
2642.000000	0.015644
2641.000000	0.015623
2640.000000	0.015594
2639.000000	0.015555
2638.000000	0.015511
2637.000000	0.015462
2636.000000	0.015410
2635.000000	0.015361
2634.000000	0.015323
2633.000000	0.015299
2632.000000	0.015279
2631.000000	0.015255
2630.000000	0.015228
2629.000000	0.015204
2628.000000	0.015187
2627.000000	0.015172
2626.000000	0.015155
2625.000000	0.015132
2624.000000	0.015103
2623.000000	0.015067
2622.000000	0.015026
2621.000000	0.014987
2620.000000	0.014955
2619.000000	0.014936
2618.000000	0.014931
2617.000000	0.014932
2616.000000	0.014930
2615.000000	0.014923
2614.000000	0.014908
2613.000000	0.014884
2612.000000	0.014850
2611.000000	0.014815
2610.000000	0.014789
2609.000000	0.014777
2608.000000	0.014772
2607.000000	0.014767
2606.000000	0.014759
2605.000000	0.014743
2604.000000	0.014715
2603.000000	0.014674
2602.000000	0.014631
2601.000000	0.014596
2600.000000	0.014571
2599.000000	0.014554
2598.000000	0.014541
2597.000000	0.014530
2596.000000	0.014515
2595.000000	0.014492
2594.000000	0.014462
2593.000000	0.014429
2592.000000	0.014396
2591.000000	0.014372
2590.000000	0.014368
2589.000000	0.014387
2588.000000	0.014412
2587.000000	0.014419
2586.000000	0.014399
2585.000000	0.014364
2584.000000	0.014337
2583.000000	0.014327
2582.000000	0.014324
2581.000000	0.014304
2580.000000	0.014253
2579.000000	0.014190
2578.000000	0.014154
2577.000000	0.014165
2576.000000	0.014207
2575.000000	0.014237
2574.000000	0.014226
2573.000000	0.014176
2572.000000	0.014114
2571.000000	0.014067
2570.000000	0.014047
2569.000000	0.014045
2568.000000	0.014047
2567.000000	0.014050
2566.000000	0.014057
2565.000000	0.014065
2564.000000	0.014063
2563.000000	0.014047
2562.000000	0.014029
2561.000000	0.014015
2560.000000	0.014000
2559.000000	0.013989
2558.000000	0.013998
2557.000000	0.014037
2556.000000	0.014086
2555.000000	0.014112
2554.000000	0.014100
2553.000000	0.014062
2552.000000	0.014009
2551.000000	0.013947
2550.000000	0.013886
2549.000000	0.013844
2548.000000	0.013827
2547.000000	0.013827
2546.000000	0.013829
2545.000000	0.013829
2544.000000	0.013827
2543.000000	0.013825
2542.000000	0.013819
2541.000000	0.013809
2540.000000	0.013803
2539.000000	0.013808
2538.000000	0.013824
2537.000000	0.013834
2536.000000	0.013813
2535.000000	0.013761
2534.000000	0.013706
2533.000000	0.013680
2532.000000	0.013688
2531.000000	0.013709
2530.000000	0.013728
2529.000000	0.013742
2528.000000	0.013757
2527.000000	0.013774
2526.000000	0.013793
2525.000000	0.013809
2524.000000	0.013814
2523.000000	0.013801
2522.000000	0.013770
2521.000000	0.013732
2520.000000	0.013694
2519.000000	0.013656
2518.000000	0.013612
2517.000000	0.013567
2516.000000	0.013541
2515.000000	0.013551
2514.000000	0.013597
2513.000000	0.013655
2512.000000	0.013694
2511.000000	0.013705
2510.000000	0.013702
2509.000000	0.013703
2508.000000	0.013704
2507.000000	0.013694
2506.000000	0.013668
2505.000000	0.013638
2504.000000	0.013619
2503.000000	0.013617
2502.000000	0.013624
2501.000000	0.013626
2500.000000	0.013611
2499.000000	0.013588
2498.000000	0.013573
2497.000000	0.013570
2496.000000	0.013561
2495.000000	0.013526
2494.000000	0.013473
2493.000000	0.013426
2492.000000	0.013404
2491.000000	0.013409
2490.000000	0.013431
2489.000000	0.013455
2488.000000	0.013462
2487.000000	0.013436
2486.000000	0.013383
2485.000000	0.013325
2484.000000	0.013284
2483.000000	0.013268
2482.000000	0.013270
2481.000000	0.013282
2480.000000	0.013304
2479.000000	0.013333
2478.000000	0.013363
2477.000000	0.013378
2476.000000	0.013372
2475.000000	0.013355
2474.000000	0.013342
2473.000000	0.013337
2472.000000	0.013330
2471.000000	0.013314
2470.000000	0.013288
2469.000000	0.013254
2468.000000	0.013214
2467.000000	0.013179
2466.000000	0.013166
2465.000000	0.013174
2464.000000	0.013186
2463.000000	0.013190
2462.000000	0.013197
2461.000000	0.013218
2460.000000	0.013246
2459.000000	0.013269
2458.000000	0.013283
2457.000000	0.013290
2456.000000	0.013284
2455.000000	0.013264
2454.000000	0.013242
2453.000000	0.013234
2452.000000	0.013236
2451.000000	0.013229
2450.000000	0.013205
2449.000000	0.013174
2448.000000	0.013152
2447.000000	0.013150
2446.000000	0.013174
2445.000000	0.013214
2444.000000	0.013244
2443.000000	0.013241
2442.000000	0.013210
2441.000000	0.013177
2440.000000	0.013153
2439.000000	0.013133
2438.000000	0.013109
2437.000000	0.013085
2436.000000	0.013071
2435.000000	0.013074
2434.000000	0.013095
2433.000000	0.013125
2432.000000	0.013149
2431.000000	0.013160
2430.000000	0.013157
2429.000000	0.013142
2428.000000	0.013110
2427.000000	0.013059
2426.000000	0.013006
2425.000000	0.012975
2424.000000	0.012972
2423.000000	0.012986
2422.000000	0.013000
2421.000000	0.013007
2420.000000	0.013006
2419.000000	0.012997
2418.000000	0.012982
2417.000000	0.012969
2416.000000	0.012968
2415.000000	0.012984
2414.000000	0.013014
2413.000000	0.013045
2412.000000	0.013064
2411.000000	0.013071
2410.000000	0.013071
2409.000000	0.013071
2408.000000	0.013069
2407.000000	0.013060
2406.000000	0.013045
2405.000000	0.013019
2404.000000	0.012975
2403.000000	0.012923
2402.000000	0.012889
2401.000000	0.012889
2400.000000	0.012911
2399.000000	0.012932
2398.000000	0.012937
2397.000000	0.012933
2396.000000	0.012931
2395.000000	0.012947
2394.000000	0.012990
2393.000000	0.013048
2392.000000	0.013083
2391.000000	0.013068
2390.000000	0.013012
2389.000000	0.012957
2388.000000	0.012934
2387.000000	0.012942
2386.000000	0.012959
2385.000000	0.012962
2384.000000	0.012945
2383.000000	0.012916
2382.000000	0.012887
2381.000000	0.012861
2380.000000	0.012835
2379.000000	0.012821
2378.000000	0.012833
2377.000000	0.012871
2376.000000	0.012910
2375.000000	0.012931
2374.000000	0.012937
2373.000000	0.012936
2372.000000	0.012913
2371.000000	0.012865
2370.000000	0.012818
2369.000000	0.012797
2368.000000	0.012798
2367.000000	0.012804
2366.000000	0.012815
2365.000000	0.012844
2364.000000	0.012892
2363.000000	0.012954
2362.000000	0.013024
2361.000000	0.013078
2360.000000	0.013085
2359.000000	0.013048
2358.000000	0.012990
2357.000000	0.012936
2356.000000	0.012914
2355.000000	0.012939
2354.000000	0.012970
2353.000000	0.012951
2352.000000	0.012902
2351.000000	0.012894
2350.000000	0.012952
2349.000000	0.013039
2348.000000	0.013091
2347.000000	0.013064
2346.000000	0.012999
2345.000000	0.012997
2344.000000	0.013081
2343.000000	0.013162
2342.000000	0.013168
2341.000000	0.013105
2340.000000	0.013032
2339.000000	0.012989
2338.000000	0.012975
2337.000000	0.012968
2336.000000	0.012955
2335.000000	0.012933
2334.000000	0.012891
2333.000000	0.012829
2332.000000	0.012778
2331.000000	0.012769
2330.000000	0.012808
2329.000000	0.012885
2328.000000	0.012987
2327.000000	0.013094
2326.000000	0.013178
2325.000000	0.013219
2324.000000	0.013208
2323.000000	0.013149
2322.000000	0.013075
2321.000000	0.013037
2320.000000	0.013066
2319.000000	0.013138
2318.000000	0.013195
2317.000000	0.013201
2316.000000	0.013151
2315.000000	0.013058
2314.000000	0.012939
2313.000000	0.012824
2312.000000	0.012737
2311.000000	0.012690
2310.000000	0.012675
2309.000000	0.012679
2308.000000	0.012685
2307.000000	0.012678
2306.000000	0.012655
2305.000000	0.012636
2304.000000	0.012637
2303.000000	0.012652
2302.000000	0.012657
2301.000000	0.012646
2300.000000	0.012634
2299.000000	0.012634
2298.000000	0.012648
2297.000000	0.012667
2296.000000	0.012680
2295.000000	0.012680
2294.000000	0.012678
2293.000000	0.012687
2292.000000	0.012710
2291.000000	0.012724
2290.000000	0.012717
2289.000000	0.012702
2288.000000	0.012715
2287.000000	0.012767
2286.000000	0.012830
2285.000000	0.012860
2284.000000	0.012837
2283.000000	0.012779
2282.000000	0.012724
2281.000000	0.012692
2280.000000	0.012669
2279.000000	0.012624
2278.000000	0.012556
2277.000000	0.012493
2276.000000	0.012466
2275.000000	0.012469
2274.000000	0.012467
2273.000000	0.012428
2272.000000	0.012353
2271.000000	0.012274
2270.000000	0.012225
2269.000000	0.012218
2268.000000	0.012231
2267.000000	0.012238
2266.000000	0.012230
2265.000000	0.012210
2264.000000	0.012171
2263.000000	0.012116
2262.000000	0.012063
2261.000000	0.012038
2260.000000	0.012034
2259.000000	0.012024
2258.000000	0.011996
2257.000000	0.011965
2256.000000	0.011950
2255.000000	0.011948
2254.000000	0.011943
2253.000000	0.011928
2252.000000	0.011898
2251.000000	0.011854
2250.000000	0.011795
2249.000000	0.011725
2248.000000	0.011655
2247.000000	0.011615
2246.000000	0.011647
2245.000000	0.011757
2244.000000	0.011877
2243.000000	0.011911
2242.000000	0.011831
2241.000000	0.011702
2240.000000	0.011612
2239.000000	0.011608
2238.000000	0.011691
2237.000000	0.011822
2236.000000	0.011933
2235.000000	0.011961
2234.000000	0.011904
2233.000000	0.011830
2232.000000	0.011805
2231.000000	0.011833
2230.000000	0.011870
2229.000000	0.011885
2228.000000	0.011878
2227.000000	0.011860
2226.000000	0.011832
2225.000000	0.011791
2224.000000	0.011754
2223.000000	0.011755
2222.000000	0.011822
2221.000000	0.011926
2220.000000	0.011984
2219.000000	0.011928
2218.000000	0.011779
2217.000000	0.011630
2216.000000	0.011556
2215.000000	0.011564
2214.000000	0.011612
2213.000000	0.011657
2212.000000	0.011679
2211.000000	0.011674
2210.000000	0.011650
2209.000000	0.011609
2208.000000	0.011546
2207.000000	0.011478
2206.000000	0.011452
2205.000000	0.011499
2204.000000	0.011580
2203.000000	0.011612
2202.000000	0.011554
2201.000000	0.011437
2200.000000	0.011313
2199.000000	0.011208
2198.000000	0.011129
2197.000000	0.011080
2196.000000	0.011081
2195.000000	0.011159
2194.000000	0.011320
2193.000000	0.011502
2192.000000	0.011590
2191.000000	0.011533
2190.000000	0.011404
2189.000000	0.011322
2188.000000	0.011331
2187.000000	0.011394
2186.000000	0.011481
2185.000000	0.011573
2184.000000	0.011610
2183.000000	0.011522
2182.000000	0.011331
2181.000000	0.011145
2180.000000	0.011034
2179.000000	0.010982
2178.000000	0.010953
2177.000000	0.010940
2176.000000	0.010928
2175.000000	0.010890
2174.000000	0.010847
2173.000000	0.010862
2172.000000	0.010956
2171.000000	0.011080
2170.000000	0.011188
2169.000000	0.011273
2168.000000	0.011318
2167.000000	0.011277
2166.000000	0.011153
2165.000000	0.011026
2164.000000	0.010965
2163.000000	0.010942
2162.000000	0.010876
2161.000000	0.010716
2160.000000	0.010458
2159.000000	0.010140
2158.000000	0.009853
2157.000000	0.009699
2156.000000	0.009681
2155.000000	0.009721
2154.000000	0.009761
2153.000000	0.009815
2152.000000	0.009920
2151.000000	0.010094
2150.000000	0.010324
2149.000000	0.010567
2148.000000	0.010755
2147.000000	0.010846
2146.000000	0.010873
2145.000000	0.010909
2144.000000	0.010974
2143.000000	0.011013
2142.000000	0.010965
2141.000000	0.010845
2140.000000	0.010727
2139.000000	0.010686
2138.000000	0.010737
2137.000000	0.010832
2136.000000	0.010905
2135.000000	0.010943
2134.000000	0.010987
2133.000000	0.011063
2132.000000	0.011143
2131.000000	0.011189
2130.000000	0.011210
2129.000000	0.011240
2128.000000	0.011282
2127.000000	0.011316
2126.000000	0.011344
2125.000000	0.011390
2124.000000	0.011459
2123.000000	0.011531
2122.000000	0.011591
2121.000000	0.011636
2120.000000	0.011653
2119.000000	0.011629
2118.000000	0.011580
2117.000000	0.011546
2116.000000	0.011542
2115.000000	0.011547
2114.000000	0.011548
2113.000000	0.011556
2112.000000	0.011585
2111.000000	0.011624
2110.000000	0.011653
2109.000000	0.011669
2108.000000	0.011675
2107.000000	0.011672
2106.000000	0.011658
2105.000000	0.011632
2104.000000	0.011595
2103.000000	0.011555
2102.000000	0.011539
2101.000000	0.011564
2100.000000	0.011603
2099.000000	0.011605
2098.000000	0.011552
2097.000000	0.011476
2096.000000	0.011413
2095.000000	0.011374
2094.000000	0.011366
2093.000000	0.011393
2092.000000	0.011447
2091.000000	0.011503
2090.000000	0.011541
2089.000000	0.011551
2088.000000	0.011529
2087.000000	0.011485
2086.000000	0.011445
2085.000000	0.011425
2084.000000	0.011402
2083.000000	0.011341
2082.000000	0.011271
2081.000000	0.011261
2080.000000	0.011329
2079.000000	0.011405
2078.000000	0.011416
2077.000000	0.011368
2076.000000	0.011331
2075.000000	0.011346
2074.000000	0.011391
2073.000000	0.011417
2072.000000	0.011388
2071.000000	0.011316
2070.000000	0.011252
2069.000000	0.011242
2068.000000	0.011277
2067.000000	0.011298
2066.000000	0.011261
2065.000000	0.011192
2064.000000	0.011144
2063.000000	0.011130
2062.000000	0.011121
2061.000000	0.011090
2060.000000	0.011045
2059.000000	0.011006
2058.000000	0.010977
2057.000000	0.010940
2056.000000	0.010886
2055.000000	0.010826
2054.000000	0.010777
2053.000000	0.010739
2052.000000	0.010702
2051.000000	0.010677
2050.000000	0.010692
2049.000000	0.010747
2048.000000	0.010789
2047.000000	0.010782
2046.000000	0.010749
2045.000000	0.010711
2044.000000	0.010637
2043.000000	0.010494
2042.000000	0.010308
2041.000000	0.010138
2040.000000	0.010005
2039.000000	0.009925
2038.000000	0.009965
2037.000000	0.010167
2036.000000	0.010440
2035.000000	0.010609
2034.000000	0.010578
2033.000000	0.010383
2032.000000	0.010100
2031.000000	0.009809
2030.000000	0.009615
2029.000000	0.009597
2028.000000	0.009709
2027.000000	0.009820
2026.000000	0.009844
2025.000000	0.009785
2024.000000	0.009670
2023.000000	0.009531
2022.000000	0.009424
2021.000000	0.009386
2020.000000	0.009376
2019.000000	0.009333
2018.000000	0.009296
2017.000000	0.009362
2016.000000	0.009541
2015.000000	0.009712
2014.000000	0.009765
2013.000000	0.009704
2012.000000	0.009611
2011.000000	0.009560
2010.000000	0.009560
2009.000000	0.009568
2008.000000	0.009543
2007.000000	0.009530
2006.000000	0.009616
2005.000000	0.009804
2004.000000	0.009980
2003.000000	0.010062
2002.000000	0.010094
2001.000000	0.010147
2000.000000	0.010202
1999.000000	0.010188
1998.000000	0.010099
1997.000000	0.010002
1996.000000	0.009955
1995.000000	0.009998
1994.000000	0.010157
1993.000000	0.010391
1992.000000	0.010566
1991.000000	0.010575
1990.000000	0.010459
1989.000000	0.010341
1988.000000	0.010289
1987.000000	0.010296
1986.000000	0.010342
1985.000000	0.010401
1984.000000	0.010428
1983.000000	0.010439
1982.000000	0.010549
1981.000000	0.010825
1980.000000	0.011126
1979.000000	0.011204
1978.000000	0.010975
1977.000000	0.010593
1976.000000	0.010246
1975.000000	0.010004
1974.000000	0.009881
1973.000000	0.009867
1972.000000	0.009883
1971.000000	0.009831
1970.000000	0.009713
1969.000000	0.009610
1968.000000	0.009564
1967.000000	0.009572
1966.000000	0.009663
1965.000000	0.009860
1964.000000	0.010084
1963.000000	0.010208
1962.000000	0.010193
1961.000000	0.010107
1960.000000	0.010008
1959.000000	0.009908
1958.000000	0.009832
1957.000000	0.009810
1956.000000	0.009829
1955.000000	0.009850
1954.000000	0.009877
1953.000000	0.009939
1952.000000	0.010029
1951.000000	0.010104
1950.000000	0.010148
1949.000000	0.010174
1948.000000	0.010183
1947.000000	0.010184
1946.000000	0.010215
1945.000000	0.010282
1944.000000	0.010315
1943.000000	0.010249
1942.000000	0.010138
1941.000000	0.010093
1940.000000	0.010133
1939.000000	0.010194
1938.000000	0.010251
1937.000000	0.010322
1936.000000	0.010394
1935.000000	0.010424
1934.000000	0.010413
1933.000000	0.010406
1932.000000	0.010404
1931.000000	0.010363
1930.000000	0.010285
1929.000000	0.010239
1928.000000	0.010272
1927.000000	0.010348
1926.000000	0.010410
1925.000000	0.010439
1924.000000	0.010442
1923.000000	0.010430
1922.000000	0.010421
1921.000000	0.010426
1920.000000	0.010425
1919.000000	0.010395
1918.000000	0.010353
1917.000000	0.010348
1916.000000	0.010385
1915.000000	0.010425
1914.000000	0.010446
1913.000000	0.010460
1912.000000	0.010474
1911.000000	0.010476
1910.000000	0.010477
1909.000000	0.010490
1908.000000	0.010498
1907.000000	0.010465
1906.000000	0.010392
1905.000000	0.010329
1904.000000	0.010303
1903.000000	0.010299
1902.000000	0.010305
1901.000000	0.010333
1900.000000	0.010375
1899.000000	0.010402
1898.000000	0.010406
1897.000000	0.010409
1896.000000	0.010413
1895.000000	0.010389
1894.000000	0.010324
1893.000000	0.010252
1892.000000	0.010204
1891.000000	0.010184
1890.000000	0.010183
1889.000000	0.010196
1888.000000	0.010211
1887.000000	0.010207
1886.000000	0.010186
1885.000000	0.010179
1884.000000	0.010197
1883.000000	0.010217
1882.000000	0.010224
1881.000000	0.010226
1880.000000	0.010232
1879.000000	0.010228
1878.000000	0.010198
1877.000000	0.010154
1876.000000	0.010129
1875.000000	0.010136
1874.000000	0.010159
1873.000000	0.010162
1872.000000	0.010114
1871.000000	0.010029
1870.000000	0.009962
1869.000000	0.009948
1868.000000	0.009968
1867.000000	0.009995
1866.000000	0.010038
1865.000000	0.010111
1864.000000	0.010190
1863.000000	0.010226
1862.000000	0.010207
1861.000000	0.010162
1860.000000	0.010119
1859.000000	0.010082
1858.000000	0.010050
1857.000000	0.010022
1856.000000	0.009994
1855.000000	0.009956
1854.000000	0.009919
1853.000000	0.009903
1852.000000	0.009912
1851.000000	0.009944
1850.000000	0.009989
1849.000000	0.010015
1848.000000	0.009975
1847.000000	0.009868
1846.000000	0.009766
1845.000000	0.009753
1844.000000	0.009824
1843.000000	0.009900
1842.000000	0.009946
1841.000000	0.009979
1840.000000	0.010004
1839.000000	0.010008
1838.000000	0.009999
1837.000000	0.010007
1836.000000	0.010021
1835.000000	0.009994
1834.000000	0.009913
1833.000000	0.009815
1832.000000	0.009749
1831.000000	0.009735
1830.000000	0.009745
1829.000000	0.009755
1828.000000	0.009770
1827.000000	0.009795
1826.000000	0.009826
1825.000000	0.009857
1824.000000	0.009874
1823.000000	0.009873
1822.000000	0.009864
1821.000000	0.009861
1820.000000	0.009866
1819.000000	0.009869
1818.000000	0.009867
1817.000000	0.009870
1816.000000	0.009873
1815.000000	0.009875
1814.000000	0.009889
1813.000000	0.009919
1812.000000	0.009946
1811.000000	0.009936
1810.000000	0.009900
1809.000000	0.009880
1808.000000	0.009886
1807.000000	0.009892
1806.000000	0.009880
1805.000000	0.009854
1804.000000	0.009823
1803.000000	0.009796
1802.000000	0.009792
1801.000000	0.009821
1800.000000	0.009872
1799.000000	0.009922
1798.000000	0.009955
1797.000000	0.009965
1796.000000	0.009942
1795.000000	0.009891
1794.000000	0.009850
1793.000000	0.009851
1792.000000	0.009872
1791.000000	0.009871
1790.000000	0.009858
1789.000000	0.009854
1788.000000	0.009854
1787.000000	0.009839
1786.000000	0.009806
1785.000000	0.009772
1784.000000	0.009740
1783.000000	0.009716
1782.000000	0.009717
1781.000000	0.009738
1780.000000	0.009760
1779.000000	0.009755
1778.000000	0.009722
1777.000000	0.009661
1776.000000	0.009573
1775.000000	0.009476
1774.000000	0.009409
1773.000000	0.009391
1772.000000	0.009376
1771.000000	0.009340
1770.000000	0.009338
1769.000000	0.009412
1768.000000	0.009508
1767.000000	0.009551
1766.000000	0.009536
1765.000000	0.009516
1764.000000	0.009519
1763.000000	0.009536
1762.000000	0.009564
1761.000000	0.009617
1760.000000	0.009703
1759.000000	0.009801
1758.000000	0.009915
1757.000000	0.010050
1756.000000	0.010188
1755.000000	0.010318
1754.000000	0.010470
1753.000000	0.010686
1752.000000	0.010961
1751.000000	0.011241
1750.000000	0.011494
1749.000000	0.011749
1748.000000	0.011990
1747.000000	0.012183
1746.000000	0.012340
1745.000000	0.012502
1744.000000	0.012660
1743.000000	0.012755
1742.000000	0.012798
1741.000000	0.012880
1740.000000	0.013016
1739.000000	0.013103
1738.000000	0.013097
1737.000000	0.013066
1736.000000	0.013071
1735.000000	0.013103
1734.000000	0.013097
1733.000000	0.013043
1732.000000	0.012977
1731.000000	0.012873
1730.000000	0.012711
1729.000000	0.012522
1728.000000	0.012336
1727.000000	0.012154
1726.000000	0.011973
1725.000000	0.011827
1724.000000	0.011725
1723.000000	0.011603
1722.000000	0.011427
1721.000000	0.011254
1720.000000	0.011147
1719.000000	0.011108
1718.000000	0.011094
1717.000000	0.011113
1716.000000	0.011210
1715.000000	0.011365
1714.000000	0.011546
1713.000000	0.011770
1712.000000	0.012041
1711.000000	0.012325
1710.000000	0.012598
1709.000000	0.012873
1708.000000	0.013194
1707.000000	0.013601
1706.000000	0.014097
1705.000000	0.014610
1704.000000	0.015053
1703.000000	0.015427
1702.000000	0.015863
1701.000000	0.016578
1700.000000	0.017539
1699.000000	0.018459
1698.000000	0.019307
1697.000000	0.020250
1696.000000	0.021286
1695.000000	0.022247
1694.000000	0.023067
1693.000000	0.023852
1692.000000	0.024688
1691.000000	0.025547
1690.000000	0.026375
1689.000000	0.027138
1688.000000	0.027839
1687.000000	0.028509
1686.000000	0.029249
1685.000000	0.030230
1684.000000	0.031341
1683.000000	0.032331
1682.000000	0.033264
1681.000000	0.034258
1680.000000	0.035248
1679.000000	0.036125
1678.000000	0.036915
1677.000000	0.037780
1676.000000	0.038815
1675.000000	0.039915
1674.000000	0.040941
1673.000000	0.041925
1672.000000	0.042959
1671.000000	0.044066
1670.000000	0.045233
1669.000000	0.046424
1668.000000	0.047566
1667.000000	0.048589
1666.000000	0.049514
1665.000000	0.050460
1664.000000	0.051505
1663.000000	0.052587
1662.000000	0.053613
1661.000000	0.054600
1660.000000	0.055583
1659.000000	0.056504
1658.000000	0.057289
1657.000000	0.057968
1656.000000	0.058632
1655.000000	0.059345
1654.000000	0.060103
1653.000000	0.060780
1652.000000	0.061343
1651.000000	0.061862
1650.000000	0.062366
1649.000000	0.062905
1648.000000	0.063432
1647.000000	0.063775
1646.000000	0.063911
1645.000000	0.064047
1644.000000	0.064280
1643.000000	0.064528
1642.000000	0.064708
1641.000000	0.064783
1640.000000	0.064780
1639.000000	0.064741
1638.000000	0.064667
1637.000000	0.064497
1636.000000	0.064141
1635.000000	0.063673
1634.000000	0.063321
1633.000000	0.063141
1632.000000	0.062984
1631.000000	0.062696
1630.000000	0.062198
1629.000000	0.061515
1628.000000	0.060723
1627.000000	0.059907
1626.000000	0.059117
1625.000000	0.058306
1624.000000	0.057370
1623.000000	0.056267
1622.000000	0.055137
1621.000000	0.054154
1620.000000	0.053326
1619.000000	0.052509
1618.000000	0.051506
1617.000000	0.050225
1616.000000	0.048864
1615.000000	0.047722
1614.000000	0.046845
1613.000000	0.046074
1612.000000	0.045253
1611.000000	0.044348
1610.000000	0.043427
1609.000000	0.042545
1608.000000	0.041705
1607.000000	0.040918
1606.000000	0.040210
1605.000000	0.039572
1604.000000	0.038972
1603.000000	0.038404
1602.000000	0.037877
1601.000000	0.037395
1600.000000	0.036954
1599.000000	0.036566
1598.000000	0.036240
1597.000000	0.035966
1596.000000	0.035725
1595.000000	0.035518
1594.000000	0.035360
1593.000000	0.035245
1592.000000	0.035156
1591.000000	0.035098
1590.000000	0.035090
1589.000000	0.035129
1588.000000	0.035198
1587.000000	0.035290
1586.000000	0.035413
1585.000000	0.035569
1584.000000	0.035754
1583.000000	0.035990
1582.000000	0.036273
1581.000000	0.036559
1580.000000	0.036827
1579.000000	0.037123
1578.000000	0.037489
1577.000000	0.037890
1576.000000	0.038220
1575.000000	0.038459
1574.000000	0.038701
1573.000000	0.038996
1572.000000	0.039329
1571.000000	0.039697
1570.000000	0.040125
1569.000000	0.040600
1568.000000	0.041104
1567.000000	0.041647
1566.000000	0.042234
1565.000000	0.042824
1564.000000	0.043344
1563.000000	0.043775
1562.000000	0.044156
1561.000000	0.044539
1560.000000	0.045102
1559.000000	0.045767
1558.000000	0.046323
1557.000000	0.046960
1556.000000	0.047712
1555.000000	0.048452
1554.000000	0.049118
1553.000000	0.049708
1552.000000	0.050283
1551.000000	0.050851
1550.000000	0.051370
1549.000000	0.051811
1548.000000	0.052200
1547.000000	0.052572
1546.000000	0.052934
1545.000000	0.053253
1544.000000	0.053491
1543.000000	0.053660
1542.000000	0.053822
1541.000000	0.054002
1540.000000	0.054080
1539.000000	0.054030
1538.000000	0.053992
1537.000000	0.054018
1536.000000	0.054055
1535.000000	0.054025
1534.000000	0.053848
1533.000000	0.053553
1532.000000	0.053303
1531.000000	0.053162
1530.000000	0.053048
1529.000000	0.052890
1528.000000	0.052673
1527.000000	0.052396
1526.000000	0.052072
1525.000000	0.051753
1524.000000	0.051494
1523.000000	0.051261
1522.000000	0.050935
1521.000000	0.050483
1520.000000	0.050079
1519.000000	0.049853
1518.000000	0.049728
1517.000000	0.049548
1516.000000	0.049248
1515.000000	0.048899
1514.000000	0.048543
1513.000000	0.048125
1512.000000	0.047600
1511.000000	0.047009
1510.000000	0.046442
1509.000000	0.045916
1508.000000	0.045309
1507.000000	0.044385
1506.000000	0.043307
1505.000000	0.042551
1504.000000	0.042130
1503.000000	0.041797
1502.000000	0.041394
1501.000000	0.040868
1500.000000	0.040266
1499.000000	0.039650
1498.000000	0.039030
1497.000000	0.038387
1496.000000	0.037752
1495.000000	0.037186
1494.000000	0.036714
1493.000000	0.036299
1492.000000	0.035883
1491.000000	0.035427
1490.000000	0.034948
1489.000000	0.034530
1488.000000	0.034239
1487.000000	0.034042
1486.000000	0.033901
1485.000000	0.033826
1484.000000	0.033827
1483.000000	0.033888
1482.000000	0.033982
1481.000000	0.034111
1480.000000	0.034286
1479.000000	0.034519
1478.000000	0.034823
1477.000000	0.035217
1476.000000	0.035687
1475.000000	0.036213
1474.000000	0.036835
1473.000000	0.037591
1472.000000	0.038418
1471.000000	0.039225
1470.000000	0.039985
1469.000000	0.040689
1468.000000	0.041312
1467.000000	0.041844
1466.000000	0.042324
1465.000000	0.042781
1464.000000	0.043204
1463.000000	0.043579
1462.000000	0.043919
1461.000000	0.044242
1460.000000	0.044571
1459.000000	0.044956
1458.000000	0.045462
1457.000000	0.046066
1456.000000	0.046647
1455.000000	0.047155
1454.000000	0.047615
1453.000000	0.048031
1452.000000	0.048355
1451.000000	0.048558
1450.000000	0.048684
1449.000000	0.048785
1448.000000	0.048856
1447.000000	0.048888
1446.000000	0.048924
1445.000000	0.048970
1444.000000	0.049000
1443.000000	0.048985
1442.000000	0.048930
1441.000000	0.048843
1440.000000	0.048714
1439.000000	0.048540
1438.000000	0.048343
1437.000000	0.048150
1436.000000	0.047969
1435.000000	0.047836
1434.000000	0.047770
1433.000000	0.047718
1432.000000	0.047601
1431.000000	0.047398
1430.000000	0.047163
1429.000000	0.046957
1428.000000	0.046799
1427.000000	0.046691
1426.000000	0.046642
1425.000000	0.046617
1424.000000	0.046545
1423.000000	0.046407
1422.000000	0.046258
1421.000000	0.046149
1420.000000	0.046076
1419.000000	0.046007
1418.000000	0.045937
1417.000000	0.045893
1416.000000	0.045851
1415.000000	0.045773
1414.000000	0.045667
1413.000000	0.045555
1412.000000	0.045418
1411.000000	0.045231
1410.000000	0.045016
1409.000000	0.044823
1408.000000	0.044663
1407.000000	0.044508
1406.000000	0.044347
1405.000000	0.044178
1404.000000	0.043998
1403.000000	0.043817
1402.000000	0.043651
1401.000000	0.043499
1400.000000	0.043325
1399.000000	0.043106
1398.000000	0.042862
1397.000000	0.042625
1396.000000	0.042374
1395.000000	0.042080
1394.000000	0.041772
1393.000000	0.041499
1392.000000	0.041248
1391.000000	0.040975
1390.000000	0.040669
1389.000000	0.040346
1388.000000	0.040018
1387.000000	0.039687
1386.000000	0.039375
1385.000000	0.039098
1384.000000	0.038838
1383.000000	0.038565
1382.000000	0.038279
1381.000000	0.037998
1380.000000	0.037715
1379.000000	0.037409
1378.000000	0.037072
1377.000000	0.036710
1376.000000	0.036325
1375.000000	0.035914
1374.000000	0.035492
1373.000000	0.035100
1372.000000	0.034758
1371.000000	0.034442
1370.000000	0.034113
1369.000000	0.033740
1368.000000	0.033318
1367.000000	0.032868
1366.000000	0.032422
1365.000000	0.032000
1364.000000	0.031605
1363.000000	0.031228
1362.000000	0.030868
1361.000000	0.030555
1360.000000	0.030313
1359.000000	0.030138
1358.000000	0.030004
1357.000000	0.029889
1356.000000	0.029789
1355.000000	0.029713
1354.000000	0.029668
1353.000000	0.029655
1352.000000	0.029672
1351.000000	0.029722
1350.000000	0.029805
1349.000000	0.029909
1348.000000	0.030024
1347.000000	0.030145
1346.000000	0.030278
1345.000000	0.030430
1344.000000	0.030611
1343.000000	0.030826
1342.000000	0.031063
1341.000000	0.031293
1340.000000	0.031479
1339.000000	0.031606
1338.000000	0.031686
1337.000000	0.031738
1336.000000	0.031761
1335.000000	0.031740
1334.000000	0.031674
1333.000000	0.031569
1332.000000	0.031434
1331.000000	0.031275
1330.000000	0.031101
1329.000000	0.030923
1328.000000	0.030746
1327.000000	0.030572
1326.000000	0.030407
1325.000000	0.030265
1324.000000	0.030161
1323.000000	0.030098
1322.000000	0.030063
1321.000000	0.030035
1320.000000	0.029999
1319.000000	0.029951
1318.000000	0.029887
1317.000000	0.029812
1316.000000	0.029728
1315.000000	0.029636
1314.000000	0.029531
1313.000000	0.029404
1312.000000	0.029253
1311.000000	0.029087
1310.000000	0.028920
1309.000000	0.028757
1308.000000	0.028597
1307.000000	0.028442
1306.000000	0.028294
1305.000000	0.028153
1304.000000	0.028014
1303.000000	0.027872
1302.000000	0.027729
1301.000000	0.027589
1300.000000	0.027458
1299.000000	0.027339
1298.000000	0.027227
1297.000000	0.027121
1296.000000	0.027030
1295.000000	0.026965
1294.000000	0.026936
1293.000000	0.026946
1292.000000	0.026997
1291.000000	0.027083
1290.000000	0.027190
1289.000000	0.027299
1288.000000	0.027402
1287.000000	0.027503
1286.000000	0.027615
1285.000000	0.027738
1284.000000	0.027865
1283.000000	0.027983
1282.000000	0.028083
1281.000000	0.028166
1280.000000	0.028231
1279.000000	0.028284
1278.000000	0.028335
1277.000000	0.028393
1276.000000	0.028452
1275.000000	0.028499
1274.000000	0.028523
1273.000000	0.028537
1272.000000	0.028567
1271.000000	0.028629
1270.000000	0.028728
1269.000000	0.028859
1268.000000	0.029018
1267.000000	0.029196
1266.000000	0.029382
1265.000000	0.029571
1264.000000	0.029764
1263.000000	0.029960
1262.000000	0.030149
1261.000000	0.030319
1260.000000	0.030476
1259.000000	0.030639
1258.000000	0.030826
1257.000000	0.031043
1256.000000	0.031275
1255.000000	0.031500
1254.000000	0.031705
1253.000000	0.031898
1252.000000	0.032090
1251.000000	0.032290
1250.000000	0.032493
1249.000000	0.032704
1248.000000	0.032934
1247.000000	0.033188
1246.000000	0.033448
1245.000000	0.033682
1244.000000	0.033865
1243.000000	0.034001
1242.000000	0.034119
1241.000000	0.034243
1240.000000	0.034372
1239.000000	0.034482
1238.000000	0.034547
1237.000000	0.034555
1236.000000	0.034506
1235.000000	0.034406
1234.000000	0.034262
1233.000000	0.034082
1232.000000	0.033875
1231.000000	0.033650
1230.000000	0.033408
1229.000000	0.033133
1228.000000	0.032807
1227.000000	0.032422
1226.000000	0.031995
1225.000000	0.031550
1224.000000	0.031101
1223.000000	0.030650
1222.000000	0.030193
1221.000000	0.029731
1220.000000	0.029270
1219.000000	0.028830
1218.000000	0.028437
1217.000000	0.028110
1216.000000	0.027856
1215.000000	0.027663
1214.000000	0.027514
1213.000000	0.027391
1212.000000	0.027284
1211.000000	0.027201
1210.000000	0.027153
1209.000000	0.027137
1208.000000	0.027141
1207.000000	0.027154
1206.000000	0.027177
1205.000000	0.027206
1204.000000	0.027223
1203.000000	0.027204
1202.000000	0.027137
1201.000000	0.027028
1200.000000	0.026892
1199.000000	0.026741
1198.000000	0.026580
1197.000000	0.026408
1196.000000	0.026218
1195.000000	0.025996
1194.000000	0.025739
1193.000000	0.025460
1192.000000	0.025182
1191.000000	0.024922
1190.000000	0.024686
1189.000000	0.024473
1188.000000	0.024276
1187.000000	0.024088
1186.000000	0.023902
1185.000000	0.023720
1184.000000	0.023558
1183.000000	0.023437
1182.000000	0.023366
1181.000000	0.023340
1180.000000	0.023347
1179.000000	0.023379
1178.000000	0.023433
1177.000000	0.023502
1176.000000	0.023575
1175.000000	0.023648
1174.000000	0.023720
1173.000000	0.023800
1172.000000	0.023901
1171.000000	0.024027
1170.000000	0.024172
1169.000000	0.024322
1168.000000	0.024475
1167.000000	0.024637
1166.000000	0.024819
1165.000000	0.025018
1164.000000	0.025224
1163.000000	0.025426
1162.000000	0.025601
1161.000000	0.025725
1160.000000	0.025777
1159.000000	0.025765
1158.000000	0.025711
1157.000000	0.025635
1156.000000	0.025533
1155.000000	0.025395
1154.000000	0.025224
1153.000000	0.025028
1152.000000	0.024817
1151.000000	0.024590
1150.000000	0.024348
1149.000000	0.024098
1148.000000	0.023847
1147.000000	0.023597
1146.000000	0.023349
1145.000000	0.023100
1144.000000	0.022848
1143.000000	0.022598
1142.000000	0.022358
1141.000000	0.022143
1140.000000	0.021956
1139.000000	0.021789
1138.000000	0.021636
1137.000000	0.021504
1136.000000	0.021405
1135.000000	0.021344
1134.000000	0.021310
1133.000000	0.021293
1132.000000	0.021289
1131.000000	0.021307
1130.000000	0.021357
1129.000000	0.021437
1128.000000	0.021534
1127.000000	0.021630
1126.000000	0.021721
1125.000000	0.021816
1124.000000	0.021918
1123.000000	0.022013
1122.000000	0.022085
1121.000000	0.022145
1120.000000	0.022221
1119.000000	0.022335
1118.000000	0.022477
1117.000000	0.022629
1116.000000	0.022785
1115.000000	0.022951
1114.000000	0.023128
1113.000000	0.023307
1112.000000	0.023475
1111.000000	0.023619
1110.000000	0.023732
1109.000000	0.023820
1108.000000	0.023903
1107.000000	0.023995
1106.000000	0.024088
1105.000000	0.024168
1104.000000	0.024240
1103.000000	0.024330
1102.000000	0.024446
1101.000000	0.024564
1100.000000	0.024655
1099.000000	0.024718
1098.000000	0.024778
1097.000000	0.024859
1096.000000	0.024963
1095.000000	0.025081
1094.000000	0.025216
1093.000000	0.025375
1092.000000	0.025565
1091.000000	0.025788
1090.000000	0.026050
1089.000000	0.026359
1088.000000	0.026712
1087.000000	0.027088
1086.000000	0.027461
1085.000000	0.027814
1084.000000	0.028135
1083.000000	0.028411
1082.000000	0.028625
1081.000000	0.028765
1080.000000	0.028826
1079.000000	0.028811
1078.000000	0.028731
1077.000000	0.028596
1076.000000	0.028410
1075.000000	0.028169
1074.000000	0.027876
1073.000000	0.027563
1072.000000	0.027278
1071.000000	0.027063
1070.000000	0.026935
1069.000000	0.026886
1068.000000	0.026894
1067.000000	0.026933
1066.000000	0.026984
1065.000000	0.027045
1064.000000	0.027138
1063.000000	0.027286
1062.000000	0.027482
1061.000000	0.027684
1060.000000	0.027845
1059.000000	0.027947
1058.000000	0.028008
1057.000000	0.028057
1056.000000	0.028110
1055.000000	0.028167
1054.000000	0.028219
1053.000000	0.028259
1052.000000	0.028297
1051.000000	0.028357
1050.000000	0.028459
1049.000000	0.028587
1048.000000	0.028699
1047.000000	0.028767
1046.000000	0.028803
1045.000000	0.028843
1044.000000	0.028905
1043.000000	0.028984
1042.000000	0.029072
1041.000000	0.029182
1040.000000	0.029330
1039.000000	0.029528
1038.000000	0.029777
1037.000000	0.030073
1036.000000	0.030406
1035.000000	0.030755
1034.000000	0.031097
1033.000000	0.031422
1032.000000	0.031730
1031.000000	0.032020
1030.000000	0.032284
1029.000000	0.032510
1028.000000	0.032687
1027.000000	0.032821
1026.000000	0.032932
1025.000000	0.033054
1024.000000	0.033212
1023.000000	0.033412
1022.000000	0.033641
1021.000000	0.033884
1020.000000	0.034129
1019.000000	0.034347
1018.000000	0.034494
1017.000000	0.034515
1016.000000	0.034367
1015.000000	0.034043
1014.000000	0.033568
1013.000000	0.032987
1012.000000	0.032342
1011.000000	0.031676
1010.000000	0.031021
1009.000000	0.030392
1008.000000	0.029788
1007.000000	0.029209
1006.000000	0.028662
1005.000000	0.028148
1004.000000	0.027664
1003.000000	0.027218
1002.000000	0.026818
1001.000000	0.026457
1000.000000	0.026105
999.000000	0.025741
998.000000	0.025378
997.000000	0.025048
996.000000	0.024749
995.000000	0.024438
994.000000	0.024073
993.000000	0.023666
992.000000	0.023266
991.000000	0.022905
990.000000	0.022568
989.000000	0.022225
988.000000	0.021873
987.000000	0.021538
986.000000	0.021236
985.000000	0.020953
984.000000	0.020669
983.000000	0.020387
982.000000	0.020124
981.000000	0.019885
980.000000	0.019657
979.000000	0.019430
978.000000	0.019207
977.000000	0.018992
976.000000	0.018785
975.000000	0.018593
974.000000	0.018421
973.000000	0.018261
972.000000	0.018096
971.000000	0.017910
970.000000	0.017696
969.000000	0.017459
968.000000	0.017209
967.000000	0.016960
966.000000	0.016724
965.000000	0.016497
964.000000	0.016272
963.000000	0.016044
962.000000	0.015824
961.000000	0.015617
960.000000	0.015422
959.000000	0.015239
958.000000	0.015072
957.000000	0.014917
956.000000	0.014756
955.000000	0.014578
954.000000	0.014392
953.000000	0.014214
952.000000	0.014047
951.000000	0.013878
950.000000	0.013700
949.000000	0.013530
948.000000	0.013388
947.000000	0.013283
946.000000	0.013213
945.000000	0.013175
944.000000	0.013166
943.000000	0.013178
942.000000	0.013193
941.000000	0.013191
940.000000	0.013163
939.000000	0.013116
938.000000	0.013056
937.000000	0.012984
936.000000	0.012892
935.000000	0.012778
934.000000	0.012662
933.000000	0.012569
932.000000	0.012513
931.000000	0.012480
930.000000	0.012452
929.000000	0.012417
928.000000	0.012377
927.000000	0.012337
926.000000	0.012300
925.000000	0.012266
924.000000	0.012234
923.000000	0.012193
922.000000	0.012130
921.000000	0.012042
920.000000	0.011940
919.000000	0.011838
918.000000	0.011739
917.000000	0.011638
916.000000	0.011528
915.000000	0.011406
914.000000	0.011271
913.000000	0.011121
912.000000	0.010953
911.000000	0.010774
910.000000	0.010604
909.000000	0.010479
908.000000	0.010423
907.000000	0.010419
906.000000	0.010414
905.000000	0.010368
904.000000	0.010284
903.000000	0.010198
902.000000	0.010128
901.000000	0.010062
900.000000	0.009979
899.000000	0.009874
898.000000	0.009760
897.000000	0.009661
896.000000	0.009592
895.000000	0.009553
894.000000	0.009520
893.000000	0.009465
892.000000	0.009383
891.000000	0.009298
890.000000	0.009245
889.000000	0.009249
888.000000	0.009328
887.000000	0.009491
886.000000	0.009739
885.000000	0.010068
884.000000	0.010483
883.000000	0.011003
882.000000	0.011657
881.000000	0.012466
880.000000	0.013411
879.000000	0.014416
878.000000	0.015357
877.000000	0.016102
876.000000	0.016544
875.000000	0.016621
874.000000	0.016311
873.000000	0.015650
872.000000	0.014740
871.000000	0.013742
870.000000	0.012815
869.000000	0.012053
868.000000	0.011474
867.000000	0.011057
866.000000	0.010780
865.000000	0.010617
864.000000	0.010528
863.000000	0.010461
862.000000	0.010380
861.000000	0.010284
860.000000	0.010198
859.000000	0.010147
858.000000	0.010129
857.000000	0.010124
856.000000	0.010115
855.000000	0.010100
854.000000	0.010086
853.000000	0.010075
852.000000	0.010061
851.000000	0.010044
850.000000	0.010035
849.000000	0.010038
848.000000	0.010030
847.000000	0.009976
846.000000	0.009870
845.000000	0.009749
844.000000	0.009666
843.000000	0.009639
842.000000	0.009644
841.000000	0.009642
840.000000	0.009613
839.000000	0.009565
838.000000	0.009519
837.000000	0.009494
836.000000	0.009484
835.000000	0.009471
834.000000	0.009445
833.000000	0.009417
832.000000	0.009402
831.000000	0.009401
830.000000	0.009406
829.000000	0.009412
828.000000	0.009417
827.000000	0.009407
826.000000	0.009375
825.000000	0.009339
824.000000	0.009339
823.000000	0.009391
822.000000	0.009461
821.000000	0.009507
820.000000	0.009512
819.000000	0.009480
818.000000	0.009427
817.000000	0.009379
816.000000	0.009362
815.000000	0.009392
814.000000	0.009452
813.000000	0.009512
812.000000	0.009549
811.000000	0.009555
810.000000	0.009539
809.000000	0.009519
808.000000	0.009510
807.000000	0.009508
806.000000	0.009486
805.000000	0.009427
804.000000	0.009349
803.000000	0.009293
802.000000	0.009285
801.000000	0.009328
800.000000	0.009402
799.000000	0.009482
798.000000	0.009549
797.000000	0.009596
796.000000	0.009624
795.000000	0.009624
794.000000	0.009590
793.000000	0.009539
792.000000	0.009510
791.000000	0.009528
790.000000	0.009576
789.000000	0.009611
788.000000	0.009608
787.000000	0.009576
786.000000	0.009538
785.000000	0.009506
784.000000	0.009487
783.000000	0.009485
782.000000	0.009506
781.000000	0.009548
780.000000	0.009596
779.000000	0.009630
778.000000	0.009636
777.000000	0.009612
776.000000	0.009571
775.000000	0.009529
774.000000	0.009508
773.000000	0.009524
772.000000	0.009576
771.000000	0.009655
770.000000	0.009750
769.000000	0.009852
768.000000	0.009936
767.000000	0.009964
766.000000	0.009915
765.000000	0.009815
764.000000	0.009718
763.000000	0.009667
762.000000	0.009669
761.000000	0.009706
760.000000	0.009748
759.000000	0.009768
758.000000	0.009758
757.000000	0.009745
756.000000	0.009760
755.000000	0.009802
754.000000	0.009833
753.000000	0.009819
752.000000	0.009756
751.000000	0.009669
750.000000	0.009594
749.000000	0.009563
748.000000	0.009587
747.000000	0.009637
746.000000	0.009680
745.000000	0.009710
744.000000	0.009749
743.000000	0.009800
742.000000	0.009851
741.000000	0.009898
740.000000	0.009961
739.000000	0.010044
738.000000	0.010124
737.000000	0.010182
736.000000	0.010228
735.000000	0.010274
734.000000	0.010318
733.000000	0.010361
732.000000	0.010422
731.000000	0.010512
730.000000	0.010612
729.000000	0.010709
728.000000	0.010827
727.000000	0.010997
726.000000	0.011218
725.000000	0.011461
724.000000	0.011693
723.000000	0.011900
722.000000	0.012085
721.000000	0.012263
720.000000	0.012430
719.000000	0.012561
718.000000	0.012633
717.000000	0.012688
716.000000	0.012820
715.000000	0.013077
714.000000	0.013391
713.000000	0.013628
712.000000	0.013709
711.000000	0.013660
710.000000	0.013567
709.000000	0.013508
708.000000	0.013511
707.000000	0.013551
706.000000	0.013592
705.000000	0.013648
704.000000	0.013756
703.000000	0.013907
702.000000	0.014022
701.000000	0.014037
700.000000	0.013986
699.000000	0.013950
698.000000	0.013957
697.000000	0.013970
696.000000	0.013960
695.000000	0.013947
694.000000	0.013948
693.000000	0.013942
692.000000	0.013919
691.000000	0.013895
690.000000	0.013886
689.000000	0.013887
688.000000	0.013902
687.000000	0.013965
686.000000	0.014087
685.000000	0.014210
684.000000	0.014274
683.000000	0.014270
682.000000	0.014244
681.000000	0.014247
680.000000	0.014314
679.000000	0.014441
678.000000	0.014577
677.000000	0.014711
676.000000	0.014900
675.000000	0.015181
674.000000	0.015508
673.000000	0.015780
672.000000	0.015941
671.000000	0.015991
670.000000	0.015917
669.000000	0.015700
668.000000	0.015592
667.000000	0.015791
666.000000	0.015924
665.000000	0.015991
664.000000	0.016080
663.000000	0.016118
662.000000	0.016042
661.000000	0.015889
660.000000	0.015733
659.000000	0.015588
658.000000	0.015436
657.000000	0.015307
656.000000	0.015239
655.000000	0.015211
654.000000	0.015191
653.000000	0.015176
652.000000	0.015166
651.000000	0.015149
650.000000	0.015145
649.000000	0.015190
648.000000	0.015247
647.000000	0.015234
646.000000	0.015146
645.000000	0.015074
644.000000	0.015068
643.000000	0.015099
642.000000	0.015127
641.000000	0.015171
640.000000	0.015253
639.000000	0.015340
638.000000	0.015385
637.000000	0.015372
636.000000	0.015299
635.000000	0.015178
634.000000	0.015064
633.000000	0.015022
632.000000	0.015055
631.000000	0.015098
630.000000	0.015101
629.000000	0.015082
628.000000	0.015066
627.000000	0.015050
626.000000	0.015045
625.000000	0.015088
624.000000	0.015186
623.000000	0.015298
622.000000	0.015373
621.000000	0.015390
620.000000	0.015345
619.000000	0.015271
618.000000	0.015239
617.000000	0.015300
616.000000	0.015420
615.000000	0.015519
614.000000	0.015583
613.000000	0.015661
612.000000	0.015750
611.000000	0.015784
610.000000	0.015738
609.000000	0.015676
608.000000	0.015645
607.000000	0.015615
606.000000	0.015563
605.000000	0.015532
604.000000	0.015557
603.000000	0.015595
602.000000	0.015582
601.000000	0.015520
600.000000	0.015454
599.000000	0.015396
598.000000	0.015317
597.000000	0.015189
596.000000	0.015014
595.000000	0.014830
594.000000	0.014717
593.000000	0.014738
592.000000	0.014861
591.000000	0.014971
590.000000	0.014994
589.000000	0.014956
588.000000	0.014902
587.000000	0.014830
586.000000	0.014729
585.000000	0.014649
584.000000	0.014656
583.000000	0.014768
582.000000	0.014939
581.000000	0.015103
580.000000	0.015185
579.000000	0.015130
578.000000	0.014959
577.000000	0.014765
576.000000	0.014640
575.000000	0.014629
574.000000	0.014759
573.000000	0.015044
572.000000	0.015418
571.000000	0.015742
570.000000	0.015915
569.000000	0.015956
568.000000	0.015945
567.000000	0.015923
566.000000	0.015909
565.000000	0.015937
564.000000	0.016013
563.000000	0.016078
562.000000	0.016082
561.000000	0.016037
560.000000	0.015984
559.000000	0.015936
558.000000	0.015912
557.000000	0.015938
556.000000	0.016003
555.000000	0.016049
554.000000	0.016048
553.000000	0.016040
552.000000	0.016045
551.000000	0.016021
550.000000	0.015948
549.000000	0.015879
548.000000	0.015865
547.000000	0.015887
546.000000	0.015907
545.000000	0.015909
544.000000	0.015857
543.000000	0.015705
542.000000	0.015501
541.000000	0.015385
540.000000	0.015407
539.000000	0.015456
538.000000	0.015423
537.000000	0.015371
536.000000	0.015445
535.000000	0.015693
534.000000	0.016047
533.000000	0.016401
532.000000	0.016646
531.000000	0.016682
530.000000	0.016512
529.000000	0.016270
528.000000	0.016088
527.000000	0.015989
526.000000	0.015934
525.000000	0.015901
524.000000	0.015852
523.000000	0.015723
522.000000	0.015517
521.000000	0.015344
520.000000	0.015254
519.000000	0.015149
518.000000	0.014922
517.000000	0.014612
516.000000	0.014317
515.000000	0.014053
514.000000	0.013788
513.000000	0.013542
512.000000	0.013337
511.000000	0.013155
510.000000	0.013009
509.000000	0.012979
508.000000	0.013081
507.000000	0.013176
506.000000	0.013130
505.000000	0.012974
504.000000	0.012796
503.000000	0.012587
502.000000	0.012341
501.000000	0.012188
500.000000	0.012245
499.000000	0.012394
498.000000	0.012396
497.000000	0.012172
496.000000	0.011859
495.000000	0.011621
494.000000	0.011527
493.000000	0.011570
492.000000	0.011678
491.000000	0.011702
490.000000	0.011540
489.000000	0.011268
488.000000	0.011054
487.000000	0.010965
486.000000	0.010968
485.000000	0.011051
484.000000	0.011220
483.000000	0.011382
482.000000	0.011400
481.000000	0.011279
480.000000	0.011162
479.000000	0.011142
478.000000	0.011200
477.000000	0.011293
476.000000	0.011421
475.000000	0.011598
474.000000	0.011831
473.000000	0.012114
472.000000	0.012380
471.000000	0.012536
470.000000	0.012623
469.000000	0.012812
468.000000	0.013157
467.000000	0.013455
466.000000	0.013522
465.000000	0.013471
464.000000	0.013511
463.000000	0.013578
462.000000	0.013357
461.000000	0.012695
460.000000	0.011763
459.000000	0.010871
458.000000	0.010315
457.000000	0.010237
456.000000	0.010465
455.000000	0.010596
454.000000	0.010428
453.000000	0.010173
452.000000	0.009820
451.000000	0.009578
450.000000	0.009326
