PE IR       SUBTECH     SPECTRUM    ASCII       PEDS        4.00        
   -1
3G-N10-F037_1.ASC
22/02/24
11:01:09.00
22/02/24
11:04:21.00
uco
Sample 037 By uco Date Thursday, February 24 2022
450.000000
#HDR
-1
-1
#GR
cm-1
A
1.0
0.0
4000.000000
-1.000000
3551
8
0.062769
0.009428
#DATA
4000.000000	0.009986
3999.000000	0.009992
3998.000000	0.009997
3997.000000	0.009997
3996.000000	0.009989
3995.000000	0.009980
3994.000000	0.009976
3993.000000	0.009986
3992.000000	0.010008
3991.000000	0.010035
3990.000000	0.010057
3989.000000	0.010066
3988.000000	0.010062
3987.000000	0.010053
3986.000000	0.010048
3985.000000	0.010055
3984.000000	0.010071
3983.000000	0.010091
3982.000000	0.010109
3981.000000	0.010120
3980.000000	0.010127
3979.000000	0.010134
3978.000000	0.010147
3977.000000	0.010165
3976.000000	0.010181
3975.000000	0.010182
3974.000000	0.010163
3973.000000	0.010126
3972.000000	0.010086
3971.000000	0.010056
3970.000000	0.010045
3969.000000	0.010056
3968.000000	0.010087
3967.000000	0.010128
3966.000000	0.010165
3965.000000	0.010188
3964.000000	0.010194
3963.000000	0.010189
3962.000000	0.010177
3961.000000	0.010157
3960.000000	0.010130
3959.000000	0.010102
3958.000000	0.010085
3957.000000	0.010092
3956.000000	0.010122
3955.000000	0.010162
3954.000000	0.010194
3953.000000	0.010209
3952.000000	0.010211
3951.000000	0.010209
3950.000000	0.010211
3949.000000	0.010214
3948.000000	0.010209
3947.000000	0.010191
3946.000000	0.010164
3945.000000	0.010137
3944.000000	0.010121
3943.000000	0.010122
3942.000000	0.010142
3941.000000	0.010175
3940.000000	0.010205
3939.000000	0.010218
3938.000000	0.010214
3937.000000	0.010203
3936.000000	0.010202
3935.000000	0.010216
3934.000000	0.010239
3933.000000	0.010257
3932.000000	0.010263
3931.000000	0.010261
3930.000000	0.010254
3929.000000	0.010241
3928.000000	0.010222
3927.000000	0.010203
3926.000000	0.010192
3925.000000	0.010190
3924.000000	0.010194
3923.000000	0.010202
3922.000000	0.010216
3921.000000	0.010232
3920.000000	0.010246
3919.000000	0.010252
3918.000000	0.010251
3917.000000	0.010246
3916.000000	0.010243
3915.000000	0.010246
3914.000000	0.010255
3913.000000	0.010264
3912.000000	0.010268
3911.000000	0.010262
3910.000000	0.010246
3909.000000	0.010223
3908.000000	0.010200
3907.000000	0.010186
3906.000000	0.010184
3905.000000	0.010192
3904.000000	0.010204
3903.000000	0.010219
3902.000000	0.010239
3901.000000	0.010262
3900.000000	0.010282
3899.000000	0.010296
3898.000000	0.010309
3897.000000	0.010321
3896.000000	0.010322
3895.000000	0.010306
3894.000000	0.010277
3893.000000	0.010250
3892.000000	0.010237
3891.000000	0.010233
3890.000000	0.010234
3889.000000	0.010241
3888.000000	0.010254
3887.000000	0.010265
3886.000000	0.010260
3885.000000	0.010241
3884.000000	0.010228
3883.000000	0.010232
3882.000000	0.010248
3881.000000	0.010263
3880.000000	0.010269
3879.000000	0.010268
3878.000000	0.010266
3877.000000	0.010262
3876.000000	0.010252
3875.000000	0.010232
3874.000000	0.010210
3873.000000	0.010205
3872.000000	0.010227
3871.000000	0.010259
3870.000000	0.010270
3869.000000	0.010262
3868.000000	0.010268
3867.000000	0.010309
3866.000000	0.010365
3865.000000	0.010399
3864.000000	0.010395
3863.000000	0.010364
3862.000000	0.010329
3861.000000	0.010305
3860.000000	0.010292
3859.000000	0.010275
3858.000000	0.010237
3857.000000	0.010174
3856.000000	0.010103
3855.000000	0.010058
3854.000000	0.010059
3853.000000	0.010105
3852.000000	0.010174
3851.000000	0.010245
3850.000000	0.010299
3849.000000	0.010327
3848.000000	0.010333
3847.000000	0.010326
3846.000000	0.010315
3845.000000	0.010308
3844.000000	0.010310
3843.000000	0.010316
3842.000000	0.010324
3841.000000	0.010329
3840.000000	0.010328
3839.000000	0.010317
3838.000000	0.010297
3837.000000	0.010268
3836.000000	0.010236
3835.000000	0.010210
3834.000000	0.010200
3833.000000	0.010206
3832.000000	0.010218
3831.000000	0.010232
3830.000000	0.010247
3829.000000	0.010264
3828.000000	0.010277
3827.000000	0.010273
3826.000000	0.010246
3825.000000	0.010214
3824.000000	0.010205
3823.000000	0.010233
3822.000000	0.010272
3821.000000	0.010284
3820.000000	0.010265
3819.000000	0.010248
3818.000000	0.010254
3817.000000	0.010267
3816.000000	0.010259
3815.000000	0.010230
3814.000000	0.010207
3813.000000	0.010206
3812.000000	0.010217
3811.000000	0.010226
3810.000000	0.010232
3809.000000	0.010240
3808.000000	0.010250
3807.000000	0.010249
3806.000000	0.010243
3805.000000	0.010252
3804.000000	0.010284
3803.000000	0.010317
3802.000000	0.010312
3801.000000	0.010261
3800.000000	0.010207
3799.000000	0.010187
3798.000000	0.010193
3797.000000	0.010194
3796.000000	0.010170
3795.000000	0.010135
3794.000000	0.010116
3793.000000	0.010127
3792.000000	0.010158
3791.000000	0.010190
3790.000000	0.010208
3789.000000	0.010207
3788.000000	0.010196
3787.000000	0.010184
3786.000000	0.010172
3785.000000	0.010154
3784.000000	0.010133
3783.000000	0.010121
3782.000000	0.010131
3781.000000	0.010154
3780.000000	0.010172
3779.000000	0.010167
3778.000000	0.010147
3777.000000	0.010126
3776.000000	0.010110
3775.000000	0.010093
3774.000000	0.010076
3773.000000	0.010071
3772.000000	0.010088
3771.000000	0.010118
3770.000000	0.010145
3769.000000	0.010162
3768.000000	0.010174
3767.000000	0.010182
3766.000000	0.010182
3765.000000	0.010169
3764.000000	0.010153
3763.000000	0.010145
3762.000000	0.010148
3761.000000	0.010147
3760.000000	0.010135
3759.000000	0.010121
3758.000000	0.010115
3757.000000	0.010118
3756.000000	0.010119
3755.000000	0.010113
3754.000000	0.010097
3753.000000	0.010076
3752.000000	0.010068
3751.000000	0.010091
3750.000000	0.010129
3749.000000	0.010147
3748.000000	0.010139
3747.000000	0.010133
3746.000000	0.010153
3745.000000	0.010182
3744.000000	0.010181
3743.000000	0.010153
3742.000000	0.010120
3741.000000	0.010091
3740.000000	0.010067
3739.000000	0.010054
3738.000000	0.010062
3737.000000	0.010079
3736.000000	0.010074
3735.000000	0.010037
3734.000000	0.009998
3733.000000	0.009983
3732.000000	0.009989
3731.000000	0.010001
3730.000000	0.010011
3729.000000	0.010019
3728.000000	0.010024
3727.000000	0.010017
3726.000000	0.010002
3725.000000	0.009994
3724.000000	0.009996
3723.000000	0.010000
3722.000000	0.009996
3721.000000	0.009985
3720.000000	0.009973
3719.000000	0.009967
3718.000000	0.009963
3717.000000	0.009958
3716.000000	0.009958
3715.000000	0.009978
3714.000000	0.010027
3713.000000	0.010096
3712.000000	0.010154
3711.000000	0.010171
3710.000000	0.010144
3709.000000	0.010095
3708.000000	0.010044
3707.000000	0.010000
3706.000000	0.009964
3705.000000	0.009936
3704.000000	0.009923
3703.000000	0.009931
3702.000000	0.009959
3701.000000	0.009998
3700.000000	0.010039
3699.000000	0.010077
3698.000000	0.010109
3697.000000	0.010127
3696.000000	0.010130
3695.000000	0.010126
3694.000000	0.010120
3693.000000	0.010109
3692.000000	0.010088
3691.000000	0.010063
3690.000000	0.010046
3689.000000	0.010042
3688.000000	0.010049
3687.000000	0.010063
3686.000000	0.010078
3685.000000	0.010089
3684.000000	0.010092
3683.000000	0.010092
3682.000000	0.010105
3681.000000	0.010144
3680.000000	0.010219
3679.000000	0.010340
3678.000000	0.010508
3677.000000	0.010680
3676.000000	0.010765
3675.000000	0.010718
3674.000000	0.010603
3673.000000	0.010505
3672.000000	0.010459
3671.000000	0.010447
3670.000000	0.010443
3669.000000	0.010438
3668.000000	0.010438
3667.000000	0.010441
3666.000000	0.010444
3665.000000	0.010441
3664.000000	0.010433
3663.000000	0.010420
3662.000000	0.010407
3661.000000	0.010391
3660.000000	0.010371
3659.000000	0.010351
3658.000000	0.010336
3657.000000	0.010337
3656.000000	0.010359
3655.000000	0.010410
3654.000000	0.010492
3653.000000	0.010593
3652.000000	0.010686
3651.000000	0.010738
3650.000000	0.010733
3649.000000	0.010697
3648.000000	0.010668
3647.000000	0.010664
3646.000000	0.010684
3645.000000	0.010718
3644.000000	0.010757
3643.000000	0.010795
3642.000000	0.010833
3641.000000	0.010880
3640.000000	0.010938
3639.000000	0.010998
3638.000000	0.011046
3637.000000	0.011077
3636.000000	0.011094
3635.000000	0.011102
3634.000000	0.011102
3633.000000	0.011107
3632.000000	0.011133
3631.000000	0.011191
3630.000000	0.011274
3629.000000	0.011352
3628.000000	0.011410
3627.000000	0.011450
3626.000000	0.011475
3625.000000	0.011482
3624.000000	0.011474
3623.000000	0.011462
3622.000000	0.011469
3621.000000	0.011511
3620.000000	0.011588
3619.000000	0.011677
3618.000000	0.011750
3617.000000	0.011794
3616.000000	0.011820
3615.000000	0.011846
3614.000000	0.011879
3613.000000	0.011919
3612.000000	0.011970
3611.000000	0.012035
3610.000000	0.012114
3609.000000	0.012191
3608.000000	0.012242
3607.000000	0.012266
3606.000000	0.012274
3605.000000	0.012288
3604.000000	0.012315
3603.000000	0.012356
3602.000000	0.012405
3601.000000	0.012454
3600.000000	0.012499
3599.000000	0.012537
3598.000000	0.012570
3597.000000	0.012603
3596.000000	0.012643
3595.000000	0.012699
3594.000000	0.012768
3593.000000	0.012843
3592.000000	0.012917
3591.000000	0.012983
3590.000000	0.013036
3589.000000	0.013075
3588.000000	0.013108
3587.000000	0.013153
3586.000000	0.013220
3585.000000	0.013300
3584.000000	0.013380
3583.000000	0.013449
3582.000000	0.013509
3581.000000	0.013561
3580.000000	0.013611
3579.000000	0.013667
3578.000000	0.013739
3577.000000	0.013828
3576.000000	0.013927
3575.000000	0.014024
3574.000000	0.014108
3573.000000	0.014172
3572.000000	0.014218
3571.000000	0.014256
3570.000000	0.014299
3569.000000	0.014359
3568.000000	0.014433
3567.000000	0.014515
3566.000000	0.014594
3565.000000	0.014663
3564.000000	0.014721
3563.000000	0.014771
3562.000000	0.014825
3561.000000	0.014891
3560.000000	0.014969
3559.000000	0.015052
3558.000000	0.015138
3557.000000	0.015225
3556.000000	0.015311
3555.000000	0.015397
3554.000000	0.015480
3553.000000	0.015556
3552.000000	0.015619
3551.000000	0.015665
3550.000000	0.015703
3549.000000	0.015744
3548.000000	0.015801
3547.000000	0.015878
3546.000000	0.015970
3545.000000	0.016059
3544.000000	0.016132
3543.000000	0.016185
3542.000000	0.016231
3541.000000	0.016281
3540.000000	0.016339
3539.000000	0.016400
3538.000000	0.016466
3537.000000	0.016540
3536.000000	0.016624
3535.000000	0.016711
3534.000000	0.016786
3533.000000	0.016843
3532.000000	0.016886
3531.000000	0.016932
3530.000000	0.016996
3529.000000	0.017085
3528.000000	0.017188
3527.000000	0.017288
3526.000000	0.017375
3525.000000	0.017448
3524.000000	0.017510
3523.000000	0.017562
3522.000000	0.017612
3521.000000	0.017675
3520.000000	0.017757
3519.000000	0.017855
3518.000000	0.017949
3517.000000	0.018025
3516.000000	0.018076
3515.000000	0.018109
3514.000000	0.018139
3513.000000	0.018182
3512.000000	0.018247
3511.000000	0.018329
3510.000000	0.018412
3509.000000	0.018485
3508.000000	0.018547
3507.000000	0.018609
3506.000000	0.018683
3505.000000	0.018768
3504.000000	0.018850
3503.000000	0.018916
3502.000000	0.018965
3501.000000	0.019007
3500.000000	0.019055
3499.000000	0.019113
3498.000000	0.019176
3497.000000	0.019238
3496.000000	0.019298
3495.000000	0.019359
3494.000000	0.019421
3493.000000	0.019480
3492.000000	0.019529
3491.000000	0.019570
3490.000000	0.019614
3489.000000	0.019670
3488.000000	0.019740
3487.000000	0.019817
3486.000000	0.019897
3485.000000	0.019976
3484.000000	0.020051
3483.000000	0.020123
3482.000000	0.020192
3481.000000	0.020258
3480.000000	0.020319
3479.000000	0.020369
3478.000000	0.020414
3477.000000	0.020465
3476.000000	0.020526
3475.000000	0.020591
3474.000000	0.020652
3473.000000	0.020710
3472.000000	0.020767
3471.000000	0.020825
3470.000000	0.020880
3469.000000	0.020934
3468.000000	0.020992
3467.000000	0.021059
3466.000000	0.021128
3465.000000	0.021189
3464.000000	0.021241
3463.000000	0.021292
3462.000000	0.021351
3461.000000	0.021416
3460.000000	0.021478
3459.000000	0.021536
3458.000000	0.021596
3457.000000	0.021668
3456.000000	0.021754
3455.000000	0.021844
3454.000000	0.021925
3453.000000	0.021986
3452.000000	0.022021
3451.000000	0.022044
3450.000000	0.022073
3449.000000	0.022121
3448.000000	0.022188
3447.000000	0.022264
3446.000000	0.022350
3445.000000	0.022446
3444.000000	0.022544
3443.000000	0.022630
3442.000000	0.022694
3441.000000	0.022742
3440.000000	0.022788
3439.000000	0.022840
3438.000000	0.022896
3437.000000	0.022953
3436.000000	0.023011
3435.000000	0.023072
3434.000000	0.023139
3433.000000	0.023208
3432.000000	0.023276
3431.000000	0.023342
3430.000000	0.023410
3429.000000	0.023482
3428.000000	0.023556
3427.000000	0.023626
3426.000000	0.023694
3425.000000	0.023761
3424.000000	0.023829
3423.000000	0.023897
3422.000000	0.023967
3421.000000	0.024043
3420.000000	0.024122
3419.000000	0.024196
3418.000000	0.024257
3417.000000	0.024306
3416.000000	0.024351
3415.000000	0.024402
3414.000000	0.024461
3413.000000	0.024527
3412.000000	0.024592
3411.000000	0.024657
3410.000000	0.024724
3409.000000	0.024798
3408.000000	0.024881
3407.000000	0.024967
3406.000000	0.025050
3405.000000	0.025125
3404.000000	0.025189
3403.000000	0.025239
3402.000000	0.025277
3401.000000	0.025311
3400.000000	0.025352
3399.000000	0.025412
3398.000000	0.025488
3397.000000	0.025569
3396.000000	0.025643
3395.000000	0.025704
3394.000000	0.025756
3393.000000	0.025808
3392.000000	0.025865
3391.000000	0.025926
3390.000000	0.025985
3389.000000	0.026036
3388.000000	0.026083
3387.000000	0.026134
3386.000000	0.026194
3385.000000	0.026264
3384.000000	0.026339
3383.000000	0.026415
3382.000000	0.026488
3381.000000	0.026551
3380.000000	0.026605
3379.000000	0.026658
3378.000000	0.026720
3377.000000	0.026794
3376.000000	0.026874
3375.000000	0.026954
3374.000000	0.027031
3373.000000	0.027106
3372.000000	0.027180
3371.000000	0.027256
3370.000000	0.027335
3369.000000	0.027415
3368.000000	0.027495
3367.000000	0.027576
3366.000000	0.027659
3365.000000	0.027744
3364.000000	0.027832
3363.000000	0.027923
3362.000000	0.028016
3361.000000	0.028107
3360.000000	0.028184
3359.000000	0.028248
3358.000000	0.028311
3357.000000	0.028390
3356.000000	0.028493
3355.000000	0.028612
3354.000000	0.028729
3353.000000	0.028827
3352.000000	0.028904
3351.000000	0.028971
3350.000000	0.029048
3349.000000	0.029145
3348.000000	0.029261
3347.000000	0.029386
3346.000000	0.029506
3345.000000	0.029610
3344.000000	0.029698
3343.000000	0.029773
3342.000000	0.029843
3341.000000	0.029914
3340.000000	0.029988
3339.000000	0.030067
3338.000000	0.030149
3337.000000	0.030231
3336.000000	0.030314
3335.000000	0.030402
3334.000000	0.030496
3333.000000	0.030592
3332.000000	0.030683
3331.000000	0.030760
3330.000000	0.030821
3329.000000	0.030867
3328.000000	0.030906
3327.000000	0.030950
3326.000000	0.031009
3325.000000	0.031088
3324.000000	0.031184
3323.000000	0.031284
3322.000000	0.031374
3321.000000	0.031444
3320.000000	0.031497
3319.000000	0.031549
3318.000000	0.031617
3317.000000	0.031701
3316.000000	0.031789
3315.000000	0.031867
3314.000000	0.031930
3313.000000	0.031978
3312.000000	0.032017
3311.000000	0.032051
3310.000000	0.032078
3309.000000	0.032093
3308.000000	0.032096
3307.000000	0.032103
3306.000000	0.032140
3305.000000	0.032220
3304.000000	0.032329
3303.000000	0.032439
3302.000000	0.032529
3301.000000	0.032588
3300.000000	0.032618
3299.000000	0.032627
3298.000000	0.032627
3297.000000	0.032625
3296.000000	0.032624
3295.000000	0.032626
3294.000000	0.032635
3293.000000	0.032656
3292.000000	0.032690
3291.000000	0.032726
3290.000000	0.032751
3289.000000	0.032760
3288.000000	0.032758
3287.000000	0.032758
3286.000000	0.032764
3285.000000	0.032772
3284.000000	0.032770
3283.000000	0.032754
3282.000000	0.032734
3281.000000	0.032718
3280.000000	0.032706
3279.000000	0.032690
3278.000000	0.032666
3277.000000	0.032636
3276.000000	0.032601
3275.000000	0.032564
3274.000000	0.032522
3273.000000	0.032471
3272.000000	0.032412
3271.000000	0.032351
3270.000000	0.032299
3269.000000	0.032263
3268.000000	0.032233
3267.000000	0.032194
3266.000000	0.032133
3265.000000	0.032058
3264.000000	0.031983
3263.000000	0.031921
3262.000000	0.031868
3261.000000	0.031813
3260.000000	0.031743
3259.000000	0.031655
3258.000000	0.031557
3257.000000	0.031459
3256.000000	0.031369
3255.000000	0.031286
3254.000000	0.031210
3253.000000	0.031137
3252.000000	0.031067
3251.000000	0.030999
3250.000000	0.030930
3249.000000	0.030857
3248.000000	0.030776
3247.000000	0.030691
3246.000000	0.030609
3245.000000	0.030531
3244.000000	0.030452
3243.000000	0.030367
3242.000000	0.030279
3241.000000	0.030196
3240.000000	0.030122
3239.000000	0.030062
3238.000000	0.030011
3237.000000	0.029961
3236.000000	0.029903
3235.000000	0.029831
3234.000000	0.029749
3233.000000	0.029666
3232.000000	0.029593
3231.000000	0.029536
3230.000000	0.029495
3229.000000	0.029468
3228.000000	0.029445
3227.000000	0.029418
3226.000000	0.029380
3225.000000	0.029330
3224.000000	0.029273
3223.000000	0.029216
3222.000000	0.029162
3221.000000	0.029107
3220.000000	0.029050
3219.000000	0.029000
3218.000000	0.028970
3217.000000	0.028959
3216.000000	0.028951
3215.000000	0.028920
3214.000000	0.028853
3213.000000	0.028757
3212.000000	0.028651
3211.000000	0.028558
3210.000000	0.028490
3209.000000	0.028444
3208.000000	0.028412
3207.000000	0.028387
3206.000000	0.028364
3205.000000	0.028333
3204.000000	0.028285
3203.000000	0.028217
3202.000000	0.028143
3201.000000	0.028082
3200.000000	0.028037
3199.000000	0.027991
3198.000000	0.027922
3197.000000	0.027828
3196.000000	0.027728
3195.000000	0.027649
3194.000000	0.027603
3193.000000	0.027576
3192.000000	0.027536
3191.000000	0.027460
3190.000000	0.027345
3189.000000	0.027221
3188.000000	0.027121
3187.000000	0.027059
3186.000000	0.027022
3185.000000	0.026986
3184.000000	0.026935
3183.000000	0.026873
3182.000000	0.026811
3181.000000	0.026756
3180.000000	0.026704
3179.000000	0.026652
3178.000000	0.026589
3177.000000	0.026509
3176.000000	0.026410
3175.000000	0.026305
3174.000000	0.026209
3173.000000	0.026127
3172.000000	0.026058
3171.000000	0.025997
3170.000000	0.025945
3169.000000	0.025897
3168.000000	0.025842
3167.000000	0.025767
3166.000000	0.025672
3165.000000	0.025573
3164.000000	0.025484
3163.000000	0.025412
3162.000000	0.025348
3161.000000	0.025282
3160.000000	0.025210
3159.000000	0.025136
3158.000000	0.025064
3157.000000	0.024989
3156.000000	0.024906
3155.000000	0.024818
3154.000000	0.024738
3153.000000	0.024681
3152.000000	0.024647
3151.000000	0.024617
3150.000000	0.024570
3149.000000	0.024495
3148.000000	0.024399
3147.000000	0.024307
3146.000000	0.024243
3145.000000	0.024205
3144.000000	0.024171
3143.000000	0.024120
3142.000000	0.024052
3141.000000	0.023985
3140.000000	0.023940
3139.000000	0.023918
3138.000000	0.023903
3137.000000	0.023872
3136.000000	0.023813
3135.000000	0.023735
3134.000000	0.023654
3133.000000	0.023582
3132.000000	0.023521
3131.000000	0.023472
3130.000000	0.023434
3129.000000	0.023406
3128.000000	0.023381
3127.000000	0.023352
3126.000000	0.023318
3125.000000	0.023281
3124.000000	0.023241
3123.000000	0.023198
3122.000000	0.023153
3121.000000	0.023113
3120.000000	0.023081
3119.000000	0.023055
3118.000000	0.023035
3117.000000	0.023019
3116.000000	0.023007
3115.000000	0.022999
3114.000000	0.022990
3113.000000	0.022979
3112.000000	0.022965
3111.000000	0.022956
3110.000000	0.022957
3109.000000	0.022969
3108.000000	0.022980
3107.000000	0.022979
3106.000000	0.022971
3105.000000	0.022968
3104.000000	0.022977
3103.000000	0.022990
3102.000000	0.022993
3101.000000	0.022978
3100.000000	0.022958
3099.000000	0.022953
3098.000000	0.022975
3097.000000	0.023018
3096.000000	0.023067
3095.000000	0.023107
3094.000000	0.023129
3093.000000	0.023129
3092.000000	0.023116
3091.000000	0.023102
3090.000000	0.023106
3089.000000	0.023135
3088.000000	0.023176
3087.000000	0.023208
3086.000000	0.023214
3085.000000	0.023198
3084.000000	0.023178
3083.000000	0.023171
3082.000000	0.023179
3081.000000	0.023188
3080.000000	0.023190
3079.000000	0.023185
3078.000000	0.023186
3077.000000	0.023195
3076.000000	0.023204
3075.000000	0.023203
3074.000000	0.023189
3073.000000	0.023171
3072.000000	0.023160
3071.000000	0.023159
3070.000000	0.023162
3069.000000	0.023159
3068.000000	0.023143
3067.000000	0.023119
3066.000000	0.023095
3065.000000	0.023072
3064.000000	0.023049
3063.000000	0.023023
3062.000000	0.022999
3061.000000	0.022980
3060.000000	0.022960
3059.000000	0.022930
3058.000000	0.022885
3057.000000	0.022830
3056.000000	0.022772
3055.000000	0.022717
3054.000000	0.022667
3053.000000	0.022617
3052.000000	0.022565
3051.000000	0.022516
3050.000000	0.022474
3049.000000	0.022436
3048.000000	0.022391
3047.000000	0.022332
3046.000000	0.022264
3045.000000	0.022198
3044.000000	0.022134
3043.000000	0.022070
3042.000000	0.022001
3041.000000	0.021932
3040.000000	0.021870
3039.000000	0.021818
3038.000000	0.021777
3037.000000	0.021742
3036.000000	0.021711
3035.000000	0.021678
3034.000000	0.021639
3033.000000	0.021593
3032.000000	0.021541
3031.000000	0.021489
3030.000000	0.021442
3029.000000	0.021397
3028.000000	0.021345
3027.000000	0.021284
3026.000000	0.021219
3025.000000	0.021156
3024.000000	0.021097
3023.000000	0.021039
3022.000000	0.020985
3021.000000	0.020937
3020.000000	0.020895
3019.000000	0.020849
3018.000000	0.020797
3017.000000	0.020742
3016.000000	0.020697
3015.000000	0.020669
3014.000000	0.020657
3013.000000	0.020651
3012.000000	0.020638
3011.000000	0.020617
3010.000000	0.020597
3009.000000	0.020593
3008.000000	0.020610
3007.000000	0.020639
3006.000000	0.020667
3005.000000	0.020684
3004.000000	0.020691
3003.000000	0.020699
3002.000000	0.020718
3001.000000	0.020754
3000.000000	0.020801
2999.000000	0.020849
2998.000000	0.020894
2997.000000	0.020940
2996.000000	0.020995
2995.000000	0.021063
2994.000000	0.021142
2993.000000	0.021227
2992.000000	0.021307
2991.000000	0.021381
2990.000000	0.021460
2989.000000	0.021566
2988.000000	0.021710
2987.000000	0.021878
2986.000000	0.022049
2985.000000	0.022209
2984.000000	0.022365
2983.000000	0.022532
2982.000000	0.022715
2981.000000	0.022908
2980.000000	0.023104
2979.000000	0.023302
2978.000000	0.023500
2977.000000	0.023701
2976.000000	0.023905
2975.000000	0.024117
2974.000000	0.024346
2973.000000	0.024593
2972.000000	0.024853
2971.000000	0.025118
2970.000000	0.025391
2969.000000	0.025678
2968.000000	0.025983
2967.000000	0.026298
2966.000000	0.026613
2965.000000	0.026918
2964.000000	0.027209
2963.000000	0.027485
2962.000000	0.027738
2961.000000	0.027958
2960.000000	0.028142
2959.000000	0.028297
2958.000000	0.028439
2957.000000	0.028577
2956.000000	0.028704
2955.000000	0.028805
2954.000000	0.028867
2953.000000	0.028900
2952.000000	0.028918
2951.000000	0.028938
2950.000000	0.028962
2949.000000	0.028995
2948.000000	0.029044
2947.000000	0.029120
2946.000000	0.029235
2945.000000	0.029397
2944.000000	0.029608
2943.000000	0.029858
2942.000000	0.030137
2941.000000	0.030436
2940.000000	0.030766
2939.000000	0.031144
2938.000000	0.031580
2937.000000	0.032067
2936.000000	0.032583
2935.000000	0.033113
2934.000000	0.033652
2933.000000	0.034210
2932.000000	0.034791
2931.000000	0.035385
2930.000000	0.035971
2929.000000	0.036522
2928.000000	0.037033
2927.000000	0.037512
2926.000000	0.037977
2925.000000	0.038424
2924.000000	0.038831
2923.000000	0.039161
2922.000000	0.039387
2921.000000	0.039495
2920.000000	0.039482
2919.000000	0.039343
2918.000000	0.039059
2917.000000	0.038602
2916.000000	0.037965
2915.000000	0.037175
2914.000000	0.036295
2913.000000	0.035396
2912.000000	0.034538
2911.000000	0.033758
2910.000000	0.033071
2909.000000	0.032472
2908.000000	0.031945
2907.000000	0.031473
2906.000000	0.031049
2905.000000	0.030669
2904.000000	0.030327
2903.000000	0.030012
2902.000000	0.029712
2901.000000	0.029419
2900.000000	0.029137
2899.000000	0.028876
2898.000000	0.028642
2897.000000	0.028433
2896.000000	0.028238
2895.000000	0.028050
2894.000000	0.027860
2893.000000	0.027668
2892.000000	0.027471
2891.000000	0.027274
2890.000000	0.027084
2889.000000	0.026914
2888.000000	0.026771
2887.000000	0.026657
2886.000000	0.026565
2885.000000	0.026485
2884.000000	0.026411
2883.000000	0.026347
2882.000000	0.026297
2881.000000	0.026265
2880.000000	0.026252
2879.000000	0.026261
2878.000000	0.026291
2877.000000	0.026336
2876.000000	0.026386
2875.000000	0.026431
2874.000000	0.026469
2873.000000	0.026501
2872.000000	0.026524
2871.000000	0.026527
2870.000000	0.026506
2869.000000	0.026469
2868.000000	0.026429
2867.000000	0.026403
2866.000000	0.026402
2865.000000	0.026435
2864.000000	0.026510
2863.000000	0.026637
2862.000000	0.026826
2861.000000	0.027080
2860.000000	0.027399
2859.000000	0.027777
2858.000000	0.028211
2857.000000	0.028696
2856.000000	0.029218
2855.000000	0.029749
2854.000000	0.030254
2853.000000	0.030690
2852.000000	0.031000
2851.000000	0.031111
2850.000000	0.030952
2849.000000	0.030494
2848.000000	0.029769
2847.000000	0.028865
2846.000000	0.027894
2845.000000	0.026958
2844.000000	0.026123
2843.000000	0.025410
2842.000000	0.024803
2841.000000	0.024280
2840.000000	0.023827
2839.000000	0.023444
2838.000000	0.023125
2837.000000	0.022852
2836.000000	0.022601
2835.000000	0.022366
2834.000000	0.022155
2833.000000	0.021978
2832.000000	0.021836
2831.000000	0.021714
2830.000000	0.021596
2829.000000	0.021470
2828.000000	0.021338
2827.000000	0.021213
2826.000000	0.021102
2825.000000	0.021005
2824.000000	0.020918
2823.000000	0.020830
2822.000000	0.020733
2821.000000	0.020628
2820.000000	0.020525
2819.000000	0.020436
2818.000000	0.020363
2817.000000	0.020300
2816.000000	0.020235
2815.000000	0.020161
2814.000000	0.020075
2813.000000	0.019981
2812.000000	0.019891
2811.000000	0.019818
2810.000000	0.019768
2809.000000	0.019734
2808.000000	0.019704
2807.000000	0.019673
2806.000000	0.019639
2805.000000	0.019601
2804.000000	0.019560
2803.000000	0.019519
2802.000000	0.019474
2801.000000	0.019418
2800.000000	0.019348
2799.000000	0.019277
2798.000000	0.019223
2797.000000	0.019188
2796.000000	0.019158
2795.000000	0.019123
2794.000000	0.019083
2793.000000	0.019044
2792.000000	0.019013
2791.000000	0.018989
2790.000000	0.018968
2789.000000	0.018943
2788.000000	0.018909
2787.000000	0.018871
2786.000000	0.018835
2785.000000	0.018808
2784.000000	0.018785
2783.000000	0.018760
2782.000000	0.018728
2781.000000	0.018689
2780.000000	0.018645
2779.000000	0.018601
2778.000000	0.018565
2777.000000	0.018541
2776.000000	0.018522
2775.000000	0.018503
2774.000000	0.018478
2773.000000	0.018447
2772.000000	0.018411
2771.000000	0.018371
2770.000000	0.018335
2769.000000	0.018309
2768.000000	0.018295
2767.000000	0.018285
2766.000000	0.018268
2765.000000	0.018235
2764.000000	0.018189
2763.000000	0.018143
2762.000000	0.018109
2761.000000	0.018086
2760.000000	0.018064
2759.000000	0.018039
2758.000000	0.018023
2757.000000	0.018021
2756.000000	0.018021
2755.000000	0.018008
2754.000000	0.017978
2753.000000	0.017941
2752.000000	0.017906
2751.000000	0.017879
2750.000000	0.017862
2749.000000	0.017857
2748.000000	0.017859
2747.000000	0.017855
2746.000000	0.017833
2745.000000	0.017797
2744.000000	0.017760
2743.000000	0.017738
2742.000000	0.017737
2741.000000	0.017747
2740.000000	0.017750
2739.000000	0.017739
2738.000000	0.017718
2737.000000	0.017695
2736.000000	0.017675
2735.000000	0.017655
2734.000000	0.017632
2733.000000	0.017611
2732.000000	0.017591
2731.000000	0.017577
2730.000000	0.017567
2729.000000	0.017565
2728.000000	0.017564
2727.000000	0.017555
2726.000000	0.017532
2725.000000	0.017498
2724.000000	0.017463
2723.000000	0.017434
2722.000000	0.017409
2721.000000	0.017386
2720.000000	0.017364
2719.000000	0.017346
2718.000000	0.017329
2717.000000	0.017309
2716.000000	0.017282
2715.000000	0.017253
2714.000000	0.017227
2713.000000	0.017209
2712.000000	0.017197
2711.000000	0.017190
2710.000000	0.017190
2709.000000	0.017190
2708.000000	0.017177
2707.000000	0.017147
2706.000000	0.017107
2705.000000	0.017073
2704.000000	0.017054
2703.000000	0.017047
2702.000000	0.017047
2701.000000	0.017045
2700.000000	0.017035
2699.000000	0.017018
2698.000000	0.017002
2697.000000	0.016987
2696.000000	0.016967
2695.000000	0.016941
2694.000000	0.016915
2693.000000	0.016901
2692.000000	0.016900
2691.000000	0.016905
2690.000000	0.016905
2689.000000	0.016898
2688.000000	0.016887
2687.000000	0.016877
2686.000000	0.016868
2685.000000	0.016862
2684.000000	0.016857
2683.000000	0.016855
2682.000000	0.016851
2681.000000	0.016842
2680.000000	0.016830
2679.000000	0.016821
2678.000000	0.016819
2677.000000	0.016818
2676.000000	0.016806
2675.000000	0.016778
2674.000000	0.016747
2673.000000	0.016725
2672.000000	0.016714
2671.000000	0.016710
2670.000000	0.016708
2669.000000	0.016703
2668.000000	0.016695
2667.000000	0.016682
2666.000000	0.016663
2665.000000	0.016643
2664.000000	0.016624
2663.000000	0.016611
2662.000000	0.016607
2661.000000	0.016605
2660.000000	0.016594
2659.000000	0.016566
2658.000000	0.016522
2657.000000	0.016473
2656.000000	0.016430
2655.000000	0.016397
2654.000000	0.016372
2653.000000	0.016355
2652.000000	0.016338
2651.000000	0.016317
2650.000000	0.016286
2649.000000	0.016247
2648.000000	0.016202
2647.000000	0.016155
2646.000000	0.016111
2645.000000	0.016071
2644.000000	0.016032
2643.000000	0.015990
2642.000000	0.015947
2641.000000	0.015911
2640.000000	0.015893
2639.000000	0.015893
2638.000000	0.015894
2637.000000	0.015873
2636.000000	0.015823
2635.000000	0.015763
2634.000000	0.015725
2633.000000	0.015717
2632.000000	0.015720
2631.000000	0.015711
2630.000000	0.015683
2629.000000	0.015646
2628.000000	0.015613
2627.000000	0.015589
2626.000000	0.015577
2625.000000	0.015566
2624.000000	0.015545
2623.000000	0.015509
2622.000000	0.015468
2621.000000	0.015435
2620.000000	0.015410
2619.000000	0.015385
2618.000000	0.015353
2617.000000	0.015316
2616.000000	0.015278
2615.000000	0.015243
2614.000000	0.015214
2613.000000	0.015192
2612.000000	0.015174
2611.000000	0.015160
2610.000000	0.015151
2609.000000	0.015150
2608.000000	0.015153
2607.000000	0.015154
2606.000000	0.015151
2605.000000	0.015141
2604.000000	0.015115
2603.000000	0.015076
2602.000000	0.015041
2601.000000	0.015029
2600.000000	0.015034
2599.000000	0.015034
2598.000000	0.015011
2597.000000	0.014968
2596.000000	0.014921
2595.000000	0.014890
2594.000000	0.014882
2593.000000	0.014890
2592.000000	0.014901
2591.000000	0.014903
2590.000000	0.014898
2589.000000	0.014893
2588.000000	0.014887
2587.000000	0.014872
2586.000000	0.014846
2585.000000	0.014816
2584.000000	0.014793
2583.000000	0.014780
2582.000000	0.014765
2581.000000	0.014731
2580.000000	0.014677
2579.000000	0.014631
2578.000000	0.014624
2577.000000	0.014657
2576.000000	0.014695
2575.000000	0.014701
2574.000000	0.014674
2573.000000	0.014636
2572.000000	0.014607
2571.000000	0.014588
2570.000000	0.014574
2569.000000	0.014562
2568.000000	0.014554
2567.000000	0.014552
2566.000000	0.014554
2565.000000	0.014544
2564.000000	0.014512
2563.000000	0.014464
2562.000000	0.014426
2561.000000	0.014418
2560.000000	0.014437
2559.000000	0.014467
2558.000000	0.014500
2557.000000	0.014531
2556.000000	0.014546
2555.000000	0.014531
2554.000000	0.014484
2553.000000	0.014425
2552.000000	0.014371
2551.000000	0.014333
2550.000000	0.014320
2549.000000	0.014334
2548.000000	0.014362
2547.000000	0.014381
2546.000000	0.014383
2545.000000	0.014374
2544.000000	0.014363
2543.000000	0.014353
2542.000000	0.014347
2541.000000	0.014352
2540.000000	0.014368
2539.000000	0.014384
2538.000000	0.014388
2537.000000	0.014378
2536.000000	0.014354
2535.000000	0.014321
2534.000000	0.014285
2533.000000	0.014256
2532.000000	0.014240
2531.000000	0.014237
2530.000000	0.014242
2529.000000	0.014245
2528.000000	0.014240
2527.000000	0.014230
2526.000000	0.014230
2525.000000	0.014249
2524.000000	0.014280
2523.000000	0.014308
2522.000000	0.014318
2521.000000	0.014308
2520.000000	0.014278
2519.000000	0.014234
2518.000000	0.014187
2517.000000	0.014148
2516.000000	0.014122
2515.000000	0.014112
2514.000000	0.014122
2513.000000	0.014149
2512.000000	0.014175
2511.000000	0.014190
2510.000000	0.014195
2509.000000	0.014200
2508.000000	0.014201
2507.000000	0.014186
2506.000000	0.014158
2505.000000	0.014136
2504.000000	0.014130
2503.000000	0.014132
2502.000000	0.014127
2501.000000	0.014102
2500.000000	0.014060
2499.000000	0.014018
2498.000000	0.013994
2497.000000	0.013988
2496.000000	0.013977
2495.000000	0.013940
2494.000000	0.013891
2493.000000	0.013864
2492.000000	0.013876
2491.000000	0.013914
2490.000000	0.013947
2489.000000	0.013956
2488.000000	0.013939
2487.000000	0.013903
2486.000000	0.013861
2485.000000	0.013830
2484.000000	0.013817
2483.000000	0.013817
2482.000000	0.013818
2481.000000	0.013816
2480.000000	0.013806
2479.000000	0.013794
2478.000000	0.013787
2477.000000	0.013792
2476.000000	0.013802
2475.000000	0.013806
2474.000000	0.013801
2473.000000	0.013790
2472.000000	0.013774
2471.000000	0.013750
2470.000000	0.013721
2469.000000	0.013691
2468.000000	0.013664
2467.000000	0.013638
2466.000000	0.013613
2465.000000	0.013589
2464.000000	0.013570
2463.000000	0.013566
2462.000000	0.013593
2461.000000	0.013651
2460.000000	0.013718
2459.000000	0.013769
2458.000000	0.013796
2457.000000	0.013809
2456.000000	0.013809
2455.000000	0.013789
2454.000000	0.013756
2453.000000	0.013736
2452.000000	0.013746
2451.000000	0.013773
2450.000000	0.013782
2449.000000	0.013760
2448.000000	0.013721
2447.000000	0.013698
2446.000000	0.013707
2445.000000	0.013733
2444.000000	0.013747
2443.000000	0.013734
2442.000000	0.013699
2441.000000	0.013662
2440.000000	0.013636
2439.000000	0.013622
2438.000000	0.013614
2437.000000	0.013607
2436.000000	0.013600
2435.000000	0.013598
2434.000000	0.013606
2433.000000	0.013620
2432.000000	0.013626
2431.000000	0.013619
2430.000000	0.013604
2429.000000	0.013587
2428.000000	0.013569
2427.000000	0.013551
2426.000000	0.013544
2425.000000	0.013554
2424.000000	0.013566
2423.000000	0.013564
2422.000000	0.013549
2421.000000	0.013533
2420.000000	0.013524
2419.000000	0.013522
2418.000000	0.013522
2417.000000	0.013514
2416.000000	0.013486
2415.000000	0.013442
2414.000000	0.013411
2413.000000	0.013418
2412.000000	0.013460
2411.000000	0.013507
2410.000000	0.013534
2409.000000	0.013543
2408.000000	0.013543
2407.000000	0.013535
2406.000000	0.013508
2405.000000	0.013458
2404.000000	0.013398
2403.000000	0.013357
2402.000000	0.013354
2401.000000	0.013377
2400.000000	0.013391
2399.000000	0.013371
2398.000000	0.013332
2397.000000	0.013301
2396.000000	0.013296
2395.000000	0.013321
2394.000000	0.013372
2393.000000	0.013433
2392.000000	0.013479
2391.000000	0.013490
2390.000000	0.013474
2389.000000	0.013451
2388.000000	0.013430
2387.000000	0.013411
2386.000000	0.013392
2385.000000	0.013379
2384.000000	0.013372
2383.000000	0.013362
2382.000000	0.013344
2381.000000	0.013313
2380.000000	0.013270
2379.000000	0.013238
2378.000000	0.013249
2377.000000	0.013310
2376.000000	0.013381
2375.000000	0.013418
2374.000000	0.013416
2373.000000	0.013397
2372.000000	0.013362
2371.000000	0.013300
2370.000000	0.013222
2369.000000	0.013161
2368.000000	0.013139
2367.000000	0.013162
2366.000000	0.013218
2365.000000	0.013289
2364.000000	0.013348
2363.000000	0.013392
2362.000000	0.013436
2361.000000	0.013482
2360.000000	0.013509
2359.000000	0.013498
2358.000000	0.013453
2357.000000	0.013398
2356.000000	0.013368
2355.000000	0.013386
2354.000000	0.013412
2353.000000	0.013386
2352.000000	0.013329
2351.000000	0.013314
2350.000000	0.013375
2349.000000	0.013478
2348.000000	0.013560
2347.000000	0.013560
2346.000000	0.013484
2345.000000	0.013425
2344.000000	0.013441
2343.000000	0.013494
2342.000000	0.013508
2341.000000	0.013473
2340.000000	0.013440
2339.000000	0.013456
2338.000000	0.013496
2337.000000	0.013507
2336.000000	0.013467
2335.000000	0.013396
2334.000000	0.013314
2333.000000	0.013239
2332.000000	0.013199
2331.000000	0.013212
2330.000000	0.013265
2329.000000	0.013332
2328.000000	0.013403
2327.000000	0.013478
2326.000000	0.013538
2325.000000	0.013558
2324.000000	0.013523
2323.000000	0.013457
2322.000000	0.013406
2321.000000	0.013418
2320.000000	0.013492
2319.000000	0.013582
2318.000000	0.013637
2317.000000	0.013634
2316.000000	0.013580
2315.000000	0.013486
2314.000000	0.013371
2313.000000	0.013261
2312.000000	0.013180
2311.000000	0.013128
2310.000000	0.013096
2309.000000	0.013077
2308.000000	0.013060
2307.000000	0.013034
2306.000000	0.013001
2305.000000	0.012986
2304.000000	0.013002
2303.000000	0.013035
2302.000000	0.013060
2301.000000	0.013070
2300.000000	0.013080
2299.000000	0.013095
2298.000000	0.013110
2297.000000	0.013122
2296.000000	0.013135
2295.000000	0.013149
2294.000000	0.013160
2293.000000	0.013162
2292.000000	0.013144
2291.000000	0.013096
2290.000000	0.013031
2289.000000	0.012992
2288.000000	0.013012
2287.000000	0.013078
2286.000000	0.013140
2285.000000	0.013161
2284.000000	0.013140
2283.000000	0.013096
2282.000000	0.013047
2281.000000	0.013007
2280.000000	0.012989
2279.000000	0.012990
2278.000000	0.012991
2277.000000	0.012970
2276.000000	0.012921
2275.000000	0.012863
2274.000000	0.012819
2273.000000	0.012791
2272.000000	0.012765
2271.000000	0.012738
2270.000000	0.012729
2269.000000	0.012758
2268.000000	0.012809
2267.000000	0.012843
2266.000000	0.012843
2265.000000	0.012827
2264.000000	0.012808
2263.000000	0.012772
2262.000000	0.012706
2261.000000	0.012628
2260.000000	0.012564
2259.000000	0.012512
2258.000000	0.012452
2257.000000	0.012386
2256.000000	0.012344
2255.000000	0.012343
2254.000000	0.012369
2253.000000	0.012394
2252.000000	0.012396
2251.000000	0.012370
2250.000000	0.012319
2249.000000	0.012253
2248.000000	0.012195
2247.000000	0.012180
2246.000000	0.012234
2245.000000	0.012348
2244.000000	0.012461
2243.000000	0.012505
2242.000000	0.012450
2241.000000	0.012326
2240.000000	0.012197
2239.000000	0.012126
2238.000000	0.012148
2237.000000	0.012251
2236.000000	0.012373
2235.000000	0.012435
2234.000000	0.012407
2233.000000	0.012322
2232.000000	0.012240
2231.000000	0.012194
2230.000000	0.012172
2229.000000	0.012150
2228.000000	0.012115
2227.000000	0.012079
2226.000000	0.012071
2225.000000	0.012115
2224.000000	0.012211
2223.000000	0.012334
2222.000000	0.012439
2221.000000	0.012468
2220.000000	0.012385
2219.000000	0.012210
2218.000000	0.012032
2217.000000	0.011948
2216.000000	0.011985
2215.000000	0.012091
2214.000000	0.012186
2213.000000	0.012208
2212.000000	0.012139
2211.000000	0.012011
2210.000000	0.011884
2209.000000	0.011798
2208.000000	0.011749
2207.000000	0.011732
2206.000000	0.011774
2205.000000	0.011894
2204.000000	0.012046
2203.000000	0.012135
2202.000000	0.012113
2201.000000	0.012022
2200.000000	0.011941
2199.000000	0.011901
2198.000000	0.011866
2197.000000	0.011780
2196.000000	0.011635
2195.000000	0.011509
2194.000000	0.011510
2193.000000	0.011655
2192.000000	0.011828
2191.000000	0.011894
2190.000000	0.011824
2189.000000	0.011692
2188.000000	0.011584
2187.000000	0.011553
2186.000000	0.011620
2185.000000	0.011751
2184.000000	0.011846
2183.000000	0.011830
2182.000000	0.011743
2181.000000	0.011687
2180.000000	0.011686
2179.000000	0.011674
2178.000000	0.011605
2177.000000	0.011507
2176.000000	0.011428
2175.000000	0.011402
2174.000000	0.011458
2173.000000	0.011578
2172.000000	0.011662
2171.000000	0.011603
2170.000000	0.011414
2169.000000	0.011218
2168.000000	0.011098
2167.000000	0.011038
2166.000000	0.011008
2165.000000	0.011027
2164.000000	0.011098
2163.000000	0.011166
2162.000000	0.011192
2161.000000	0.011187
2160.000000	0.011137
2159.000000	0.010986
2158.000000	0.010746
2157.000000	0.010538
2156.000000	0.010447
2155.000000	0.010444
2154.000000	0.010472
2153.000000	0.010535
2152.000000	0.010667
2151.000000	0.010877
2150.000000	0.011144
2149.000000	0.011420
2148.000000	0.011628
2147.000000	0.011698
2146.000000	0.011635
2145.000000	0.011522
2144.000000	0.011455
2143.000000	0.011467
2142.000000	0.011516
2141.000000	0.011523
2140.000000	0.011442
2139.000000	0.011306
2138.000000	0.011207
2137.000000	0.011193
2136.000000	0.011226
2135.000000	0.011255
2134.000000	0.011300
2133.000000	0.011421
2132.000000	0.011608
2131.000000	0.011784
2130.000000	0.011886
2129.000000	0.011922
2128.000000	0.011934
2127.000000	0.011952
2126.000000	0.011983
2125.000000	0.012014
2124.000000	0.012023
2123.000000	0.011997
2122.000000	0.011957
2121.000000	0.011943
2120.000000	0.011970
2119.000000	0.012022
2118.000000	0.012077
2117.000000	0.012117
2116.000000	0.012125
2115.000000	0.012102
2114.000000	0.012081
2113.000000	0.012099
2112.000000	0.012135
2111.000000	0.012132
2110.000000	0.012062
2109.000000	0.011964
2108.000000	0.011898
2107.000000	0.011895
2106.000000	0.011952
2105.000000	0.012039
2104.000000	0.012109
2103.000000	0.012128
2102.000000	0.012107
2101.000000	0.012086
2100.000000	0.012080
2099.000000	0.012064
2098.000000	0.012026
2097.000000	0.011987
2096.000000	0.011968
2095.000000	0.011956
2094.000000	0.011935
2093.000000	0.011911
2092.000000	0.011894
2091.000000	0.011887
2090.000000	0.011888
2089.000000	0.011895
2088.000000	0.011900
2087.000000	0.011896
2086.000000	0.011891
2085.000000	0.011907
2084.000000	0.011939
2083.000000	0.011962
2082.000000	0.011967
2081.000000	0.011980
2080.000000	0.012016
2079.000000	0.012049
2078.000000	0.012038
2077.000000	0.011985
2076.000000	0.011929
2075.000000	0.011915
2074.000000	0.011954
2073.000000	0.012010
2072.000000	0.012030
2071.000000	0.011986
2070.000000	0.011909
2069.000000	0.011838
2068.000000	0.011764
2067.000000	0.011652
2066.000000	0.011506
2065.000000	0.011382
2064.000000	0.011320
2063.000000	0.011298
2062.000000	0.011282
2061.000000	0.011274
2060.000000	0.011301
2059.000000	0.011369
2058.000000	0.011439
2057.000000	0.011453
2056.000000	0.011372
2055.000000	0.011208
2054.000000	0.011023
2053.000000	0.010889
2052.000000	0.010838
2051.000000	0.010866
2050.000000	0.010943
2049.000000	0.011017
2048.000000	0.011028
2047.000000	0.010976
2046.000000	0.010929
2045.000000	0.010932
2044.000000	0.010940
2043.000000	0.010875
2042.000000	0.010733
2041.000000	0.010558
2040.000000	0.010370
2039.000000	0.010184
2038.000000	0.010076
2037.000000	0.010120
2036.000000	0.010258
2035.000000	0.010330
2034.000000	0.010247
2033.000000	0.010060
2032.000000	0.009866
2031.000000	0.009731
2030.000000	0.009709
2029.000000	0.009825
2028.000000	0.010021
2027.000000	0.010215
2026.000000	0.010382
2025.000000	0.010525
2024.000000	0.010585
2023.000000	0.010505
2022.000000	0.010359
2021.000000	0.010300
2020.000000	0.010367
2019.000000	0.010452
2018.000000	0.010458
2017.000000	0.010418
2016.000000	0.010417
2015.000000	0.010476
2014.000000	0.010550
2013.000000	0.010575
2012.000000	0.010512
2011.000000	0.010383
2010.000000	0.010251
2009.000000	0.010150
2008.000000	0.010052
2007.000000	0.009957
2006.000000	0.009960
2005.000000	0.010128
2004.000000	0.010374
2003.000000	0.010544
2002.000000	0.010589
2001.000000	0.010549
2000.000000	0.010448
1999.000000	0.010294
1998.000000	0.010155
1997.000000	0.010141
1996.000000	0.010276
1995.000000	0.010484
1994.000000	0.010682
1993.000000	0.010819
1992.000000	0.010836
1991.000000	0.010711
1990.000000	0.010520
1989.000000	0.010391
1988.000000	0.010373
1987.000000	0.010422
1986.000000	0.010513
1985.000000	0.010665
1984.000000	0.010870
1983.000000	0.011074
1982.000000	0.011253
1981.000000	0.011409
1980.000000	0.011487
1979.000000	0.011393
1978.000000	0.011135
1977.000000	0.010873
1976.000000	0.010734
1975.000000	0.010684
1974.000000	0.010634
1973.000000	0.010576
1972.000000	0.010555
1971.000000	0.010600
1970.000000	0.010701
1969.000000	0.010813
1968.000000	0.010872
1967.000000	0.010857
1966.000000	0.010836
1965.000000	0.010870
1964.000000	0.010905
1963.000000	0.010837
1962.000000	0.010660
1961.000000	0.010481
1960.000000	0.010379
1959.000000	0.010349
1958.000000	0.010369
1957.000000	0.010438
1956.000000	0.010527
1955.000000	0.010586
1954.000000	0.010600
1953.000000	0.010607
1952.000000	0.010630
1951.000000	0.010662
1950.000000	0.010690
1949.000000	0.010711
1948.000000	0.010717
1947.000000	0.010721
1946.000000	0.010766
1945.000000	0.010877
1944.000000	0.011002
1943.000000	0.011063
1942.000000	0.011040
1941.000000	0.010969
1940.000000	0.010877
1939.000000	0.010790
1938.000000	0.010769
1937.000000	0.010860
1936.000000	0.011007
1935.000000	0.011095
1934.000000	0.011074
1933.000000	0.010991
1932.000000	0.010897
1931.000000	0.010810
1930.000000	0.010761
1929.000000	0.010789
1928.000000	0.010881
1927.000000	0.010960
1926.000000	0.010974
1925.000000	0.010941
1924.000000	0.010897
1923.000000	0.010863
1922.000000	0.010846
1921.000000	0.010843
1920.000000	0.010830
1919.000000	0.010784
1918.000000	0.010723
1917.000000	0.010691
1916.000000	0.010692
1915.000000	0.010691
1914.000000	0.010680
1913.000000	0.010696
1912.000000	0.010760
1911.000000	0.010855
1910.000000	0.010954
1909.000000	0.011031
1908.000000	0.011063
1907.000000	0.011031
1906.000000	0.010963
1905.000000	0.010912
1904.000000	0.010892
1903.000000	0.010881
1902.000000	0.010869
1901.000000	0.010870
1900.000000	0.010886
1899.000000	0.010900
1898.000000	0.010905
1897.000000	0.010913
1896.000000	0.010913
1895.000000	0.010874
1894.000000	0.010803
1893.000000	0.010751
1892.000000	0.010748
1891.000000	0.010774
1890.000000	0.010806
1889.000000	0.010845
1888.000000	0.010885
1887.000000	0.010895
1886.000000	0.010852
1885.000000	0.010784
1884.000000	0.010744
1883.000000	0.010757
1882.000000	0.010808
1881.000000	0.010856
1880.000000	0.010862
1879.000000	0.010810
1878.000000	0.010726
1877.000000	0.010664
1876.000000	0.010657
1875.000000	0.010690
1874.000000	0.010719
1873.000000	0.010704
1872.000000	0.010628
1871.000000	0.010510
1870.000000	0.010419
1869.000000	0.010420
1868.000000	0.010512
1867.000000	0.010646
1866.000000	0.010779
1865.000000	0.010890
1864.000000	0.010953
1863.000000	0.010948
1862.000000	0.010887
1861.000000	0.010815
1860.000000	0.010765
1859.000000	0.010739
1858.000000	0.010718
1857.000000	0.010689
1856.000000	0.010652
1855.000000	0.010614
1854.000000	0.010592
1853.000000	0.010588
1852.000000	0.010590
1851.000000	0.010589
1850.000000	0.010581
1849.000000	0.010563
1848.000000	0.010527
1847.000000	0.010474
1846.000000	0.010429
1845.000000	0.010425
1844.000000	0.010454
1843.000000	0.010490
1842.000000	0.010535
1841.000000	0.010588
1840.000000	0.010617
1839.000000	0.010596
1838.000000	0.010559
1837.000000	0.010562
1836.000000	0.010593
1835.000000	0.010586
1834.000000	0.010512
1833.000000	0.010405
1832.000000	0.010320
1831.000000	0.010275
1830.000000	0.010259
1829.000000	0.010277
1828.000000	0.010343
1827.000000	0.010434
1826.000000	0.010508
1825.000000	0.010540
1824.000000	0.010532
1823.000000	0.010505
1822.000000	0.010479
1821.000000	0.010467
1820.000000	0.010473
1819.000000	0.010482
1818.000000	0.010489
1817.000000	0.010498
1816.000000	0.010500
1815.000000	0.010495
1814.000000	0.010492
1813.000000	0.010501
1812.000000	0.010509
1811.000000	0.010491
1810.000000	0.010463
1809.000000	0.010457
1808.000000	0.010474
1807.000000	0.010482
1806.000000	0.010467
1805.000000	0.010446
1804.000000	0.010440
1803.000000	0.010452
1802.000000	0.010471
1801.000000	0.010491
1800.000000	0.010516
1799.000000	0.010544
1798.000000	0.010572
1797.000000	0.010589
1796.000000	0.010579
1795.000000	0.010537
1794.000000	0.010486
1793.000000	0.010457
1792.000000	0.010449
1791.000000	0.010434
1790.000000	0.010417
1789.000000	0.010413
1788.000000	0.010418
1787.000000	0.010415
1786.000000	0.010395
1785.000000	0.010365
1784.000000	0.010340
1783.000000	0.010343
1782.000000	0.010369
1781.000000	0.010387
1780.000000	0.010371
1779.000000	0.010319
1778.000000	0.010254
1777.000000	0.010181
1776.000000	0.010095
1775.000000	0.009993
1774.000000	0.009892
1773.000000	0.009827
1772.000000	0.009815
1771.000000	0.009854
1770.000000	0.009954
1769.000000	0.010096
1768.000000	0.010199
1767.000000	0.010214
1766.000000	0.010174
1765.000000	0.010140
1764.000000	0.010128
1763.000000	0.010124
1762.000000	0.010133
1761.000000	0.010185
1760.000000	0.010291
1759.000000	0.010429
1758.000000	0.010580
1757.000000	0.010721
1756.000000	0.010854
1755.000000	0.011005
1754.000000	0.011204
1753.000000	0.011448
1752.000000	0.011692
1751.000000	0.011893
1750.000000	0.012085
1749.000000	0.012336
1748.000000	0.012627
1747.000000	0.012893
1746.000000	0.013115
1745.000000	0.013321
1744.000000	0.013497
1743.000000	0.013595
1742.000000	0.013650
1741.000000	0.013759
1740.000000	0.013928
1739.000000	0.014063
1738.000000	0.014137
1737.000000	0.014203
1736.000000	0.014269
1735.000000	0.014296
1734.000000	0.014262
1733.000000	0.014215
1732.000000	0.014203
1731.000000	0.014174
1730.000000	0.014067
1729.000000	0.013905
1728.000000	0.013743
1727.000000	0.013596
1726.000000	0.013452
1725.000000	0.013332
1724.000000	0.013232
1723.000000	0.013098
1722.000000	0.012931
1721.000000	0.012799
1720.000000	0.012742
1719.000000	0.012716
1718.000000	0.012677
1717.000000	0.012674
1716.000000	0.012771
1715.000000	0.012944
1714.000000	0.013140
1713.000000	0.013363
1712.000000	0.013618
1711.000000	0.013874
1710.000000	0.014103
1709.000000	0.014326
1708.000000	0.014601
1707.000000	0.014957
1706.000000	0.015375
1705.000000	0.015806
1704.000000	0.016220
1703.000000	0.016613
1702.000000	0.017022
1701.000000	0.017599
1700.000000	0.018367
1699.000000	0.019166
1698.000000	0.019994
1697.000000	0.020912
1696.000000	0.021861
1695.000000	0.022733
1694.000000	0.023518
1693.000000	0.024310
1692.000000	0.025138
1691.000000	0.025959
1690.000000	0.026748
1689.000000	0.027491
1688.000000	0.028176
1687.000000	0.028788
1686.000000	0.029399
1685.000000	0.030228
1684.000000	0.031269
1683.000000	0.032291
1682.000000	0.033273
1681.000000	0.034275
1680.000000	0.035231
1679.000000	0.036067
1678.000000	0.036829
1677.000000	0.037658
1676.000000	0.038634
1675.000000	0.039671
1674.000000	0.040644
1673.000000	0.041588
1672.000000	0.042574
1671.000000	0.043617
1670.000000	0.044731
1669.000000	0.045897
1668.000000	0.047031
1667.000000	0.048037
1666.000000	0.048924
1665.000000	0.049803
1664.000000	0.050764
1663.000000	0.051786
1662.000000	0.052794
1661.000000	0.053774
1660.000000	0.054735
1659.000000	0.055609
1658.000000	0.056337
1657.000000	0.056968
1656.000000	0.057575
1655.000000	0.058161
1654.000000	0.058756
1653.000000	0.059353
1652.000000	0.059886
1651.000000	0.060388
1650.000000	0.060898
1649.000000	0.061399
1648.000000	0.061826
1647.000000	0.062081
1646.000000	0.062193
1645.000000	0.062318
1644.000000	0.062510
1643.000000	0.062692
1642.000000	0.062769
1641.000000	0.062707
1640.000000	0.062562
1639.000000	0.062391
1638.000000	0.062185
1637.000000	0.061881
1636.000000	0.061441
1635.000000	0.060947
1634.000000	0.060573
1633.000000	0.060348
1632.000000	0.060120
1631.000000	0.059732
1630.000000	0.059125
1629.000000	0.058342
1628.000000	0.057470
1627.000000	0.056595
1626.000000	0.055744
1625.000000	0.054872
1624.000000	0.053906
1623.000000	0.052841
1622.000000	0.051796
1621.000000	0.050887
1620.000000	0.050091
1619.000000	0.049254
1618.000000	0.048206
1617.000000	0.046929
1616.000000	0.045650
1615.000000	0.044623
1614.000000	0.043851
1613.000000	0.043159
1612.000000	0.042407
1611.000000	0.041595
1610.000000	0.040794
1609.000000	0.040034
1608.000000	0.039303
1607.000000	0.038614
1606.000000	0.037989
1605.000000	0.037412
1604.000000	0.036864
1603.000000	0.036347
1602.000000	0.035889
1601.000000	0.035499
1600.000000	0.035165
1599.000000	0.034871
1598.000000	0.034609
1597.000000	0.034376
1596.000000	0.034174
1595.000000	0.034014
1594.000000	0.033903
1593.000000	0.033823
1592.000000	0.033760
1591.000000	0.033722
1590.000000	0.033719
1589.000000	0.033753
1588.000000	0.033821
1587.000000	0.033937
1586.000000	0.034106
1585.000000	0.034304
1584.000000	0.034521
1583.000000	0.034771
1582.000000	0.035046
1581.000000	0.035313
1580.000000	0.035572
1579.000000	0.035856
1578.000000	0.036169
1577.000000	0.036477
1576.000000	0.036732
1575.000000	0.036959
1574.000000	0.037235
1573.000000	0.037565
1572.000000	0.037887
1571.000000	0.038194
1570.000000	0.038550
1569.000000	0.038972
1568.000000	0.039438
1567.000000	0.039943
1566.000000	0.040481
1565.000000	0.041017
1564.000000	0.041501
1563.000000	0.041911
1562.000000	0.042229
1561.000000	0.042453
1560.000000	0.042819
1559.000000	0.043432
1558.000000	0.044111
1557.000000	0.044879
1556.000000	0.045713
1555.000000	0.046476
1554.000000	0.047107
1553.000000	0.047654
1552.000000	0.048211
1551.000000	0.048769
1550.000000	0.049269
1549.000000	0.049687
1548.000000	0.050061
1547.000000	0.050426
1546.000000	0.050766
1545.000000	0.051031
1544.000000	0.051187
1543.000000	0.051259
1542.000000	0.051326
1541.000000	0.051436
1540.000000	0.051504
1539.000000	0.051474
1538.000000	0.051444
1537.000000	0.051469
1536.000000	0.051484
1535.000000	0.051397
1534.000000	0.051162
1533.000000	0.050850
1532.000000	0.050597
1531.000000	0.050430
1530.000000	0.050275
1529.000000	0.050084
1528.000000	0.049839
1527.000000	0.049525
1526.000000	0.049151
1525.000000	0.048784
1524.000000	0.048490
1523.000000	0.048226
1522.000000	0.047879
1521.000000	0.047440
1520.000000	0.047079
1519.000000	0.046913
1518.000000	0.046851
1517.000000	0.046719
1516.000000	0.046439
1515.000000	0.046085
1514.000000	0.045713
1513.000000	0.045284
1512.000000	0.044766
1511.000000	0.044207
1510.000000	0.043677
1509.000000	0.043145
1508.000000	0.042464
1507.000000	0.041504
1506.000000	0.040512
1505.000000	0.039870
1504.000000	0.039539
1503.000000	0.039269
1502.000000	0.038888
1501.000000	0.038363
1500.000000	0.037778
1499.000000	0.037222
1498.000000	0.036708
1497.000000	0.036205
1496.000000	0.035695
1495.000000	0.035213
1494.000000	0.034797
1493.000000	0.034434
1492.000000	0.034070
1491.000000	0.033668
1490.000000	0.033254
1489.000000	0.032919
1488.000000	0.032716
1487.000000	0.032599
1486.000000	0.032531
1485.000000	0.032520
1484.000000	0.032580
1483.000000	0.032697
1482.000000	0.032839
1481.000000	0.033007
1480.000000	0.033217
1479.000000	0.033481
1478.000000	0.033812
1477.000000	0.034224
1476.000000	0.034701
1475.000000	0.035228
1474.000000	0.035857
1473.000000	0.036642
1472.000000	0.037517
1471.000000	0.038357
1470.000000	0.039111
1469.000000	0.039775
1468.000000	0.040329
1467.000000	0.040780
1466.000000	0.041186
1465.000000	0.041591
1464.000000	0.041982
1463.000000	0.042331
1462.000000	0.042643
1461.000000	0.042936
1460.000000	0.043226
1459.000000	0.043553
1458.000000	0.043997
1457.000000	0.044565
1456.000000	0.045124
1455.000000	0.045608
1454.000000	0.046041
1453.000000	0.046408
1452.000000	0.046653
1451.000000	0.046766
1450.000000	0.046818
1449.000000	0.046866
1448.000000	0.046898
1447.000000	0.046908
1446.000000	0.046919
1445.000000	0.046936
1444.000000	0.046936
1443.000000	0.046894
1442.000000	0.046824
1441.000000	0.046747
1440.000000	0.046662
1439.000000	0.046550
1438.000000	0.046409
1437.000000	0.046258
1436.000000	0.046098
1435.000000	0.045966
1434.000000	0.045891
1433.000000	0.045827
1432.000000	0.045709
1431.000000	0.045532
1430.000000	0.045351
1429.000000	0.045211
1428.000000	0.045101
1427.000000	0.045020
1426.000000	0.044978
1425.000000	0.044946
1424.000000	0.044868
1423.000000	0.044733
1422.000000	0.044595
1421.000000	0.044499
1420.000000	0.044451
1419.000000	0.044425
1418.000000	0.044402
1417.000000	0.044387
1416.000000	0.044348
1415.000000	0.044249
1414.000000	0.044112
1413.000000	0.043978
1412.000000	0.043838
1411.000000	0.043657
1410.000000	0.043443
1409.000000	0.043235
1408.000000	0.043041
1407.000000	0.042850
1406.000000	0.042659
1405.000000	0.042458
1404.000000	0.042227
1403.000000	0.041972
1402.000000	0.041728
1401.000000	0.041507
1400.000000	0.041279
1399.000000	0.041011
1398.000000	0.040725
1397.000000	0.040459
1396.000000	0.040199
1395.000000	0.039915
1394.000000	0.039616
1393.000000	0.039337
1392.000000	0.039071
1391.000000	0.038789
1390.000000	0.038491
1389.000000	0.038195
1388.000000	0.037901
1387.000000	0.037595
1386.000000	0.037292
1385.000000	0.037020
1384.000000	0.036770
1383.000000	0.036510
1382.000000	0.036234
1381.000000	0.035963
1380.000000	0.035705
1379.000000	0.035443
1378.000000	0.035158
1377.000000	0.034842
1376.000000	0.034488
1375.000000	0.034093
1374.000000	0.033676
1373.000000	0.033284
1372.000000	0.032950
1371.000000	0.032661
1370.000000	0.032377
1369.000000	0.032058
1368.000000	0.031692
1367.000000	0.031292
1366.000000	0.030889
1365.000000	0.030514
1364.000000	0.030173
1363.000000	0.029853
1362.000000	0.029548
1361.000000	0.029273
1360.000000	0.029048
1359.000000	0.028868
1358.000000	0.028714
1357.000000	0.028576
1356.000000	0.028461
1355.000000	0.028384
1354.000000	0.028349
1353.000000	0.028346
1352.000000	0.028366
1351.000000	0.028408
1350.000000	0.028476
1349.000000	0.028569
1348.000000	0.028683
1347.000000	0.028810
1346.000000	0.028942
1345.000000	0.029080
1344.000000	0.029243
1343.000000	0.029447
1342.000000	0.029688
1341.000000	0.029930
1340.000000	0.030122
1339.000000	0.030232
1338.000000	0.030270
1337.000000	0.030265
1336.000000	0.030230
1335.000000	0.030160
1334.000000	0.030050
1333.000000	0.029908
1332.000000	0.029755
1331.000000	0.029599
1330.000000	0.029439
1329.000000	0.029270
1328.000000	0.029097
1327.000000	0.028931
1326.000000	0.028786
1325.000000	0.028672
1324.000000	0.028590
1323.000000	0.028539
1322.000000	0.028510
1321.000000	0.028495
1320.000000	0.028486
1319.000000	0.028464
1318.000000	0.028414
1317.000000	0.028338
1316.000000	0.028252
1315.000000	0.028167
1314.000000	0.028076
1313.000000	0.027970
1312.000000	0.027850
1311.000000	0.027726
1310.000000	0.027597
1309.000000	0.027456
1308.000000	0.027305
1307.000000	0.027158
1306.000000	0.027033
1305.000000	0.026929
1304.000000	0.026830
1303.000000	0.026722
1302.000000	0.026604
1301.000000	0.026487
1300.000000	0.026386
1299.000000	0.026301
1298.000000	0.026225
1297.000000	0.026157
1296.000000	0.026107
1295.000000	0.026088
1294.000000	0.026099
1293.000000	0.026136
1292.000000	0.026196
1291.000000	0.026277
1290.000000	0.026367
1289.000000	0.026455
1288.000000	0.026542
1287.000000	0.026636
1286.000000	0.026736
1285.000000	0.026840
1284.000000	0.026949
1283.000000	0.027068
1282.000000	0.027187
1281.000000	0.027286
1280.000000	0.027357
1279.000000	0.027410
1278.000000	0.027463
1277.000000	0.027528
1276.000000	0.027606
1275.000000	0.027689
1274.000000	0.027765
1273.000000	0.027828
1272.000000	0.027878
1271.000000	0.027930
1270.000000	0.028003
1269.000000	0.028112
1268.000000	0.028264
1267.000000	0.028448
1266.000000	0.028648
1265.000000	0.028854
1264.000000	0.029066
1263.000000	0.029279
1262.000000	0.029482
1261.000000	0.029666
1260.000000	0.029835
1259.000000	0.030005
1258.000000	0.030182
1257.000000	0.030363
1256.000000	0.030538
1255.000000	0.030704
1254.000000	0.030874
1253.000000	0.031058
1252.000000	0.031258
1251.000000	0.031460
1250.000000	0.031644
1249.000000	0.031810
1248.000000	0.031971
1247.000000	0.032144
1246.000000	0.032332
1245.000000	0.032520
1244.000000	0.032686
1243.000000	0.032815
1242.000000	0.032909
1241.000000	0.032979
1240.000000	0.033035
1239.000000	0.033069
1238.000000	0.033068
1237.000000	0.033021
1236.000000	0.032925
1235.000000	0.032785
1234.000000	0.032608
1233.000000	0.032396
1232.000000	0.032145
1231.000000	0.031857
1230.000000	0.031544
1229.000000	0.031215
1228.000000	0.030872
1227.000000	0.030514
1226.000000	0.030136
1225.000000	0.029743
1224.000000	0.029339
1223.000000	0.028926
1222.000000	0.028506
1221.000000	0.028078
1220.000000	0.027643
1219.000000	0.027218
1218.000000	0.026836
1217.000000	0.026534
1216.000000	0.026328
1215.000000	0.026199
1214.000000	0.026104
1213.000000	0.026004
1212.000000	0.025890
1211.000000	0.025782
1210.000000	0.025702
1209.000000	0.025658
1208.000000	0.025641
1207.000000	0.025638
1206.000000	0.025639
1205.000000	0.025638
1204.000000	0.025624
1203.000000	0.025585
1202.000000	0.025512
1201.000000	0.025404
1200.000000	0.025268
1199.000000	0.025113
1198.000000	0.024946
1197.000000	0.024771
1196.000000	0.024584
1195.000000	0.024376
1194.000000	0.024147
1193.000000	0.023912
1192.000000	0.023693
1191.000000	0.023504
1190.000000	0.023341
1189.000000	0.023193
1188.000000	0.023054
1187.000000	0.022916
1186.000000	0.022775
1185.000000	0.022632
1184.000000	0.022504
1183.000000	0.022408
1182.000000	0.022354
1181.000000	0.022343
1180.000000	0.022376
1179.000000	0.022450
1178.000000	0.022548
1177.000000	0.022648
1176.000000	0.022739
1175.000000	0.022825
1174.000000	0.022918
1173.000000	0.023023
1172.000000	0.023141
1171.000000	0.023273
1170.000000	0.023415
1169.000000	0.023558
1168.000000	0.023696
1167.000000	0.023835
1166.000000	0.023992
1165.000000	0.024180
1164.000000	0.024389
1163.000000	0.024592
1162.000000	0.024758
1161.000000	0.024868
1160.000000	0.024925
1159.000000	0.024938
1158.000000	0.024918
1157.000000	0.024867
1156.000000	0.024781
1155.000000	0.024659
1154.000000	0.024512
1153.000000	0.024356
1152.000000	0.024200
1151.000000	0.024032
1150.000000	0.023837
1149.000000	0.023619
1148.000000	0.023404
1147.000000	0.023214
1146.000000	0.023045
1145.000000	0.022878
1144.000000	0.022696
1143.000000	0.022503
1142.000000	0.022315
1141.000000	0.022149
1140.000000	0.022010
1139.000000	0.021888
1138.000000	0.021772
1137.000000	0.021667
1136.000000	0.021597
1135.000000	0.021579
1134.000000	0.021603
1133.000000	0.021642
1132.000000	0.021685
1131.000000	0.021740
1130.000000	0.021820
1129.000000	0.021927
1128.000000	0.022050
1127.000000	0.022173
1126.000000	0.022289
1125.000000	0.022406
1124.000000	0.022531
1123.000000	0.022660
1122.000000	0.022772
1121.000000	0.022867
1120.000000	0.022966
1119.000000	0.023103
1118.000000	0.023289
1117.000000	0.023507
1116.000000	0.023731
1115.000000	0.023933
1114.000000	0.024100
1113.000000	0.024234
1112.000000	0.024351
1111.000000	0.024466
1110.000000	0.024576
1109.000000	0.024669
1108.000000	0.024746
1107.000000	0.024818
1106.000000	0.024894
1105.000000	0.024972
1104.000000	0.025045
1103.000000	0.025123
1102.000000	0.025213
1101.000000	0.025313
1100.000000	0.025407
1099.000000	0.025485
1098.000000	0.025557
1097.000000	0.025637
1096.000000	0.025725
1095.000000	0.025815
1094.000000	0.025912
1093.000000	0.026041
1092.000000	0.026222
1091.000000	0.026453
1090.000000	0.026716
1089.000000	0.026991
1088.000000	0.027268
1087.000000	0.027542
1086.000000	0.027813
1085.000000	0.028090
1084.000000	0.028381
1083.000000	0.028664
1082.000000	0.028890
1081.000000	0.029017
1080.000000	0.029040
1079.000000	0.028981
1078.000000	0.028862
1077.000000	0.028690
1076.000000	0.028475
1075.000000	0.028230
1074.000000	0.027972
1073.000000	0.027710
1072.000000	0.027464
1071.000000	0.027262
1070.000000	0.027126
1069.000000	0.027059
1068.000000	0.027048
1067.000000	0.027084
1066.000000	0.027156
1065.000000	0.027252
1064.000000	0.027367
1063.000000	0.027514
1062.000000	0.027705
1061.000000	0.027923
1060.000000	0.028121
1059.000000	0.028256
1058.000000	0.028323
1057.000000	0.028347
1056.000000	0.028362
1055.000000	0.028397
1054.000000	0.028468
1053.000000	0.028570
1052.000000	0.028680
1051.000000	0.028783
1050.000000	0.028890
1049.000000	0.029017
1048.000000	0.029158
1047.000000	0.029282
1046.000000	0.029374
1045.000000	0.029441
1044.000000	0.029500
1043.000000	0.029559
1042.000000	0.029633
1041.000000	0.029749
1040.000000	0.029930
1039.000000	0.030171
1038.000000	0.030450
1037.000000	0.030746
1036.000000	0.031039
1035.000000	0.031312
1034.000000	0.031555
1033.000000	0.031788
1032.000000	0.032037
1031.000000	0.032308
1030.000000	0.032575
1029.000000	0.032807
1028.000000	0.032999
1027.000000	0.033172
1026.000000	0.033352
1025.000000	0.033565
1024.000000	0.033827
1023.000000	0.034148
1022.000000	0.034521
1021.000000	0.034914
1020.000000	0.035280
1019.000000	0.035569
1018.000000	0.035743
1017.000000	0.035764
1016.000000	0.035600
1015.000000	0.035234
1014.000000	0.034689
1013.000000	0.034021
1012.000000	0.033297
1011.000000	0.032573
1010.000000	0.031881
1009.000000	0.031225
1008.000000	0.030592
1007.000000	0.029975
1006.000000	0.029387
1005.000000	0.028844
1004.000000	0.028349
1003.000000	0.027892
1002.000000	0.027465
1001.000000	0.027070
1000.000000	0.026708
999.000000	0.026377
998.000000	0.026071
997.000000	0.025776
996.000000	0.025472
995.000000	0.025141
994.000000	0.024785
993.000000	0.024422
992.000000	0.024068
991.000000	0.023725
990.000000	0.023386
989.000000	0.023052
988.000000	0.022722
987.000000	0.022396
986.000000	0.022073
985.000000	0.021752
984.000000	0.021435
983.000000	0.021129
982.000000	0.020836
981.000000	0.020553
980.000000	0.020278
979.000000	0.020014
978.000000	0.019771
977.000000	0.019553
976.000000	0.019352
975.000000	0.019148
974.000000	0.018930
973.000000	0.018709
972.000000	0.018505
971.000000	0.018332
970.000000	0.018179
969.000000	0.018016
968.000000	0.017816
967.000000	0.017570
966.000000	0.017293
965.000000	0.017012
964.000000	0.016750
963.000000	0.016522
962.000000	0.016325
961.000000	0.016147
960.000000	0.015973
959.000000	0.015792
958.000000	0.015605
957.000000	0.015421
956.000000	0.015244
955.000000	0.015072
954.000000	0.014899
953.000000	0.014727
952.000000	0.014557
951.000000	0.014391
950.000000	0.014231
949.000000	0.014081
948.000000	0.013949
947.000000	0.013839
946.000000	0.013752
945.000000	0.013693
944.000000	0.013666
943.000000	0.013662
942.000000	0.013670
941.000000	0.013677
940.000000	0.013680
939.000000	0.013668
938.000000	0.013626
937.000000	0.013546
936.000000	0.013426
935.000000	0.013276
934.000000	0.013121
933.000000	0.012995
932.000000	0.012917
931.000000	0.012866
930.000000	0.012809
929.000000	0.012737
928.000000	0.012677
927.000000	0.012646
926.000000	0.012625
925.000000	0.012585
924.000000	0.012523
923.000000	0.012459
922.000000	0.012407
921.000000	0.012354
920.000000	0.012283
919.000000	0.012181
918.000000	0.012046
917.000000	0.011887
916.000000	0.011725
915.000000	0.011583
914.000000	0.011475
913.000000	0.011401
912.000000	0.011345
911.000000	0.011280
910.000000	0.011183
909.000000	0.011066
908.000000	0.010971
907.000000	0.010929
906.000000	0.010924
905.000000	0.010908
904.000000	0.010848
903.000000	0.010754
902.000000	0.010659
901.000000	0.010585
900.000000	0.010528
899.000000	0.010460
898.000000	0.010354
897.000000	0.010225
896.000000	0.010111
895.000000	0.010043
894.000000	0.010007
893.000000	0.009971
892.000000	0.009926
891.000000	0.009886
890.000000	0.009862
889.000000	0.009857
888.000000	0.009889
887.000000	0.009997
886.000000	0.010215
885.000000	0.010542
884.000000	0.010959
883.000000	0.011456
882.000000	0.012059
881.000000	0.012815
880.000000	0.013741
879.000000	0.014767
878.000000	0.015735
877.000000	0.016472
876.000000	0.016863
875.000000	0.016871
874.000000	0.016509
873.000000	0.015826
872.000000	0.014923
871.000000	0.013946
870.000000	0.013043
869.000000	0.012307
868.000000	0.011757
867.000000	0.011367
866.000000	0.011102
865.000000	0.010925
864.000000	0.010805
863.000000	0.010709
862.000000	0.010618
861.000000	0.010536
860.000000	0.010482
859.000000	0.010472
858.000000	0.010499
857.000000	0.010540
856.000000	0.010575
855.000000	0.010592
854.000000	0.010587
853.000000	0.010568
852.000000	0.010551
851.000000	0.010546
850.000000	0.010551
849.000000	0.010552
848.000000	0.010533
847.000000	0.010483
846.000000	0.010404
845.000000	0.010315
844.000000	0.010242
843.000000	0.010200
842.000000	0.010183
841.000000	0.010177
840.000000	0.010168
839.000000	0.010146
838.000000	0.010107
837.000000	0.010069
836.000000	0.010057
835.000000	0.010074
834.000000	0.010083
833.000000	0.010049
832.000000	0.009973
831.000000	0.009893
830.000000	0.009845
829.000000	0.009848
828.000000	0.009894
827.000000	0.009953
826.000000	0.009988
825.000000	0.009993
824.000000	0.010000
823.000000	0.010035
822.000000	0.010080
821.000000	0.010099
820.000000	0.010081
819.000000	0.010044
818.000000	0.010007
817.000000	0.009971
816.000000	0.009941
815.000000	0.009925
814.000000	0.009926
813.000000	0.009942
812.000000	0.009971
811.000000	0.010007
810.000000	0.010034
809.000000	0.010029
808.000000	0.009996
807.000000	0.009958
806.000000	0.009933
805.000000	0.009923
804.000000	0.009921
803.000000	0.009928
802.000000	0.009946
801.000000	0.009969
800.000000	0.009993
799.000000	0.010020
798.000000	0.010063
797.000000	0.010128
796.000000	0.010202
795.000000	0.010258
794.000000	0.010273
793.000000	0.010250
792.000000	0.010220
791.000000	0.010204
790.000000	0.010204
789.000000	0.010214
788.000000	0.010234
787.000000	0.010259
786.000000	0.010271
785.000000	0.010260
784.000000	0.010245
783.000000	0.010264
782.000000	0.010331
781.000000	0.010426
780.000000	0.010513
779.000000	0.010567
778.000000	0.010583
777.000000	0.010563
776.000000	0.010520
775.000000	0.010474
774.000000	0.010449
773.000000	0.010452
772.000000	0.010470
771.000000	0.010485
770.000000	0.010494
769.000000	0.010516
768.000000	0.010550
767.000000	0.010566
766.000000	0.010537
765.000000	0.010478
764.000000	0.010432
763.000000	0.010416
762.000000	0.010412
761.000000	0.010407
760.000000	0.010415
759.000000	0.010455
758.000000	0.010516
757.000000	0.010578
756.000000	0.010627
755.000000	0.010654
754.000000	0.010651
753.000000	0.010623
752.000000	0.010595
751.000000	0.010581
750.000000	0.010579
749.000000	0.010584
748.000000	0.010602
747.000000	0.010630
746.000000	0.010654
745.000000	0.010672
744.000000	0.010700
743.000000	0.010743
742.000000	0.010784
741.000000	0.010816
740.000000	0.010862
739.000000	0.010931
738.000000	0.011002
737.000000	0.011061
736.000000	0.011139
735.000000	0.011273
734.000000	0.011455
733.000000	0.011650
732.000000	0.011850
731.000000	0.012061
730.000000	0.012260
729.000000	0.012421
728.000000	0.012559
727.000000	0.012709
726.000000	0.012889
725.000000	0.013095
724.000000	0.013330
723.000000	0.013592
722.000000	0.013841
721.000000	0.014015
720.000000	0.014084
719.000000	0.014073
718.000000	0.014032
717.000000	0.014026
716.000000	0.014118
715.000000	0.014325
714.000000	0.014576
713.000000	0.014753
712.000000	0.014796
711.000000	0.014737
710.000000	0.014645
709.000000	0.014575
708.000000	0.014558
707.000000	0.014595
706.000000	0.014655
705.000000	0.014710
704.000000	0.014765
703.000000	0.014835
702.000000	0.014908
701.000000	0.014944
700.000000	0.014930
699.000000	0.014889
698.000000	0.014831
697.000000	0.014757
696.000000	0.014692
695.000000	0.014683
694.000000	0.014727
693.000000	0.014756
692.000000	0.014720
691.000000	0.014640
690.000000	0.014566
689.000000	0.014528
688.000000	0.014535
687.000000	0.014602
686.000000	0.014711
685.000000	0.014798
684.000000	0.014830
683.000000	0.014834
682.000000	0.014852
681.000000	0.014902
680.000000	0.014996
679.000000	0.015131
678.000000	0.015264
677.000000	0.015380
676.000000	0.015541
675.000000	0.015812
674.000000	0.016156
673.000000	0.016458
672.000000	0.016631
671.000000	0.016649
670.000000	0.016499
669.000000	0.016183
668.000000	0.015973
667.000000	0.016102
666.000000	0.016228
665.000000	0.016318
664.000000	0.016411
663.000000	0.016444
662.000000	0.016389
661.000000	0.016282
660.000000	0.016166
659.000000	0.016041
658.000000	0.015890
657.000000	0.015744
656.000000	0.015628
655.000000	0.015511
654.000000	0.015383
653.000000	0.015299
652.000000	0.015292
651.000000	0.015332
650.000000	0.015380
649.000000	0.015423
648.000000	0.015423
647.000000	0.015345
646.000000	0.015242
645.000000	0.015226
644.000000	0.015311
643.000000	0.015395
642.000000	0.015393
641.000000	0.015339
640.000000	0.015320
639.000000	0.015353
638.000000	0.015382
637.000000	0.015363
636.000000	0.015286
635.000000	0.015179
634.000000	0.015098
633.000000	0.015090
632.000000	0.015158
631.000000	0.015272
630.000000	0.015398
629.000000	0.015496
628.000000	0.015522
627.000000	0.015470
626.000000	0.015413
625.000000	0.015435
624.000000	0.015524
623.000000	0.015598
622.000000	0.015610
621.000000	0.015580
620.000000	0.015544
619.000000	0.015532
618.000000	0.015578
617.000000	0.015678
616.000000	0.015755
615.000000	0.015730
614.000000	0.015642
613.000000	0.015606
612.000000	0.015663
611.000000	0.015743
610.000000	0.015770
609.000000	0.015743
608.000000	0.015675
607.000000	0.015553
606.000000	0.015398
605.000000	0.015276
604.000000	0.015229
603.000000	0.015225
602.000000	0.015214
601.000000	0.015170
600.000000	0.015087
599.000000	0.014972
598.000000	0.014870
597.000000	0.014828
596.000000	0.014824
595.000000	0.014795
594.000000	0.014735
593.000000	0.014712
592.000000	0.014758
591.000000	0.014805
590.000000	0.014780
589.000000	0.014702
588.000000	0.014628
587.000000	0.014571
586.000000	0.014514
585.000000	0.014476
584.000000	0.014499
583.000000	0.014593
582.000000	0.014736
581.000000	0.014900
580.000000	0.015039
579.000000	0.015096
578.000000	0.015047
577.000000	0.014941
576.000000	0.014852
575.000000	0.014819
574.000000	0.014847
573.000000	0.014924
572.000000	0.015007
571.000000	0.015030
570.000000	0.014974
569.000000	0.014907
568.000000	0.014904
567.000000	0.014979
566.000000	0.015114
565.000000	0.015297
564.000000	0.015494
563.000000	0.015617
562.000000	0.015600
561.000000	0.015481
560.000000	0.015352
559.000000	0.015268
558.000000	0.015231
557.000000	0.015233
556.000000	0.015251
555.000000	0.015240
554.000000	0.015174
553.000000	0.015074
552.000000	0.014970
551.000000	0.014870
550.000000	0.014787
549.000000	0.014764
548.000000	0.014816
547.000000	0.014893
546.000000	0.014918
545.000000	0.014872
544.000000	0.014803
543.000000	0.014779
542.000000	0.014847
541.000000	0.014981
540.000000	0.015066
539.000000	0.014986
538.000000	0.014782
537.000000	0.014635
536.000000	0.014677
535.000000	0.014850
534.000000	0.015011
533.000000	0.015092
532.000000	0.015111
531.000000	0.015097
530.000000	0.015071
529.000000	0.015067
528.000000	0.015077
527.000000	0.015025
526.000000	0.014855
525.000000	0.014618
524.000000	0.014403
523.000000	0.014214
522.000000	0.014007
521.000000	0.013781
520.000000	0.013570
519.000000	0.013369
518.000000	0.013153
517.000000	0.012932
516.000000	0.012732
515.000000	0.012541
514.000000	0.012334
513.000000	0.012123
512.000000	0.011944
511.000000	0.011807
510.000000	0.011713
509.000000	0.011697
508.000000	0.011790
507.000000	0.011944
506.000000	0.012037
505.000000	0.011962
504.000000	0.011700
503.000000	0.011330
502.000000	0.011015
501.000000	0.010893
500.000000	0.010952
499.000000	0.011044
498.000000	0.011026
497.000000	0.010856
496.000000	0.010574
495.000000	0.010279
494.000000	0.010120
493.000000	0.010193
492.000000	0.010380
491.000000	0.010388
490.000000	0.010068
489.000000	0.009631
488.000000	0.009428
487.000000	0.009572
486.000000	0.009892
485.000000	0.010177
484.000000	0.010376
483.000000	0.010524
482.000000	0.010625
481.000000	0.010670
480.000000	0.010668
479.000000	0.010625
478.000000	0.010534
477.000000	0.010396
476.000000	0.010243
475.000000	0.010152
474.000000	0.010236
473.000000	0.010562
472.000000	0.011012
471.000000	0.011360
470.000000	0.011553
469.000000	0.011806
468.000000	0.012303
467.000000	0.012911
466.000000	0.013301
465.000000	0.013305
464.000000	0.013002
463.000000	0.012527
462.000000	0.011955
461.000000	0.011360
460.000000	0.010826
459.000000	0.010437
458.000000	0.010279
457.000000	0.010376
456.000000	0.010572
455.000000	0.010626
454.000000	0.010461
453.000000	0.010246
452.000000	0.010180
451.000000	0.010180
450.000000	0.010008
