PE UV       SUBTECH     SPECTRUM    ASCII       PEDS        4.00        
   -1
TDgAgneauUK 12.Sample.asc
18/03/08
14:21:29.00
18/03/08
14:21:29.00
Administrator

200.000000
1
Lambda 750
750N8071901
PerkinElmer UV WinLab 6.0.4.0738 / 1.61.00 Lambda 900

0
0
3350/servo 860.8/2
0
0
UV/VIS
1
1
1
CommonBeamDepol,150mm sphere / downward view
0
0
0
0
Program
Program
3350/servo 860.8/2
3350/0.2 860.8/0.2
3350/0.2 860.8/0.2
0
1
 
 
 
0
 
860.8
319.2
860.8
Front
100
on
 
 
0
0
0
 
0
 
 
 
0
 
 
0
0
0
0
0
 
 
 
 
0
0


0
0
#HDR
-1
-1
#GR
nm
%T
1.0
0.0
2350.000000
-1.000000
2151
8
28.735183
0.041280
#DATA
2350.000000	9.123364
2349.000000	9.376188
2348.000000	8.854610
2347.000000	9.814933
2346.000000	9.772635
2345.000000	9.675767
2344.000000	9.427415
2343.000000	9.512181
2342.000000	9.351625
2341.000000	9.523458
2340.000000	9.709384
2339.000000	9.841150
2338.000000	10.219635
2337.000000	10.008308
2336.000000	9.961697
2335.000000	10.419090
2334.000000	10.383511
2333.000000	10.342167
2332.000000	10.327817
2331.000000	10.565069
2330.000000	9.930441
2329.000000	10.174883
2328.000000	10.013801
2327.000000	10.175022
2326.000000	10.166439
2325.000000	9.995700
2324.000000	9.850112
2323.000000	10.036564
2322.000000	10.033217
2321.000000	10.055557
2320.000000	9.793171
2319.000000	9.820302
2318.000000	9.969559
2317.000000	10.031001
2316.000000	9.925876
2315.000000	10.001022
2314.000000	9.673829
2313.000000	9.500545
2312.000000	9.515143
2311.000000	9.515791
2310.000000	9.502984
2309.000000	9.372566
2308.000000	9.565716
2307.000000	9.597123
2306.000000	9.376667
2305.000000	9.493621
2304.000000	9.340634
2303.000000	9.345247
2302.000000	9.350456
2301.000000	9.299936
2300.000000	9.222526
2299.000000	8.940441
2298.000000	8.983574
2297.000000	8.969406
2296.000000	9.037119
2295.000000	9.103234
2294.000000	8.915943
2293.000000	8.798116
2292.000000	8.541067
2291.000000	8.707739
2290.000000	8.874086
2289.000000	8.785951
2288.000000	8.676866
2287.000000	8.627241
2286.000000	8.570936
2285.000000	8.617650
2284.000000	8.518603
2283.000000	8.565422
2282.000000	8.469322
2281.000000	8.600326
2280.000000	8.635918
2279.000000	8.660913
2278.000000	8.699476
2277.000000	8.479125
2276.000000	8.656432
2275.000000	8.818090
2274.000000	8.728887
2273.000000	8.718767
2272.000000	8.853508
2271.000000	8.954666
2270.000000	8.948234
2269.000000	8.841159
2268.000000	8.862424
2267.000000	8.942631
2266.000000	8.858833
2265.000000	8.881420
2264.000000	8.985629
2263.000000	9.092522
2262.000000	9.188223
2261.000000	9.260211
2260.000000	9.360319
2259.000000	9.425373
2258.000000	9.650938
2257.000000	9.693464
2256.000000	9.610602
2255.000000	9.802628
2254.000000	9.996723
2253.000000	10.043309
2252.000000	10.030593
2251.000000	10.248755
2250.000000	10.542388
2249.000000	10.685675
2248.000000	10.692469
2247.000000	10.648171
2246.000000	10.727155
2245.000000	10.979091
2244.000000	11.125881
2243.000000	11.156558
2242.000000	11.308431
2241.000000	11.335137
2240.000000	11.356354
2239.000000	11.486026
2238.000000	11.467364
2237.000000	11.380518
2236.000000	11.442369
2235.000000	11.678385
2234.000000	11.877724
2233.000000	11.851732
2232.000000	11.869583
2231.000000	11.951055
2230.000000	11.989655
2229.000000	11.989087
2228.000000	11.991077
2227.000000	12.015562
2226.000000	11.907689
2225.000000	11.878685
2224.000000	11.872587
2223.000000	11.826006
2222.000000	11.910261
2221.000000	11.934088
2220.000000	11.910388
2219.000000	11.926226
2218.000000	11.824231
2217.000000	11.737342
2216.000000	11.742088
2215.000000	11.710338
2214.000000	11.682680
2213.000000	11.720286
2212.000000	11.773620
2211.000000	11.676937
2210.000000	11.582698
2209.000000	11.593328
2208.000000	11.546636
2207.000000	11.387349
2206.000000	11.384089
2205.000000	11.430856
2204.000000	11.295850
2203.000000	11.162417
2202.000000	11.343471
2201.000000	11.321036
2200.000000	11.120081
2199.000000	11.029960
2198.000000	11.015204
2197.000000	10.993694
2196.000000	10.903154
2195.000000	10.850513
2194.000000	10.941598
2193.000000	10.757289
2192.000000	10.712314
2191.000000	10.638781
2190.000000	10.707753
2189.000000	10.634750
2188.000000	10.638666
2187.000000	10.718388
2186.000000	10.692466
2185.000000	10.585553
2184.000000	10.539349
2183.000000	10.468091
2182.000000	10.584463
2181.000000	10.503411
2180.000000	10.442990
2179.000000	10.353498
2178.000000	10.392308
2177.000000	10.503234
2176.000000	10.495146
2175.000000	10.493747
2174.000000	10.505174
2173.000000	10.418272
2172.000000	10.528179
2171.000000	10.440029
2170.000000	10.556259
2169.000000	10.434317
2168.000000	10.539120
2167.000000	10.586113
2166.000000	10.577947
2165.000000	10.638448
2164.000000	10.876718
2163.000000	10.801446
2162.000000	11.110819
2161.000000	11.129314
2160.000000	11.201031
2159.000000	11.119701
2158.000000	11.054499
2157.000000	11.152175
2156.000000	11.344488
2155.000000	11.136654
2154.000000	11.367497
2153.000000	11.653276
2152.000000	11.592064
2151.000000	11.619268
2150.000000	11.573169
2149.000000	11.713921
2148.000000	11.673960
2147.000000	11.875175
2146.000000	11.991745
2145.000000	11.888053
2144.000000	11.791974
2143.000000	12.196379
2142.000000	12.212802
2141.000000	12.466594
2140.000000	12.388993
2139.000000	12.383094
2138.000000	12.674146
2137.000000	12.567986
2136.000000	12.690401
2135.000000	12.592332
2134.000000	12.794376
2133.000000	12.520271
2132.000000	13.084524
2131.000000	12.990313
2130.000000	13.017181
2129.000000	12.955551
2128.000000	12.882430
2127.000000	12.898324
2126.000000	13.014351
2125.000000	13.012318
2124.000000	13.058288
2123.000000	12.998183
2122.000000	13.133035
2121.000000	13.136750
2120.000000	13.152931
2119.000000	13.090187
2118.000000	13.269149
2117.000000	13.311246
2116.000000	13.456243
2115.000000	13.314408
2114.000000	13.320429
2113.000000	13.323982
2112.000000	13.327856
2111.000000	13.268622
2110.000000	13.231325
2109.000000	13.344168
2108.000000	13.286838
2107.000000	13.347904
2106.000000	13.347202
2105.000000	13.365040
2104.000000	13.432400
2103.000000	13.419168
2102.000000	13.458992
2101.000000	13.434290
2100.000000	13.525011
2099.000000	13.531487
2098.000000	13.330401
2097.000000	13.329610
2096.000000	13.284537
2095.000000	13.332761
2094.000000	13.472058
2093.000000	13.388436
2092.000000	13.432026
2091.000000	13.421163
2090.000000	13.390769
2089.000000	13.396913
2088.000000	13.384636
2087.000000	13.261585
2086.000000	13.278883
2085.000000	13.293597
2084.000000	13.256598
2083.000000	13.200387
2082.000000	13.167877
2081.000000	13.081694
2080.000000	13.078940
2079.000000	13.046761
2078.000000	12.992641
2077.000000	13.032891
2076.000000	12.977877
2075.000000	12.797537
2074.000000	12.826319
2073.000000	12.685242
2072.000000	12.624544
2071.000000	12.667369
2070.000000	12.551476
2069.000000	12.355505
2068.000000	12.280732
2067.000000	12.214560
2066.000000	12.155308
2065.000000	12.098385
2064.000000	12.058422
2063.000000	11.954865
2062.000000	11.822976
2061.000000	11.685277
2060.000000	11.632707
2059.000000	11.567231
2058.000000	11.578485
2057.000000	11.464168
2056.000000	11.376432
2055.000000	11.265918
2054.000000	11.163082
2053.000000	11.037205
2052.000000	10.979337
2051.000000	10.871342
2050.000000	10.841276
2049.000000	10.815654
2048.000000	10.799975
2047.000000	10.809649
2046.000000	10.730669
2045.000000	10.644566
2044.000000	10.604406
2043.000000	10.635681
2042.000000	10.640126
2041.000000	10.647500
2040.000000	10.735015
2039.000000	10.708798
2038.000000	10.706886
2037.000000	10.741231
2036.000000	10.740378
2035.000000	10.792845
2034.000000	10.852727
2033.000000	10.967186
2032.000000	11.061453
2031.000000	11.061149
2030.000000	11.105143
2029.000000	11.187761
2028.000000	11.266737
2027.000000	11.344291
2026.000000	11.449282
2025.000000	11.523218
2024.000000	11.522549
2023.000000	11.524087
2022.000000	11.591053
2021.000000	11.639840
2020.000000	11.641152
2019.000000	11.658199
2018.000000	11.694825
2017.000000	11.703649
2016.000000	11.697286
2015.000000	11.749650
2014.000000	11.739600
2013.000000	11.701910
2012.000000	11.680044
2011.000000	11.708141
2010.000000	11.663265
2009.000000	11.566217
2008.000000	11.561204
2007.000000	11.564486
2006.000000	11.490517
2005.000000	11.442789
2004.000000	11.378692
2003.000000	11.353938
2002.000000	11.338308
2001.000000	11.263659
2000.000000	11.214114
1999.000000	11.169234
1998.000000	11.096980
1997.000000	11.044338
1996.000000	11.014428
1995.000000	10.986052
1994.000000	10.878212
1993.000000	10.808605
1992.000000	10.748543
1991.000000	10.683197
1990.000000	10.677754
1989.000000	10.603707
1988.000000	10.545122
1987.000000	10.516882
1986.000000	10.427026
1985.000000	10.366469
1984.000000	10.345511
1983.000000	10.299464
1982.000000	10.228848
1981.000000	10.179364
1980.000000	10.143712
1979.000000	10.048941
1978.000000	9.966431
1977.000000	9.906467
1976.000000	9.815020
1975.000000	9.813401
1974.000000	9.740592
1973.000000	9.735402
1972.000000	9.680620
1971.000000	9.599494
1970.000000	9.506947
1969.000000	9.468254
1968.000000	9.430836
1967.000000	9.393009
1966.000000	9.336167
1965.000000	9.337127
1964.000000	9.262790
1963.000000	9.171039
1962.000000	9.143166
1961.000000	9.074461
1960.000000	9.010720
1959.000000	8.987250
1958.000000	8.956503
1957.000000	8.953857
1956.000000	8.834834
1955.000000	8.866022
1954.000000	8.814052
1953.000000	8.744399
1952.000000	8.743925
1951.000000	8.802853
1950.000000	8.740876
1949.000000	8.663863
1948.000000	8.639660
1947.000000	8.659158
1946.000000	8.651695
1945.000000	8.681830
1944.000000	8.659774
1943.000000	8.653452
1942.000000	8.643908
1941.000000	8.690244
1940.000000	8.739237
1939.000000	8.780184
1938.000000	8.766524
1937.000000	8.779686
1936.000000	8.870079
1935.000000	8.828547
1934.000000	8.912867
1933.000000	8.991151
1932.000000	9.056128
1931.000000	9.185866
1930.000000	9.249545
1929.000000	9.242010
1928.000000	9.470711
1927.000000	9.552243
1926.000000	9.679892
1925.000000	9.843161
1924.000000	9.935044
1923.000000	10.077427
1922.000000	10.192556
1921.000000	10.347351
1920.000000	10.488634
1919.000000	10.558427
1918.000000	10.722818
1917.000000	11.062063
1916.000000	11.083241
1915.000000	11.424417
1914.000000	11.571560
1913.000000	11.842846
1912.000000	12.043372
1911.000000	12.226169
1910.000000	12.459958
1909.000000	12.593640
1908.000000	12.892409
1907.000000	13.170796
1906.000000	13.420404
1905.000000	13.665831
1904.000000	13.974692
1903.000000	14.303947
1902.000000	14.562629
1901.000000	14.897610
1900.000000	15.085978
1899.000000	15.411211
1898.000000	15.778835
1897.000000	15.990395
1896.000000	16.211106
1895.000000	16.597250
1894.000000	16.892085
1893.000000	17.131422
1892.000000	17.389173
1891.000000	17.645859
1890.000000	17.968364
1889.000000	18.302351
1888.000000	18.511037
1887.000000	18.803505
1886.000000	19.027425
1885.000000	19.301116
1884.000000	19.497198
1883.000000	19.691765
1882.000000	19.966830
1881.000000	20.155576
1880.000000	20.325875
1879.000000	20.532945
1878.000000	20.715960
1877.000000	20.903251
1876.000000	21.023521
1875.000000	21.211335
1874.000000	21.409284
1873.000000	21.491422
1872.000000	21.579023
1871.000000	21.733855
1870.000000	21.863820
1869.000000	21.952991
1868.000000	22.010228
1867.000000	22.049685
1866.000000	22.105656
1865.000000	22.133879
1864.000000	22.165710
1863.000000	22.199464
1862.000000	22.283883
1861.000000	22.340219
1860.000000	22.342838
1859.000000	22.364940
1858.000000	22.408800
1857.000000	22.457160
1856.000000	22.487527
1855.000000	22.482049
1854.000000	22.507394
1853.000000	22.530259
1852.000000	22.537382
1851.000000	22.531234
1850.000000	22.537589
1849.000000	22.552776
1848.000000	22.525003
1847.000000	22.562171
1846.000000	22.549390
1845.000000	22.501654
1844.000000	22.497877
1843.000000	22.488402
1842.000000	22.494920
1841.000000	22.474553
1840.000000	22.446558
1839.000000	22.450632
1838.000000	22.392882
1837.000000	22.343785
1836.000000	22.342140
1835.000000	22.320036
1834.000000	22.275175
1833.000000	22.255150
1832.000000	22.226213
1831.000000	22.174350
1830.000000	22.171449
1829.000000	22.133518
1828.000000	22.086689
1827.000000	22.068963
1826.000000	22.031145
1825.000000	21.998283
1824.000000	22.009826
1823.000000	21.992863
1822.000000	21.953845
1821.000000	21.916592
1820.000000	21.900771
1819.000000	21.893847
1818.000000	21.868648
1817.000000	21.840490
1816.000000	21.825709
1815.000000	21.815434
1814.000000	21.797387
1813.000000	21.778429
1812.000000	21.747587
1811.000000	21.724887
1810.000000	21.709188
1809.000000	21.672904
1808.000000	21.656375
1807.000000	21.641794
1806.000000	21.609520
1805.000000	21.583181
1804.000000	21.574030
1803.000000	21.570204
1802.000000	21.542830
1801.000000	21.520491
1800.000000	21.518016
1799.000000	21.509470
1798.000000	21.491690
1797.000000	21.472591
1796.000000	21.479219
1795.000000	21.467595
1794.000000	21.458567
1793.000000	21.443531
1792.000000	21.418682
1791.000000	21.429669
1790.000000	21.414036
1789.000000	21.410348
1788.000000	21.399206
1787.000000	21.370172
1786.000000	21.356174
1785.000000	21.352074
1784.000000	21.346325
1783.000000	21.336420
1782.000000	21.325903
1781.000000	21.284736
1780.000000	21.254066
1779.000000	21.250388
1778.000000	21.217404
1777.000000	21.184424
1776.000000	21.154308
1775.000000	21.108486
1774.000000	21.081371
1773.000000	21.058351
1772.000000	21.016440
1771.000000	20.989221
1770.000000	20.961957
1769.000000	20.902020
1768.000000	20.869354
1767.000000	20.843143
1766.000000	20.814544
1765.000000	20.769225
1764.000000	20.752395
1763.000000	20.726592
1762.000000	20.692913
1761.000000	20.648862
1760.000000	20.603072
1759.000000	20.567911
1758.000000	20.544410
1757.000000	20.511605
1756.000000	20.492726
1755.000000	20.474523
1754.000000	20.444362
1753.000000	20.397966
1752.000000	20.387539
1751.000000	20.340500
1750.000000	20.295976
1749.000000	20.283714
1748.000000	20.213625
1747.000000	20.175241
1746.000000	20.167903
1745.000000	20.099859
1744.000000	20.072653
1743.000000	20.055695
1742.000000	20.021645
1741.000000	19.991353
1740.000000	19.977681
1739.000000	19.956077
1738.000000	19.927889
1737.000000	19.869669
1736.000000	19.872585
1735.000000	19.892544
1734.000000	19.853661
1733.000000	19.826600
1732.000000	19.834469
1731.000000	19.830003
1730.000000	19.877564
1729.000000	19.888226
1728.000000	19.867907
1727.000000	19.890551
1726.000000	19.909725
1725.000000	19.970910
1724.000000	20.000590
1723.000000	20.060324
1722.000000	20.110026
1721.000000	20.163043
1720.000000	20.231792
1719.000000	20.283131
1718.000000	20.346576
1717.000000	20.385046
1716.000000	20.442652
1715.000000	20.495089
1714.000000	20.568562
1713.000000	20.585068
1712.000000	20.641524
1711.000000	20.654595
1710.000000	20.695136
1709.000000	20.759349
1708.000000	20.777660
1707.000000	20.793243
1706.000000	20.822835
1705.000000	20.849911
1704.000000	20.855911
1703.000000	20.828674
1702.000000	20.875595
1701.000000	20.896595
1700.000000	20.896245
1699.000000	20.897623
1698.000000	20.934517
1697.000000	20.940422
1696.000000	20.981126
1695.000000	20.980965
1694.000000	21.015523
1693.000000	21.038728
1692.000000	21.029840
1691.000000	21.082298
1690.000000	21.136561
1689.000000	21.187514
1688.000000	21.225048
1687.000000	21.298049
1686.000000	21.364047
1685.000000	21.441416
1684.000000	21.516450
1683.000000	21.595480
1682.000000	21.684721
1681.000000	21.778345
1680.000000	21.869090
1679.000000	21.968376
1678.000000	22.063630
1677.000000	22.137017
1676.000000	22.246308
1675.000000	22.374465
1674.000000	22.446413
1673.000000	22.544243
1672.000000	22.643948
1671.000000	22.734875
1670.000000	22.817100
1669.000000	22.911319
1668.000000	22.947896
1667.000000	23.021719
1666.000000	23.085843
1665.000000	23.106700
1664.000000	23.166160
1663.000000	23.218083
1662.000000	23.259340
1661.000000	23.295475
1660.000000	23.348135
1659.000000	23.387178
1658.000000	23.417612
1657.000000	23.450796
1656.000000	23.487338
1655.000000	23.499832
1654.000000	23.497504
1653.000000	23.523273
1652.000000	23.527876
1651.000000	23.501389
1650.000000	23.506461
1649.000000	23.511710
1648.000000	23.485453
1647.000000	23.498850
1646.000000	23.491228
1645.000000	23.472856
1644.000000	23.472537
1643.000000	23.455982
1642.000000	23.424860
1641.000000	23.426899
1640.000000	23.413998
1639.000000	23.397543
1638.000000	23.379165
1637.000000	23.357389
1636.000000	23.312983
1635.000000	23.301967
1634.000000	23.271299
1633.000000	23.240790
1632.000000	23.225839
1631.000000	23.198459
1630.000000	23.169496
1629.000000	23.153556
1628.000000	23.124646
1627.000000	23.087895
1626.000000	23.074415
1625.000000	23.061231
1624.000000	23.044276
1623.000000	23.019385
1622.000000	22.985952
1621.000000	22.951926
1620.000000	22.909429
1619.000000	22.877526
1618.000000	22.850478
1617.000000	22.814618
1616.000000	22.778829
1615.000000	22.761573
1614.000000	22.728132
1613.000000	22.701074
1612.000000	22.669792
1611.000000	22.625111
1610.000000	22.587964
1609.000000	22.559310
1608.000000	22.522729
1607.000000	22.491177
1606.000000	22.452017
1605.000000	22.417007
1604.000000	22.382927
1603.000000	22.354345
1602.000000	22.323945
1601.000000	22.280201
1600.000000	22.245512
1599.000000	22.216656
1598.000000	22.187218
1597.000000	22.145851
1596.000000	22.104392
1595.000000	22.078923
1594.000000	22.049970
1593.000000	22.022313
1592.000000	21.999425
1591.000000	21.976419
1590.000000	21.944268
1589.000000	21.897947
1588.000000	21.861690
1587.000000	21.836328
1586.000000	21.815261
1585.000000	21.783861
1584.000000	21.756803
1583.000000	21.744214
1582.000000	21.720476
1581.000000	21.692790
1580.000000	21.663912
1579.000000	21.635609
1578.000000	21.608874
1577.000000	21.570117
1576.000000	21.537502
1575.000000	21.511588
1574.000000	21.474142
1573.000000	21.434564
1572.000000	21.410738
1571.000000	21.402547
1570.000000	21.394580
1569.000000	21.359354
1568.000000	21.328731
1567.000000	21.312341
1566.000000	21.303436
1565.000000	21.268750
1564.000000	21.245461
1563.000000	21.230856
1562.000000	21.220463
1561.000000	21.205876
1560.000000	21.187279
1559.000000	21.180492
1558.000000	21.162205
1557.000000	21.145255
1556.000000	21.117184
1555.000000	21.101150
1554.000000	21.077642
1553.000000	21.057249
1552.000000	21.048024
1551.000000	21.020383
1550.000000	21.004753
1549.000000	20.984648
1548.000000	20.947765
1547.000000	20.921485
1546.000000	20.873532
1545.000000	20.836799
1544.000000	20.803292
1543.000000	20.747220
1542.000000	20.697106
1541.000000	20.653769
1540.000000	20.613279
1539.000000	20.559617
1538.000000	20.501187
1537.000000	20.440737
1536.000000	20.392970
1535.000000	20.339868
1534.000000	20.280031
1533.000000	20.240433
1532.000000	20.205620
1531.000000	20.147447
1530.000000	20.096016
1529.000000	20.045763
1528.000000	19.989357
1527.000000	19.939311
1526.000000	19.904516
1525.000000	19.879034
1524.000000	19.844959
1523.000000	19.810777
1522.000000	19.770773
1521.000000	19.726140
1520.000000	19.717377
1519.000000	19.688235
1518.000000	19.659384
1517.000000	19.641678
1516.000000	19.610477
1515.000000	19.581611
1514.000000	19.561549
1513.000000	19.552188
1512.000000	19.525793
1511.000000	19.540474
1510.000000	19.558224
1509.000000	19.589786
1508.000000	19.577138
1507.000000	19.566540
1506.000000	19.527263
1505.000000	19.498901
1504.000000	19.493841
1503.000000	19.479562
1502.000000	19.462782
1501.000000	19.452004
1500.000000	19.441347
1499.000000	19.454976
1498.000000	19.447855
1497.000000	19.437826
1496.000000	19.452703
1495.000000	19.469556
1494.000000	19.475370
1493.000000	19.471860
1492.000000	19.490823
1491.000000	19.511440
1490.000000	19.533820
1489.000000	19.550944
1488.000000	19.565401
1487.000000	19.588948
1486.000000	19.622844
1485.000000	19.640850
1484.000000	19.661963
1483.000000	19.716429
1482.000000	19.724734
1481.000000	19.766039
1480.000000	19.794817
1479.000000	19.824102
1478.000000	19.849566
1477.000000	19.867712
1476.000000	19.910865
1475.000000	19.934208
1474.000000	19.962786
1473.000000	19.986236
1472.000000	20.005624
1471.000000	20.025965
1470.000000	20.063074
1469.000000	20.097270
1468.000000	20.096595
1467.000000	20.124798
1466.000000	20.195349
1465.000000	20.209022
1464.000000	20.240140
1463.000000	20.255778
1462.000000	20.301184
1461.000000	20.358340
1460.000000	20.367024
1459.000000	20.369355
1458.000000	20.398875
1457.000000	20.445078
1456.000000	20.484587
1455.000000	20.500697
1454.000000	20.522181
1453.000000	20.556081
1452.000000	20.626268
1451.000000	20.674263
1450.000000	20.687650
1449.000000	20.707619
1448.000000	20.749421
1447.000000	20.795371
1446.000000	20.858703
1445.000000	20.920151
1444.000000	20.937902
1443.000000	20.980942
1442.000000	21.027395
1441.000000	21.077107
1440.000000	21.119782
1439.000000	21.172742
1438.000000	21.222370
1437.000000	21.310025
1436.000000	21.390956
1435.000000	21.447326
1434.000000	21.485735
1433.000000	21.538722
1432.000000	21.613896
1431.000000	21.680701
1430.000000	21.756963
1429.000000	21.821043
1428.000000	21.889226
1427.000000	21.961248
1426.000000	22.042078
1425.000000	22.133466
1424.000000	22.196108
1423.000000	22.278282
1422.000000	22.373989
1421.000000	22.489984
1420.000000	22.582971
1419.000000	22.651425
1418.000000	22.751466
1417.000000	22.872894
1416.000000	22.981760
1415.000000	23.079534
1414.000000	23.167244
1413.000000	23.274643
1412.000000	23.366193
1411.000000	23.485524
1410.000000	23.608765
1409.000000	23.709683
1408.000000	23.801165
1407.000000	23.914109
1406.000000	24.023702
1405.000000	24.122379
1404.000000	24.239376
1403.000000	24.337136
1402.000000	24.412418
1401.000000	24.511454
1400.000000	24.610700
1399.000000	24.708299
1398.000000	24.795805
1397.000000	24.891580
1396.000000	24.988318
1395.000000	25.070054
1394.000000	25.148675
1393.000000	25.226851
1392.000000	25.288916
1391.000000	25.360117
1390.000000	25.431256
1389.000000	25.494498
1388.000000	25.570200
1387.000000	25.637387
1386.000000	25.697649
1385.000000	25.772039
1384.000000	25.828362
1383.000000	25.877928
1382.000000	25.941458
1381.000000	25.993589
1380.000000	26.021766
1379.000000	26.049869
1378.000000	26.099707
1377.000000	26.139242
1376.000000	26.155401
1375.000000	26.204475
1374.000000	26.258203
1373.000000	26.272240
1372.000000	26.286700
1371.000000	26.303075
1370.000000	26.314997
1369.000000	26.344451
1368.000000	26.373983
1367.000000	26.392408
1366.000000	26.412036
1365.000000	26.431715
1364.000000	26.467016
1363.000000	26.505458
1362.000000	26.531039
1361.000000	26.557333
1360.000000	26.563743
1359.000000	26.571152
1358.000000	26.594296
1357.000000	26.638735
1356.000000	26.681085
1355.000000	26.686971
1354.000000	26.686234
1353.000000	26.700808
1352.000000	26.746261
1351.000000	26.785092
1350.000000	26.808327
1349.000000	26.821356
1348.000000	26.826514
1347.000000	26.858674
1346.000000	26.894519
1345.000000	26.912230
1344.000000	26.919041
1343.000000	26.947797
1342.000000	26.981572
1341.000000	26.992731
1340.000000	26.990230
1339.000000	27.026794
1338.000000	27.065788
1337.000000	27.079094
1336.000000	27.093819
1335.000000	27.094089
1334.000000	27.102560
1333.000000	27.131923
1332.000000	27.169554
1331.000000	27.180174
1330.000000	27.183203
1329.000000	27.193056
1328.000000	27.215972
1327.000000	27.232624
1326.000000	27.236292
1325.000000	27.258512
1324.000000	27.281436
1323.000000	27.269993
1322.000000	27.248205
1321.000000	27.275452
1320.000000	27.312139
1319.000000	27.338538
1318.000000	27.335541
1317.000000	27.300424
1316.000000	27.322600
1315.000000	27.324950
1314.000000	27.322683
1313.000000	27.326041
1312.000000	27.353097
1311.000000	27.357940
1310.000000	27.359993
1309.000000	27.360058
1308.000000	27.360319
1307.000000	27.351712
1306.000000	27.336740
1305.000000	27.362090
1304.000000	27.387723
1303.000000	27.381797
1302.000000	27.386726
1301.000000	27.378601
1300.000000	27.367389
1299.000000	27.378645
1298.000000	27.388068
1297.000000	27.376495
1296.000000	27.380167
1295.000000	27.375803
1294.000000	27.391546
1293.000000	27.387993
1292.000000	27.383969
1291.000000	27.381506
1290.000000	27.375449
1289.000000	27.392378
1288.000000	27.391220
1287.000000	27.392792
1286.000000	27.372715
1285.000000	27.372658
1284.000000	27.366925
1283.000000	27.321044
1282.000000	27.327904
1281.000000	27.326529
1280.000000	27.324481
1279.000000	27.336293
1278.000000	27.339250
1277.000000	27.351797
1276.000000	27.338209
1275.000000	27.347227
1274.000000	27.331914
1273.000000	27.341553
1272.000000	27.338258
1271.000000	27.323956
1270.000000	27.316760
1269.000000	27.327405
1268.000000	27.306793
1267.000000	27.320264
1266.000000	27.354804
1265.000000	27.360029
1264.000000	27.366631
1263.000000	27.342875
1262.000000	27.362963
1261.000000	27.347020
1260.000000	27.391338
1259.000000	27.414088
1258.000000	27.391118
1257.000000	27.367014
1256.000000	27.368948
1255.000000	27.373883
1254.000000	27.365617
1253.000000	27.363685
1252.000000	27.362452
1251.000000	27.364904
1250.000000	27.376784
1249.000000	27.356696
1248.000000	27.369848
1247.000000	27.372362
1246.000000	27.362447
1245.000000	27.375944
1244.000000	27.376742
1243.000000	27.368287
1242.000000	27.361918
1241.000000	27.343173
1240.000000	27.343469
1239.000000	27.304348
1238.000000	27.302197
1237.000000	27.295225
1236.000000	27.255771
1235.000000	27.247271
1234.000000	27.260984
1233.000000	27.235579
1232.000000	27.198637
1231.000000	27.202782
1230.000000	27.203477
1229.000000	27.201045
1228.000000	27.194060
1227.000000	27.150663
1226.000000	27.131994
1225.000000	27.136903
1224.000000	27.139834
1223.000000	27.143293
1222.000000	27.117435
1221.000000	27.113370
1220.000000	27.119508
1219.000000	27.077967
1218.000000	27.057640
1217.000000	27.061460
1216.000000	27.053530
1215.000000	27.049915
1214.000000	27.051846
1213.000000	27.023103
1212.000000	27.005596
1211.000000	26.996342
1210.000000	26.992045
1209.000000	26.991811
1208.000000	26.981600
1207.000000	26.949183
1206.000000	26.906709
1205.000000	26.869835
1204.000000	26.855212
1203.000000	26.868987
1202.000000	26.898977
1201.000000	26.872043
1200.000000	26.831362
1199.000000	26.796080
1198.000000	26.770912
1197.000000	26.757432
1196.000000	26.744960
1195.000000	26.728094
1194.000000	26.711185
1193.000000	26.702207
1192.000000	26.705044
1191.000000	26.716927
1190.000000	26.688584
1189.000000	26.615658
1188.000000	26.605447
1187.000000	26.612041
1186.000000	26.612346
1185.000000	26.607884
1184.000000	26.604966
1183.000000	26.614384
1182.000000	26.635774
1181.000000	26.645912
1180.000000	26.658763
1179.000000	26.674752
1178.000000	26.700087
1177.000000	26.723751
1176.000000	26.738560
1175.000000	26.769860
1174.000000	26.791335
1173.000000	26.806249
1172.000000	26.846820
1171.000000	26.880732
1170.000000	26.903015
1169.000000	26.930364
1168.000000	26.958013
1167.000000	26.993502
1166.000000	27.032925
1165.000000	27.056548
1164.000000	27.087249
1163.000000	27.135437
1162.000000	27.162010
1161.000000	27.182606
1160.000000	27.200448
1159.000000	27.206425
1158.000000	27.224594
1157.000000	27.263774
1156.000000	27.304821
1155.000000	27.330487
1154.000000	27.364432
1153.000000	27.406231
1152.000000	27.434478
1151.000000	27.455305
1150.000000	27.482796
1149.000000	27.510139
1148.000000	27.536825
1147.000000	27.553258
1146.000000	27.575806
1145.000000	27.596926
1144.000000	27.588199
1143.000000	27.594723
1142.000000	27.617888
1141.000000	27.646000
1140.000000	27.676609
1139.000000	27.681427
1138.000000	27.699454
1137.000000	27.724157
1136.000000	27.739481
1135.000000	27.768197
1134.000000	27.794900
1133.000000	27.821306
1132.000000	27.823252
1131.000000	27.806103
1130.000000	27.809369
1129.000000	27.826579
1128.000000	27.842991
1127.000000	27.862057
1126.000000	27.871580
1125.000000	27.874533
1124.000000	27.880247
1123.000000	27.875263
1122.000000	27.895548
1121.000000	27.904009
1120.000000	27.904238
1119.000000	27.903094
1118.000000	27.907217
1117.000000	27.910922
1116.000000	27.913640
1115.000000	27.914870
1114.000000	27.922121
1113.000000	27.923381
1112.000000	27.914265
1111.000000	27.914903
1110.000000	27.915467
1109.000000	27.912569
1108.000000	27.926789
1107.000000	27.926319
1106.000000	27.900054
1105.000000	27.879320
1104.000000	27.880673
1103.000000	27.893058
1102.000000	27.909808
1101.000000	27.904601
1100.000000	27.917678
1099.000000	27.918704
1098.000000	27.932061
1097.000000	27.939047
1096.000000	27.918928
1095.000000	27.887233
1094.000000	27.895459
1093.000000	27.906085
1092.000000	27.916927
1091.000000	27.929676
1090.000000	27.924497
1089.000000	27.899203
1088.000000	27.896948
1087.000000	27.884106
1086.000000	27.900846
1085.000000	27.902180
1084.000000	27.912204
1083.000000	27.905146
1082.000000	27.877065
1081.000000	27.869383
1080.000000	27.866995
1079.000000	27.878176
1078.000000	27.877571
1077.000000	27.893346
1076.000000	27.905243
1075.000000	27.876741
1074.000000	27.858169
1073.000000	27.866230
1072.000000	27.871308
1071.000000	27.862416
1070.000000	27.881267
1069.000000	27.877055
1068.000000	27.838564
1067.000000	27.847783
1066.000000	27.848784
1065.000000	27.844911
1064.000000	27.846794
1063.000000	27.844099
1062.000000	27.859374
1061.000000	27.827424
1060.000000	27.818094
1059.000000	27.824892
1058.000000	27.831463
1057.000000	27.841677
1056.000000	27.832045
1055.000000	27.798483
1054.000000	27.805466
1053.000000	27.813742
1052.000000	27.807786
1051.000000	27.807093
1050.000000	27.781193
1049.000000	27.793636
1048.000000	27.779894
1047.000000	27.809721
1046.000000	27.770030
1045.000000	27.777992
1044.000000	27.761350
1043.000000	27.776746
1042.000000	27.792691
1041.000000	27.766797
1040.000000	27.788432
1039.000000	27.771943
1038.000000	27.781807
1037.000000	27.750128
1036.000000	27.743090
1035.000000	27.750819
1034.000000	27.753997
1033.000000	27.741328
1032.000000	27.762012
1031.000000	27.758316
1030.000000	27.763476
1029.000000	27.762810
1028.000000	27.751434
1027.000000	27.747181
1026.000000	27.745941
1025.000000	27.739802
1024.000000	27.767635
1023.000000	27.758023
1022.000000	27.748916
1021.000000	27.754577
1020.000000	27.763709
1019.000000	27.741449
1018.000000	27.752874
1017.000000	27.763209
1016.000000	27.757954
1015.000000	27.754388
1014.000000	27.770802
1013.000000	27.748205
1012.000000	27.756878
1011.000000	27.777794
1010.000000	27.760927
1009.000000	27.764668
1008.000000	27.775474
1007.000000	27.764464
1006.000000	27.757389
1005.000000	27.790252
1004.000000	27.803480
1003.000000	27.794902
1002.000000	27.811098
1001.000000	27.812386
1000.000000	27.826082
999.000000	27.844842
998.000000	27.863565
997.000000	27.855561
996.000000	27.865143
995.000000	27.867103
994.000000	27.872287
993.000000	27.870618
992.000000	27.880617
991.000000	27.901178
990.000000	27.899998
989.000000	27.891943
988.000000	27.899269
987.000000	27.918821
986.000000	27.914958
985.000000	27.910826
984.000000	27.921411
983.000000	27.932855
982.000000	27.940150
981.000000	27.931768
980.000000	27.928992
979.000000	27.934932
978.000000	27.949893
977.000000	27.959156
976.000000	27.958805
975.000000	27.960972
974.000000	27.957680
973.000000	27.981140
972.000000	27.974317
971.000000	27.978141
970.000000	27.979360
969.000000	27.974817
968.000000	27.972360
967.000000	27.987745
966.000000	27.997131
965.000000	28.000077
964.000000	28.002036
963.000000	28.016374
962.000000	28.024028
961.000000	28.026972
960.000000	28.032487
959.000000	28.024986
958.000000	28.018300
957.000000	28.022217
956.000000	28.034596
955.000000	28.044062
954.000000	28.041177
953.000000	28.055305
952.000000	28.058172
951.000000	28.073866
950.000000	28.090233
949.000000	28.087357
948.000000	28.084952
947.000000	28.079064
946.000000	28.079158
945.000000	28.094834
944.000000	28.105485
943.000000	28.102797
942.000000	28.100565
941.000000	28.098623
940.000000	28.103967
939.000000	28.106724
938.000000	28.101881
937.000000	28.105427
936.000000	28.120234
935.000000	28.120325
934.000000	28.100914
933.000000	28.101422
932.000000	28.098459
931.000000	28.090796
930.000000	28.082949
929.000000	28.087204
928.000000	28.107707
927.000000	28.107398
926.000000	28.101816
925.000000	28.108935
924.000000	28.102602
923.000000	28.095338
922.000000	28.128604
921.000000	28.117162
920.000000	28.079916
919.000000	28.075344
918.000000	28.115438
917.000000	28.145959
916.000000	28.101222
915.000000	28.072401
914.000000	28.096621
913.000000	28.115697
912.000000	28.112385
911.000000	28.124255
910.000000	28.134984
909.000000	28.121942
908.000000	28.110129
907.000000	28.114493
906.000000	28.119378
905.000000	28.159727
904.000000	28.160138
903.000000	28.170250
902.000000	28.189403
901.000000	28.162319
900.000000	28.130967
899.000000	28.098236
898.000000	28.133298
897.000000	28.163319
896.000000	28.171274
895.000000	28.211718
894.000000	28.209034
893.000000	28.199367
892.000000	28.198545
891.000000	28.208150
890.000000	28.197777
889.000000	28.203569
888.000000	28.188979
887.000000	28.210850
886.000000	28.213902
885.000000	28.215652
884.000000	28.214210
883.000000	28.224177
882.000000	28.211933
881.000000	28.216285
880.000000	28.219602
879.000000	28.181998
878.000000	28.185452
877.000000	28.149420
876.000000	28.110871
875.000000	28.165837
874.000000	28.246715
873.000000	28.139290
872.000000	28.104675
871.000000	28.226526
870.000000	28.238354
869.000000	28.165673
868.000000	28.204387
867.000000	28.242346
866.000000	28.159514
865.000000	28.154449
864.000000	28.187586
863.000000	28.236886
862.000000	28.169043
861.000000	28.169338
860.000000	28.154040
859.000000	28.610740
858.000000	28.599819
857.000000	28.517029
856.000000	28.563851
855.000000	28.641231
854.000000	28.735183
853.000000	28.428223
852.000000	28.501732
851.000000	28.496904
850.000000	28.559909
849.000000	28.519332
848.000000	28.609846
847.000000	28.500012
846.000000	28.546824
845.000000	28.523178
844.000000	28.568891
843.000000	28.586681
842.000000	28.456546
841.000000	28.548069
840.000000	28.467725
839.000000	28.668389
838.000000	28.394442
837.000000	28.467325
836.000000	28.450971
835.000000	28.601674
834.000000	28.626250
833.000000	28.472228
832.000000	28.512205
831.000000	28.444680
830.000000	28.544922
829.000000	28.606422
828.000000	28.457681
827.000000	28.405095
826.000000	28.453199
825.000000	28.502430
824.000000	28.516722
823.000000	28.478457
822.000000	28.538258
821.000000	28.439343
820.000000	28.426806
819.000000	28.440495
818.000000	28.472108
817.000000	28.463023
816.000000	28.443771
815.000000	28.516643
814.000000	28.453981
813.000000	28.470838
812.000000	28.411913
811.000000	28.420458
810.000000	28.488997
809.000000	28.508114
808.000000	28.445746
807.000000	28.486853
806.000000	28.390107
805.000000	28.431980
804.000000	28.444693
803.000000	28.395673
802.000000	28.440092
801.000000	28.385032
800.000000	28.398737
799.000000	28.396856
798.000000	28.426003
797.000000	28.430122
796.000000	28.457360
795.000000	28.476623
794.000000	28.487689
793.000000	28.447083
792.000000	28.406168
791.000000	28.421722
790.000000	28.399790
789.000000	28.450728
788.000000	28.409060
787.000000	28.462749
786.000000	28.414364
785.000000	28.428001
784.000000	28.403102
783.000000	28.386701
782.000000	28.455381
781.000000	28.428933
780.000000	28.387851
779.000000	28.378387
778.000000	28.412094
777.000000	28.402660
776.000000	28.373710
775.000000	28.387157
774.000000	28.354972
773.000000	28.421831
772.000000	28.391724
771.000000	28.415080
770.000000	28.348123
769.000000	28.348295
768.000000	28.390755
767.000000	28.416303
766.000000	28.410760
765.000000	28.382974
764.000000	28.386208
763.000000	28.439143
762.000000	28.460922
761.000000	28.374080
760.000000	28.344309
759.000000	28.344050
758.000000	28.339096
757.000000	28.382414
756.000000	28.349432
755.000000	28.341523
754.000000	28.326171
753.000000	28.340951
752.000000	28.330941
751.000000	28.372080
750.000000	28.380184
749.000000	28.351742
748.000000	28.312353
747.000000	28.289343
746.000000	28.294729
745.000000	28.347983
744.000000	28.364461
743.000000	28.283879
742.000000	28.301957
741.000000	28.281053
740.000000	28.262828
739.000000	28.293113
738.000000	28.261296
737.000000	28.280534
736.000000	28.297240
735.000000	28.269939
734.000000	28.299428
733.000000	28.312212
732.000000	28.299773
731.000000	28.322156
730.000000	28.291284
729.000000	28.261489
728.000000	28.257023
727.000000	28.257343
726.000000	28.264603
725.000000	28.269188
724.000000	28.253133
723.000000	28.269988
722.000000	28.291367
721.000000	28.296230
720.000000	28.283069
719.000000	28.258373
718.000000	28.270041
717.000000	28.254468
716.000000	28.197582
715.000000	28.213006
714.000000	28.248910
713.000000	28.241120
712.000000	28.230831
711.000000	28.218036
710.000000	28.199610
709.000000	28.197566
708.000000	28.187386
707.000000	28.209673
706.000000	28.217170
705.000000	28.198329
704.000000	28.191769
703.000000	28.210567
702.000000	28.209022
701.000000	28.163470
700.000000	28.148332
699.000000	28.175618
698.000000	28.181252
697.000000	28.161755
696.000000	28.155590
695.000000	28.178551
694.000000	28.174736
693.000000	28.151053
692.000000	28.152289
691.000000	28.157585
690.000000	28.151873
689.000000	28.099777
688.000000	28.074291
687.000000	28.086950
686.000000	28.095263
685.000000	28.086826
684.000000	28.046492
683.000000	28.034830
682.000000	28.037835
681.000000	28.042229
680.000000	28.032560
679.000000	28.041213
678.000000	28.048604
677.000000	28.021042
676.000000	27.995076
675.000000	28.003557
674.000000	28.034166
673.000000	28.024558
672.000000	28.017071
671.000000	27.997673
670.000000	27.980811
669.000000	28.012593
668.000000	28.000545
667.000000	28.002505
666.000000	27.981472
665.000000	27.964441
664.000000	27.957055
663.000000	27.979434
662.000000	27.967299
661.000000	27.963650
660.000000	27.921565
659.000000	27.929872
658.000000	27.912155
657.000000	27.930862
656.000000	27.918433
655.000000	27.909707
654.000000	27.895202
653.000000	27.914866
652.000000	27.875667
651.000000	27.876963
650.000000	27.867666
649.000000	27.862290
648.000000	27.852902
647.000000	27.873538
646.000000	27.866122
645.000000	27.866912
644.000000	27.850858
643.000000	27.819575
642.000000	27.826007
641.000000	27.852107
640.000000	27.827048
639.000000	27.827570
638.000000	27.797577
637.000000	27.817023
636.000000	27.790885
635.000000	27.785805
634.000000	27.775052
633.000000	27.785062
632.000000	27.751905
631.000000	27.779018
630.000000	27.773092
629.000000	27.735114
628.000000	27.719952
627.000000	27.718915
626.000000	27.700471
625.000000	27.673718
624.000000	27.679219
623.000000	27.702540
622.000000	27.672152
621.000000	27.656957
620.000000	27.642897
619.000000	27.671550
618.000000	27.668663
617.000000	27.677647
616.000000	27.623833
615.000000	27.646254
614.000000	27.611861
613.000000	27.595697
612.000000	27.577877
611.000000	27.606059
610.000000	27.588334
609.000000	27.563606
608.000000	27.543025
607.000000	27.522019
606.000000	27.530195
605.000000	27.544594
604.000000	27.503667
603.000000	27.530246
602.000000	27.491082
601.000000	27.483512
600.000000	27.509963
599.000000	27.445971
598.000000	27.466194
597.000000	27.457869
596.000000	27.445529
595.000000	27.458623
594.000000	27.414444
593.000000	27.402949
592.000000	27.392942
591.000000	27.374712
590.000000	27.343274
589.000000	27.356003
588.000000	27.364504
587.000000	27.359705
586.000000	27.312816
585.000000	27.320060
584.000000	27.279788
583.000000	27.273860
582.000000	27.270104
581.000000	27.265423
580.000000	27.229754
579.000000	27.242044
578.000000	27.185899
577.000000	27.187588
576.000000	27.196590
575.000000	27.180525
574.000000	27.121002
573.000000	27.155125
572.000000	27.124210
571.000000	27.111945
570.000000	27.089511
569.000000	27.129949
568.000000	27.065749
567.000000	27.064237
566.000000	27.065055
565.000000	27.047690
564.000000	27.010959
563.000000	26.978131
562.000000	26.967166
561.000000	26.999901
560.000000	26.976987
559.000000	26.953286
558.000000	26.954908
557.000000	26.955816
556.000000	26.936560
555.000000	26.902477
554.000000	26.874176
553.000000	26.888610
552.000000	26.859763
551.000000	26.839580
550.000000	26.833200
549.000000	26.792852
548.000000	26.775674
547.000000	26.761440
546.000000	26.732477
545.000000	26.726658
544.000000	26.703662
543.000000	26.672942
542.000000	26.651001
541.000000	26.638614
540.000000	26.629950
539.000000	26.575918
538.000000	26.576376
537.000000	26.553432
536.000000	26.522026
535.000000	26.501985
534.000000	26.487953
533.000000	26.470522
532.000000	26.440509
531.000000	26.435666
530.000000	26.370760
529.000000	26.379232
528.000000	26.357220
527.000000	26.316138
526.000000	26.294711
525.000000	26.273153
524.000000	26.235806
523.000000	26.222137
522.000000	26.184754
521.000000	26.156665
520.000000	26.129475
519.000000	26.092201
518.000000	26.071897
517.000000	26.053072
516.000000	26.034588
515.000000	26.019261
514.000000	26.000019
513.000000	25.952250
512.000000	25.919050
511.000000	25.916088
510.000000	25.867788
509.000000	25.848756
508.000000	25.805212
507.000000	25.787159
506.000000	25.744860
505.000000	25.713132
504.000000	25.689840
503.000000	25.664304
502.000000	25.652665
501.000000	25.604472
500.000000	25.577350
499.000000	25.549822
498.000000	25.509056
497.000000	25.489470
496.000000	25.461469
495.000000	25.418664
494.000000	25.372894
493.000000	25.347474
492.000000	25.291327
491.000000	25.268643
490.000000	25.241332
489.000000	25.190689
488.000000	25.155618
487.000000	25.125881
486.000000	25.075008
485.000000	25.047758
484.000000	25.036289
483.000000	24.988926
482.000000	24.965789
481.000000	24.945800
480.000000	24.889628
479.000000	24.833003
478.000000	24.782543
477.000000	24.749138
476.000000	24.701417
475.000000	24.659645
474.000000	24.616824
473.000000	24.571478
472.000000	24.524623
471.000000	24.470454
470.000000	24.434219
469.000000	24.387742
468.000000	24.331525
467.000000	24.289343
466.000000	24.248867
465.000000	24.195120
464.000000	24.144903
463.000000	24.095006
462.000000	24.039430
461.000000	24.001170
460.000000	23.942706
459.000000	23.877496
458.000000	23.831821
457.000000	23.757178
456.000000	23.694813
455.000000	23.646441
454.000000	23.590799
453.000000	23.516499
452.000000	23.462069
451.000000	23.400848
450.000000	23.334769
449.000000	23.281419
448.000000	23.198630
447.000000	23.146376
446.000000	23.098997
445.000000	23.016504
444.000000	22.945745
443.000000	22.840665
442.000000	22.759691
441.000000	22.682094
440.000000	22.626093
439.000000	22.536273
438.000000	22.443927
437.000000	22.386803
436.000000	22.309393
435.000000	22.204264
434.000000	22.110177
433.000000	22.026472
432.000000	21.945155
431.000000	21.863974
430.000000	21.764828
429.000000	21.648171
428.000000	21.558275
427.000000	21.459807
426.000000	21.356983
425.000000	21.272999
424.000000	21.182938
423.000000	21.054985
422.000000	20.937825
421.000000	20.838341
420.000000	20.750331
419.000000	20.632613
418.000000	20.501388
417.000000	20.383640
416.000000	20.288735
415.000000	20.157214
414.000000	20.027598
413.000000	19.921292
412.000000	19.794145
411.000000	19.658945
410.000000	19.537353
409.000000	19.393552
408.000000	19.266858
407.000000	19.132450
406.000000	19.007672
405.000000	18.867623
404.000000	18.753008
403.000000	18.620639
402.000000	18.461579
401.000000	18.334277
400.000000	18.190544
399.000000	18.031731
398.000000	17.891238
397.000000	17.759640
396.000000	17.639359
395.000000	17.456893
394.000000	17.358572
393.000000	17.177439
392.000000	17.051123
391.000000	16.906547
390.000000	16.750028
389.000000	16.614483
388.000000	16.435841
387.000000	16.285713
386.000000	16.148880
385.000000	15.961379
384.000000	15.799911
383.000000	15.625772
382.000000	15.435622
381.000000	15.281526
380.000000	15.130516
379.000000	14.959626
378.000000	14.690340
377.000000	14.573965
376.000000	14.452179
375.000000	14.271455
374.000000	14.049549
373.000000	13.862035
372.000000	13.754204
371.000000	13.527160
370.000000	13.353145
369.000000	13.177551
368.000000	12.963938
367.000000	12.813082
366.000000	12.644782
365.000000	12.495092
364.000000	12.344279
363.000000	12.107675
362.000000	11.996505
361.000000	11.847208
360.000000	11.647202
359.000000	11.490003
358.000000	11.272825
357.000000	11.108603
356.000000	10.950631
355.000000	10.829578
354.000000	10.672757
353.000000	10.548525
352.000000	10.295650
351.000000	10.179831
350.000000	10.027062
349.000000	9.868289
348.000000	9.702578
347.000000	9.559168
346.000000	9.394035
345.000000	9.191028
344.000000	9.040267
343.000000	8.838832
342.000000	8.669817
341.000000	8.443523
340.000000	8.272434
339.000000	8.043835
338.000000	7.851833
337.000000	7.691907
336.000000	7.438413
335.000000	7.210458
334.000000	7.003197
333.000000	6.706100
332.000000	6.548524
331.000000	6.279100
330.000000	6.050348
329.000000	5.811279
328.000000	5.610136
327.000000	5.437498
326.000000	5.284501
325.000000	5.071183
324.000000	4.910213
323.000000	4.795673
322.000000	4.606150
321.000000	4.468859
320.000000	4.371607
319.000000	4.247024
318.000000	4.217097
317.000000	4.137656
316.000000	4.046898
315.000000	3.939093
314.000000	3.916297
313.000000	3.820872
312.000000	3.727613
311.000000	3.627824
310.000000	3.579804
309.000000	3.506566
308.000000	3.469136
307.000000	3.355106
306.000000	3.320061
305.000000	3.242233
304.000000	3.171039
303.000000	3.127022
302.000000	3.083822
301.000000	2.997580
300.000000	2.958331
299.000000	2.909041
298.000000	2.800941
297.000000	2.708722
296.000000	2.597283
295.000000	2.492595
294.000000	2.339858
293.000000	2.183373
292.000000	1.996840
291.000000	1.832550
290.000000	1.661477
289.000000	1.516850
288.000000	1.372378
287.000000	1.272741
286.000000	1.204762
285.000000	1.171955
284.000000	1.144299
283.000000	1.140152
282.000000	1.122054
281.000000	1.094100
280.000000	1.098444
279.000000	1.095263
278.000000	1.108345
277.000000	1.124892
276.000000	1.139330
275.000000	1.142751
274.000000	1.187100
273.000000	1.228648
272.000000	1.249501
271.000000	1.254582
270.000000	1.240247
269.000000	1.251550
268.000000	1.279246
267.000000	1.322240
266.000000	1.345365
265.000000	1.346700
264.000000	1.399498
263.000000	1.436379
262.000000	1.449366
261.000000	1.469316
260.000000	1.506456
259.000000	1.522216
258.000000	1.580139
257.000000	1.625443
256.000000	1.660525
255.000000	1.674119
254.000000	1.667225
253.000000	1.648631
252.000000	1.619248
251.000000	1.588402
250.000000	1.535431
249.000000	1.437695
248.000000	1.332780
247.000000	1.221053
246.000000	1.097861
245.000000	0.947639
244.000000	0.834100
243.000000	0.731596
242.000000	0.629463
241.000000	0.544038
240.000000	0.475979
239.000000	0.421600
238.000000	0.374725
237.000000	0.335379
236.000000	0.321797
235.000000	0.296691
234.000000	0.276483
233.000000	0.255929
232.000000	0.238139
231.000000	0.216135
230.000000	0.205435
229.000000	0.191675
228.000000	0.169571
227.000000	0.150613
226.000000	0.136427
225.000000	0.130023
224.000000	0.122486
223.000000	0.112426
222.000000	0.104600
221.000000	0.099538
220.000000	0.079823
219.000000	0.070394
218.000000	0.080033
217.000000	0.076382
216.000000	0.060458
215.000000	0.060301
214.000000	0.055250
213.000000	0.058672
212.000000	0.075836
211.000000	0.073275
210.000000	0.080309
209.000000	0.074375
208.000000	0.045581
207.000000	0.056819
206.000000	0.059923
205.000000	0.041280
204.000000	0.054842
203.000000	0.070545
202.000000	0.067729
201.000000	0.100503
200.000000	0.116288
