PE UV       SUBTECH     SPECTRUM    ASCII       PEDS        4.00        
   -1
TDgChevreUK 32.Sample.asc
18/03/08
15:35:24.00
18/03/08
15:35:24.00
Administrator

200.000000
1
Lambda 750
750N8071901
PerkinElmer UV WinLab 6.0.4.0738 / 1.61.00 Lambda 900

0
0
3350/servo 860.8/2
0
0
UV/VIS
1
1
1
CommonBeamDepol,150mm sphere / downward view
0
0
0
0
Program
Program
3350/servo 860.8/2
3350/0.2 860.8/0.2
3350/0.2 860.8/0.2
0
1
 
 
 
0
 
860.8
319.2
860.8
Front
100
on
 
 
0
0
0
 
0
 
 
 
0
 
 
0
0
0
0
0
 
 
 
 
0
0


0
0
#HDR
-1
-1
#GR
nm
%T
1.0
0.0
2350.000000
-1.000000
2151
8
38.808753
0.080376
#DATA
2350.000000	7.649127
2349.000000	7.669758
2348.000000	7.396702
2347.000000	8.217730
2346.000000	8.031801
2345.000000	7.722408
2344.000000	7.396678
2343.000000	7.435330
2342.000000	7.661177
2341.000000	7.469482
2340.000000	7.500598
2339.000000	8.056348
2338.000000	8.211389
2337.000000	8.384779
2336.000000	8.207232
2335.000000	8.926791
2334.000000	8.443298
2333.000000	8.719948
2332.000000	8.471611
2331.000000	8.587703
2330.000000	8.464095
2329.000000	8.581462
2328.000000	8.434960
2327.000000	8.188358
2326.000000	8.369745
2325.000000	8.738828
2324.000000	8.618252
2323.000000	8.450194
2322.000000	8.274538
2321.000000	8.240688
2320.000000	8.225879
2319.000000	8.317909
2318.000000	8.292898
2317.000000	8.245096
2316.000000	7.874294
2315.000000	7.710561
2314.000000	7.767783
2313.000000	7.605113
2312.000000	7.605393
2311.000000	7.787059
2310.000000	7.983832
2309.000000	7.803550
2308.000000	7.680486
2307.000000	7.514276
2306.000000	7.606591
2305.000000	7.606515
2304.000000	7.415369
2303.000000	7.375104
2302.000000	7.373015
2301.000000	7.200816
2300.000000	7.208362
2299.000000	7.394022
2298.000000	7.323793
2297.000000	7.214289
2296.000000	7.227218
2295.000000	7.058193
2294.000000	6.892552
2293.000000	6.867892
2292.000000	6.851449
2291.000000	6.798952
2290.000000	6.895479
2289.000000	7.122309
2288.000000	7.056651
2287.000000	6.852640
2286.000000	6.780515
2285.000000	6.737906
2284.000000	6.857288
2283.000000	6.685489
2282.000000	6.845575
2281.000000	6.877095
2280.000000	7.072483
2279.000000	7.021577
2278.000000	6.946576
2277.000000	7.010479
2276.000000	7.006429
2275.000000	6.954566
2274.000000	6.919934
2273.000000	7.056303
2272.000000	7.152925
2271.000000	7.206179
2270.000000	7.196491
2269.000000	7.191426
2268.000000	7.127250
2267.000000	7.109894
2266.000000	7.201378
2265.000000	7.405695
2264.000000	7.501442
2263.000000	7.589504
2262.000000	7.571207
2261.000000	7.675294
2260.000000	7.779985
2259.000000	7.931786
2258.000000	8.092939
2257.000000	8.333190
2256.000000	8.424129
2255.000000	8.319500
2254.000000	8.445118
2253.000000	8.531763
2252.000000	8.676954
2251.000000	8.875886
2250.000000	8.991461
2249.000000	9.195417
2248.000000	9.346665
2247.000000	9.426536
2246.000000	9.466932
2245.000000	9.645239
2244.000000	9.837527
2243.000000	9.944486
2242.000000	10.114543
2241.000000	10.174505
2240.000000	10.191748
2239.000000	10.207288
2238.000000	10.281963
2237.000000	10.229934
2236.000000	10.331629
2235.000000	10.501200
2234.000000	10.521275
2233.000000	10.615967
2232.000000	10.626208
2231.000000	10.661286
2230.000000	10.715281
2229.000000	10.746421
2228.000000	10.754427
2227.000000	10.868164
2226.000000	10.825117
2225.000000	10.735605
2224.000000	10.688056
2223.000000	10.518965
2222.000000	10.545506
2221.000000	10.635299
2220.000000	10.696521
2219.000000	10.615655
2218.000000	10.499558
2217.000000	10.531980
2216.000000	10.592912
2215.000000	10.526598
2214.000000	10.485963
2213.000000	10.415293
2212.000000	10.344503
2211.000000	10.278865
2210.000000	10.223146
2209.000000	10.122325
2208.000000	10.194385
2207.000000	10.147525
2206.000000	10.094900
2205.000000	10.138259
2204.000000	10.051449
2203.000000	9.903807
2202.000000	9.916768
2201.000000	9.911161
2200.000000	9.808726
2199.000000	9.771558
2198.000000	9.701914
2197.000000	9.608261
2196.000000	9.507273
2195.000000	9.542382
2194.000000	9.447173
2193.000000	9.284701
2192.000000	9.205241
2191.000000	9.123703
2190.000000	9.152567
2189.000000	9.171432
2188.000000	9.216133
2187.000000	9.129621
2186.000000	9.122538
2185.000000	9.031176
2184.000000	9.038413
2183.000000	9.064312
2182.000000	8.968155
2181.000000	8.919172
2180.000000	8.891169
2179.000000	8.840124
2178.000000	8.762291
2177.000000	8.870940
2176.000000	8.725742
2175.000000	8.895925
2174.000000	9.016505
2173.000000	8.912213
2172.000000	8.930993
2171.000000	9.062387
2170.000000	9.172621
2169.000000	9.227392
2168.000000	9.221957
2167.000000	9.306338
2166.000000	9.285631
2165.000000	9.440070
2164.000000	9.457770
2163.000000	9.368137
2162.000000	9.432485
2161.000000	9.561227
2160.000000	9.521614
2159.000000	9.714656
2158.000000	9.652277
2157.000000	9.832419
2156.000000	9.994309
2155.000000	10.024562
2154.000000	10.172309
2153.000000	10.153116
2152.000000	10.361797
2151.000000	10.541706
2150.000000	10.723830
2149.000000	10.558102
2148.000000	10.525446
2147.000000	10.714088
2146.000000	10.785195
2145.000000	11.163584
2144.000000	10.860736
2143.000000	10.971860
2142.000000	11.327504
2141.000000	11.433660
2140.000000	11.439609
2139.000000	11.480113
2138.000000	11.748629
2137.000000	11.769785
2136.000000	11.761897
2135.000000	11.782832
2134.000000	11.825111
2133.000000	11.681524
2132.000000	11.918251
2131.000000	12.108302
2130.000000	12.209960
2129.000000	12.168684
2128.000000	12.137773
2127.000000	12.010329
2126.000000	11.952188
2125.000000	12.114683
2124.000000	12.237149
2123.000000	12.282009
2122.000000	12.407276
2121.000000	12.289501
2120.000000	12.380339
2119.000000	12.490685
2118.000000	12.517207
2117.000000	12.538739
2116.000000	12.512839
2115.000000	12.564165
2114.000000	12.529406
2113.000000	12.509770
2112.000000	12.557085
2111.000000	12.583484
2110.000000	12.618792
2109.000000	12.619125
2108.000000	12.551792
2107.000000	12.546225
2106.000000	12.681916
2105.000000	12.686643
2104.000000	12.805067
2103.000000	12.717050
2102.000000	12.654580
2101.000000	12.725828
2100.000000	12.698682
2099.000000	12.654050
2098.000000	12.760310
2097.000000	12.737120
2096.000000	12.702093
2095.000000	12.543058
2094.000000	12.597454
2093.000000	12.648739
2092.000000	12.681254
2091.000000	12.609880
2090.000000	12.601792
2089.000000	12.632193
2088.000000	12.551300
2087.000000	12.530544
2086.000000	12.466373
2085.000000	12.498395
2084.000000	12.452365
2083.000000	12.430477
2082.000000	12.222713
2081.000000	12.289830
2080.000000	12.214956
2079.000000	12.099142
2078.000000	12.005614
2077.000000	12.000773
2076.000000	11.948514
2075.000000	11.851187
2074.000000	11.767859
2073.000000	11.733017
2072.000000	11.589944
2071.000000	11.477381
2070.000000	11.382008
2069.000000	11.234265
2068.000000	11.090004
2067.000000	11.051630
2066.000000	10.970733
2065.000000	10.870449
2064.000000	10.735078
2063.000000	10.643219
2062.000000	10.631911
2061.000000	10.514157
2060.000000	10.405141
2059.000000	10.311037
2058.000000	10.172752
2057.000000	10.088662
2056.000000	10.012807
2055.000000	9.942440
2054.000000	9.896709
2053.000000	9.760816
2052.000000	9.581080
2051.000000	9.475765
2050.000000	9.433123
2049.000000	9.402634
2048.000000	9.350379
2047.000000	9.294797
2046.000000	9.270690
2045.000000	9.214481
2044.000000	9.166690
2043.000000	9.213915
2042.000000	9.211333
2041.000000	9.275989
2040.000000	9.377036
2039.000000	9.361723
2038.000000	9.328877
2037.000000	9.364961
2036.000000	9.429877
2035.000000	9.477384
2034.000000	9.519761
2033.000000	9.574579
2032.000000	9.690246
2031.000000	9.758519
2030.000000	9.818132
2029.000000	9.940463
2028.000000	10.026325
2027.000000	10.059542
2026.000000	10.150807
2025.000000	10.223717
2024.000000	10.242119
2023.000000	10.254488
2022.000000	10.300769
2021.000000	10.366758
2020.000000	10.387859
2019.000000	10.387213
2018.000000	10.408170
2017.000000	10.442074
2016.000000	10.415643
2015.000000	10.407155
2014.000000	10.367014
2013.000000	10.341279
2012.000000	10.306160
2011.000000	10.262328
2010.000000	10.248850
2009.000000	10.218906
2008.000000	10.194400
2007.000000	10.109835
2006.000000	10.042269
2005.000000	10.016364
2004.000000	9.939302
2003.000000	9.855726
2002.000000	9.789284
2001.000000	9.739030
2000.000000	9.662774
1999.000000	9.608853
1998.000000	9.542259
1997.000000	9.504806
1996.000000	9.447729
1995.000000	9.319598
1994.000000	9.261785
1993.000000	9.161394
1992.000000	9.081930
1991.000000	9.011331
1990.000000	8.954063
1989.000000	8.855894
1988.000000	8.795412
1987.000000	8.713758
1986.000000	8.603351
1985.000000	8.560702
1984.000000	8.511073
1983.000000	8.461643
1982.000000	8.407076
1981.000000	8.333867
1980.000000	8.265401
1979.000000	8.205964
1978.000000	8.143072
1977.000000	8.073529
1976.000000	7.957089
1975.000000	7.893731
1974.000000	7.857663
1973.000000	7.816968
1972.000000	7.779369
1971.000000	7.694357
1970.000000	7.662980
1969.000000	7.615758
1968.000000	7.488661
1967.000000	7.445138
1966.000000	7.403183
1965.000000	7.382909
1964.000000	7.351764
1963.000000	7.293258
1962.000000	7.222260
1961.000000	7.169045
1960.000000	7.139713
1959.000000	7.084632
1958.000000	7.003682
1957.000000	6.941086
1956.000000	6.949627
1955.000000	6.988526
1954.000000	6.960275
1953.000000	6.921045
1952.000000	6.872752
1951.000000	6.843988
1950.000000	6.762295
1949.000000	6.765576
1948.000000	6.699309
1947.000000	6.721182
1946.000000	6.793683
1945.000000	6.783026
1944.000000	6.737637
1943.000000	6.791837
1942.000000	6.778429
1941.000000	6.831962
1940.000000	6.830669
1939.000000	6.902021
1938.000000	6.942544
1937.000000	7.002860
1936.000000	7.063539
1935.000000	7.197821
1934.000000	7.147864
1933.000000	7.266638
1932.000000	7.368390
1931.000000	7.459593
1930.000000	7.702646
1929.000000	7.767203
1928.000000	7.814678
1927.000000	7.885603
1926.000000	7.995895
1925.000000	8.184819
1924.000000	8.405025
1923.000000	8.485614
1922.000000	8.696644
1921.000000	8.837370
1920.000000	9.144109
1919.000000	9.260040
1918.000000	9.483881
1917.000000	9.659038
1916.000000	9.782877
1915.000000	10.061736
1914.000000	10.401427
1913.000000	10.636101
1912.000000	10.982985
1911.000000	11.209316
1910.000000	11.575337
1909.000000	11.792941
1908.000000	12.094232
1907.000000	12.387827
1906.000000	12.755604
1905.000000	13.214159
1904.000000	13.514550
1903.000000	13.920663
1902.000000	14.308550
1901.000000	14.606703
1900.000000	15.026931
1899.000000	15.437985
1898.000000	15.862245
1897.000000	16.296247
1896.000000	16.720352
1895.000000	17.099201
1894.000000	17.543521
1893.000000	17.940337
1892.000000	18.329998
1891.000000	18.715388
1890.000000	19.164041
1889.000000	19.555530
1888.000000	19.885891
1887.000000	20.313551
1886.000000	20.689159
1885.000000	20.997262
1884.000000	21.362679
1883.000000	21.733686
1882.000000	22.028921
1881.000000	22.384395
1880.000000	22.676916
1879.000000	22.983009
1878.000000	23.312385
1877.000000	23.595347
1876.000000	23.791129
1875.000000	24.051150
1874.000000	24.300007
1873.000000	24.516251
1872.000000	24.732976
1871.000000	24.962928
1870.000000	25.129844
1869.000000	25.273438
1868.000000	25.395801
1867.000000	25.554099
1866.000000	25.652432
1865.000000	25.771987
1864.000000	25.806033
1863.000000	25.932634
1862.000000	26.007390
1861.000000	26.082538
1860.000000	26.129925
1859.000000	26.183869
1858.000000	26.213082
1857.000000	26.269191
1856.000000	26.320170
1855.000000	26.351414
1854.000000	26.376219
1853.000000	26.395972
1852.000000	26.412870
1851.000000	26.415335
1850.000000	26.445975
1849.000000	26.465497
1848.000000	26.459623
1847.000000	26.464076
1846.000000	26.457935
1845.000000	26.428361
1844.000000	26.399460
1843.000000	26.353927
1842.000000	26.335551
1841.000000	26.299064
1840.000000	26.286994
1839.000000	26.248724
1838.000000	26.179404
1837.000000	26.114776
1836.000000	26.089725
1835.000000	26.050723
1834.000000	25.968079
1833.000000	25.921443
1832.000000	25.898484
1831.000000	25.820687
1830.000000	25.773724
1829.000000	25.724015
1828.000000	25.681855
1827.000000	25.634884
1826.000000	25.590595
1825.000000	25.558648
1824.000000	25.520196
1823.000000	25.483850
1822.000000	25.433700
1821.000000	25.376460
1820.000000	25.359627
1819.000000	25.317884
1818.000000	25.267779
1817.000000	25.225380
1816.000000	25.194664
1815.000000	25.169294
1814.000000	25.129548
1813.000000	25.084079
1812.000000	25.037219
1811.000000	25.009069
1810.000000	24.984096
1809.000000	24.941000
1808.000000	24.897680
1807.000000	24.855879
1806.000000	24.824513
1805.000000	24.787222
1804.000000	24.744583
1803.000000	24.721716
1802.000000	24.693481
1801.000000	24.662929
1800.000000	24.627618
1799.000000	24.597869
1798.000000	24.566740
1797.000000	24.539014
1796.000000	24.502617
1795.000000	24.497266
1794.000000	24.494553
1793.000000	24.472367
1792.000000	24.431134
1791.000000	24.407306
1790.000000	24.394038
1789.000000	24.378218
1788.000000	24.359093
1787.000000	24.326791
1786.000000	24.307672
1785.000000	24.302040
1784.000000	24.283591
1783.000000	24.236684
1782.000000	24.206225
1781.000000	24.157467
1780.000000	24.112863
1779.000000	24.077798
1778.000000	24.029738
1777.000000	23.983856
1776.000000	23.933973
1775.000000	23.867900
1774.000000	23.807586
1773.000000	23.756280
1772.000000	23.690154
1771.000000	23.617578
1770.000000	23.588915
1769.000000	23.547499
1768.000000	23.469749
1767.000000	23.410933
1766.000000	23.360386
1765.000000	23.292969
1764.000000	23.250038
1763.000000	23.193183
1762.000000	23.127458
1761.000000	23.062303
1760.000000	23.010011
1759.000000	22.937767
1758.000000	22.880720
1757.000000	22.860209
1756.000000	22.824642
1755.000000	22.755698
1754.000000	22.714590
1753.000000	22.673775
1752.000000	22.624466
1751.000000	22.560322
1750.000000	22.487059
1749.000000	22.461115
1748.000000	22.383028
1747.000000	22.307343
1746.000000	22.279205
1745.000000	22.194580
1744.000000	22.122886
1743.000000	22.087596
1742.000000	22.021277
1741.000000	21.966084
1740.000000	21.928144
1739.000000	21.879504
1738.000000	21.809398
1737.000000	21.764546
1736.000000	21.729215
1735.000000	21.726604
1734.000000	21.694540
1733.000000	21.662899
1732.000000	21.663062
1731.000000	21.700357
1730.000000	21.679224
1729.000000	21.739537
1728.000000	21.764384
1727.000000	21.837739
1726.000000	21.856872
1725.000000	21.928873
1724.000000	22.018262
1723.000000	22.113592
1722.000000	22.171151
1721.000000	22.225431
1720.000000	22.365955
1719.000000	22.435440
1718.000000	22.519792
1717.000000	22.623641
1716.000000	22.707674
1715.000000	22.775078
1714.000000	22.890909
1713.000000	22.978704
1712.000000	23.030638
1711.000000	23.103914
1710.000000	23.165722
1709.000000	23.224070
1708.000000	23.268774
1707.000000	23.305321
1706.000000	23.341793
1705.000000	23.380935
1704.000000	23.393261
1703.000000	23.435613
1702.000000	23.465472
1701.000000	23.471923
1700.000000	23.490584
1699.000000	23.484381
1698.000000	23.541330
1697.000000	23.604804
1696.000000	23.646090
1695.000000	23.653578
1694.000000	23.717659
1693.000000	23.742975
1692.000000	23.789847
1691.000000	23.866821
1690.000000	23.975118
1689.000000	24.054918
1688.000000	24.176649
1687.000000	24.296870
1686.000000	24.416823
1685.000000	24.536336
1684.000000	24.699490
1683.000000	24.825244
1682.000000	25.032813
1681.000000	25.180653
1680.000000	25.357368
1679.000000	25.522450
1678.000000	25.705606
1677.000000	25.867981
1676.000000	26.042313
1675.000000	26.224741
1674.000000	26.424805
1673.000000	26.566733
1672.000000	26.727412
1671.000000	26.902308
1670.000000	27.058560
1669.000000	27.227997
1668.000000	27.336759
1667.000000	27.491757
1666.000000	27.585492
1665.000000	27.647368
1664.000000	27.742643
1663.000000	27.828902
1662.000000	27.925456
1661.000000	28.021311
1660.000000	28.098095
1659.000000	28.130231
1658.000000	28.175089
1657.000000	28.238386
1656.000000	28.293125
1655.000000	28.314331
1654.000000	28.328213
1653.000000	28.349029
1652.000000	28.350125
1651.000000	28.348190
1650.000000	28.334940
1649.000000	28.341294
1648.000000	28.336900
1647.000000	28.316715
1646.000000	28.296864
1645.000000	28.275551
1644.000000	28.242874
1643.000000	28.219169
1642.000000	28.188197
1641.000000	28.161595
1640.000000	28.133801
1639.000000	28.094852
1638.000000	28.056299
1637.000000	28.022953
1636.000000	27.974178
1635.000000	27.923035
1634.000000	27.890112
1633.000000	27.840046
1632.000000	27.808627
1631.000000	27.749554
1630.000000	27.686200
1629.000000	27.636830
1628.000000	27.580050
1627.000000	27.532220
1626.000000	27.474766
1625.000000	27.425537
1624.000000	27.378814
1623.000000	27.330020
1622.000000	27.275443
1621.000000	27.214127
1620.000000	27.158193
1619.000000	27.084777
1618.000000	27.022466
1617.000000	26.971116
1616.000000	26.911503
1615.000000	26.855844
1614.000000	26.784111
1613.000000	26.712758
1612.000000	26.655451
1611.000000	26.586256
1610.000000	26.520842
1609.000000	26.454336
1608.000000	26.391951
1607.000000	26.332001
1606.000000	26.259883
1605.000000	26.179518
1604.000000	26.102106
1603.000000	26.030261
1602.000000	25.968691
1601.000000	25.898438
1600.000000	25.835729
1599.000000	25.765888
1598.000000	25.699024
1597.000000	25.637593
1596.000000	25.577314
1595.000000	25.521244
1594.000000	25.457040
1593.000000	25.398454
1592.000000	25.340503
1591.000000	25.267131
1590.000000	25.202801
1589.000000	25.140905
1588.000000	25.094902
1587.000000	25.058441
1586.000000	25.000305
1585.000000	24.951440
1584.000000	24.905089
1583.000000	24.843811
1582.000000	24.776459
1581.000000	24.734864
1580.000000	24.689309
1579.000000	24.632465
1578.000000	24.586582
1577.000000	24.528563
1576.000000	24.473899
1575.000000	24.424777
1574.000000	24.377022
1573.000000	24.328919
1572.000000	24.280827
1571.000000	24.231328
1570.000000	24.191784
1569.000000	24.145083
1568.000000	24.097844
1567.000000	24.044862
1566.000000	24.012572
1565.000000	23.993724
1564.000000	23.955252
1563.000000	23.919133
1562.000000	23.881871
1561.000000	23.848535
1560.000000	23.808242
1559.000000	23.776004
1558.000000	23.748055
1557.000000	23.710870
1556.000000	23.682201
1555.000000	23.658342
1554.000000	23.630406
1553.000000	23.591621
1552.000000	23.560952
1551.000000	23.519401
1550.000000	23.458352
1549.000000	23.409715
1548.000000	23.357796
1547.000000	23.303902
1546.000000	23.230440
1545.000000	23.161398
1544.000000	23.089054
1543.000000	23.027812
1542.000000	22.947687
1541.000000	22.878963
1540.000000	22.790314
1539.000000	22.701140
1538.000000	22.611603
1537.000000	22.526135
1536.000000	22.427161
1535.000000	22.347558
1534.000000	22.262844
1533.000000	22.193204
1532.000000	22.096413
1531.000000	22.007038
1530.000000	21.935305
1529.000000	21.844183
1528.000000	21.783406
1527.000000	21.724944
1526.000000	21.658512
1525.000000	21.589137
1524.000000	21.529123
1523.000000	21.471990
1522.000000	21.400262
1521.000000	21.356286
1520.000000	21.321586
1519.000000	21.280066
1518.000000	21.240706
1517.000000	21.194114
1516.000000	21.162048
1515.000000	21.129345
1514.000000	21.071423
1513.000000	21.061282
1512.000000	21.022199
1511.000000	20.975389
1510.000000	20.971898
1509.000000	20.955575
1508.000000	20.930410
1507.000000	20.901818
1506.000000	20.897054
1505.000000	20.868767
1504.000000	20.865188
1503.000000	20.871779
1502.000000	20.866164
1501.000000	20.884164
1500.000000	20.891302
1499.000000	20.879132
1498.000000	20.878341
1497.000000	20.869462
1496.000000	20.865941
1495.000000	20.863467
1494.000000	20.870335
1493.000000	20.873916
1492.000000	20.906218
1491.000000	20.910358
1490.000000	20.926634
1489.000000	20.955006
1488.000000	20.985089
1487.000000	21.012640
1486.000000	21.058221
1485.000000	21.060556
1484.000000	21.082428
1483.000000	21.138244
1482.000000	21.156087
1481.000000	21.215755
1480.000000	21.227911
1479.000000	21.298514
1478.000000	21.317160
1477.000000	21.351153
1476.000000	21.395056
1475.000000	21.431928
1474.000000	21.460366
1473.000000	21.502533
1472.000000	21.530080
1471.000000	21.568657
1470.000000	21.609277
1469.000000	21.633375
1468.000000	21.690367
1467.000000	21.745467
1466.000000	21.775988
1465.000000	21.813433
1464.000000	21.849497
1463.000000	21.891944
1462.000000	21.932951
1461.000000	21.972543
1460.000000	22.035037
1459.000000	22.095124
1458.000000	22.119115
1457.000000	22.154849
1456.000000	22.240261
1455.000000	22.274184
1454.000000	22.302125
1453.000000	22.360665
1452.000000	22.410197
1451.000000	22.470397
1450.000000	22.553676
1449.000000	22.624940
1448.000000	22.669651
1447.000000	22.738436
1446.000000	22.804481
1445.000000	22.883915
1444.000000	22.983829
1443.000000	23.074581
1442.000000	23.146483
1441.000000	23.216502
1440.000000	23.292672
1439.000000	23.388861
1438.000000	23.461003
1437.000000	23.568289
1436.000000	23.684251
1435.000000	23.787577
1434.000000	23.891362
1433.000000	24.014159
1432.000000	24.128893
1431.000000	24.251885
1430.000000	24.380149
1429.000000	24.516649
1428.000000	24.644821
1427.000000	24.787031
1426.000000	24.927898
1425.000000	25.082985
1424.000000	25.260460
1423.000000	25.424066
1422.000000	25.592767
1421.000000	25.755451
1420.000000	25.924612
1419.000000	26.102158
1418.000000	26.308939
1417.000000	26.508328
1416.000000	26.702932
1415.000000	26.910587
1414.000000	27.118069
1413.000000	27.331303
1412.000000	27.530914
1411.000000	27.737886
1410.000000	27.957740
1409.000000	28.166935
1408.000000	28.390102
1407.000000	28.620060
1406.000000	28.846012
1405.000000	29.060393
1404.000000	29.267298
1403.000000	29.492829
1402.000000	29.703212
1401.000000	29.919854
1400.000000	30.140060
1399.000000	30.335274
1398.000000	30.527631
1397.000000	30.727624
1396.000000	30.922853
1395.000000	31.112059
1394.000000	31.296699
1393.000000	31.482936
1392.000000	31.654158
1391.000000	31.815232
1390.000000	31.983595
1389.000000	32.145056
1388.000000	32.290384
1387.000000	32.436282
1386.000000	32.579680
1385.000000	32.734013
1384.000000	32.887302
1383.000000	33.014764
1382.000000	33.134944
1381.000000	33.253877
1380.000000	33.347820
1379.000000	33.441173
1378.000000	33.559511
1377.000000	33.646595
1376.000000	33.703490
1375.000000	33.777267
1374.000000	33.859330
1373.000000	33.950156
1372.000000	34.018677
1371.000000	34.069216
1370.000000	34.130436
1369.000000	34.186173
1368.000000	34.245498
1367.000000	34.309827
1366.000000	34.375442
1365.000000	34.434322
1364.000000	34.514255
1363.000000	34.600724
1362.000000	34.671417
1361.000000	34.734513
1360.000000	34.793572
1359.000000	34.844237
1358.000000	34.906100
1357.000000	35.000956
1356.000000	35.083073
1355.000000	35.145248
1354.000000	35.206971
1353.000000	35.271340
1352.000000	35.341224
1351.000000	35.418236
1350.000000	35.475152
1349.000000	35.528862
1348.000000	35.608750
1347.000000	35.691236
1346.000000	35.741245
1345.000000	35.785112
1344.000000	35.854001
1343.000000	35.937826
1342.000000	36.000251
1341.000000	36.052273
1340.000000	36.107943
1339.000000	36.177161
1338.000000	36.230579
1337.000000	36.286881
1336.000000	36.338050
1335.000000	36.380533
1334.000000	36.436160
1333.000000	36.494248
1332.000000	36.529098
1331.000000	36.569061
1330.000000	36.595212
1329.000000	36.647913
1328.000000	36.696068
1327.000000	36.722740
1326.000000	36.757781
1325.000000	36.790944
1324.000000	36.807150
1323.000000	36.821200
1322.000000	36.837421
1321.000000	36.877583
1320.000000	36.913712
1319.000000	36.951792
1318.000000	36.961173
1317.000000	36.965800
1316.000000	36.992983
1315.000000	37.003938
1314.000000	37.006030
1313.000000	37.038185
1312.000000	37.042721
1311.000000	37.046628
1310.000000	37.066384
1309.000000	37.093892
1308.000000	37.105305
1307.000000	37.121701
1306.000000	37.144143
1305.000000	37.154022
1304.000000	37.145066
1303.000000	37.152665
1302.000000	37.137662
1301.000000	37.155862
1300.000000	37.158232
1299.000000	37.186675
1298.000000	37.210200
1297.000000	37.180400
1296.000000	37.188392
1295.000000	37.172048
1294.000000	37.165042
1293.000000	37.146220
1292.000000	37.148832
1291.000000	37.154970
1290.000000	37.099812
1289.000000	37.083131
1288.000000	37.088591
1287.000000	37.095436
1286.000000	37.067851
1285.000000	37.073837
1284.000000	37.073186
1283.000000	37.070691
1282.000000	37.070779
1281.000000	37.062463
1280.000000	37.030317
1279.000000	37.022168
1278.000000	37.028977
1277.000000	37.020632
1276.000000	37.005453
1275.000000	37.023739
1274.000000	37.019866
1273.000000	37.022295
1272.000000	37.033135
1271.000000	37.034245
1270.000000	37.022834
1269.000000	37.042078
1268.000000	37.061654
1267.000000	37.085263
1266.000000	37.101579
1265.000000	37.056790
1264.000000	37.076725
1263.000000	37.062470
1262.000000	37.100751
1261.000000	37.098385
1260.000000	37.111762
1259.000000	37.114647
1258.000000	37.108821
1257.000000	37.097795
1256.000000	37.097007
1255.000000	37.125738
1254.000000	37.122420
1253.000000	37.157133
1252.000000	37.140949
1251.000000	37.128408
1250.000000	37.122191
1249.000000	37.109207
1248.000000	37.093940
1247.000000	37.073867
1246.000000	37.055398
1245.000000	37.025678
1244.000000	36.990532
1243.000000	36.949857
1242.000000	36.941381
1241.000000	36.924510
1240.000000	36.906650
1239.000000	36.838226
1238.000000	36.811687
1237.000000	36.776883
1236.000000	36.771281
1235.000000	36.709357
1234.000000	36.678308
1233.000000	36.647455
1232.000000	36.637782
1231.000000	36.575549
1230.000000	36.557656
1229.000000	36.520355
1228.000000	36.489929
1227.000000	36.473802
1226.000000	36.448344
1225.000000	36.385847
1224.000000	36.348399
1223.000000	36.325530
1222.000000	36.283925
1221.000000	36.247715
1220.000000	36.235171
1219.000000	36.190862
1218.000000	36.154841
1217.000000	36.123086
1216.000000	36.108003
1215.000000	36.086935
1214.000000	36.036510
1213.000000	35.982074
1212.000000	35.949372
1211.000000	35.904303
1210.000000	35.869822
1209.000000	35.827017
1208.000000	35.775276
1207.000000	35.736315
1206.000000	35.675257
1205.000000	35.621994
1204.000000	35.601235
1203.000000	35.559503
1202.000000	35.510464
1201.000000	35.471024
1200.000000	35.433427
1199.000000	35.381779
1198.000000	35.329974
1197.000000	35.290777
1196.000000	35.258728
1195.000000	35.241282
1194.000000	35.226658
1193.000000	35.180056
1192.000000	35.143971
1191.000000	35.117246
1190.000000	35.077258
1189.000000	35.013912
1188.000000	35.000696
1187.000000	35.009219
1186.000000	35.012168
1185.000000	35.013872
1184.000000	35.025208
1183.000000	35.039278
1182.000000	35.070537
1181.000000	35.105184
1180.000000	35.144314
1179.000000	35.183623
1178.000000	35.235877
1177.000000	35.280407
1176.000000	35.337192
1175.000000	35.406781
1174.000000	35.470126
1173.000000	35.534394
1172.000000	35.602127
1171.000000	35.676189
1170.000000	35.757962
1169.000000	35.841315
1168.000000	35.919043
1167.000000	36.013660
1166.000000	36.105130
1165.000000	36.185014
1164.000000	36.278627
1163.000000	36.365943
1162.000000	36.451506
1161.000000	36.545371
1160.000000	36.636609
1159.000000	36.718186
1158.000000	36.808774
1157.000000	36.893786
1156.000000	36.948946
1155.000000	37.009840
1154.000000	37.079854
1153.000000	37.160247
1152.000000	37.245181
1151.000000	37.313419
1150.000000	37.386035
1149.000000	37.457320
1148.000000	37.504246
1147.000000	37.558000
1146.000000	37.635369
1145.000000	37.709650
1144.000000	37.762185
1143.000000	37.809608
1142.000000	37.864496
1141.000000	37.917886
1140.000000	37.953867
1139.000000	37.984400
1138.000000	38.032476
1137.000000	38.099969
1136.000000	38.155972
1135.000000	38.204032
1134.000000	38.245952
1133.000000	38.299953
1132.000000	38.336444
1131.000000	38.382768
1130.000000	38.434380
1129.000000	38.472352
1128.000000	38.489881
1127.000000	38.523502
1126.000000	38.527311
1125.000000	38.539145
1124.000000	38.557767
1123.000000	38.586661
1122.000000	38.613022
1121.000000	38.621439
1120.000000	38.624579
1119.000000	38.636525
1118.000000	38.648374
1117.000000	38.658064
1116.000000	38.661433
1115.000000	38.656311
1114.000000	38.669307
1113.000000	38.679190
1112.000000	38.684169
1111.000000	38.690386
1110.000000	38.683784
1109.000000	38.681285
1108.000000	38.683848
1107.000000	38.685468
1106.000000	38.701398
1105.000000	38.699362
1104.000000	38.691237
1103.000000	38.700321
1102.000000	38.673155
1101.000000	38.657790
1100.000000	38.668500
1099.000000	38.677045
1098.000000	38.685183
1097.000000	38.685802
1096.000000	38.690770
1095.000000	38.690104
1094.000000	38.668846
1093.000000	38.649054
1092.000000	38.654997
1091.000000	38.671820
1090.000000	38.672056
1089.000000	38.675921
1088.000000	38.665777
1087.000000	38.634743
1086.000000	38.625996
1085.000000	38.631954
1084.000000	38.631128
1083.000000	38.626098
1082.000000	38.631453
1081.000000	38.630766
1080.000000	38.574697
1079.000000	38.574137
1078.000000	38.575548
1077.000000	38.565634
1076.000000	38.574324
1075.000000	38.576421
1074.000000	38.568916
1073.000000	38.513643
1072.000000	38.498112
1071.000000	38.497842
1070.000000	38.501627
1069.000000	38.506490
1068.000000	38.496879
1067.000000	38.495100
1066.000000	38.457045
1065.000000	38.444020
1064.000000	38.453181
1063.000000	38.428679
1062.000000	38.434112
1061.000000	38.426206
1060.000000	38.413286
1059.000000	38.372314
1058.000000	38.351610
1057.000000	38.349658
1056.000000	38.335658
1055.000000	38.338197
1054.000000	38.315412
1053.000000	38.297634
1052.000000	38.292321
1051.000000	38.287420
1050.000000	38.279953
1049.000000	38.259723
1048.000000	38.221014
1047.000000	38.235437
1046.000000	38.245161
1045.000000	38.235931
1044.000000	38.183444
1043.000000	38.176339
1042.000000	38.183322
1041.000000	38.190767
1040.000000	38.164088
1039.000000	38.160212
1038.000000	38.146287
1037.000000	38.150630
1036.000000	38.135961
1035.000000	38.130395
1034.000000	38.129274
1033.000000	38.131869
1032.000000	38.101404
1031.000000	38.108477
1030.000000	38.131999
1029.000000	38.128578
1028.000000	38.092613
1027.000000	38.078683
1026.000000	38.086388
1025.000000	38.060678
1024.000000	38.063877
1023.000000	38.076971
1022.000000	38.082218
1021.000000	38.074187
1020.000000	38.075127
1019.000000	38.058631
1018.000000	38.055653
1017.000000	38.078112
1016.000000	38.084047
1015.000000	38.078733
1014.000000	38.085940
1013.000000	38.095840
1012.000000	38.082053
1011.000000	38.097378
1010.000000	38.094735
1009.000000	38.087439
1008.000000	38.085955
1007.000000	38.093799
1006.000000	38.099878
1005.000000	38.115268
1004.000000	38.126198
1003.000000	38.136989
1002.000000	38.144951
1001.000000	38.162186
1000.000000	38.173354
999.000000	38.194961
998.000000	38.193833
997.000000	38.196172
996.000000	38.197067
995.000000	38.201399
994.000000	38.201048
993.000000	38.210511
992.000000	38.211496
991.000000	38.229116
990.000000	38.225673
989.000000	38.222864
988.000000	38.228233
987.000000	38.228153
986.000000	38.247383
985.000000	38.249160
984.000000	38.260075
983.000000	38.269063
982.000000	38.266859
981.000000	38.271910
980.000000	38.272031
979.000000	38.278265
978.000000	38.289773
977.000000	38.298588
976.000000	38.301194
975.000000	38.305147
974.000000	38.311094
973.000000	38.324846
972.000000	38.310286
971.000000	38.322121
970.000000	38.334925
969.000000	38.344276
968.000000	38.356269
967.000000	38.363378
966.000000	38.376581
965.000000	38.377804
964.000000	38.375370
963.000000	38.382601
962.000000	38.406613
961.000000	38.421797
960.000000	38.417109
959.000000	38.427781
958.000000	38.429830
957.000000	38.436183
956.000000	38.453012
955.000000	38.467435
954.000000	38.475494
953.000000	38.481842
952.000000	38.480725
951.000000	38.477949
950.000000	38.487169
949.000000	38.499938
948.000000	38.489195
947.000000	38.475232
946.000000	38.482358
945.000000	38.496578
944.000000	38.500743
943.000000	38.504583
942.000000	38.510761
941.000000	38.507026
940.000000	38.504693
939.000000	38.513234
938.000000	38.514015
937.000000	38.495944
936.000000	38.476352
935.000000	38.463427
934.000000	38.452254
933.000000	38.462634
932.000000	38.454665
931.000000	38.451932
930.000000	38.447922
929.000000	38.442560
928.000000	38.440468
927.000000	38.429740
926.000000	38.437997
925.000000	38.422693
924.000000	38.417887
923.000000	38.380820
922.000000	38.364133
921.000000	38.376833
920.000000	38.354147
919.000000	38.331591
918.000000	38.343363
917.000000	38.340197
916.000000	38.343774
915.000000	38.352171
914.000000	38.359914
913.000000	38.323829
912.000000	38.311447
911.000000	38.317127
910.000000	38.287503
909.000000	38.316790
908.000000	38.311378
907.000000	38.301197
906.000000	38.309562
905.000000	38.298251
904.000000	38.303122
903.000000	38.310538
902.000000	38.319039
901.000000	38.340188
900.000000	38.332490
899.000000	38.330072
898.000000	38.345467
897.000000	38.329361
896.000000	38.372873
895.000000	38.373207
894.000000	38.376261
893.000000	38.366308
892.000000	38.299255
891.000000	38.300910
890.000000	38.333647
889.000000	38.338695
888.000000	38.366632
887.000000	38.363322
886.000000	38.400726
885.000000	38.352729
884.000000	38.349755
883.000000	38.345598
882.000000	38.347062
881.000000	38.375836
880.000000	38.467016
879.000000	38.439332
878.000000	38.355284
877.000000	38.360249
876.000000	38.319145
875.000000	38.324617
874.000000	38.324971
873.000000	38.374892
872.000000	38.328481
871.000000	38.403058
870.000000	38.365747
869.000000	38.336333
868.000000	38.382906
867.000000	38.300180
866.000000	38.259392
865.000000	38.282753
864.000000	38.312923
863.000000	38.315499
862.000000	38.249045
861.000000	38.189600
860.000000	38.221012
859.000000	38.609079
858.000000	38.667004
857.000000	38.527728
856.000000	38.548241
855.000000	38.808753
854.000000	38.567375
853.000000	38.530767
852.000000	38.433126
851.000000	38.469068
850.000000	38.732461
849.000000	38.543476
848.000000	38.774647
847.000000	38.767160
846.000000	38.449451
845.000000	38.513433
844.000000	38.543030
843.000000	38.558631
842.000000	38.455444
841.000000	38.500843
840.000000	38.382854
839.000000	38.510317
838.000000	38.384680
837.000000	38.393521
836.000000	38.401931
835.000000	38.545865
834.000000	38.492074
833.000000	38.281652
832.000000	38.486835
831.000000	38.354462
830.000000	38.431810
829.000000	38.402304
828.000000	38.330264
827.000000	38.384255
826.000000	38.303298
825.000000	38.233606
824.000000	38.339559
823.000000	38.213904
822.000000	38.270252
821.000000	38.296215
820.000000	38.290847
819.000000	38.274358
818.000000	38.293386
817.000000	38.178858
816.000000	38.112695
815.000000	38.209227
814.000000	38.133794
813.000000	38.073224
812.000000	38.175287
811.000000	38.118080
810.000000	38.077075
809.000000	38.240569
808.000000	38.104736
807.000000	38.142502
806.000000	38.076679
805.000000	38.119526
804.000000	38.174186
803.000000	38.111148
802.000000	38.040643
801.000000	38.012423
800.000000	38.028955
799.000000	38.006139
798.000000	37.987868
797.000000	38.056347
796.000000	37.937971
795.000000	38.083665
794.000000	37.959393
793.000000	37.948834
792.000000	37.989913
791.000000	37.976207
790.000000	37.881215
789.000000	37.908478
788.000000	37.885539
787.000000	37.828058
786.000000	37.831895
785.000000	37.768954
784.000000	37.764977
783.000000	37.747487
782.000000	37.766665
781.000000	37.759725
780.000000	37.728315
779.000000	37.692818
778.000000	37.691327
777.000000	37.702683
776.000000	37.684959
775.000000	37.646771
774.000000	37.617012
773.000000	37.619900
772.000000	37.673913
771.000000	37.613526
770.000000	37.562166
769.000000	37.526297
768.000000	37.574056
767.000000	37.545580
766.000000	37.540754
765.000000	37.516496
764.000000	37.469093
763.000000	37.511666
762.000000	37.511429
761.000000	37.469470
760.000000	37.367129
759.000000	37.376814
758.000000	37.420694
757.000000	37.345532
756.000000	37.329701
755.000000	37.337905
754.000000	37.286859
753.000000	37.291709
752.000000	37.250173
751.000000	37.250799
750.000000	37.260827
749.000000	37.241130
748.000000	37.217582
747.000000	37.172841
746.000000	37.120250
745.000000	37.120205
744.000000	37.172490
743.000000	37.077515
742.000000	37.042708
741.000000	37.063618
740.000000	37.010091
739.000000	36.983210
738.000000	36.997912
737.000000	36.962619
736.000000	36.953328
735.000000	36.954587
734.000000	36.962581
733.000000	36.929410
732.000000	36.891689
731.000000	36.839627
730.000000	36.833276
729.000000	36.823522
728.000000	36.804778
727.000000	36.801264
726.000000	36.791617
725.000000	36.759279
724.000000	36.722265
723.000000	36.677926
722.000000	36.665252
721.000000	36.676614
720.000000	36.660167
719.000000	36.635822
718.000000	36.622786
717.000000	36.586365
716.000000	36.528827
715.000000	36.499998
714.000000	36.509117
713.000000	36.467565
712.000000	36.436634
711.000000	36.423231
710.000000	36.386279
709.000000	36.376856
708.000000	36.324818
707.000000	36.302386
706.000000	36.294827
705.000000	36.260533
704.000000	36.224185
703.000000	36.224317
702.000000	36.203625
701.000000	36.124277
700.000000	36.107228
699.000000	36.114387
698.000000	36.095078
697.000000	36.043627
696.000000	35.985847
695.000000	35.965333
694.000000	35.961488
693.000000	35.902877
692.000000	35.880968
691.000000	35.878437
690.000000	35.871609
689.000000	35.828523
688.000000	35.747622
687.000000	35.696474
686.000000	35.673878
685.000000	35.669655
684.000000	35.609051
683.000000	35.550244
682.000000	35.544037
681.000000	35.522943
680.000000	35.478247
679.000000	35.442925
678.000000	35.445815
677.000000	35.410921
676.000000	35.366271
675.000000	35.329666
674.000000	35.269612
673.000000	35.235481
672.000000	35.221907
671.000000	35.185500
670.000000	35.108573
669.000000	35.091894
668.000000	35.094045
667.000000	35.066632
666.000000	35.029443
665.000000	34.991575
664.000000	34.926185
663.000000	34.894062
662.000000	34.864484
661.000000	34.860018
660.000000	34.798736
659.000000	34.753992
658.000000	34.726594
657.000000	34.730015
656.000000	34.644760
655.000000	34.616083
654.000000	34.607797
653.000000	34.575912
652.000000	34.520744
651.000000	34.508321
650.000000	34.470437
649.000000	34.415522
648.000000	34.378992
647.000000	34.319415
646.000000	34.309271
645.000000	34.291259
644.000000	34.251440
643.000000	34.168325
642.000000	34.174803
641.000000	34.152003
640.000000	34.094738
639.000000	34.058748
638.000000	34.002150
637.000000	33.939323
636.000000	33.912688
635.000000	33.847342
634.000000	33.809248
633.000000	33.835853
632.000000	33.779570
631.000000	33.733960
630.000000	33.709653
629.000000	33.623856
628.000000	33.603122
627.000000	33.575109
626.000000	33.502730
625.000000	33.446979
624.000000	33.435147
623.000000	33.393797
622.000000	33.359625
621.000000	33.290353
620.000000	33.276726
619.000000	33.214114
618.000000	33.199631
617.000000	33.152036
616.000000	33.057887
615.000000	33.039504
614.000000	32.984825
613.000000	32.949803
612.000000	32.892234
611.000000	32.853822
610.000000	32.809830
609.000000	32.747170
608.000000	32.708840
607.000000	32.682386
606.000000	32.643188
605.000000	32.606276
604.000000	32.520617
603.000000	32.508902
602.000000	32.446308
601.000000	32.420144
600.000000	32.364941
599.000000	32.312690
598.000000	32.272692
597.000000	32.247479
596.000000	32.187071
595.000000	32.122565
594.000000	32.098644
593.000000	31.989803
592.000000	31.953348
591.000000	31.889581
590.000000	31.856274
589.000000	31.836838
588.000000	31.793702
587.000000	31.749663
586.000000	31.651547
585.000000	31.626706
584.000000	31.551932
583.000000	31.530742
582.000000	31.461044
581.000000	31.409782
580.000000	31.344670
579.000000	31.292661
578.000000	31.204263
577.000000	31.215516
576.000000	31.165100
575.000000	31.110933
574.000000	31.004255
573.000000	30.977312
572.000000	30.928734
571.000000	30.864755
570.000000	30.829866
569.000000	30.791248
568.000000	30.677086
567.000000	30.619921
566.000000	30.609224
565.000000	30.557696
564.000000	30.472706
563.000000	30.413381
562.000000	30.355452
561.000000	30.333458
560.000000	30.242439
559.000000	30.218571
558.000000	30.152538
557.000000	30.119653
556.000000	30.061012
555.000000	30.013024
554.000000	29.939615
553.000000	29.882432
552.000000	29.800876
551.000000	29.746877
550.000000	29.689171
549.000000	29.604517
548.000000	29.557979
547.000000	29.488484
546.000000	29.430627
545.000000	29.365055
544.000000	29.293990
543.000000	29.233566
542.000000	29.144243
541.000000	29.106233
540.000000	29.014923
539.000000	28.952063
538.000000	28.878452
537.000000	28.822478
536.000000	28.754679
535.000000	28.671431
534.000000	28.604950
533.000000	28.530421
532.000000	28.449679
531.000000	28.411309
530.000000	28.297209
529.000000	28.233690
528.000000	28.150063
527.000000	28.098322
526.000000	28.038586
525.000000	27.962871
524.000000	27.849408
523.000000	27.789894
522.000000	27.737257
521.000000	27.660499
520.000000	27.579523
519.000000	27.477549
518.000000	27.392801
517.000000	27.332591
516.000000	27.260079
515.000000	27.191754
514.000000	27.125963
513.000000	27.024996
512.000000	26.940533
511.000000	26.859603
510.000000	26.779390
509.000000	26.712987
508.000000	26.619047
507.000000	26.540654
506.000000	26.443843
505.000000	26.364905
504.000000	26.262641
503.000000	26.179716
502.000000	26.114652
501.000000	26.008902
500.000000	25.911609
499.000000	25.822382
498.000000	25.735625
497.000000	25.661530
496.000000	25.541626
495.000000	25.438580
494.000000	25.352319
493.000000	25.244467
492.000000	25.133297
491.000000	25.059434
490.000000	24.953380
489.000000	24.843165
488.000000	24.732719
487.000000	24.650787
486.000000	24.534074
485.000000	24.457904
484.000000	24.366048
483.000000	24.264008
482.000000	24.155866
481.000000	24.064911
480.000000	23.953397
479.000000	23.822069
478.000000	23.695047
477.000000	23.595475
476.000000	23.483720
475.000000	23.371619
474.000000	23.257130
473.000000	23.136833
472.000000	23.009706
471.000000	22.870175
470.000000	22.756807
469.000000	22.668065
468.000000	22.561856
467.000000	22.427666
466.000000	22.300867
465.000000	22.173677
464.000000	22.050635
463.000000	21.922007
462.000000	21.796002
461.000000	21.692488
460.000000	21.549319
459.000000	21.412737
458.000000	21.288513
457.000000	21.136064
456.000000	21.016318
455.000000	20.892531
454.000000	20.734264
453.000000	20.585033
452.000000	20.471104
451.000000	20.333740
450.000000	20.188194
449.000000	20.057233
448.000000	19.901136
447.000000	19.754676
446.000000	19.620759
445.000000	19.491367
444.000000	19.336642
443.000000	19.190213
442.000000	19.052662
441.000000	18.896428
440.000000	18.754656
439.000000	18.603201
438.000000	18.439125
437.000000	18.296475
436.000000	18.155354
435.000000	18.000528
434.000000	17.847478
433.000000	17.677798
432.000000	17.523680
431.000000	17.367541
430.000000	17.206671
429.000000	17.038375
428.000000	16.906854
427.000000	16.749642
426.000000	16.566467
425.000000	16.418393
424.000000	16.251198
423.000000	16.090061
422.000000	15.944415
421.000000	15.802407
420.000000	15.646648
419.000000	15.490660
418.000000	15.336432
417.000000	15.188378
416.000000	15.071494
415.000000	14.919174
414.000000	14.786939
413.000000	14.675003
412.000000	14.548596
411.000000	14.434283
410.000000	14.303167
409.000000	14.179458
408.000000	14.072834
407.000000	13.977623
406.000000	13.870885
405.000000	13.764914
404.000000	13.637769
403.000000	13.536386
402.000000	13.433152
401.000000	13.325156
400.000000	13.215606
399.000000	13.107985
398.000000	12.970555
397.000000	12.854242
396.000000	12.740531
395.000000	12.625645
394.000000	12.506909
393.000000	12.368119
392.000000	12.238703
391.000000	12.110967
390.000000	11.993068
389.000000	11.872066
388.000000	11.714888
387.000000	11.573194
386.000000	11.420778
385.000000	11.293597
384.000000	11.135709
383.000000	10.992323
382.000000	10.836613
381.000000	10.699802
380.000000	10.560856
379.000000	10.434744
378.000000	10.278104
377.000000	10.124506
376.000000	9.972918
375.000000	9.864095
374.000000	9.746349
373.000000	9.546416
372.000000	9.494167
371.000000	9.290631
370.000000	9.121278
369.000000	9.024547
368.000000	8.911738
367.000000	8.736587
366.000000	8.589559
365.000000	8.496791
364.000000	8.418860
363.000000	8.255784
362.000000	8.139130
361.000000	8.023637
360.000000	7.873915
359.000000	7.752226
358.000000	7.670803
357.000000	7.513577
356.000000	7.377181
355.000000	7.260649
354.000000	7.188440
353.000000	7.046173
352.000000	6.933011
351.000000	6.782462
350.000000	6.703271
349.000000	6.600854
348.000000	6.477276
347.000000	6.391374
346.000000	6.245400
345.000000	6.111199
344.000000	6.047760
343.000000	5.881776
342.000000	5.783678
341.000000	5.664265
340.000000	5.571277
339.000000	5.450356
338.000000	5.384557
337.000000	5.241941
336.000000	5.158792
335.000000	5.021836
334.000000	4.928630
333.000000	4.819283
332.000000	4.746080
331.000000	4.631264
330.000000	4.526175
329.000000	4.443693
328.000000	4.388658
327.000000	4.298740
326.000000	4.177137
325.000000	4.091300
324.000000	4.032247
323.000000	3.911761
322.000000	3.824215
321.000000	3.766600
320.000000	3.692976
319.000000	3.607384
318.000000	3.561706
317.000000	3.484599
316.000000	3.387525
315.000000	3.329103
314.000000	3.248261
313.000000	3.160260
312.000000	3.075505
311.000000	2.957723
310.000000	2.853086
309.000000	2.774619
308.000000	2.700259
307.000000	2.586154
306.000000	2.486910
305.000000	2.382133
304.000000	2.268577
303.000000	2.156018
302.000000	2.051851
301.000000	1.943831
300.000000	1.858992
299.000000	1.761346
298.000000	1.685417
297.000000	1.609622
296.000000	1.558314
295.000000	1.512307
294.000000	1.450755
293.000000	1.378028
292.000000	1.315164
291.000000	1.254043
290.000000	1.206270
289.000000	1.147379
288.000000	1.109557
287.000000	1.082243
286.000000	1.072797
285.000000	1.080247
284.000000	1.073736
283.000000	1.092497
282.000000	1.109529
281.000000	1.123499
280.000000	1.136432
279.000000	1.126311
278.000000	1.176677
277.000000	1.194669
276.000000	1.221675
275.000000	1.270371
274.000000	1.312546
273.000000	1.333593
272.000000	1.360925
271.000000	1.394955
270.000000	1.412986
269.000000	1.455763
268.000000	1.495152
267.000000	1.522032
266.000000	1.567006
265.000000	1.597281
264.000000	1.650380
263.000000	1.711089
262.000000	1.744085
261.000000	1.773496
260.000000	1.812892
259.000000	1.835303
258.000000	1.873179
257.000000	1.905702
256.000000	1.943212
255.000000	1.942480
254.000000	1.948871
253.000000	1.939021
252.000000	1.914875
251.000000	1.872770
250.000000	1.838318
249.000000	1.752426
248.000000	1.678373
247.000000	1.589886
246.000000	1.502106
245.000000	1.373314
244.000000	1.234577
243.000000	1.118209
242.000000	1.000847
241.000000	0.902049
240.000000	0.815171
239.000000	0.746864
238.000000	0.696008
237.000000	0.637928
236.000000	0.598040
235.000000	0.576322
234.000000	0.543018
233.000000	0.496938
232.000000	0.454121
231.000000	0.414388
230.000000	0.368171
229.000000	0.343897
228.000000	0.319679
227.000000	0.284559
226.000000	0.251308
225.000000	0.219784
224.000000	0.200678
223.000000	0.190467
222.000000	0.174960
221.000000	0.162832
220.000000	0.156814
219.000000	0.140894
218.000000	0.138899
217.000000	0.137299
216.000000	0.124602
215.000000	0.119861
214.000000	0.100001
213.000000	0.114055
212.000000	0.110250
211.000000	0.088015
210.000000	0.091904
209.000000	0.086326
208.000000	0.093078
207.000000	0.100525
206.000000	0.083357
205.000000	0.095675
204.000000	0.099104
203.000000	0.080376
202.000000	0.132006
201.000000	0.160156
200.000000	0.109397
