PE UV       SUBTECH     SPECTRUM    ASCII       PEDS        4.00        
   -1
TDgVeauUK 12.Sample.asc
18/03/08
16:29:35.00
18/03/08
16:29:35.00
Administrator

200.000000
1
Lambda 750
750N8071901
PerkinElmer UV WinLab 6.0.4.0738 / 1.61.00 Lambda 900

0
0
3350/servo 860.8/2
0
0
UV/VIS
1
1
1
CommonBeamDepol,150mm sphere / downward view
0
0
0
0
Program
Program
3350/servo 860.8/2
3350/0.2 860.8/0.2
3350/0.2 860.8/0.2
0
1
 
 
 
0
 
860.8
319.2
860.8
Front
100
on
 
 
0
0
0
 
0
 
 
 
0
 
 
0
0
0
0
0
 
 
 
 
0
0


0
0
#HDR
-1
-1
#GR
nm
%T
1.0
0.0
2350.000000
-1.000000
2151
8
42.876089
0.042470
#DATA
2350.000000	8.179174
2349.000000	8.731183
2348.000000	8.185497
2347.000000	8.985622
2346.000000	8.833402
2345.000000	8.598358
2344.000000	8.114477
2343.000000	7.986635
2342.000000	8.289408
2341.000000	8.523135
2340.000000	8.340396
2339.000000	8.411608
2338.000000	8.994553
2337.000000	8.872758
2336.000000	8.954096
2335.000000	9.154539
2334.000000	9.287476
2333.000000	9.132858
2332.000000	9.412284
2331.000000	9.191291
2330.000000	9.354648
2329.000000	9.215130
2328.000000	9.073039
2327.000000	8.930439
2326.000000	9.072716
2325.000000	9.052360
2324.000000	9.238140
2323.000000	9.043676
2322.000000	9.080118
2321.000000	8.958522
2320.000000	9.021299
2319.000000	8.843230
2318.000000	9.050879
2317.000000	8.952511
2316.000000	8.585192
2315.000000	8.671573
2314.000000	8.681514
2313.000000	8.703518
2312.000000	8.629608
2311.000000	8.904933
2310.000000	8.533099
2309.000000	8.224216
2308.000000	8.166080
2307.000000	8.220324
2306.000000	8.108749
2305.000000	8.060327
2304.000000	8.398466
2303.000000	8.432689
2302.000000	8.044635
2301.000000	8.135290
2300.000000	7.886692
2299.000000	7.792342
2298.000000	7.665826
2297.000000	7.733132
2296.000000	7.672179
2295.000000	7.538299
2294.000000	7.461320
2293.000000	7.473105
2292.000000	7.598316
2291.000000	7.546295
2290.000000	7.437034
2289.000000	7.336724
2288.000000	7.332241
2287.000000	7.554224
2286.000000	7.340870
2285.000000	7.273615
2284.000000	7.195516
2283.000000	7.144291
2282.000000	7.103776
2281.000000	7.173515
2280.000000	7.217541
2279.000000	7.325481
2278.000000	7.282244
2277.000000	7.278869
2276.000000	7.157618
2275.000000	7.176511
2274.000000	7.216890
2273.000000	7.210456
2272.000000	7.291440
2271.000000	7.418408
2270.000000	7.489497
2269.000000	7.489044
2268.000000	7.428478
2267.000000	7.500971
2266.000000	7.669560
2265.000000	7.618309
2264.000000	7.739732
2263.000000	7.923159
2262.000000	7.989733
2261.000000	8.044319
2260.000000	8.123955
2259.000000	8.270809
2258.000000	8.345897
2257.000000	8.450663
2256.000000	8.626082
2255.000000	8.846413
2254.000000	9.074586
2253.000000	9.226766
2252.000000	9.303511
2251.000000	9.514760
2250.000000	9.632441
2249.000000	9.559125
2248.000000	9.740237
2247.000000	9.918659
2246.000000	9.881734
2245.000000	10.082152
2244.000000	10.423953
2243.000000	10.647253
2242.000000	10.636622
2241.000000	10.612187
2240.000000	10.830095
2239.000000	10.986012
2238.000000	10.948250
2237.000000	11.072856
2236.000000	11.154384
2235.000000	11.227261
2234.000000	11.266100
2233.000000	11.234610
2232.000000	11.331061
2231.000000	11.407126
2230.000000	11.466326
2229.000000	11.580610
2228.000000	11.654196
2227.000000	11.618890
2226.000000	11.503144
2225.000000	11.516586
2224.000000	11.519013
2223.000000	11.399819
2222.000000	11.458622
2221.000000	11.442704
2220.000000	11.665587
2219.000000	11.565102
2218.000000	11.391941
2217.000000	11.304211
2216.000000	11.295349
2215.000000	11.291272
2214.000000	11.292896
2213.000000	11.214564
2212.000000	11.241869
2211.000000	11.075492
2210.000000	10.955781
2209.000000	11.060638
2208.000000	10.899396
2207.000000	10.882513
2206.000000	10.805708
2205.000000	10.769237
2204.000000	10.725373
2203.000000	10.647029
2202.000000	10.691099
2201.000000	10.595636
2200.000000	10.500667
2199.000000	10.504850
2198.000000	10.337435
2197.000000	10.228535
2196.000000	10.185003
2195.000000	10.128272
2194.000000	10.070281
2193.000000	9.954961
2192.000000	9.892521
2191.000000	9.873136
2190.000000	9.771563
2189.000000	9.851590
2188.000000	9.819380
2187.000000	9.770447
2186.000000	9.725804
2185.000000	9.634205
2184.000000	9.637330
2183.000000	9.644587
2182.000000	9.549727
2181.000000	9.605200
2180.000000	9.505623
2179.000000	9.472558
2178.000000	9.437868
2177.000000	9.410351
2176.000000	9.396159
2175.000000	9.611810
2174.000000	9.589187
2173.000000	9.475445
2172.000000	9.532251
2171.000000	9.593882
2170.000000	9.597525
2169.000000	9.677706
2168.000000	9.906785
2167.000000	9.891389
2166.000000	9.836971
2165.000000	9.795796
2164.000000	9.916580
2163.000000	9.915784
2162.000000	10.056770
2161.000000	9.971945
2160.000000	10.282154
2159.000000	10.349776
2158.000000	10.502964
2157.000000	10.631216
2156.000000	10.615769
2155.000000	10.859765
2154.000000	10.912619
2153.000000	10.931523
2152.000000	10.881259
2151.000000	11.221093
2150.000000	11.286357
2149.000000	11.404392
2148.000000	11.430406
2147.000000	11.557726
2146.000000	11.575287
2145.000000	11.733825
2144.000000	11.815484
2143.000000	11.740978
2142.000000	12.036769
2141.000000	12.111817
2140.000000	12.190482
2139.000000	12.156517
2138.000000	12.401342
2137.000000	12.562344
2136.000000	12.565402
2135.000000	12.734828
2134.000000	12.578178
2133.000000	12.555223
2132.000000	12.852521
2131.000000	13.046188
2130.000000	12.901115
2129.000000	12.949809
2128.000000	13.068367
2127.000000	13.172290
2126.000000	13.104117
2125.000000	13.206679
2124.000000	13.182327
2123.000000	13.260575
2122.000000	13.261507
2121.000000	13.197477
2120.000000	13.259711
2119.000000	13.404226
2118.000000	13.456857
2117.000000	13.404492
2116.000000	13.477978
2115.000000	13.554861
2114.000000	13.591504
2113.000000	13.608144
2112.000000	13.658013
2111.000000	13.470247
2110.000000	13.609256
2109.000000	13.589524
2108.000000	13.521911
2107.000000	13.645021
2106.000000	13.668968
2105.000000	13.650074
2104.000000	13.533218
2103.000000	13.593990
2102.000000	13.687337
2101.000000	13.830766
2100.000000	13.826946
2099.000000	13.761215
2098.000000	13.740931
2097.000000	13.715093
2096.000000	13.688141
2095.000000	13.598387
2094.000000	13.726843
2093.000000	13.586924
2092.000000	13.689974
2091.000000	13.616652
2090.000000	13.537489
2089.000000	13.588928
2088.000000	13.658539
2087.000000	13.600201
2086.000000	13.534448
2085.000000	13.441396
2084.000000	13.398188
2083.000000	13.339837
2082.000000	13.298740
2081.000000	13.286262
2080.000000	13.228165
2079.000000	13.106771
2078.000000	13.069438
2077.000000	13.051809
2076.000000	12.959760
2075.000000	12.813628
2074.000000	12.778685
2073.000000	12.681096
2072.000000	12.626871
2071.000000	12.538240
2070.000000	12.451129
2069.000000	12.345485
2068.000000	12.254607
2067.000000	12.135249
2066.000000	12.028715
2065.000000	11.896881
2064.000000	11.703134
2063.000000	11.583540
2062.000000	11.420723
2061.000000	11.296457
2060.000000	11.198066
2059.000000	11.132539
2058.000000	11.033324
2057.000000	10.883115
2056.000000	10.794697
2055.000000	10.726074
2054.000000	10.630421
2053.000000	10.556406
2052.000000	10.405301
2051.000000	10.255733
2050.000000	10.188851
2049.000000	10.125056
2048.000000	10.111376
2047.000000	10.001106
2046.000000	9.920357
2045.000000	9.874583
2044.000000	9.833930
2043.000000	9.814255
2042.000000	9.796018
2041.000000	9.831627
2040.000000	9.820541
2039.000000	9.875884
2038.000000	9.937395
2037.000000	9.941643
2036.000000	9.981821
2035.000000	10.114434
2034.000000	10.191773
2033.000000	10.244812
2032.000000	10.335782
2031.000000	10.386256
2030.000000	10.460067
2029.000000	10.527922
2028.000000	10.586904
2027.000000	10.715202
2026.000000	10.872227
2025.000000	10.940081
2024.000000	10.973315
2023.000000	11.030856
2022.000000	11.066133
2021.000000	11.102567
2020.000000	11.137582
2019.000000	11.179257
2018.000000	11.187697
2017.000000	11.180810
2016.000000	11.211202
2015.000000	11.214804
2014.000000	11.178304
2013.000000	11.156825
2012.000000	11.144335
2011.000000	11.127582
2010.000000	11.065355
2009.000000	10.995673
2008.000000	10.984617
2007.000000	10.952745
2006.000000	10.849165
2005.000000	10.779298
2004.000000	10.744381
2003.000000	10.662338
2002.000000	10.587928
2001.000000	10.530150
2000.000000	10.441238
1999.000000	10.424144
1998.000000	10.334908
1997.000000	10.239774
1996.000000	10.177291
1995.000000	10.117716
1994.000000	10.018882
1993.000000	9.940689
1992.000000	9.871138
1991.000000	9.753468
1990.000000	9.655577
1989.000000	9.594919
1988.000000	9.550414
1987.000000	9.472931
1986.000000	9.413150
1985.000000	9.322972
1984.000000	9.205124
1983.000000	9.122816
1982.000000	9.051615
1981.000000	9.012417
1980.000000	8.955650
1979.000000	8.819409
1978.000000	8.769118
1977.000000	8.699824
1976.000000	8.612799
1975.000000	8.519556
1974.000000	8.441975
1973.000000	8.415106
1972.000000	8.372011
1971.000000	8.357393
1970.000000	8.305832
1969.000000	8.166934
1968.000000	8.113284
1967.000000	8.063626
1966.000000	8.033449
1965.000000	7.979421
1964.000000	7.863737
1963.000000	7.793064
1962.000000	7.746661
1961.000000	7.685396
1960.000000	7.619740
1959.000000	7.564405
1958.000000	7.593117
1957.000000	7.525049
1956.000000	7.431551
1955.000000	7.395144
1954.000000	7.381371
1953.000000	7.389533
1952.000000	7.339072
1951.000000	7.315591
1950.000000	7.333280
1949.000000	7.294227
1948.000000	7.253376
1947.000000	7.241979
1946.000000	7.273700
1945.000000	7.307486
1944.000000	7.263361
1943.000000	7.298009
1942.000000	7.384552
1941.000000	7.321315
1940.000000	7.429539
1939.000000	7.485046
1938.000000	7.488835
1937.000000	7.527604
1936.000000	7.636889
1935.000000	7.666135
1934.000000	7.724092
1933.000000	7.789584
1932.000000	7.879254
1931.000000	8.022411
1930.000000	8.168714
1929.000000	8.217667
1928.000000	8.347213
1927.000000	8.507144
1926.000000	8.701194
1925.000000	8.867040
1924.000000	9.053771
1923.000000	9.166835
1922.000000	9.389817
1921.000000	9.624142
1920.000000	9.817385
1919.000000	10.094609
1918.000000	10.353814
1917.000000	10.549800
1916.000000	10.661948
1915.000000	11.112745
1914.000000	11.339174
1913.000000	11.609816
1912.000000	11.919605
1911.000000	12.233672
1910.000000	12.471015
1909.000000	12.756881
1908.000000	13.158367
1907.000000	13.553607
1906.000000	13.923570
1905.000000	14.284192
1904.000000	14.634980
1903.000000	15.128341
1902.000000	15.521536
1901.000000	15.998349
1900.000000	16.440608
1899.000000	16.849340
1898.000000	17.420961
1897.000000	17.831083
1896.000000	18.308876
1895.000000	18.677716
1894.000000	19.193733
1893.000000	19.680960
1892.000000	20.074040
1891.000000	20.511774
1890.000000	21.000811
1889.000000	21.422916
1888.000000	21.818907
1887.000000	22.219135
1886.000000	22.666949
1885.000000	23.037525
1884.000000	23.384714
1883.000000	23.842117
1882.000000	24.162482
1881.000000	24.490241
1880.000000	24.834513
1879.000000	25.200169
1878.000000	25.509804
1877.000000	25.831887
1876.000000	26.116604
1875.000000	26.414437
1874.000000	26.655329
1873.000000	26.914859
1872.000000	27.138399
1871.000000	27.363463
1870.000000	27.571995
1869.000000	27.763064
1868.000000	27.921834
1867.000000	28.030550
1866.000000	28.158114
1865.000000	28.292244
1864.000000	28.368031
1863.000000	28.477290
1862.000000	28.518441
1861.000000	28.604405
1860.000000	28.678360
1859.000000	28.727558
1858.000000	28.783933
1857.000000	28.834322
1856.000000	28.890709
1855.000000	28.900279
1854.000000	28.974079
1853.000000	29.025686
1852.000000	29.025963
1851.000000	29.049976
1850.000000	29.057713
1849.000000	29.043773
1848.000000	29.025243
1847.000000	29.043786
1846.000000	29.056703
1845.000000	29.003033
1844.000000	28.976429
1843.000000	28.972129
1842.000000	28.944075
1841.000000	28.901803
1840.000000	28.841982
1839.000000	28.825483
1838.000000	28.792630
1837.000000	28.703087
1836.000000	28.655746
1835.000000	28.617274
1834.000000	28.569096
1833.000000	28.516367
1832.000000	28.447897
1831.000000	28.380315
1830.000000	28.355763
1829.000000	28.314356
1828.000000	28.248062
1827.000000	28.192275
1826.000000	28.166794
1825.000000	28.109407
1824.000000	28.067932
1823.000000	28.031554
1822.000000	27.979994
1821.000000	27.935688
1820.000000	27.902912
1819.000000	27.854049
1818.000000	27.814181
1817.000000	27.768492
1816.000000	27.705910
1815.000000	27.677269
1814.000000	27.634920
1813.000000	27.565655
1812.000000	27.548929
1811.000000	27.506247
1810.000000	27.447976
1809.000000	27.423148
1808.000000	27.390467
1807.000000	27.359981
1806.000000	27.306751
1805.000000	27.241726
1804.000000	27.205416
1803.000000	27.165266
1802.000000	27.123166
1801.000000	27.098992
1800.000000	27.072170
1799.000000	27.047822
1798.000000	27.012787
1797.000000	26.974824
1796.000000	26.938052
1795.000000	26.907500
1794.000000	26.903225
1793.000000	26.879710
1792.000000	26.853995
1791.000000	26.830179
1790.000000	26.776066
1789.000000	26.765046
1788.000000	26.764929
1787.000000	26.725635
1786.000000	26.718512
1785.000000	26.705381
1784.000000	26.658717
1783.000000	26.611320
1782.000000	26.574199
1781.000000	26.531884
1780.000000	26.501415
1779.000000	26.451012
1778.000000	26.397217
1777.000000	26.349977
1776.000000	26.303057
1775.000000	26.231326
1774.000000	26.170746
1773.000000	26.145167
1772.000000	26.079618
1771.000000	26.012827
1770.000000	25.950675
1769.000000	25.884174
1768.000000	25.829159
1767.000000	25.781122
1766.000000	25.716044
1765.000000	25.638131
1764.000000	25.578947
1763.000000	25.532123
1762.000000	25.472191
1761.000000	25.419173
1760.000000	25.331601
1759.000000	25.274161
1758.000000	25.248056
1757.000000	25.189894
1756.000000	25.119128
1755.000000	25.068709
1754.000000	25.026014
1753.000000	24.960160
1752.000000	24.894246
1751.000000	24.822355
1750.000000	24.761042
1749.000000	24.715731
1748.000000	24.634094
1747.000000	24.566650
1746.000000	24.528866
1745.000000	24.434441
1744.000000	24.381498
1743.000000	24.326573
1742.000000	24.251092
1741.000000	24.228500
1740.000000	24.136595
1739.000000	24.110533
1738.000000	24.066517
1737.000000	24.035225
1736.000000	24.007682
1735.000000	23.993601
1734.000000	23.971993
1733.000000	23.948460
1732.000000	23.942142
1731.000000	23.955828
1730.000000	23.970610
1729.000000	23.999833
1728.000000	24.057609
1727.000000	24.100457
1726.000000	24.154015
1725.000000	24.215874
1724.000000	24.294842
1723.000000	24.369737
1722.000000	24.450965
1721.000000	24.562472
1720.000000	24.629875
1719.000000	24.753890
1718.000000	24.846365
1717.000000	24.946959
1716.000000	25.041947
1715.000000	25.118118
1714.000000	25.215902
1713.000000	25.307263
1712.000000	25.353959
1711.000000	25.459895
1710.000000	25.528609
1709.000000	25.578959
1708.000000	25.661346
1707.000000	25.632467
1706.000000	25.693898
1705.000000	25.712267
1704.000000	25.783987
1703.000000	25.767452
1702.000000	25.793546
1701.000000	25.815403
1700.000000	25.821483
1699.000000	25.813694
1698.000000	25.895717
1697.000000	25.897201
1696.000000	25.930373
1695.000000	25.948717
1694.000000	26.008548
1693.000000	26.047101
1692.000000	26.076448
1691.000000	26.141565
1690.000000	26.278967
1689.000000	26.368954
1688.000000	26.473614
1687.000000	26.595027
1686.000000	26.741093
1685.000000	26.873232
1684.000000	27.019197
1683.000000	27.154446
1682.000000	27.353155
1681.000000	27.543979
1680.000000	27.716505
1679.000000	27.916880
1678.000000	28.120136
1677.000000	28.276603
1676.000000	28.511572
1675.000000	28.711335
1674.000000	28.911847
1673.000000	29.087676
1672.000000	29.273389
1671.000000	29.450412
1670.000000	29.639183
1669.000000	29.828776
1668.000000	29.973287
1667.000000	30.141997
1666.000000	30.246644
1665.000000	30.355306
1664.000000	30.443797
1663.000000	30.554446
1662.000000	30.655512
1661.000000	30.748165
1660.000000	30.819705
1659.000000	30.888593
1658.000000	30.944484
1657.000000	30.989060
1656.000000	31.039115
1655.000000	31.071976
1654.000000	31.102889
1653.000000	31.115415
1652.000000	31.105014
1651.000000	31.104525
1650.000000	31.125162
1649.000000	31.117065
1648.000000	31.106092
1647.000000	31.090640
1646.000000	31.057717
1645.000000	31.026407
1644.000000	31.018112
1643.000000	30.983675
1642.000000	30.951784
1641.000000	30.907905
1640.000000	30.872880
1639.000000	30.844839
1638.000000	30.824697
1637.000000	30.797964
1636.000000	30.723582
1635.000000	30.661125
1634.000000	30.624307
1633.000000	30.562587
1632.000000	30.508767
1631.000000	30.449947
1630.000000	30.406363
1629.000000	30.342180
1628.000000	30.275466
1627.000000	30.222668
1626.000000	30.168655
1625.000000	30.103754
1624.000000	30.057469
1623.000000	30.010538
1622.000000	29.946380
1621.000000	29.865075
1620.000000	29.810343
1619.000000	29.743395
1618.000000	29.667133
1617.000000	29.605401
1616.000000	29.523468
1615.000000	29.454731
1614.000000	29.390125
1613.000000	29.309289
1612.000000	29.242833
1611.000000	29.169046
1610.000000	29.099987
1609.000000	29.021997
1608.000000	28.939162
1607.000000	28.873079
1606.000000	28.799511
1605.000000	28.713626
1604.000000	28.617925
1603.000000	28.535962
1602.000000	28.464561
1601.000000	28.396243
1600.000000	28.329760
1599.000000	28.256476
1598.000000	28.177240
1597.000000	28.104067
1596.000000	28.038819
1595.000000	27.969582
1594.000000	27.889443
1593.000000	27.832749
1592.000000	27.785865
1591.000000	27.711518
1590.000000	27.640985
1589.000000	27.581303
1588.000000	27.512319
1587.000000	27.463038
1586.000000	27.395031
1585.000000	27.325905
1584.000000	27.273060
1583.000000	27.218591
1582.000000	27.168853
1581.000000	27.108065
1580.000000	27.050002
1579.000000	27.007461
1578.000000	26.958346
1577.000000	26.896213
1576.000000	26.830817
1575.000000	26.773206
1574.000000	26.713221
1573.000000	26.660004
1572.000000	26.597456
1571.000000	26.536912
1570.000000	26.498578
1569.000000	26.463968
1568.000000	26.413835
1567.000000	26.345034
1566.000000	26.297622
1565.000000	26.263824
1564.000000	26.221010
1563.000000	26.197978
1562.000000	26.163280
1561.000000	26.119519
1560.000000	26.086034
1559.000000	26.052814
1558.000000	26.026073
1557.000000	26.000039
1556.000000	25.980326
1555.000000	25.948665
1554.000000	25.914907
1553.000000	25.869296
1552.000000	25.840926
1551.000000	25.803143
1550.000000	25.769593
1549.000000	25.709380
1548.000000	25.661304
1547.000000	25.597864
1546.000000	25.526728
1545.000000	25.455125
1544.000000	25.373395
1543.000000	25.297945
1542.000000	25.215123
1541.000000	25.127512
1540.000000	25.038339
1539.000000	24.941478
1538.000000	24.848850
1537.000000	24.746065
1536.000000	24.650385
1535.000000	24.573135
1534.000000	24.465970
1533.000000	24.377289
1532.000000	24.274363
1531.000000	24.171840
1530.000000	24.079416
1529.000000	23.989836
1528.000000	23.919203
1527.000000	23.841644
1526.000000	23.756380
1525.000000	23.681880
1524.000000	23.622775
1523.000000	23.547314
1522.000000	23.487719
1521.000000	23.438872
1520.000000	23.390841
1519.000000	23.352544
1518.000000	23.311087
1517.000000	23.268972
1516.000000	23.218217
1515.000000	23.175794
1514.000000	23.141420
1513.000000	23.114547
1512.000000	23.084633
1511.000000	23.051857
1510.000000	23.034411
1509.000000	23.001973
1508.000000	22.970067
1507.000000	22.954959
1506.000000	22.936247
1505.000000	22.918385
1504.000000	22.896609
1503.000000	22.888335
1502.000000	22.885912
1501.000000	22.896788
1500.000000	22.888495
1499.000000	22.893039
1498.000000	22.886952
1497.000000	22.895403
1496.000000	22.908200
1495.000000	22.902074
1494.000000	22.917481
1493.000000	22.914284
1492.000000	22.924629
1491.000000	22.955776
1490.000000	22.988843
1489.000000	23.009456
1488.000000	23.061511
1487.000000	23.082829
1486.000000	23.106555
1485.000000	23.158033
1484.000000	23.201604
1483.000000	23.259288
1482.000000	23.260732
1481.000000	23.342356
1480.000000	23.411713
1479.000000	23.447847
1478.000000	23.470233
1477.000000	23.506790
1476.000000	23.569019
1475.000000	23.620247
1474.000000	23.658975
1473.000000	23.688161
1472.000000	23.736065
1471.000000	23.777535
1470.000000	23.819007
1469.000000	23.867894
1468.000000	23.911457
1467.000000	23.970335
1466.000000	24.036654
1465.000000	24.063425
1464.000000	24.100770
1463.000000	24.159130
1462.000000	24.201776
1461.000000	24.256717
1460.000000	24.296145
1459.000000	24.352227
1458.000000	24.425690
1457.000000	24.467530
1456.000000	24.516789
1455.000000	24.558354
1454.000000	24.646021
1453.000000	24.714916
1452.000000	24.771211
1451.000000	24.817844
1450.000000	24.887756
1449.000000	24.984041
1448.000000	25.058574
1447.000000	25.125076
1446.000000	25.194842
1445.000000	25.273661
1444.000000	25.350805
1443.000000	25.456858
1442.000000	25.566051
1441.000000	25.679243
1440.000000	25.763216
1439.000000	25.863586
1438.000000	25.948340
1437.000000	26.054877
1436.000000	26.162961
1435.000000	26.285854
1434.000000	26.400399
1433.000000	26.512834
1432.000000	26.652617
1431.000000	26.780657
1430.000000	26.925711
1429.000000	27.076292
1428.000000	27.228547
1427.000000	27.392973
1426.000000	27.549756
1425.000000	27.727651
1424.000000	27.904059
1423.000000	28.080929
1422.000000	28.266177
1421.000000	28.441116
1420.000000	28.637001
1419.000000	28.854209
1418.000000	29.064420
1417.000000	29.264399
1416.000000	29.475899
1415.000000	29.708469
1414.000000	29.936353
1413.000000	30.151760
1412.000000	30.378056
1411.000000	30.634978
1410.000000	30.876701
1409.000000	31.106816
1408.000000	31.338852
1407.000000	31.587472
1406.000000	31.828923
1405.000000	32.058639
1404.000000	32.283181
1403.000000	32.520780
1402.000000	32.761745
1401.000000	33.001465
1400.000000	33.236757
1399.000000	33.465091
1398.000000	33.669242
1397.000000	33.878870
1396.000000	34.083246
1395.000000	34.289098
1394.000000	34.501968
1393.000000	34.696917
1392.000000	34.888033
1391.000000	35.074227
1390.000000	35.255417
1389.000000	35.436821
1388.000000	35.621514
1387.000000	35.808084
1386.000000	35.967632
1385.000000	36.114821
1384.000000	36.266960
1383.000000	36.398003
1382.000000	36.510937
1381.000000	36.618861
1380.000000	36.748520
1379.000000	36.866367
1378.000000	36.975015
1377.000000	37.084718
1376.000000	37.160647
1375.000000	37.244664
1374.000000	37.319002
1373.000000	37.388079
1372.000000	37.478685
1371.000000	37.563894
1370.000000	37.626178
1369.000000	37.687184
1368.000000	37.758694
1367.000000	37.820898
1366.000000	37.884664
1365.000000	37.950716
1364.000000	38.021855
1363.000000	38.106806
1362.000000	38.200460
1361.000000	38.285061
1360.000000	38.351911
1359.000000	38.406368
1358.000000	38.481505
1357.000000	38.576167
1356.000000	38.655860
1355.000000	38.734608
1354.000000	38.806449
1353.000000	38.867984
1352.000000	38.964093
1351.000000	39.059095
1350.000000	39.127859
1349.000000	39.180740
1348.000000	39.256310
1347.000000	39.341024
1346.000000	39.430910
1345.000000	39.486182
1344.000000	39.540139
1343.000000	39.621474
1342.000000	39.702150
1341.000000	39.772167
1340.000000	39.818474
1339.000000	39.892693
1338.000000	39.970543
1337.000000	40.039830
1336.000000	40.104939
1335.000000	40.146283
1334.000000	40.194032
1333.000000	40.245072
1332.000000	40.300400
1331.000000	40.358339
1330.000000	40.405228
1329.000000	40.438647
1328.000000	40.474840
1327.000000	40.530797
1326.000000	40.574480
1325.000000	40.591582
1324.000000	40.630072
1323.000000	40.659345
1322.000000	40.682909
1321.000000	40.719367
1320.000000	40.726432
1319.000000	40.759494
1318.000000	40.809299
1317.000000	40.803976
1316.000000	40.820849
1315.000000	40.855561
1314.000000	40.858421
1313.000000	40.874405
1312.000000	40.910021
1311.000000	40.921110
1310.000000	40.937170
1309.000000	40.978489
1308.000000	40.976859
1307.000000	40.989269
1306.000000	41.000348
1305.000000	41.033713
1304.000000	41.025615
1303.000000	41.031102
1302.000000	41.043871
1301.000000	41.054830
1300.000000	41.048753
1299.000000	41.052920
1298.000000	41.065381
1297.000000	41.057699
1296.000000	41.049226
1295.000000	41.053318
1294.000000	41.054641
1293.000000	41.045621
1292.000000	41.044645
1291.000000	41.027169
1290.000000	41.019056
1289.000000	41.020956
1288.000000	41.006658
1287.000000	41.005928
1286.000000	40.994053
1285.000000	40.980195
1284.000000	40.965938
1283.000000	40.963746
1282.000000	40.924975
1281.000000	40.913500
1280.000000	40.915548
1279.000000	40.924605
1278.000000	40.923796
1277.000000	40.922378
1276.000000	40.905259
1275.000000	40.900213
1274.000000	40.919032
1273.000000	40.922868
1272.000000	40.909831
1271.000000	40.908930
1270.000000	40.918781
1269.000000	40.928574
1268.000000	40.919267
1267.000000	40.928996
1266.000000	40.969163
1265.000000	40.965033
1264.000000	40.976461
1263.000000	40.965012
1262.000000	41.008575
1261.000000	41.003989
1260.000000	41.024593
1259.000000	41.034082
1258.000000	41.021694
1257.000000	41.018666
1256.000000	41.017969
1255.000000	41.045848
1254.000000	41.021520
1253.000000	41.037789
1252.000000	41.062951
1251.000000	41.079778
1250.000000	41.080554
1249.000000	41.038636
1248.000000	41.039598
1247.000000	41.036640
1246.000000	40.990820
1245.000000	40.938897
1244.000000	40.923345
1243.000000	40.914171
1242.000000	40.913311
1241.000000	40.874282
1240.000000	40.852948
1239.000000	40.778411
1238.000000	40.755016
1237.000000	40.722199
1236.000000	40.679044
1235.000000	40.643806
1234.000000	40.616588
1233.000000	40.591661
1232.000000	40.580866
1231.000000	40.514005
1230.000000	40.490216
1229.000000	40.463586
1228.000000	40.442044
1227.000000	40.411550
1226.000000	40.368594
1225.000000	40.341961
1224.000000	40.300726
1223.000000	40.282697
1222.000000	40.259746
1221.000000	40.235103
1220.000000	40.202250
1219.000000	40.154838
1218.000000	40.128674
1217.000000	40.095040
1216.000000	40.057497
1215.000000	40.037030
1214.000000	39.999576
1213.000000	39.954680
1212.000000	39.915257
1211.000000	39.858252
1210.000000	39.804886
1209.000000	39.749751
1208.000000	39.684764
1207.000000	39.646078
1206.000000	39.610473
1205.000000	39.533868
1204.000000	39.482742
1203.000000	39.454494
1202.000000	39.390854
1201.000000	39.327886
1200.000000	39.293337
1199.000000	39.251360
1198.000000	39.186711
1197.000000	39.145304
1196.000000	39.092939
1195.000000	39.050488
1194.000000	39.014889
1193.000000	38.969396
1192.000000	38.963185
1191.000000	38.964513
1190.000000	38.902782
1189.000000	38.814232
1188.000000	38.802267
1187.000000	38.794383
1186.000000	38.794539
1185.000000	38.799294
1184.000000	38.797131
1183.000000	38.807526
1182.000000	38.846005
1181.000000	38.886581
1180.000000	38.916980
1179.000000	38.955676
1178.000000	39.009781
1177.000000	39.056682
1176.000000	39.102501
1175.000000	39.158959
1174.000000	39.234458
1173.000000	39.318867
1172.000000	39.403666
1171.000000	39.482285
1170.000000	39.562582
1169.000000	39.651027
1168.000000	39.749371
1167.000000	39.856855
1166.000000	39.954360
1165.000000	40.042410
1164.000000	40.144494
1163.000000	40.247237
1162.000000	40.351276
1161.000000	40.460907
1160.000000	40.549600
1159.000000	40.619938
1158.000000	40.717979
1157.000000	40.820615
1156.000000	40.914033
1155.000000	41.000005
1154.000000	41.079174
1153.000000	41.170172
1152.000000	41.258038
1151.000000	41.327819
1150.000000	41.402115
1149.000000	41.479453
1148.000000	41.543348
1147.000000	41.612024
1146.000000	41.683229
1145.000000	41.748028
1144.000000	41.814702
1143.000000	41.870997
1142.000000	41.913731
1141.000000	41.966848
1140.000000	42.023218
1139.000000	42.080652
1138.000000	42.133408
1137.000000	42.185327
1136.000000	42.247635
1135.000000	42.306855
1134.000000	42.364915
1133.000000	42.421309
1132.000000	42.460982
1131.000000	42.500913
1130.000000	42.542959
1129.000000	42.590712
1128.000000	42.599592
1127.000000	42.625230
1126.000000	42.659407
1125.000000	42.689912
1124.000000	42.724008
1123.000000	42.739999
1122.000000	42.774817
1121.000000	42.793687
1120.000000	42.801541
1119.000000	42.798030
1118.000000	42.823604
1117.000000	42.827427
1116.000000	42.820034
1115.000000	42.819982
1114.000000	42.822681
1113.000000	42.838653
1112.000000	42.850494
1111.000000	42.858058
1110.000000	42.854112
1109.000000	42.851425
1108.000000	42.861745
1107.000000	42.854457
1106.000000	42.864402
1105.000000	42.876089
1104.000000	42.835802
1103.000000	42.834118
1102.000000	42.836764
1101.000000	42.849147
1100.000000	42.861969
1099.000000	42.853388
1098.000000	42.857728
1097.000000	42.868259
1096.000000	42.868516
1095.000000	42.824279
1094.000000	42.815113
1093.000000	42.814664
1092.000000	42.834217
1091.000000	42.848717
1090.000000	42.843957
1089.000000	42.833244
1088.000000	42.816059
1087.000000	42.802910
1086.000000	42.795010
1085.000000	42.794774
1084.000000	42.796154
1083.000000	42.783260
1082.000000	42.786262
1081.000000	42.756999
1080.000000	42.741575
1079.000000	42.743012
1078.000000	42.741725
1077.000000	42.728571
1076.000000	42.738535
1075.000000	42.719613
1074.000000	42.689765
1073.000000	42.670915
1072.000000	42.666631
1071.000000	42.671940
1070.000000	42.668845
1069.000000	42.664053
1068.000000	42.652738
1067.000000	42.610728
1066.000000	42.607188
1065.000000	42.600635
1064.000000	42.590108
1063.000000	42.582973
1062.000000	42.576779
1061.000000	42.562561
1060.000000	42.510925
1059.000000	42.492412
1058.000000	42.502082
1057.000000	42.497373
1056.000000	42.485462
1055.000000	42.441175
1054.000000	42.442858
1053.000000	42.425020
1052.000000	42.412642
1051.000000	42.410271
1050.000000	42.369024
1049.000000	42.386734
1048.000000	42.348545
1047.000000	42.374980
1046.000000	42.372390
1045.000000	42.319089
1044.000000	42.300812
1043.000000	42.295979
1042.000000	42.293157
1041.000000	42.278155
1040.000000	42.268844
1039.000000	42.270545
1038.000000	42.272875
1037.000000	42.272171
1036.000000	42.228009
1035.000000	42.220200
1034.000000	42.231827
1033.000000	42.197360
1032.000000	42.203875
1031.000000	42.207677
1030.000000	42.218288
1029.000000	42.198569
1028.000000	42.193174
1027.000000	42.190168
1026.000000	42.192129
1025.000000	42.170147
1024.000000	42.160607
1023.000000	42.163783
1022.000000	42.135176
1021.000000	42.156872
1020.000000	42.149931
1019.000000	42.137309
1018.000000	42.160651
1017.000000	42.152157
1016.000000	42.174976
1015.000000	42.173154
1014.000000	42.150656
1013.000000	42.144872
1012.000000	42.160822
1011.000000	42.185965
1010.000000	42.191163
1009.000000	42.170997
1008.000000	42.181429
1007.000000	42.179716
1006.000000	42.188280
1005.000000	42.194095
1004.000000	42.215184
1003.000000	42.223932
1002.000000	42.240778
1001.000000	42.248602
1000.000000	42.262660
999.000000	42.275113
998.000000	42.293601
997.000000	42.279636
996.000000	42.285843
995.000000	42.307741
994.000000	42.295883
993.000000	42.305579
992.000000	42.293742
991.000000	42.313341
990.000000	42.312187
989.000000	42.312428
988.000000	42.322638
987.000000	42.336784
986.000000	42.349214
985.000000	42.365760
984.000000	42.361207
983.000000	42.366922
982.000000	42.377727
981.000000	42.370079
980.000000	42.377275
979.000000	42.389481
978.000000	42.419188
977.000000	42.414973
976.000000	42.406287
975.000000	42.409949
974.000000	42.428120
973.000000	42.447027
972.000000	42.442244
971.000000	42.462412
970.000000	42.468615
969.000000	42.456628
968.000000	42.475556
967.000000	42.496970
966.000000	42.503880
965.000000	42.507580
964.000000	42.501441
963.000000	42.506934
962.000000	42.514969
961.000000	42.539312
960.000000	42.557919
959.000000	42.555573
958.000000	42.544556
957.000000	42.552780
956.000000	42.580174
955.000000	42.579681
954.000000	42.576287
953.000000	42.601291
952.000000	42.607494
951.000000	42.606318
950.000000	42.613835
949.000000	42.613269
948.000000	42.627222
947.000000	42.636535
946.000000	42.646739
945.000000	42.661174
944.000000	42.654971
943.000000	42.653700
942.000000	42.666510
941.000000	42.666520
940.000000	42.655567
939.000000	42.654743
938.000000	42.654555
937.000000	42.659581
936.000000	42.666933
935.000000	42.671929
934.000000	42.661266
933.000000	42.644107
932.000000	42.633133
931.000000	42.629688
930.000000	42.634527
929.000000	42.630700
928.000000	42.616309
927.000000	42.612786
926.000000	42.614701
925.000000	42.621736
924.000000	42.619283
923.000000	42.579866
922.000000	42.551723
921.000000	42.581613
920.000000	42.566779
919.000000	42.544279
918.000000	42.548882
917.000000	42.536021
916.000000	42.527118
915.000000	42.509695
914.000000	42.518920
913.000000	42.505896
912.000000	42.471254
911.000000	42.486571
910.000000	42.491165
909.000000	42.510051
908.000000	42.503753
907.000000	42.496417
906.000000	42.490056
905.000000	42.483486
904.000000	42.478544
903.000000	42.505919
902.000000	42.516840
901.000000	42.509942
900.000000	42.529643
899.000000	42.503379
898.000000	42.511553
897.000000	42.531883
896.000000	42.565117
895.000000	42.527828
894.000000	42.542734
893.000000	42.529041
892.000000	42.516266
891.000000	42.543170
890.000000	42.565102
889.000000	42.540937
888.000000	42.555069
887.000000	42.597935
886.000000	42.594761
885.000000	42.570746
884.000000	42.589504
883.000000	42.543091
882.000000	42.614319
881.000000	42.627228
880.000000	42.601588
879.000000	42.532952
878.000000	42.538344
877.000000	42.575197
876.000000	42.520520
875.000000	42.528148
874.000000	42.511243
873.000000	42.574514
872.000000	42.504508
871.000000	42.485395
870.000000	42.469178
869.000000	42.519535
868.000000	42.578814
867.000000	42.553867
866.000000	42.620206
865.000000	42.524554
864.000000	42.559161
863.000000	42.539307
862.000000	42.414712
861.000000	42.342917
860.000000	42.372397
859.000000	42.401737
858.000000	42.347789
857.000000	42.267118
856.000000	42.499849
855.000000	42.287957
854.000000	42.282110
853.000000	42.392235
852.000000	42.261179
851.000000	42.207933
850.000000	42.329580
849.000000	42.133783
848.000000	42.315378
847.000000	42.218825
846.000000	42.019316
845.000000	42.084915
844.000000	42.168712
843.000000	42.265018
842.000000	42.133789
841.000000	42.224177
840.000000	42.183745
839.000000	42.203878
838.000000	42.074931
837.000000	41.960787
836.000000	42.058802
835.000000	42.136275
834.000000	42.238273
833.000000	42.060477
832.000000	42.135637
831.000000	41.963900
830.000000	42.176495
829.000000	42.122777
828.000000	42.103718
827.000000	42.029078
826.000000	42.044154
825.000000	41.944586
824.000000	42.147247
823.000000	42.013021
822.000000	42.035672
821.000000	42.047811
820.000000	42.052453
819.000000	41.957621
818.000000	41.920906
817.000000	41.883084
816.000000	41.939682
815.000000	41.959914
814.000000	41.899882
813.000000	41.828475
812.000000	41.910267
811.000000	41.856077
810.000000	41.887657
809.000000	41.999841
808.000000	41.837192
807.000000	41.907191
806.000000	41.750741
805.000000	41.810991
804.000000	41.871441
803.000000	41.799375
802.000000	41.689435
801.000000	41.682933
800.000000	41.670085
799.000000	41.710015
798.000000	41.784219
797.000000	41.756501
796.000000	41.727516
795.000000	41.727876
794.000000	41.702866
793.000000	41.731253
792.000000	41.661732
791.000000	41.603591
790.000000	41.572838
789.000000	41.672643
788.000000	41.576064
787.000000	41.552190
786.000000	41.546991
785.000000	41.489136
784.000000	41.521618
783.000000	41.416142
782.000000	41.459783
781.000000	41.496714
780.000000	41.507620
779.000000	41.472831
778.000000	41.506177
777.000000	41.486138
776.000000	41.443357
775.000000	41.411688
774.000000	41.433193
773.000000	41.462138
772.000000	41.403203
771.000000	41.360291
770.000000	41.305532
769.000000	41.307521
768.000000	41.251323
767.000000	41.280073
766.000000	41.310455
765.000000	41.264943
764.000000	41.220125
763.000000	41.324494
762.000000	41.313834
761.000000	41.210645
760.000000	41.169400
759.000000	41.159816
758.000000	41.155107
757.000000	41.099011
756.000000	41.061612
755.000000	41.090545
754.000000	41.054361
753.000000	41.049466
752.000000	41.003338
751.000000	41.035057
750.000000	41.036431
749.000000	41.003152
748.000000	40.927479
747.000000	40.902384
746.000000	40.905063
745.000000	40.890414
744.000000	40.881300
743.000000	40.846075
742.000000	40.872585
741.000000	40.865870
740.000000	40.746912
739.000000	40.753316
738.000000	40.738312
737.000000	40.694049
736.000000	40.716789
735.000000	40.734895
734.000000	40.732617
733.000000	40.734839
732.000000	40.683713
731.000000	40.589934
730.000000	40.557339
729.000000	40.507708
728.000000	40.498154
727.000000	40.549273
726.000000	40.513110
725.000000	40.445932
724.000000	40.417562
723.000000	40.431495
722.000000	40.406000
721.000000	40.394114
720.000000	40.394336
719.000000	40.349390
718.000000	40.336120
717.000000	40.312909
716.000000	40.215431
715.000000	40.190784
714.000000	40.222587
713.000000	40.207124
712.000000	40.160229
711.000000	40.112441
710.000000	40.041763
709.000000	40.026235
708.000000	40.005993
707.000000	39.994954
706.000000	39.959000
705.000000	39.896735
704.000000	39.876730
703.000000	39.890423
702.000000	39.855492
701.000000	39.772930
700.000000	39.729882
699.000000	39.708042
698.000000	39.702891
697.000000	39.669638
696.000000	39.632295
695.000000	39.600124
694.000000	39.569206
693.000000	39.496521
692.000000	39.460780
691.000000	39.469209
690.000000	39.419414
689.000000	39.344733
688.000000	39.308319
687.000000	39.248987
686.000000	39.229465
685.000000	39.200264
684.000000	39.116869
683.000000	39.050171
682.000000	39.009553
681.000000	38.966119
680.000000	38.942430
679.000000	38.909831
678.000000	38.912732
677.000000	38.867651
676.000000	38.786470
675.000000	38.753501
674.000000	38.700522
673.000000	38.686124
672.000000	38.645546
671.000000	38.593835
670.000000	38.516318
669.000000	38.498393
668.000000	38.432103
667.000000	38.381669
666.000000	38.332977
665.000000	38.280387
664.000000	38.229831
663.000000	38.195386
662.000000	38.152568
661.000000	38.108872
660.000000	38.041299
659.000000	38.000605
658.000000	37.929988
657.000000	37.871948
656.000000	37.821274
655.000000	37.789002
654.000000	37.756108
653.000000	37.703027
652.000000	37.608389
651.000000	37.552125
650.000000	37.488031
649.000000	37.423814
648.000000	37.389342
647.000000	37.327817
646.000000	37.260190
645.000000	37.229942
644.000000	37.167359
643.000000	37.094892
642.000000	37.068639
641.000000	36.985213
640.000000	36.919867
639.000000	36.884328
638.000000	36.774099
637.000000	36.736574
636.000000	36.686873
635.000000	36.580140
634.000000	36.516176
633.000000	36.493641
632.000000	36.422454
631.000000	36.393711
630.000000	36.341359
629.000000	36.233287
628.000000	36.177959
627.000000	36.154445
626.000000	36.061005
625.000000	35.997673
624.000000	35.921692
623.000000	35.866725
622.000000	35.800411
621.000000	35.752298
620.000000	35.686973
619.000000	35.648703
618.000000	35.595416
617.000000	35.572758
616.000000	35.462798
615.000000	35.393853
614.000000	35.360063
613.000000	35.303520
612.000000	35.237774
611.000000	35.168360
610.000000	35.142646
609.000000	35.063045
608.000000	34.984019
607.000000	34.938102
606.000000	34.881881
605.000000	34.820250
604.000000	34.776962
603.000000	34.715916
602.000000	34.611340
601.000000	34.584678
600.000000	34.547752
599.000000	34.459729
598.000000	34.414864
597.000000	34.365146
596.000000	34.330358
595.000000	34.267405
594.000000	34.191827
593.000000	34.125500
592.000000	34.071872
591.000000	33.995664
590.000000	33.945921
589.000000	33.870782
588.000000	33.859420
587.000000	33.805769
586.000000	33.681206
585.000000	33.657611
584.000000	33.558194
583.000000	33.484262
582.000000	33.455760
581.000000	33.400549
580.000000	33.334978
579.000000	33.266574
578.000000	33.175404
577.000000	33.123766
576.000000	33.108066
575.000000	33.054773
574.000000	32.917460
573.000000	32.889150
572.000000	32.795288
571.000000	32.778675
570.000000	32.694366
569.000000	32.693711
568.000000	32.587513
567.000000	32.535337
566.000000	32.503735
565.000000	32.416839
564.000000	32.371934
563.000000	32.276467
562.000000	32.217137
561.000000	32.178123
560.000000	32.089742
559.000000	32.044890
558.000000	31.988516
557.000000	31.934165
556.000000	31.874970
555.000000	31.772606
554.000000	31.758914
553.000000	31.670441
552.000000	31.611466
551.000000	31.546384
550.000000	31.479456
549.000000	31.392149
548.000000	31.316697
547.000000	31.255265
546.000000	31.144893
545.000000	31.114128
544.000000	31.058269
543.000000	30.928523
542.000000	30.891574
541.000000	30.826564
540.000000	30.731461
539.000000	30.665317
538.000000	30.617612
537.000000	30.536120
536.000000	30.435099
535.000000	30.405493
534.000000	30.324263
533.000000	30.236703
532.000000	30.146142
531.000000	30.117653
530.000000	30.039822
529.000000	29.988710
528.000000	29.887514
527.000000	29.812330
526.000000	29.748924
525.000000	29.684271
524.000000	29.589722
523.000000	29.529841
522.000000	29.450254
521.000000	29.386138
520.000000	29.318722
519.000000	29.223856
518.000000	29.125664
517.000000	29.058926
516.000000	28.974270
515.000000	28.915025
514.000000	28.843392
513.000000	28.742419
512.000000	28.660517
511.000000	28.592219
510.000000	28.500619
509.000000	28.412650
508.000000	28.300742
507.000000	28.203057
506.000000	28.087206
505.000000	27.987374
504.000000	27.896598
503.000000	27.802084
502.000000	27.730156
501.000000	27.608948
500.000000	27.501397
499.000000	27.400480
498.000000	27.289523
497.000000	27.186871
496.000000	27.074913
495.000000	26.965686
494.000000	26.838285
493.000000	26.718660
492.000000	26.602881
491.000000	26.482752
490.000000	26.362466
489.000000	26.243173
488.000000	26.113919
487.000000	25.990218
486.000000	25.873965
485.000000	25.773330
484.000000	25.669538
483.000000	25.522524
482.000000	25.392434
481.000000	25.276766
480.000000	25.143702
479.000000	24.992945
478.000000	24.846033
477.000000	24.693031
476.000000	24.559820
475.000000	24.425860
474.000000	24.250067
473.000000	24.103335
472.000000	23.976748
471.000000	23.817932
470.000000	23.660968
469.000000	23.503197
468.000000	23.336949
467.000000	23.184868
466.000000	23.017122
465.000000	22.846520
464.000000	22.691793
463.000000	22.534969
462.000000	22.362027
461.000000	22.194183
460.000000	22.019217
459.000000	21.826960
458.000000	21.643273
457.000000	21.466982
456.000000	21.291342
455.000000	21.130402
454.000000	20.940875
453.000000	20.734695
452.000000	20.569219
451.000000	20.364410
450.000000	20.174744
449.000000	20.006152
448.000000	19.801614
447.000000	19.618876
446.000000	19.413323
445.000000	19.219732
444.000000	19.040753
443.000000	18.837374
442.000000	18.636617
441.000000	18.413574
440.000000	18.221360
439.000000	17.998743
438.000000	17.795100
437.000000	17.613498
436.000000	17.419068
435.000000	17.205583
434.000000	16.985214
433.000000	16.784955
432.000000	16.584866
431.000000	16.374650
430.000000	16.140553
429.000000	15.907416
428.000000	15.693550
427.000000	15.482185
426.000000	15.268906
425.000000	15.057598
424.000000	14.847306
423.000000	14.627225
422.000000	14.401377
421.000000	14.194941
420.000000	13.998678
419.000000	13.812918
418.000000	13.580317
417.000000	13.392168
416.000000	13.202424
415.000000	13.029603
414.000000	12.875869
413.000000	12.739515
412.000000	12.580062
411.000000	12.459659
410.000000	12.347362
409.000000	12.241785
408.000000	12.150587
407.000000	12.079108
406.000000	11.985743
405.000000	11.914797
404.000000	11.855406
403.000000	11.796653
402.000000	11.718816
401.000000	11.671652
400.000000	11.625670
399.000000	11.557468
398.000000	11.471546
397.000000	11.417553
396.000000	11.374629
395.000000	11.307197
394.000000	11.245372
393.000000	11.164299
392.000000	11.094232
391.000000	11.035177
390.000000	10.958716
389.000000	10.894359
388.000000	10.805165
387.000000	10.711148
386.000000	10.623815
385.000000	10.519735
384.000000	10.412049
383.000000	10.314971
382.000000	10.243169
381.000000	10.108285
380.000000	9.995231
379.000000	9.924857
378.000000	9.775280
377.000000	9.710273
376.000000	9.611128
375.000000	9.519575
374.000000	9.327609
373.000000	9.226845
372.000000	9.183353
371.000000	9.004291
370.000000	8.855147
369.000000	8.763836
368.000000	8.675910
367.000000	8.561697
366.000000	8.425133
365.000000	8.342487
364.000000	8.234726
363.000000	8.122585
362.000000	7.970531
361.000000	7.846763
360.000000	7.761055
359.000000	7.649692
358.000000	7.536121
357.000000	7.413101
356.000000	7.296899
355.000000	7.178789
354.000000	7.105127
353.000000	7.020894
352.000000	6.899001
351.000000	6.795493
350.000000	6.680901
349.000000	6.581125
348.000000	6.479350
347.000000	6.416714
346.000000	6.312105
345.000000	6.203595
344.000000	6.130885
343.000000	6.015455
342.000000	5.936655
341.000000	5.849630
340.000000	5.762575
339.000000	5.641147
338.000000	5.582554
337.000000	5.511763
336.000000	5.417504
335.000000	5.305770
334.000000	5.231788
333.000000	5.132309
332.000000	5.048949
331.000000	4.987335
330.000000	4.920802
329.000000	4.827936
328.000000	4.794562
327.000000	4.763222
326.000000	4.692896
325.000000	4.575547
324.000000	4.538136
323.000000	4.430380
322.000000	4.381340
321.000000	4.259294
320.000000	4.249548
319.000000	4.161739
318.000000	4.136259
317.000000	4.064397
316.000000	4.008497
315.000000	3.903112
314.000000	3.819888
313.000000	3.769278
312.000000	3.688511
311.000000	3.612947
310.000000	3.520593
309.000000	3.467781
308.000000	3.367000
307.000000	3.248521
306.000000	3.158129
305.000000	3.067164
304.000000	2.984210
303.000000	2.890356
302.000000	2.800356
301.000000	2.691004
300.000000	2.585538
299.000000	2.453290
298.000000	2.348882
297.000000	2.191062
296.000000	2.018253
295.000000	1.860000
294.000000	1.693237
293.000000	1.517794
292.000000	1.348792
291.000000	1.193400
290.000000	1.102763
289.000000	1.017806
288.000000	0.942631
287.000000	0.910804
286.000000	0.896720
285.000000	0.892141
284.000000	0.893576
283.000000	0.895391
282.000000	0.901598
281.000000	0.915440
280.000000	0.912850
279.000000	0.927661
278.000000	0.943102
277.000000	0.961223
276.000000	0.977207
275.000000	1.003964
274.000000	1.033904
273.000000	1.039094
272.000000	1.073954
271.000000	1.093674
270.000000	1.103600
269.000000	1.107133
268.000000	1.138185
267.000000	1.163901
266.000000	1.204631
265.000000	1.215933
264.000000	1.239774
263.000000	1.273428
262.000000	1.309819
261.000000	1.326533
260.000000	1.338983
259.000000	1.361191
258.000000	1.413030
257.000000	1.443555
256.000000	1.452165
255.000000	1.456152
254.000000	1.453731
253.000000	1.446449
252.000000	1.429560
251.000000	1.397970
250.000000	1.350488
249.000000	1.282135
248.000000	1.178309
247.000000	1.111599
246.000000	1.030505
245.000000	0.932287
244.000000	0.831486
243.000000	0.734113
242.000000	0.645934
241.000000	0.577156
240.000000	0.516795
239.000000	0.460991
238.000000	0.425240
237.000000	0.391553
236.000000	0.368081
235.000000	0.343817
234.000000	0.327365
233.000000	0.311778
232.000000	0.292911
231.000000	0.263063
230.000000	0.230973
229.000000	0.218806
228.000000	0.206943
227.000000	0.183012
226.000000	0.158181
225.000000	0.158041
224.000000	0.152536
223.000000	0.131389
222.000000	0.126314
221.000000	0.115727
220.000000	0.099543
219.000000	0.087861
218.000000	0.092669
217.000000	0.094899
216.000000	0.100166
215.000000	0.093202
214.000000	0.080700
213.000000	0.081589
212.000000	0.082953
211.000000	0.081652
210.000000	0.067119
209.000000	0.066479
208.000000	0.068052
207.000000	0.061936
206.000000	0.058853
205.000000	0.050955
204.000000	0.042643
203.000000	0.075730
202.000000	0.051012
201.000000	0.042470
200.000000	0.092600
