PE UV       SUBTECH     SPECTRUM    ASCII       PEDS        4.00        
   -1
chevre_UK_2_chair.Sample.asc
24/02/22
17:53:21.00
24/02/22
17:53:21.00
Administrator

1200.000000
1
Lambda 750
750N8071901
PerkinElmer UV WinLab 6.0.4.0738 / 1.61.00 Lambda 900

0
0
0
0
0
UV/VIS
1
1
1
CommonBeamDepol,150mm sphere / downward view
0
0
0
0
 
Program
3350/servo 860.8/2
0
3350/0.2 860.8/0.2
0
1
 
 
 
0
 
860.8
319.2
860.8
Front
100
on
 
 
0
0
0
 
0
 
 
 
0
 
 
0
0
0
0
0
 
 
 
 
0
0


0
0
#HDR
-1
-1
#GR
nm
A
1.0
0.0
2300.000000
-10.000000
111
8
0.614977
0.008844
#DATA
2300.000000	0.614977
2290.000000	0.586425
2280.000000	0.515907
2270.000000	0.476064
2260.000000	0.431944
2250.000000	0.383262
2240.000000	0.415704
2230.000000	0.398258
2220.000000	0.397434
2210.000000	0.407969
2200.000000	0.408022
2190.000000	0.392910
2180.000000	0.447240
2170.000000	0.428194
2160.000000	0.369816
2150.000000	0.335436
2140.000000	0.343078
2130.000000	0.342630
2120.000000	0.326155
2110.000000	0.358109
2100.000000	0.342977
2090.000000	0.353704
2080.000000	0.388976
2070.000000	0.421087
2060.000000	0.437221
2050.000000	0.421255
2040.000000	0.409647
2030.000000	0.413058
2020.000000	0.431268
2010.000000	0.450246
2000.000000	0.478751
1990.000000	0.509567
1980.000000	0.491671
1970.000000	0.506808
1960.000000	0.533635
1950.000000	0.498527
1940.000000	0.499098
1930.000000	0.419461
1920.000000	0.355803
1910.000000	0.255089
1900.000000	0.218490
1890.000000	0.176374
1880.000000	0.148078
1870.000000	0.138031
1860.000000	0.131530
1850.000000	0.135120
1840.000000	0.132731
1830.000000	0.137831
1820.000000	0.144076
1810.000000	0.145418
1800.000000	0.146640
1790.000000	0.153177
1780.000000	0.158642
1770.000000	0.163792
1760.000000	0.170845
1750.000000	0.171955
1740.000000	0.165440
1730.000000	0.156552
1720.000000	0.153466
1710.000000	0.149375
1700.000000	0.138806
1690.000000	0.123224
1680.000000	0.111848
1670.000000	0.105357
1660.000000	0.101963
1650.000000	0.106475
1640.000000	0.112086
1630.000000	0.118084
1620.000000	0.125556
1610.000000	0.132506
1600.000000	0.137829
1590.000000	0.144233
1580.000000	0.145876
1570.000000	0.152852
1560.000000	0.162221
1550.000000	0.171143
1540.000000	0.178468
1530.000000	0.189138
1520.000000	0.190274
1510.000000	0.194178
1500.000000	0.197110
1490.000000	0.197039
1480.000000	0.197385
1470.000000	0.191058
1460.000000	0.182178
1450.000000	0.170131
1440.000000	0.152366
1430.000000	0.130172
1420.000000	0.105765
1410.000000	0.085410
1400.000000	0.067587
1390.000000	0.057503
1380.000000	0.047848
1370.000000	0.040583
1360.000000	0.032667
1350.000000	0.026951
1340.000000	0.021844
1330.000000	0.018828
1320.000000	0.018505
1310.000000	0.023292
1300.000000	0.029917
1290.000000	0.027982
1280.000000	0.020904
1270.000000	0.012453
1260.000000	0.008844
1250.000000	0.009511
1240.000000	0.010048
1230.000000	0.014847
1220.000000	0.018568
1210.000000	0.021958
1200.000000	0.024857
