PE UV       SUBTECH     SPECTRUM    ASCII       PEDS        4.00        
   -1
msfkat.Sample.asc
24/02/22
18:03:13.00
24/02/22
18:03:13.00
Administrator

1200.000000
1
Lambda 750
750N8071901
PerkinElmer UV WinLab 6.0.4.0738 / 1.61.00 Lambda 900

0
0
0
0
0
UV/VIS
1
1
1
CommonBeamDepol,150mm sphere / downward view
0
0
0
0
 
Program
3350/servo 860.8/2
0
3350/0.2 860.8/0.2
0
1
 
 
 
0
 
860.8
319.2
860.8
Front
100
on
 
 
0
0
0
 
0
 
 
 
0
 
 
0
0
0
0
0
 
 
 
 
0
0


0
0
#HDR
-1
-1
#GR
nm
A
1.0
0.0
2300.000000
-10.000000
111
8
0.505973
0.071251
#DATA
2300.000000	0.499799
2290.000000	0.465544
2280.000000	0.439963
2270.000000	0.421107
2260.000000	0.382434
2250.000000	0.358337
2240.000000	0.396892
2230.000000	0.377637
2220.000000	0.366934
2210.000000	0.377456
2200.000000	0.402783
2190.000000	0.382413
2180.000000	0.429816
2170.000000	0.374982
2160.000000	0.347695
2150.000000	0.341220
2140.000000	0.334077
2130.000000	0.337443
2120.000000	0.327360
2110.000000	0.328608
2100.000000	0.323489
2090.000000	0.341150
2080.000000	0.376856
2070.000000	0.388842
2060.000000	0.396542
2050.000000	0.378703
2040.000000	0.383730
2030.000000	0.385335
2020.000000	0.400943
2010.000000	0.426568
2000.000000	0.443330
1990.000000	0.462974
1980.000000	0.466538
1970.000000	0.494624
1960.000000	0.505973
1950.000000	0.485307
1940.000000	0.440738
1930.000000	0.403862
1920.000000	0.324261
1910.000000	0.255849
1900.000000	0.208250
1890.000000	0.172728
1880.000000	0.152083
1870.000000	0.150319
1860.000000	0.144764
1850.000000	0.148008
1840.000000	0.154866
1830.000000	0.154718
1820.000000	0.156857
1810.000000	0.164746
1800.000000	0.165470
1790.000000	0.169548
1780.000000	0.174158
1770.000000	0.179716
1760.000000	0.183421
1750.000000	0.188507
1740.000000	0.182841
1730.000000	0.174835
1720.000000	0.171384
1710.000000	0.164452
1700.000000	0.158318
1690.000000	0.142852
1680.000000	0.134927
1670.000000	0.128483
1660.000000	0.128817
1650.000000	0.133351
1640.000000	0.136492
1630.000000	0.142489
1620.000000	0.150278
1610.000000	0.155527
1600.000000	0.162508
1590.000000	0.166903
1580.000000	0.170792
1570.000000	0.175470
1560.000000	0.180011
1550.000000	0.189835
1540.000000	0.196346
1530.000000	0.202956
1520.000000	0.204501
1510.000000	0.206872
1500.000000	0.207055
1490.000000	0.207259
1480.000000	0.206099
1470.000000	0.200884
1460.000000	0.193533
1450.000000	0.183503
1440.000000	0.169763
1430.000000	0.152618
1420.000000	0.131578
1410.000000	0.113701
1400.000000	0.100413
1390.000000	0.093236
1380.000000	0.088729
1370.000000	0.084438
1360.000000	0.080690
1350.000000	0.077391
1340.000000	0.075102
1330.000000	0.073355
1320.000000	0.074225
1310.000000	0.079472
1300.000000	0.082289
1290.000000	0.077857
1280.000000	0.073748
1270.000000	0.071251
1260.000000	0.073978
1250.000000	0.075699
1240.000000	0.075952
1230.000000	0.079782
1220.000000	0.083719
1210.000000	0.086126
1200.000000	0.087315
