PE UV       SUBTECH     SPECTRUM    ASCII       PEDS        4.00        
   -1
Veau_UK_2_fleur.Sample.asc
24/02/22
17:46:37.00
24/02/22
17:46:37.00
Administrator

1200.000000
1
Lambda 750
750N8071901
PerkinElmer UV WinLab 6.0.4.0738 / 1.61.00 Lambda 900

0
0
0
0
0
UV/VIS
1
1
1
CommonBeamDepol,150mm sphere / downward view
0
0
0
0
 
Program
3350/servo 860.8/2
0
3350/0.2 860.8/0.2
0
1
 
 
 
0
 
860.8
319.2
860.8
Front
100
on
 
 
0
0
0
 
0
 
 
 
0
 
 
0
0
0
0
0
 
 
 
 
0
0


0
0
#HDR
-1
-1
#GR
nm
A
1.0
0.0
2300.000000
-10.000000
111
8
1.027167
0.025449
#DATA
2300.000000	1.027167
2290.000000	0.983731
2280.000000	0.787461
2270.000000	0.651633
2260.000000	0.695534
2250.000000	0.562249
2240.000000	0.696506
2230.000000	0.590516
2220.000000	0.627925
2210.000000	0.637409
2200.000000	0.704875
2190.000000	0.675206
2180.000000	0.710212
2170.000000	0.642624
2160.000000	0.658702
2150.000000	0.601555
2140.000000	0.577261
2130.000000	0.583277
2120.000000	0.555567
2110.000000	0.566672
2100.000000	0.528922
2090.000000	0.616135
2080.000000	0.640730
2070.000000	0.696802
2060.000000	0.726860
2050.000000	0.669276
2040.000000	0.665898
2030.000000	0.682654
2020.000000	0.732741
2010.000000	0.793027
2000.000000	0.821863
1990.000000	0.840792
1980.000000	0.857729
1970.000000	0.915312
1960.000000	1.015630
1950.000000	0.921081
1940.000000	0.828304
1930.000000	0.706106
1920.000000	0.546072
1910.000000	0.408546
1900.000000	0.319652
1890.000000	0.267547
1880.000000	0.224004
1870.000000	0.205360
1860.000000	0.199994
1850.000000	0.207017
1840.000000	0.213616
1830.000000	0.216595
1820.000000	0.218817
1810.000000	0.228435
1800.000000	0.226364
1790.000000	0.236291
1780.000000	0.246805
1770.000000	0.250428
1760.000000	0.251629
1750.000000	0.264699
1740.000000	0.252544
1730.000000	0.244366
1720.000000	0.236397
1710.000000	0.229910
1700.000000	0.214929
1690.000000	0.190191
1680.000000	0.173577
1670.000000	0.168952
1660.000000	0.165490
1650.000000	0.172258
1640.000000	0.178302
1630.000000	0.187628
1620.000000	0.198644
1610.000000	0.207904
1600.000000	0.219164
1590.000000	0.226805
1580.000000	0.233322
1570.000000	0.240472
1560.000000	0.253434
1550.000000	0.266080
1540.000000	0.281494
1530.000000	0.291496
1520.000000	0.296644
1510.000000	0.303798
1500.000000	0.308662
1490.000000	0.312020
1480.000000	0.311335
1470.000000	0.301218
1460.000000	0.290110
1450.000000	0.268275
1440.000000	0.241017
1430.000000	0.208007
1420.000000	0.169109
1410.000000	0.135385
1400.000000	0.108369
1390.000000	0.092933
1380.000000	0.080872
1370.000000	0.069089
1360.000000	0.057020
1350.000000	0.048339
1340.000000	0.041256
1330.000000	0.036766
1320.000000	0.035027
1310.000000	0.039437
1300.000000	0.045703
1290.000000	0.044846
1280.000000	0.039086
1270.000000	0.030595
1260.000000	0.026463
1250.000000	0.025449
1240.000000	0.025514
1230.000000	0.031476
1220.000000	0.038173
1210.000000	0.044164
1200.000000	0.047834
