PE UV       SUBTECH     SPECTRUM    ASCII       PEDS        4.00        
   -1
agneauUK_fleur_2.Sample.asc
23/09/11
12:18:08.00
23/09/11
12:18:08.00
Administrator

250.000000
1
Lambda 750
750N8071901
PerkinElmer UV WinLab 6.0.4.0738 / 1.61.00 Lambda 900

0
0
3350/servo 860.8/2
0
0
UV/VIS
1
1
1
CommonBeamDepol,150mm sphere / downward view
0
0
0
0
Program
Program
3350/servo 860.8/2
3350/0.2 860.8/0.2
3350/0.2 860.8/0.2
0
1
 
 
 
0
 
860.8
319.2
860.8
Front
100
on
 
 
0
0
0
 
0
 
 
 
0
 
 
0
0
0
0
0
 
 
 
 
0
0


0
0
#HDR
-1
-1
#GR
nm
%R
1.0
0.0
2500.000000
-10.000000
226
8
69.469754
17.277175
#DATA
2500.000000	24.674007
2490.000000	33.966347
2480.000000	30.679571
2470.000000	31.388924
2460.000000	28.253109
2450.000000	36.144797
2440.000000	34.145076
2430.000000	32.242222
2420.000000	38.284296
2410.000000	34.346364
2400.000000	34.066678
2390.000000	38.244891
2380.000000	35.368328
2370.000000	38.182032
2360.000000	36.928746
2350.000000	34.317011
2340.000000	37.077027
2330.000000	36.836765
2320.000000	36.808392
2310.000000	34.173186
2300.000000	35.964203
2290.000000	35.066065
2280.000000	35.797581
2270.000000	37.032112
2260.000000	39.169553
2250.000000	40.665210
2240.000000	40.927234
2230.000000	41.689612
2220.000000	39.562059
2210.000000	38.775719
2200.000000	37.872296
2190.000000	38.040815
2180.000000	40.282638
2170.000000	41.180236
2160.000000	41.585543
2150.000000	42.892944
2140.000000	43.011704
2130.000000	43.200261
2120.000000	43.280027
2110.000000	42.996304
2100.000000	42.654341
2090.000000	41.694418
2080.000000	40.024795
2070.000000	38.565394
2060.000000	37.768810
2050.000000	37.844141
2040.000000	38.401726
2030.000000	38.105653
2020.000000	37.058735
2010.000000	35.706563
2000.000000	34.348712
1990.000000	32.904474
1980.000000	31.676431
1970.000000	30.569031
1960.000000	30.243730
1950.000000	30.942779
1940.000000	32.847467
1930.000000	36.126769
1920.000000	40.807733
1910.000000	46.115661
1900.000000	50.810474
1890.000000	54.513206
1880.000000	56.591518
1870.000000	57.416593
1860.000000	57.525700
1850.000000	57.449749
1840.000000	57.138847
1830.000000	56.809153
1820.000000	56.560182
1810.000000	56.144976
1800.000000	55.967509
1790.000000	55.774877
1780.000000	55.561168
1770.000000	55.276556
1760.000000	55.054738
1750.000000	54.736875
1740.000000	55.319361
1730.000000	55.755974
1720.000000	56.526637
1710.000000	56.637745
1700.000000	57.120709
1690.000000	58.229260
1680.000000	59.249151
1670.000000	59.588126
1660.000000	59.574044
1650.000000	59.469612
1640.000000	58.949716
1630.000000	58.556749
1620.000000	57.914515
1610.000000	57.357862
1600.000000	56.805609
1590.000000	56.479837
1580.000000	55.918456
1570.000000	55.629009
1560.000000	55.206971
1550.000000	54.455796
1540.000000	53.725731
1530.000000	53.180020
1520.000000	52.843139
1510.000000	52.612927
1500.000000	52.453739
1490.000000	52.420231
1480.000000	52.481134
1470.000000	52.803503
1460.000000	53.542840
1450.000000	54.273147
1440.000000	55.649925
1430.000000	57.474107
1420.000000	59.601041
1410.000000	61.662218
1400.000000	63.122553
1390.000000	64.018898
1380.000000	64.470160
1370.000000	64.847198
1360.000000	65.195535
1350.000000	65.630174
1340.000000	65.876621
1330.000000	66.257201
1320.000000	66.577254
1310.000000	66.693703
1300.000000	66.690632
1290.000000	66.645948
1280.000000	66.569099
1270.000000	66.548835
1260.000000	66.546695
1250.000000	66.504195
1240.000000	66.475058
1230.000000	66.307327
1220.000000	66.031138
1210.000000	65.908159
1200.000000	65.889744
1190.000000	66.071365
1180.000000	66.396049
1170.000000	66.854346
1160.000000	67.253737
1150.000000	67.572671
1140.000000	67.754324
1130.000000	67.823288
1120.000000	67.870182
1110.000000	67.923544
1100.000000	67.934999
1090.000000	67.943043
1080.000000	67.921492
1070.000000	67.887848
1060.000000	67.908541
1050.000000	67.835868
1040.000000	67.819394
1030.000000	67.754848
1020.000000	67.806211
1010.000000	67.840618
1000.000000	67.958270
990.000000	68.004200
980.000000	68.123823
970.000000	68.307291
960.000000	68.473266
950.000000	68.473327
940.000000	68.601749
930.000000	68.751630
920.000000	68.844095
910.000000	69.064066
900.000000	69.178161
890.000000	69.114821
880.000000	69.469754
870.000000	69.307232
860.000000	69.272818
850.000000	68.646504
840.000000	68.968616
830.000000	69.030732
820.000000	68.885297
810.000000	68.440921
800.000000	68.690378
790.000000	68.841718
780.000000	68.842905
770.000000	68.631255
760.000000	68.608195
750.000000	68.785008
740.000000	68.849835
730.000000	68.909077
720.000000	68.768496
710.000000	68.840832
700.000000	68.887420
690.000000	68.956564
680.000000	68.790093
670.000000	68.860753
660.000000	68.985044
650.000000	68.879585
640.000000	68.915721
630.000000	68.850341
620.000000	68.800779
610.000000	68.646475
600.000000	68.676767
590.000000	68.585763
580.000000	68.555725
570.000000	68.390826
560.000000	68.278280
550.000000	68.006027
540.000000	67.826727
530.000000	67.536233
520.000000	67.207221
510.000000	66.868621
500.000000	66.519236
490.000000	66.090237
480.000000	65.714250
470.000000	65.114042
460.000000	64.337723
450.000000	63.731394
440.000000	62.792234
430.000000	61.520076
420.000000	59.904663
410.000000	57.989566
400.000000	55.765327
390.000000	53.571562
380.000000	51.057686
370.000000	47.929765
360.000000	44.700089
350.000000	41.601688
340.000000	38.888545
330.000000	34.720043
320.000000	30.372093
310.000000	27.948117
300.000000	25.511301
290.000000	21.065597
280.000000	17.277175
270.000000	17.735959
260.000000	18.552608
250.000000	19.031433
