PE UV       SUBTECH     SPECTRUM    ASCII       PEDS        4.00        
   -1
009-1S-XXX-NR003-C001.Sample.asc
24/01/09
15:48:14.00
24/01/09
15:48:14.00
Administrator

250.000000
1
Lambda 750
750N8071901
PerkinElmer UV WinLab 6.0.4.0738 / 1.61.00 Lambda 900

0
0
3350/servo 860.8/2
0
0
UV/VIS
1
1
1
CommonBeamDepol,150mm sphere / downward view
0
0
0
0
Program
Program
3350/servo 860.8/2
3350/0.2 860.8/0.2
3350/0.2 860.8/0.2
0
1
 
 
 
0
 
860.8
319.2
860.8
Front
100
on
 
 
0
0
0
 
0
 
 
 
0
 
 
0
0
0
0
0
 
 
 
 
0
0


0
0
#HDR
-1
-1
#GR
nm
%R
1.0
0.0
2500.000000
-10.000000
226
8
71.424035
10.317312
#DATA
2500.000000	17.718815
2490.000000	18.792827
2480.000000	22.487779
2470.000000	22.210274
2460.000000	22.215343
2450.000000	25.638531
2440.000000	24.635638
2430.000000	24.248381
2420.000000	24.151178
2410.000000	27.783451
2400.000000	24.299426
2390.000000	24.136402
2380.000000	25.034943
2370.000000	25.401056
2360.000000	24.138950
2350.000000	24.773687
2340.000000	25.291957
2330.000000	25.293662
2320.000000	24.102631
2310.000000	23.197349
2300.000000	21.875417
2290.000000	23.646624
2280.000000	22.415278
2270.000000	26.842744
2260.000000	28.297579
2250.000000	30.196128
2240.000000	29.664712
2230.000000	29.407572
2220.000000	28.823993
2210.000000	27.031924
2200.000000	26.375395
2190.000000	27.276758
2180.000000	27.665440
2170.000000	28.668056
2160.000000	31.269985
2150.000000	32.341433
2140.000000	33.593046
2130.000000	33.369686
2120.000000	34.595428
2110.000000	34.265412
2100.000000	34.040045
2090.000000	32.239796
2080.000000	30.613847
2070.000000	28.084746
2060.000000	27.574423
2050.000000	28.256835
2040.000000	29.641661
2030.000000	29.647871
2020.000000	28.909814
2010.000000	27.600433
2000.000000	26.071362
1990.000000	24.618439
1980.000000	23.162369
1970.000000	21.940963
1960.000000	21.448717
1950.000000	22.252704
1940.000000	25.010879
1930.000000	29.633349
1920.000000	35.463442
1910.000000	42.285175
1900.000000	48.400411
1890.000000	52.507721
1880.000000	55.108674
1870.000000	55.850925
1860.000000	55.860161
1850.000000	55.343151
1840.000000	55.014045
1830.000000	54.508794
1820.000000	54.128058
1810.000000	53.680224
1800.000000	53.212531
1790.000000	52.641980
1780.000000	51.892251
1770.000000	51.448594
1760.000000	50.692053
1750.000000	50.164059
1740.000000	50.547558
1730.000000	51.921413
1720.000000	52.719529
1710.000000	53.011045
1700.000000	54.157598
1690.000000	56.343338
1680.000000	58.086654
1670.000000	58.658639
1660.000000	58.797383
1650.000000	58.374449
1640.000000	57.870944
1630.000000	57.190804
1620.000000	56.259629
1610.000000	55.381640
1600.000000	54.628424
1590.000000	54.026095
1580.000000	53.427436
1570.000000	53.124823
1560.000000	52.600539
1550.000000	51.372436
1540.000000	50.388342
1530.000000	49.722549
1520.000000	49.234170
1510.000000	49.144202
1500.000000	49.400275
1490.000000	49.976759
1480.000000	50.586923
1470.000000	51.227782
1460.000000	52.153314
1450.000000	53.434529
1440.000000	55.094622
1430.000000	57.349024
1420.000000	60.003574
1410.000000	62.492244
1400.000000	64.411891
1390.000000	65.502774
1380.000000	66.103638
1370.000000	66.781413
1360.000000	67.577215
1350.000000	68.345701
1340.000000	68.737719
1330.000000	68.901433
1320.000000	68.887357
1310.000000	68.897291
1300.000000	68.924046
1290.000000	68.873160
1280.000000	68.918357
1270.000000	69.020185
1260.000000	69.043911
1250.000000	68.920502
1240.000000	68.538754
1230.000000	68.378457
1220.000000	67.987064
1210.000000	67.653909
1200.000000	67.539010
1190.000000	67.878361
1180.000000	68.552169
1170.000000	69.227727
1160.000000	69.847161
1150.000000	70.294394
1140.000000	70.431402
1130.000000	70.618987
1120.000000	70.641375
1110.000000	70.731682
1100.000000	70.742605
1090.000000	70.687739
1080.000000	70.560942
1070.000000	70.467703
1060.000000	70.413484
1050.000000	70.298668
1040.000000	70.268537
1030.000000	70.247121
1020.000000	70.199153
1010.000000	70.371096
1000.000000	70.460288
990.000000	70.478189
980.000000	70.612465
970.000000	70.680721
960.000000	70.721368
950.000000	70.785841
940.000000	70.669437
930.000000	70.737954
920.000000	70.822882
910.000000	70.961469
900.000000	71.014288
890.000000	71.113242
880.000000	71.424035
870.000000	71.380999
860.000000	71.089044
850.000000	70.915077
840.000000	71.225753
830.000000	71.193041
820.000000	71.154888
810.000000	70.972507
800.000000	71.178742
790.000000	71.154153
780.000000	71.339658
770.000000	71.314776
760.000000	70.971225
750.000000	70.950156
740.000000	71.233409
730.000000	71.122789
720.000000	71.006437
710.000000	71.197461
700.000000	70.945884
690.000000	71.181802
680.000000	71.111498
670.000000	71.096344
660.000000	71.098174
650.000000	70.981004
640.000000	70.884963
630.000000	70.780104
620.000000	70.862047
610.000000	70.704697
600.000000	70.637052
590.000000	70.559203
580.000000	70.239337
570.000000	70.063541
560.000000	69.939554
550.000000	69.621096
540.000000	69.287549
530.000000	68.978165
520.000000	68.492069
510.000000	68.130553
500.000000	67.474590
490.000000	66.706091
480.000000	66.006538
470.000000	65.196012
460.000000	64.328778
450.000000	63.210141
440.000000	61.701088
430.000000	59.786397
420.000000	57.401146
410.000000	54.631086
400.000000	51.482895
390.000000	48.636673
380.000000	45.479294
370.000000	41.805069
360.000000	38.048584
350.000000	34.967150
340.000000	31.205988
330.000000	25.914191
320.000000	21.311743
310.000000	18.298600
300.000000	16.667284
290.000000	12.402604
280.000000	10.317312
270.000000	10.930602
260.000000	12.159200
250.000000	12.664042
