PE UV       SUBTECH     SPECTRUM    ASCII       PEDS        4.00        
   -1
011-6C-XXX-NR003-F001.Sample.asc
24/01/09
15:05:09.00
24/01/09
15:05:09.00
Administrator

250.000000
1
Lambda 750
750N8071901
PerkinElmer UV WinLab 6.0.4.0738 / 1.61.00 Lambda 900

0
0
3350/servo 860.8/2
0
0
UV/VIS
1
1
1
CommonBeamDepol,150mm sphere / downward view
0
0
0
0
Program
Program
3350/servo 860.8/2
3350/0.2 860.8/0.2
3350/0.2 860.8/0.2
0
1
 
 
 
0
 
860.8
319.2
860.8
Front
100
on
 
 
0
0
0
 
0
 
 
 
0
 
 
0
0
0
0
0
 
 
 
 
0
0


0
0
#HDR
-1
-1
#GR
nm
%R
1.0
0.0
2500.000000
-10.000000
226
8
49.911882
-1.378534
#DATA
2500.000000	0.764536
2490.000000	-1.378534
2480.000000	2.778332
2470.000000	0.698010
2460.000000	2.837652
2450.000000	3.212994
2440.000000	2.650331
2430.000000	2.502672
2420.000000	3.458753
2410.000000	5.170587
2400.000000	1.502906
2390.000000	1.356597
2380.000000	1.580326
2370.000000	2.993624
2360.000000	1.580392
2350.000000	1.506473
2340.000000	3.113572
2330.000000	2.114857
2320.000000	2.419872
2310.000000	1.768660
2300.000000	0.346837
2290.000000	1.533006
2280.000000	1.196809
2270.000000	4.361854
2260.000000	4.164009
2250.000000	5.123762
2240.000000	5.305367
2230.000000	5.102083
2220.000000	4.651845
2210.000000	4.024338
2200.000000	3.347620
2190.000000	3.854577
2180.000000	3.301307
2170.000000	3.992338
2160.000000	5.881396
2150.000000	6.482151
2140.000000	7.134331
2130.000000	7.155535
2120.000000	7.953875
2110.000000	7.729609
2100.000000	7.482936
2090.000000	6.274935
2080.000000	5.920851
2070.000000	4.520955
2060.000000	4.539685
2050.000000	4.289095
2040.000000	5.514053
2030.000000	5.556353
2020.000000	5.157728
2010.000000	4.372367
2000.000000	4.110473
1990.000000	3.104574
1980.000000	2.718979
1970.000000	2.325442
1960.000000	2.212450
1950.000000	2.813963
1940.000000	3.552260
1930.000000	6.067916
1920.000000	9.998698
1910.000000	15.155683
1900.000000	20.266535
1890.000000	24.110953
1880.000000	26.582443
1870.000000	27.068734
1860.000000	27.307661
1850.000000	26.720342
1840.000000	26.298628
1830.000000	25.892198
1820.000000	25.262126
1810.000000	24.896917
1800.000000	24.293243
1790.000000	23.742308
1780.000000	22.961466
1770.000000	22.425782
1760.000000	21.590368
1750.000000	21.076746
1740.000000	21.589638
1730.000000	23.038034
1720.000000	23.570518
1710.000000	23.908787
1700.000000	25.435847
1690.000000	28.019088
1680.000000	30.102684
1670.000000	30.962281
1660.000000	31.061382
1650.000000	30.579032
1640.000000	29.815314
1630.000000	29.018240
1620.000000	27.869441
1610.000000	26.928537
1600.000000	26.087578
1590.000000	25.347500
1580.000000	24.680562
1570.000000	24.304119
1560.000000	23.758463
1550.000000	22.583349
1540.000000	21.558698
1530.000000	20.919530
1520.000000	20.519661
1510.000000	20.413849
1500.000000	20.795744
1490.000000	21.353015
1480.000000	21.958561
1470.000000	22.682355
1460.000000	23.639105
1450.000000	25.050585
1440.000000	26.919438
1430.000000	29.603788
1420.000000	32.881666
1410.000000	36.106505
1400.000000	38.852195
1390.000000	40.630466
1380.000000	41.635001
1370.000000	42.826921
1360.000000	44.059533
1350.000000	45.283340
1340.000000	46.320565
1330.000000	46.901727
1320.000000	47.177538
1310.000000	47.123528
1300.000000	46.933636
1290.000000	46.808586
1280.000000	46.813040
1270.000000	46.991710
1260.000000	46.839264
1250.000000	46.504401
1240.000000	45.981593
1230.000000	45.593865
1220.000000	44.876634
1210.000000	44.138387
1200.000000	43.991373
1190.000000	44.406656
1180.000000	45.727959
1170.000000	47.081150
1160.000000	48.200684
1150.000000	48.967035
1140.000000	49.579972
1130.000000	49.875179
1120.000000	49.877003
1110.000000	49.911882
1100.000000	49.897963
1090.000000	49.685271
1080.000000	49.496671
1070.000000	49.269760
1060.000000	48.993142
1050.000000	48.925706
1040.000000	48.795397
1030.000000	48.644027
1020.000000	48.616415
1010.000000	48.816030
1000.000000	48.840165
990.000000	48.807787
980.000000	48.906376
970.000000	49.006042
960.000000	49.051150
950.000000	48.939964
940.000000	48.686676
930.000000	48.543944
920.000000	48.374003
910.000000	48.425969
900.000000	48.480150
890.000000	48.289294
880.000000	48.288154
870.000000	48.466755
860.000000	48.621391
850.000000	46.691371
840.000000	46.891782
830.000000	46.559778
820.000000	46.588209
810.000000	46.462002
800.000000	46.044299
790.000000	45.740195
780.000000	45.617208
770.000000	45.348244
760.000000	44.807877
750.000000	44.521163
740.000000	44.332688
730.000000	43.818851
720.000000	43.546999
710.000000	43.055311
700.000000	42.590815
690.000000	41.887056
680.000000	41.374530
670.000000	40.668106
660.000000	39.856991
650.000000	39.083285
640.000000	38.100080
630.000000	37.140342
620.000000	36.222806
610.000000	35.461944
600.000000	34.688926
590.000000	33.846431
580.000000	33.012174
570.000000	32.204889
560.000000	31.401808
550.000000	30.604830
540.000000	29.655989
530.000000	28.769528
520.000000	27.908742
510.000000	26.942307
500.000000	25.730912
490.000000	24.386291
480.000000	22.877306
470.000000	21.181265
460.000000	19.321295
450.000000	17.211122
440.000000	14.927344
430.000000	12.610107
420.000000	10.358481
410.000000	8.827428
400.000000	8.485316
390.000000	8.202829
380.000000	7.514007
370.000000	6.701451
360.000000	5.951549
350.000000	5.660762
340.000000	5.186433
330.000000	4.653023
320.000000	5.155199
310.000000	3.662765
300.000000	3.865296
290.000000	3.710176
280.000000	3.852103
270.000000	4.146823
260.000000	4.777244
250.000000	4.954258
