PE UV       SUBTECH     SPECTRUM    ASCII       PEDS        4.00        
   -1
TTgChevreUK 12.Sample.asc
18/03/06
17:27:24.00
18/03/06
17:27:24.00
Administrator

200.000000
1
Lambda 750
750N8071901
PerkinElmer UV WinLab 6.0.4.0738 / 1.61.00 Lambda 900

0
0
3350/servo 860.8/2
0
0
UV/VIS
1
1
1
CommonBeamDepol,150mm sphere / downward view
0
0
0
0
Program
Program
3350/servo 860.8/2
3350/0.2 860.8/0.2
3350/0.2 860.8/0.2
0
1
 
 
 
0
 
860.8
319.2
860.8
Front
100
on
 
 
0
0
0
 
0
 
 
 
0
 
 
0
0
0
0
0
 
 
 
 
0
0


0
0
#HDR
-1
-1
#GR
nm
%T
1.0
0.0
2350.000000
-1.000000
2151
8
36.992435
0.087976
#DATA
2350.000000	6.671475
2349.000000	6.832968
2348.000000	6.689461
2347.000000	7.385030
2346.000000	6.980987
2345.000000	6.818410
2344.000000	7.006188
2343.000000	6.728182
2342.000000	6.636724
2341.000000	6.797122
2340.000000	7.083104
2339.000000	7.442637
2338.000000	7.439406
2337.000000	7.350788
2336.000000	7.744528
2335.000000	7.430785
2334.000000	7.475731
2333.000000	7.731794
2332.000000	7.747348
2331.000000	7.762489
2330.000000	7.788764
2329.000000	7.675372
2328.000000	7.803201
2327.000000	7.607744
2326.000000	7.500950
2325.000000	7.419115
2324.000000	7.594588
2323.000000	7.478962
2322.000000	7.575897
2321.000000	7.141541
2320.000000	6.896256
2319.000000	7.158524
2318.000000	7.085117
2317.000000	7.347001
2316.000000	7.172985
2315.000000	7.241223
2314.000000	6.945899
2313.000000	7.106416
2312.000000	7.227178
2311.000000	7.054600
2310.000000	7.037737
2309.000000	6.830690
2308.000000	6.777482
2307.000000	6.841179
2306.000000	6.775010
2305.000000	6.677640
2304.000000	6.599501
2303.000000	6.773664
2302.000000	6.793686
2301.000000	6.557273
2300.000000	6.319953
2299.000000	6.563479
2298.000000	6.500400
2297.000000	6.540114
2296.000000	6.513195
2295.000000	6.442915
2294.000000	6.268817
2293.000000	6.269831
2292.000000	6.118689
2291.000000	6.108111
2290.000000	6.251048
2289.000000	6.209234
2288.000000	6.283320
2287.000000	6.344986
2286.000000	6.142762
2285.000000	6.086511
2284.000000	6.014766
2283.000000	6.091391
2282.000000	5.971894
2281.000000	5.981736
2280.000000	6.052754
2279.000000	6.079813
2278.000000	6.201002
2277.000000	6.087788
2276.000000	6.034592
2275.000000	6.198405
2274.000000	6.369565
2273.000000	6.197001
2272.000000	6.044524
2271.000000	6.101260
2270.000000	6.229359
2269.000000	6.310241
2268.000000	6.325645
2267.000000	6.384914
2266.000000	6.470887
2265.000000	6.591573
2264.000000	6.548207
2263.000000	6.634513
2262.000000	6.916391
2261.000000	7.056228
2260.000000	6.999304
2259.000000	7.021860
2258.000000	7.121296
2257.000000	7.219700
2256.000000	7.292800
2255.000000	7.439486
2254.000000	7.524290
2253.000000	7.554947
2252.000000	7.624952
2251.000000	7.778312
2250.000000	7.940408
2249.000000	8.100666
2248.000000	8.164009
2247.000000	8.338789
2246.000000	8.490560
2245.000000	8.587617
2244.000000	8.614305
2243.000000	8.752534
2242.000000	8.961300
2241.000000	8.973202
2240.000000	9.028583
2239.000000	9.155761
2238.000000	9.174955
2237.000000	9.326166
2236.000000	9.487258
2235.000000	9.531390
2234.000000	9.545622
2233.000000	9.456860
2232.000000	9.481984
2231.000000	9.658550
2230.000000	9.641177
2229.000000	9.613229
2228.000000	9.644736
2227.000000	9.708253
2226.000000	9.660523
2225.000000	9.567799
2224.000000	9.644866
2223.000000	9.651811
2222.000000	9.702092
2221.000000	9.685788
2220.000000	9.666553
2219.000000	9.667319
2218.000000	9.629417
2217.000000	9.518791
2216.000000	9.351199
2215.000000	9.440598
2214.000000	9.515617
2213.000000	9.460303
2212.000000	9.416180
2211.000000	9.254621
2210.000000	9.172997
2209.000000	9.111912
2208.000000	9.086111
2207.000000	9.070120
2206.000000	9.160850
2205.000000	9.181307
2204.000000	8.989009
2203.000000	8.887520
2202.000000	8.893517
2201.000000	8.847639
2200.000000	8.804428
2199.000000	8.807017
2198.000000	8.779014
2197.000000	8.708846
2196.000000	8.516925
2195.000000	8.552682
2194.000000	8.484924
2193.000000	8.403042
2192.000000	8.481054
2191.000000	8.446390
2190.000000	8.329360
2189.000000	8.265742
2188.000000	8.284075
2187.000000	8.293584
2186.000000	8.148703
2185.000000	8.082577
2184.000000	8.059979
2183.000000	8.143959
2182.000000	8.088131
2181.000000	8.005763
2180.000000	7.939741
2179.000000	8.092140
2178.000000	8.093012
2177.000000	8.084979
2176.000000	7.990232
2175.000000	8.016043
2174.000000	8.043745
2173.000000	8.032815
2172.000000	8.048945
2171.000000	8.107205
2170.000000	8.042720
2169.000000	8.189155
2168.000000	8.409421
2167.000000	8.426102
2166.000000	8.305574
2165.000000	8.236604
2164.000000	8.310322
2163.000000	8.302943
2162.000000	8.453944
2161.000000	8.472916
2160.000000	8.708887
2159.000000	8.608476
2158.000000	8.739838
2157.000000	8.819171
2156.000000	8.937909
2155.000000	9.044055
2154.000000	8.977139
2153.000000	9.376096
2152.000000	9.245687
2151.000000	9.462452
2150.000000	9.463573
2149.000000	9.479300
2148.000000	9.655926
2147.000000	9.724544
2146.000000	9.834527
2145.000000	9.791455
2144.000000	9.982097
2143.000000	9.976039
2142.000000	10.171475
2141.000000	10.317264
2140.000000	10.315148
2139.000000	10.314507
2138.000000	10.507300
2137.000000	10.449352
2136.000000	10.428839
2135.000000	10.613462
2134.000000	10.815743
2133.000000	10.675687
2132.000000	10.746677
2131.000000	10.972204
2130.000000	10.928321
2129.000000	11.022341
2128.000000	11.001941
2127.000000	10.962041
2126.000000	10.928904
2125.000000	11.168765
2124.000000	11.285809
2123.000000	11.110204
2122.000000	11.225887
2121.000000	11.332482
2120.000000	11.346865
2119.000000	11.455610
2118.000000	11.452102
2117.000000	11.339431
2116.000000	11.504644
2115.000000	11.535423
2114.000000	11.527179
2113.000000	11.420861
2112.000000	11.500459
2111.000000	11.552008
2110.000000	11.305535
2109.000000	11.462660
2108.000000	11.546476
2107.000000	11.452734
2106.000000	11.574165
2105.000000	11.466694
2104.000000	11.505410
2103.000000	11.546828
2102.000000	11.581134
2101.000000	11.627921
2100.000000	11.615905
2099.000000	11.666657
2098.000000	11.568719
2097.000000	11.518570
2096.000000	11.588909
2095.000000	11.623395
2094.000000	11.644355
2093.000000	11.644065
2092.000000	11.622537
2091.000000	11.627442
2090.000000	11.609577
2089.000000	11.533852
2088.000000	11.499011
2087.000000	11.519549
2086.000000	11.488960
2085.000000	11.530893
2084.000000	11.345576
2083.000000	11.328280
2082.000000	11.340552
2081.000000	11.295151
2080.000000	11.257052
2079.000000	11.209389
2078.000000	11.169268
2077.000000	11.078618
2076.000000	10.979404
2075.000000	10.885713
2074.000000	10.876566
2073.000000	10.784898
2072.000000	10.688715
2071.000000	10.559905
2070.000000	10.543430
2069.000000	10.412991
2068.000000	10.297229
2067.000000	10.206522
2066.000000	10.072981
2065.000000	9.986584
2064.000000	9.962161
2063.000000	9.827557
2062.000000	9.772896
2061.000000	9.735910
2060.000000	9.664386
2059.000000	9.584149
2058.000000	9.408020
2057.000000	9.266996
2056.000000	9.227609
2055.000000	9.127382
2054.000000	9.003780
2053.000000	8.946158
2052.000000	8.859699
2051.000000	8.763901
2050.000000	8.668691
2049.000000	8.634462
2048.000000	8.622407
2047.000000	8.542196
2046.000000	8.459468
2045.000000	8.475780
2044.000000	8.487504
2043.000000	8.496620
2042.000000	8.555887
2041.000000	8.567239
2040.000000	8.573048
2039.000000	8.554009
2038.000000	8.521689
2037.000000	8.539347
2036.000000	8.584885
2035.000000	8.662172
2034.000000	8.721053
2033.000000	8.802434
2032.000000	8.883569
2031.000000	8.935395
2030.000000	9.023705
2029.000000	9.123723
2028.000000	9.158136
2027.000000	9.201545
2026.000000	9.300268
2025.000000	9.424103
2024.000000	9.491724
2023.000000	9.491417
2022.000000	9.487084
2021.000000	9.519473
2020.000000	9.584706
2019.000000	9.599978
2018.000000	9.623030
2017.000000	9.671303
2016.000000	9.691236
2015.000000	9.697996
2014.000000	9.690322
2013.000000	9.673265
2012.000000	9.631640
2011.000000	9.638803
2010.000000	9.654661
2009.000000	9.595895
2008.000000	9.544476
2007.000000	9.500085
2006.000000	9.430350
2005.000000	9.407152
2004.000000	9.312889
2003.000000	9.257500
2002.000000	9.212962
2001.000000	9.140300
2000.000000	9.111177
1999.000000	9.036338
1998.000000	8.949158
1997.000000	8.965045
1996.000000	8.948173
1995.000000	8.859686
1994.000000	8.778279
1993.000000	8.659437
1992.000000	8.634619
1991.000000	8.545584
1990.000000	8.477376
1989.000000	8.373556
1988.000000	8.337302
1987.000000	8.303401
1986.000000	8.209275
1985.000000	8.150976
1984.000000	8.118416
1983.000000	8.066493
1982.000000	8.002344
1981.000000	7.972739
1980.000000	7.897392
1979.000000	7.835523
1978.000000	7.794322
1977.000000	7.700837
1976.000000	7.638734
1975.000000	7.589151
1974.000000	7.537189
1973.000000	7.488841
1972.000000	7.457319
1971.000000	7.382059
1970.000000	7.377774
1969.000000	7.341664
1968.000000	7.277475
1967.000000	7.202113
1966.000000	7.129874
1965.000000	7.118943
1964.000000	7.057063
1963.000000	7.005621
1962.000000	6.979372
1961.000000	6.951201
1960.000000	6.937476
1959.000000	6.869591
1958.000000	6.845607
1957.000000	6.803532
1956.000000	6.771204
1955.000000	6.715591
1954.000000	6.694122
1953.000000	6.672748
1952.000000	6.647908
1951.000000	6.675147
1950.000000	6.630141
1949.000000	6.548554
1948.000000	6.546353
1947.000000	6.538254
1946.000000	6.542128
1945.000000	6.584767
1944.000000	6.517716
1943.000000	6.538262
1942.000000	6.528803
1941.000000	6.561444
1940.000000	6.629935
1939.000000	6.684664
1938.000000	6.728638
1937.000000	6.736831
1936.000000	6.864571
1935.000000	6.872645
1934.000000	6.960276
1933.000000	6.968146
1932.000000	7.030979
1931.000000	7.117459
1930.000000	7.229832
1929.000000	7.304283
1928.000000	7.423285
1927.000000	7.566418
1926.000000	7.669049
1925.000000	7.814399
1924.000000	7.926647
1923.000000	8.001133
1922.000000	8.114508
1921.000000	8.396134
1920.000000	8.641905
1919.000000	8.758069
1918.000000	8.932212
1917.000000	9.172914
1916.000000	9.310385
1915.000000	9.621165
1914.000000	9.842451
1913.000000	10.040289
1912.000000	10.286522
1911.000000	10.565001
1910.000000	10.727227
1909.000000	11.034895
1908.000000	11.353866
1907.000000	11.699167
1906.000000	11.986184
1905.000000	12.341146
1904.000000	12.645503
1903.000000	12.997357
1902.000000	13.387166
1901.000000	13.655091
1900.000000	14.066818
1899.000000	14.451094
1898.000000	14.878075
1897.000000	15.275272
1896.000000	15.620089
1895.000000	16.020919
1894.000000	16.402666
1893.000000	16.820760
1892.000000	17.224194
1891.000000	17.593774
1890.000000	17.982696
1889.000000	18.336638
1888.000000	18.684768
1887.000000	19.097128
1886.000000	19.419503
1885.000000	19.803939
1884.000000	20.102991
1883.000000	20.476831
1882.000000	20.815188
1881.000000	21.123837
1880.000000	21.418475
1879.000000	21.711153
1878.000000	21.965952
1877.000000	22.268893
1876.000000	22.509559
1875.000000	22.790905
1874.000000	22.970969
1873.000000	23.154780
1872.000000	23.416506
1871.000000	23.629988
1870.000000	23.755589
1869.000000	23.927971
1868.000000	24.043039
1867.000000	24.138621
1866.000000	24.247670
1865.000000	24.371243
1864.000000	24.433876
1863.000000	24.502096
1862.000000	24.591756
1861.000000	24.664439
1860.000000	24.724047
1859.000000	24.758981
1858.000000	24.805188
1857.000000	24.891499
1856.000000	24.881668
1855.000000	24.914447
1854.000000	24.959794
1853.000000	24.978001
1852.000000	24.969519
1851.000000	24.986675
1850.000000	25.016153
1849.000000	24.999646
1848.000000	25.000051
1847.000000	25.009812
1846.000000	24.966902
1845.000000	24.933668
1844.000000	24.936462
1843.000000	24.895751
1842.000000	24.896277
1841.000000	24.868878
1840.000000	24.809086
1839.000000	24.765180
1838.000000	24.752841
1837.000000	24.682490
1836.000000	24.602636
1835.000000	24.584311
1834.000000	24.518141
1833.000000	24.482946
1832.000000	24.442361
1831.000000	24.377918
1830.000000	24.351182
1829.000000	24.304086
1828.000000	24.263747
1827.000000	24.242437
1826.000000	24.164229
1825.000000	24.111329
1824.000000	24.102534
1823.000000	24.058338
1822.000000	24.013701
1821.000000	23.963895
1820.000000	23.932631
1819.000000	23.874122
1818.000000	23.822931
1817.000000	23.788768
1816.000000	23.747703
1815.000000	23.721050
1814.000000	23.680934
1813.000000	23.645074
1812.000000	23.601676
1811.000000	23.555616
1810.000000	23.535817
1809.000000	23.513042
1808.000000	23.476231
1807.000000	23.442642
1806.000000	23.398777
1805.000000	23.369560
1804.000000	23.341209
1803.000000	23.301239
1802.000000	23.264308
1801.000000	23.243299
1800.000000	23.221084
1799.000000	23.181412
1798.000000	23.151425
1797.000000	23.139485
1796.000000	23.103641
1795.000000	23.081573
1794.000000	23.090620
1793.000000	23.065730
1792.000000	23.039185
1791.000000	23.025760
1790.000000	23.005584
1789.000000	22.985285
1788.000000	22.959934
1787.000000	22.925089
1786.000000	22.902806
1785.000000	22.887995
1784.000000	22.851320
1783.000000	22.842144
1782.000000	22.802632
1781.000000	22.757655
1780.000000	22.723578
1779.000000	22.675274
1778.000000	22.647243
1777.000000	22.601950
1776.000000	22.543150
1775.000000	22.488660
1774.000000	22.406341
1773.000000	22.363235
1772.000000	22.305354
1771.000000	22.251532
1770.000000	22.195397
1769.000000	22.129303
1768.000000	22.069117
1767.000000	22.003489
1766.000000	21.940648
1765.000000	21.890571
1764.000000	21.827756
1763.000000	21.774524
1762.000000	21.709959
1761.000000	21.654770
1760.000000	21.587281
1759.000000	21.547159
1758.000000	21.509021
1757.000000	21.432647
1756.000000	21.396365
1755.000000	21.356401
1754.000000	21.263245
1753.000000	21.222087
1752.000000	21.156318
1751.000000	21.101690
1750.000000	21.054340
1749.000000	20.995970
1748.000000	20.927987
1747.000000	20.865021
1746.000000	20.813461
1745.000000	20.750570
1744.000000	20.693414
1743.000000	20.631844
1742.000000	20.545667
1741.000000	20.507289
1740.000000	20.440457
1739.000000	20.389976
1738.000000	20.330827
1737.000000	20.283017
1736.000000	20.263491
1735.000000	20.233519
1734.000000	20.215585
1733.000000	20.183193
1732.000000	20.164862
1731.000000	20.195463
1730.000000	20.223000
1729.000000	20.222334
1728.000000	20.245207
1727.000000	20.271155
1726.000000	20.323217
1725.000000	20.391181
1724.000000	20.453822
1723.000000	20.522494
1722.000000	20.614507
1721.000000	20.695705
1720.000000	20.795515
1719.000000	20.888970
1718.000000	20.970767
1717.000000	21.044837
1716.000000	21.120430
1715.000000	21.206885
1714.000000	21.302854
1713.000000	21.384421
1712.000000	21.463945
1711.000000	21.535317
1710.000000	21.575517
1709.000000	21.635453
1708.000000	21.664875
1707.000000	21.735682
1706.000000	21.767275
1705.000000	21.791793
1704.000000	21.846888
1703.000000	21.891077
1702.000000	21.877124
1701.000000	21.901228
1700.000000	21.926735
1699.000000	21.935666
1698.000000	21.986501
1697.000000	22.009240
1696.000000	22.056532
1695.000000	22.076559
1694.000000	22.101162
1693.000000	22.197244
1692.000000	22.252707
1691.000000	22.289471
1690.000000	22.380831
1689.000000	22.474397
1688.000000	22.590404
1687.000000	22.704550
1686.000000	22.825517
1685.000000	22.928243
1684.000000	23.105306
1683.000000	23.250784
1682.000000	23.403407
1681.000000	23.571248
1680.000000	23.730973
1679.000000	23.911195
1678.000000	24.094353
1677.000000	24.262201
1676.000000	24.469449
1675.000000	24.644780
1674.000000	24.818836
1673.000000	25.007403
1672.000000	25.151343
1671.000000	25.347587
1670.000000	25.512293
1669.000000	25.715022
1668.000000	25.849956
1667.000000	25.979170
1666.000000	26.067695
1665.000000	26.182202
1664.000000	26.297765
1663.000000	26.393284
1662.000000	26.485232
1661.000000	26.562153
1660.000000	26.612982
1659.000000	26.685014
1658.000000	26.737619
1657.000000	26.794035
1656.000000	26.820738
1655.000000	26.856223
1654.000000	26.875899
1653.000000	26.911649
1652.000000	26.919883
1651.000000	26.933540
1650.000000	26.912340
1649.000000	26.941288
1648.000000	26.921735
1647.000000	26.932419
1646.000000	26.910497
1645.000000	26.881075
1644.000000	26.866404
1643.000000	26.824327
1642.000000	26.797240
1641.000000	26.750852
1640.000000	26.720068
1639.000000	26.706499
1638.000000	26.672737
1637.000000	26.651834
1636.000000	26.598291
1635.000000	26.546040
1634.000000	26.504385
1633.000000	26.461846
1632.000000	26.426404
1631.000000	26.379409
1630.000000	26.325974
1629.000000	26.273576
1628.000000	26.218614
1627.000000	26.168887
1626.000000	26.123722
1625.000000	26.082305
1624.000000	26.014752
1623.000000	25.968609
1622.000000	25.916358
1621.000000	25.861698
1620.000000	25.803792
1619.000000	25.741584
1618.000000	25.676607
1617.000000	25.615771
1616.000000	25.566108
1615.000000	25.512378
1614.000000	25.451151
1613.000000	25.387642
1612.000000	25.328407
1611.000000	25.265658
1610.000000	25.189096
1609.000000	25.126539
1608.000000	25.071475
1607.000000	25.006109
1606.000000	24.936974
1605.000000	24.866941
1604.000000	24.784813
1603.000000	24.719673
1602.000000	24.663251
1601.000000	24.592942
1600.000000	24.519970
1599.000000	24.460510
1598.000000	24.405261
1597.000000	24.335170
1596.000000	24.277829
1595.000000	24.218807
1594.000000	24.153753
1593.000000	24.100304
1592.000000	24.040197
1591.000000	23.974049
1590.000000	23.910284
1589.000000	23.854996
1588.000000	23.808123
1587.000000	23.755091
1586.000000	23.695820
1585.000000	23.643990
1584.000000	23.600193
1583.000000	23.555636
1582.000000	23.502671
1581.000000	23.452941
1580.000000	23.399479
1579.000000	23.344000
1578.000000	23.307781
1577.000000	23.259070
1576.000000	23.207552
1575.000000	23.157793
1574.000000	23.104563
1573.000000	23.058940
1572.000000	23.010353
1571.000000	22.945843
1570.000000	22.915391
1569.000000	22.884406
1568.000000	22.834345
1567.000000	22.779022
1566.000000	22.738678
1565.000000	22.709785
1564.000000	22.676443
1563.000000	22.643491
1562.000000	22.615726
1561.000000	22.580269
1560.000000	22.546394
1559.000000	22.495015
1558.000000	22.475035
1557.000000	22.462872
1556.000000	22.429025
1555.000000	22.390043
1554.000000	22.367961
1553.000000	22.332949
1552.000000	22.287589
1551.000000	22.261339
1550.000000	22.216727
1549.000000	22.165027
1548.000000	22.139042
1547.000000	22.073805
1546.000000	22.000933
1545.000000	21.931569
1544.000000	21.869957
1543.000000	21.806333
1542.000000	21.731214
1541.000000	21.641560
1540.000000	21.556925
1539.000000	21.472321
1538.000000	21.393322
1537.000000	21.306917
1536.000000	21.211231
1535.000000	21.125145
1534.000000	21.035920
1533.000000	20.957342
1532.000000	20.878979
1531.000000	20.800641
1530.000000	20.738556
1529.000000	20.710532
1528.000000	20.672972
1527.000000	20.624590
1526.000000	20.535724
1525.000000	20.438088
1524.000000	20.355907
1523.000000	20.298364
1522.000000	20.236012
1521.000000	20.213269
1520.000000	20.199351
1519.000000	20.124778
1518.000000	20.060242
1517.000000	20.003000
1516.000000	19.942780
1515.000000	19.918702
1514.000000	19.912739
1513.000000	19.869965
1512.000000	19.832143
1511.000000	19.788191
1510.000000	19.780013
1509.000000	19.773428
1508.000000	19.746868
1507.000000	19.717505
1506.000000	19.678120
1505.000000	19.651626
1504.000000	19.630639
1503.000000	19.610943
1502.000000	19.594155
1501.000000	19.595162
1500.000000	19.585898
1499.000000	19.595276
1498.000000	19.637987
1497.000000	19.618455
1496.000000	19.622501
1495.000000	19.636936
1494.000000	19.622998
1493.000000	19.639689
1492.000000	19.656813
1491.000000	19.702765
1490.000000	19.732052
1489.000000	19.747733
1488.000000	19.785869
1487.000000	19.839247
1486.000000	19.836945
1485.000000	19.867690
1484.000000	19.935987
1483.000000	19.979317
1482.000000	20.022363
1481.000000	20.068587
1480.000000	20.135038
1479.000000	20.189112
1478.000000	20.243933
1477.000000	20.303897
1476.000000	20.343699
1475.000000	20.399675
1474.000000	20.442048
1473.000000	20.471450
1472.000000	20.518708
1471.000000	20.574558
1470.000000	20.593376
1469.000000	20.637124
1468.000000	20.726158
1467.000000	20.761806
1466.000000	20.786219
1465.000000	20.817658
1464.000000	20.859779
1463.000000	20.922521
1462.000000	20.957710
1461.000000	20.988573
1460.000000	21.027247
1459.000000	21.059764
1458.000000	21.126572
1457.000000	21.199861
1456.000000	21.237849
1455.000000	21.265457
1454.000000	21.301042
1453.000000	21.392976
1452.000000	21.442230
1451.000000	21.496320
1450.000000	21.555659
1449.000000	21.601239
1448.000000	21.680039
1447.000000	21.770209
1446.000000	21.851610
1445.000000	21.908735
1444.000000	21.974018
1443.000000	22.029282
1442.000000	22.109389
1441.000000	22.179965
1440.000000	22.293712
1439.000000	22.379987
1438.000000	22.465068
1437.000000	22.544630
1436.000000	22.626596
1435.000000	22.727852
1434.000000	22.814533
1433.000000	22.930819
1432.000000	23.039020
1431.000000	23.139177
1430.000000	23.264947
1429.000000	23.404445
1428.000000	23.520546
1427.000000	23.650712
1426.000000	23.800191
1425.000000	23.942298
1424.000000	24.095444
1423.000000	24.232079
1422.000000	24.394423
1421.000000	24.571708
1420.000000	24.723740
1419.000000	24.882218
1418.000000	25.085088
1417.000000	25.275571
1416.000000	25.441949
1415.000000	25.627054
1414.000000	25.842829
1413.000000	26.056688
1412.000000	26.248753
1411.000000	26.442894
1410.000000	26.670497
1409.000000	26.876092
1408.000000	27.064053
1407.000000	27.274012
1406.000000	27.488084
1405.000000	27.697763
1404.000000	27.890498
1403.000000	28.081448
1402.000000	28.291547
1401.000000	28.508856
1400.000000	28.700921
1399.000000	28.891055
1398.000000	29.082357
1397.000000	29.264022
1396.000000	29.448514
1395.000000	29.628703
1394.000000	29.792362
1393.000000	29.961872
1392.000000	30.136680
1391.000000	30.300042
1390.000000	30.458065
1389.000000	30.610457
1388.000000	30.758466
1387.000000	30.898518
1386.000000	31.051112
1385.000000	31.212297
1384.000000	31.338169
1383.000000	31.435924
1382.000000	31.551900
1381.000000	31.684644
1380.000000	31.777153
1379.000000	31.864899
1378.000000	31.966773
1377.000000	32.042008
1376.000000	32.118979
1375.000000	32.209199
1374.000000	32.275197
1373.000000	32.327862
1372.000000	32.378289
1371.000000	32.432996
1370.000000	32.501214
1369.000000	32.567156
1368.000000	32.645083
1367.000000	32.732277
1366.000000	32.801283
1365.000000	32.860223
1364.000000	32.912721
1363.000000	32.974011
1362.000000	33.047607
1361.000000	33.103461
1360.000000	33.161849
1359.000000	33.222722
1358.000000	33.293044
1357.000000	33.378610
1356.000000	33.444371
1355.000000	33.514767
1354.000000	33.580641
1353.000000	33.642959
1352.000000	33.725388
1351.000000	33.795981
1350.000000	33.852545
1349.000000	33.920406
1348.000000	34.006780
1347.000000	34.093763
1346.000000	34.154855
1345.000000	34.196286
1344.000000	34.254347
1343.000000	34.331975
1342.000000	34.384002
1341.000000	34.427248
1340.000000	34.496883
1339.000000	34.571971
1338.000000	34.645835
1337.000000	34.704329
1336.000000	34.744071
1335.000000	34.778638
1334.000000	34.830646
1333.000000	34.871466
1332.000000	34.911860
1331.000000	34.961923
1330.000000	35.009525
1329.000000	35.032583
1328.000000	35.076403
1327.000000	35.118962
1326.000000	35.133508
1325.000000	35.153866
1324.000000	35.184516
1323.000000	35.218624
1322.000000	35.233533
1321.000000	35.252556
1320.000000	35.285361
1319.000000	35.290879
1318.000000	35.296584
1317.000000	35.350389
1316.000000	35.362834
1315.000000	35.372104
1314.000000	35.373919
1313.000000	35.388930
1312.000000	35.405101
1311.000000	35.436162
1310.000000	35.460760
1309.000000	35.468244
1308.000000	35.461900
1307.000000	35.465456
1306.000000	35.481974
1305.000000	35.501556
1304.000000	35.519680
1303.000000	35.525763
1302.000000	35.520410
1301.000000	35.530844
1300.000000	35.526768
1299.000000	35.525852
1298.000000	35.528331
1297.000000	35.558263
1296.000000	35.575453
1295.000000	35.569446
1294.000000	35.550917
1293.000000	35.532410
1292.000000	35.524780
1291.000000	35.492602
1290.000000	35.466065
1289.000000	35.453207
1288.000000	35.462979
1287.000000	35.447561
1286.000000	35.427905
1285.000000	35.448345
1284.000000	35.448474
1283.000000	35.437498
1282.000000	35.435978
1281.000000	35.390664
1280.000000	35.369881
1279.000000	35.368200
1278.000000	35.370810
1277.000000	35.376758
1276.000000	35.380257
1275.000000	35.371917
1274.000000	35.388382
1273.000000	35.394752
1272.000000	35.388235
1271.000000	35.395574
1270.000000	35.378223
1269.000000	35.399218
1268.000000	35.386450
1267.000000	35.374126
1266.000000	35.419902
1265.000000	35.421061
1264.000000	35.436835
1263.000000	35.445990
1262.000000	35.438056
1261.000000	35.446032
1260.000000	35.458128
1259.000000	35.469202
1258.000000	35.469798
1257.000000	35.472164
1256.000000	35.463706
1255.000000	35.451159
1254.000000	35.465869
1253.000000	35.461469
1252.000000	35.484206
1251.000000	35.503333
1250.000000	35.476362
1249.000000	35.472970
1248.000000	35.462379
1247.000000	35.454633
1246.000000	35.431449
1245.000000	35.420564
1244.000000	35.360611
1243.000000	35.334502
1242.000000	35.304360
1241.000000	35.300801
1240.000000	35.285319
1239.000000	35.264300
1238.000000	35.200768
1237.000000	35.177254
1236.000000	35.153272
1235.000000	35.080188
1234.000000	35.044245
1233.000000	35.027493
1232.000000	35.006106
1231.000000	34.952535
1230.000000	34.916931
1229.000000	34.896175
1228.000000	34.874384
1227.000000	34.844119
1226.000000	34.816856
1225.000000	34.755753
1224.000000	34.722983
1223.000000	34.691365
1222.000000	34.675619
1221.000000	34.641777
1220.000000	34.602591
1219.000000	34.560258
1218.000000	34.529248
1217.000000	34.499844
1216.000000	34.467734
1215.000000	34.417295
1214.000000	34.392688
1213.000000	34.364289
1212.000000	34.329388
1211.000000	34.264210
1210.000000	34.227863
1209.000000	34.212637
1208.000000	34.141096
1207.000000	34.104980
1206.000000	34.066574
1205.000000	34.005883
1204.000000	33.948473
1203.000000	33.921858
1202.000000	33.884141
1201.000000	33.812115
1200.000000	33.779999
1199.000000	33.757023
1198.000000	33.695019
1197.000000	33.647733
1196.000000	33.597054
1195.000000	33.553453
1194.000000	33.533655
1193.000000	33.531693
1192.000000	33.514776
1191.000000	33.481075
1190.000000	33.424881
1189.000000	33.360053
1188.000000	33.353982
1187.000000	33.370745
1186.000000	33.360585
1185.000000	33.360180
1184.000000	33.365405
1183.000000	33.376388
1182.000000	33.401951
1181.000000	33.434510
1180.000000	33.473763
1179.000000	33.502224
1178.000000	33.547299
1177.000000	33.595736
1176.000000	33.647375
1175.000000	33.703909
1174.000000	33.766799
1173.000000	33.834735
1172.000000	33.901000
1171.000000	33.981124
1170.000000	34.063657
1169.000000	34.130776
1168.000000	34.209179
1167.000000	34.304105
1166.000000	34.397752
1165.000000	34.482565
1164.000000	34.569817
1163.000000	34.661695
1162.000000	34.743619
1161.000000	34.828107
1160.000000	34.932540
1159.000000	35.033852
1158.000000	35.114527
1157.000000	35.196531
1156.000000	35.259126
1155.000000	35.307773
1154.000000	35.379984
1153.000000	35.454455
1152.000000	35.530118
1151.000000	35.610538
1150.000000	35.689303
1149.000000	35.757119
1148.000000	35.809994
1147.000000	35.863581
1146.000000	35.915481
1145.000000	35.966696
1144.000000	36.021055
1143.000000	36.077504
1142.000000	36.133140
1141.000000	36.187063
1140.000000	36.244518
1139.000000	36.294848
1138.000000	36.327157
1137.000000	36.359306
1136.000000	36.415071
1135.000000	36.470942
1134.000000	36.519405
1133.000000	36.573586
1132.000000	36.616266
1131.000000	36.662823
1130.000000	36.704905
1129.000000	36.744574
1128.000000	36.772651
1127.000000	36.797504
1126.000000	36.832412
1125.000000	36.849637
1124.000000	36.845544
1123.000000	36.842447
1122.000000	36.873150
1121.000000	36.894800
1120.000000	36.904184
1119.000000	36.916159
1118.000000	36.935267
1117.000000	36.939424
1116.000000	36.948294
1115.000000	36.946151
1114.000000	36.959189
1113.000000	36.958077
1112.000000	36.950010
1111.000000	36.956476
1110.000000	36.967550
1109.000000	36.967529
1108.000000	36.985097
1107.000000	36.991564
1106.000000	36.988722
1105.000000	36.990398
1104.000000	36.992435
1103.000000	36.978999
1102.000000	36.974823
1101.000000	36.975757
1100.000000	36.955385
1099.000000	36.955341
1098.000000	36.964932
1097.000000	36.963924
1096.000000	36.963917
1095.000000	36.977751
1094.000000	36.971552
1093.000000	36.973850
1092.000000	36.940861
1091.000000	36.918204
1090.000000	36.932585
1089.000000	36.952022
1088.000000	36.943236
1087.000000	36.938363
1086.000000	36.921849
1085.000000	36.897260
1084.000000	36.901545
1083.000000	36.901627
1082.000000	36.905571
1081.000000	36.904437
1080.000000	36.909303
1079.000000	36.893612
1078.000000	36.852801
1077.000000	36.845109
1076.000000	36.845088
1075.000000	36.841635
1074.000000	36.827032
1073.000000	36.818354
1072.000000	36.813543
1071.000000	36.779727
1070.000000	36.771117
1069.000000	36.761272
1068.000000	36.756471
1067.000000	36.764240
1066.000000	36.760224
1065.000000	36.731717
1064.000000	36.727158
1063.000000	36.677036
1062.000000	36.690900
1061.000000	36.682800
1060.000000	36.677823
1059.000000	36.667972
1058.000000	36.647472
1057.000000	36.617243
1056.000000	36.603650
1055.000000	36.588901
1054.000000	36.600348
1053.000000	36.579570
1052.000000	36.582363
1051.000000	36.538856
1050.000000	36.532675
1049.000000	36.536279
1048.000000	36.508175
1047.000000	36.512113
1046.000000	36.479883
1045.000000	36.462226
1044.000000	36.474555
1043.000000	36.452635
1042.000000	36.441264
1041.000000	36.426573
1040.000000	36.429330
1039.000000	36.436800
1038.000000	36.435193
1037.000000	36.416279
1036.000000	36.400572
1035.000000	36.398820
1034.000000	36.393487
1033.000000	36.356882
1032.000000	36.356009
1031.000000	36.354572
1030.000000	36.359905
1029.000000	36.331068
1028.000000	36.344090
1027.000000	36.347671
1026.000000	36.348379
1025.000000	36.323316
1024.000000	36.336360
1023.000000	36.330647
1022.000000	36.303740
1021.000000	36.310361
1020.000000	36.317411
1019.000000	36.322769
1018.000000	36.308843
1017.000000	36.324551
1016.000000	36.326813
1015.000000	36.321364
1014.000000	36.337362
1013.000000	36.333305
1012.000000	36.355672
1011.000000	36.325638
1010.000000	36.342649
1009.000000	36.323719
1008.000000	36.341557
1007.000000	36.358255
1006.000000	36.378755
1005.000000	36.367703
1004.000000	36.373638
1003.000000	36.366408
1002.000000	36.380399
1001.000000	36.390550
1000.000000	36.394863
999.000000	36.372927
998.000000	36.369876
997.000000	36.389746
996.000000	36.417004
995.000000	36.414785
994.000000	36.402162
993.000000	36.397858
992.000000	36.421262
991.000000	36.448272
990.000000	36.455958
989.000000	36.431371
988.000000	36.420876
987.000000	36.434109
986.000000	36.429733
985.000000	36.449452
984.000000	36.477742
983.000000	36.487666
982.000000	36.498390
981.000000	36.515600
980.000000	36.533351
979.000000	36.542831
978.000000	36.554700
977.000000	36.579631
976.000000	36.586226
975.000000	36.597907
974.000000	36.606209
973.000000	36.618803
972.000000	36.633654
971.000000	36.634652
970.000000	36.636224
969.000000	36.630769
968.000000	36.650929
967.000000	36.660499
966.000000	36.669743
965.000000	36.685165
964.000000	36.703770
963.000000	36.707716
962.000000	36.712598
961.000000	36.725317
960.000000	36.724330
959.000000	36.720892
958.000000	36.713129
957.000000	36.722126
956.000000	36.742909
955.000000	36.742847
954.000000	36.742901
953.000000	36.757835
952.000000	36.768809
951.000000	36.770968
950.000000	36.779930
949.000000	36.775342
948.000000	36.766754
947.000000	36.776829
946.000000	36.790811
945.000000	36.783090
944.000000	36.795394
943.000000	36.789133
942.000000	36.769605
941.000000	36.777283
940.000000	36.781472
939.000000	36.770257
938.000000	36.759136
937.000000	36.774540
936.000000	36.794578
935.000000	36.797844
934.000000	36.786974
933.000000	36.784920
932.000000	36.763830
931.000000	36.735986
930.000000	36.728201
929.000000	36.725575
928.000000	36.720391
927.000000	36.714539
926.000000	36.711792
925.000000	36.702851
924.000000	36.698467
923.000000	36.711284
922.000000	36.690880
921.000000	36.663733
920.000000	36.670514
919.000000	36.672012
918.000000	36.661504
917.000000	36.653551
916.000000	36.656849
915.000000	36.646556
914.000000	36.653986
913.000000	36.637572
912.000000	36.615074
911.000000	36.615341
910.000000	36.620715
909.000000	36.612638
908.000000	36.614244
907.000000	36.613364
906.000000	36.629382
905.000000	36.634556
904.000000	36.621011
903.000000	36.622062
902.000000	36.630728
901.000000	36.624260
900.000000	36.603028
899.000000	36.639377
898.000000	36.680930
897.000000	36.669927
896.000000	36.628987
895.000000	36.641847
894.000000	36.670423
893.000000	36.651563
892.000000	36.646872
891.000000	36.681624
890.000000	36.693344
889.000000	36.706326
888.000000	36.718665
887.000000	36.712971
886.000000	36.686749
885.000000	36.687513
884.000000	36.673305
883.000000	36.705061
882.000000	36.683676
881.000000	36.653202
880.000000	36.642336
879.000000	36.709403
878.000000	36.728281
877.000000	36.728437
876.000000	36.650819
875.000000	36.721900
874.000000	36.717161
873.000000	36.746580
872.000000	36.693405
871.000000	36.678593
870.000000	36.629065
869.000000	36.657925
868.000000	36.720017
867.000000	36.671612
866.000000	36.700147
865.000000	36.555024
864.000000	36.607210
863.000000	36.598638
862.000000	36.581688
861.000000	36.679679
860.000000	36.671457
859.000000	36.432795
858.000000	36.514992
857.000000	36.478395
856.000000	36.309405
855.000000	36.401814
854.000000	36.318736
853.000000	36.390736
852.000000	36.424874
851.000000	36.349465
850.000000	36.333314
849.000000	36.179527
848.000000	36.297714
847.000000	36.319170
846.000000	36.380133
845.000000	36.346586
844.000000	36.290472
843.000000	36.226213
842.000000	36.355149
841.000000	36.287979
840.000000	36.292680
839.000000	36.241679
838.000000	36.183248
837.000000	36.192292
836.000000	36.254811
835.000000	36.105258
834.000000	36.156827
833.000000	36.089354
832.000000	36.116372
831.000000	36.048058
830.000000	36.193358
829.000000	36.065882
828.000000	36.075308
827.000000	36.064566
826.000000	35.998093
825.000000	36.026389
824.000000	36.020297
823.000000	36.074832
822.000000	36.019408
821.000000	36.059926
820.000000	36.017640
819.000000	36.108096
818.000000	35.982758
817.000000	35.918091
816.000000	36.043605
815.000000	35.846044
814.000000	35.868475
813.000000	35.857567
812.000000	35.887175
811.000000	35.810464
810.000000	35.889308
809.000000	35.889398
808.000000	35.867725
807.000000	35.784865
806.000000	35.780681
805.000000	35.792395
804.000000	35.741154
803.000000	35.768477
802.000000	35.790563
801.000000	35.771859
800.000000	35.785858
799.000000	35.760394
798.000000	35.727259
797.000000	35.713098
796.000000	35.704160
795.000000	35.648189
794.000000	35.592345
793.000000	35.657264
792.000000	35.691022
791.000000	35.615332
790.000000	35.585564
789.000000	35.556849
788.000000	35.534042
787.000000	35.535820
786.000000	35.595453
785.000000	35.554620
784.000000	35.513204
783.000000	35.556487
782.000000	35.508568
781.000000	35.520593
780.000000	35.491526
779.000000	35.483122
778.000000	35.498599
777.000000	35.433879
776.000000	35.429601
775.000000	35.431741
774.000000	35.378072
773.000000	35.339941
772.000000	35.314545
771.000000	35.315840
770.000000	35.334598
769.000000	35.279697
768.000000	35.287637
767.000000	35.313015
766.000000	35.261226
765.000000	35.288578
764.000000	35.278140
763.000000	35.211997
762.000000	35.198522
761.000000	35.195753
760.000000	35.134356
759.000000	35.075294
758.000000	35.089294
757.000000	35.108427
756.000000	35.087014
755.000000	35.064385
754.000000	35.061931
753.000000	35.051836
752.000000	35.001095
751.000000	34.978468
750.000000	34.968340
749.000000	34.987233
748.000000	34.984399
747.000000	34.928114
746.000000	34.891548
745.000000	34.860579
744.000000	34.871903
743.000000	34.817571
742.000000	34.763808
741.000000	34.814639
740.000000	34.793296
739.000000	34.813298
738.000000	34.791632
737.000000	34.727029
736.000000	34.725231
735.000000	34.662410
734.000000	34.678375
733.000000	34.647934
732.000000	34.621777
731.000000	34.635223
730.000000	34.621582
729.000000	34.600274
728.000000	34.591719
727.000000	34.574487
726.000000	34.529397
725.000000	34.499914
724.000000	34.492561
723.000000	34.471510
722.000000	34.454438
721.000000	34.431134
720.000000	34.368055
719.000000	34.379553
718.000000	34.367244
717.000000	34.309975
716.000000	34.314762
715.000000	34.281939
714.000000	34.242747
713.000000	34.220053
712.000000	34.209867
711.000000	34.189976
710.000000	34.150735
709.000000	34.116489
708.000000	34.092495
707.000000	34.089462
706.000000	34.036856
705.000000	34.002104
704.000000	33.998308
703.000000	33.995753
702.000000	33.990572
701.000000	33.942559
700.000000	33.895465
699.000000	33.889373
698.000000	33.855353
697.000000	33.817163
696.000000	33.795399
695.000000	33.752955
694.000000	33.758585
693.000000	33.721107
692.000000	33.668120
691.000000	33.624469
690.000000	33.592811
689.000000	33.572888
688.000000	33.533717
687.000000	33.515154
686.000000	33.461141
685.000000	33.410053
684.000000	33.363347
683.000000	33.362368
682.000000	33.336427
681.000000	33.318531
680.000000	33.277768
679.000000	33.243547
678.000000	33.241477
677.000000	33.196454
676.000000	33.152170
675.000000	33.133541
674.000000	33.104289
673.000000	33.062853
672.000000	33.031926
671.000000	33.002112
670.000000	32.912882
669.000000	32.886791
668.000000	32.889434
667.000000	32.863524
666.000000	32.804261
665.000000	32.814901
664.000000	32.754233
663.000000	32.718176
662.000000	32.700412
661.000000	32.686642
660.000000	32.653601
659.000000	32.598040
658.000000	32.556049
657.000000	32.540684
656.000000	32.470045
655.000000	32.498284
654.000000	32.443002
653.000000	32.394676
652.000000	32.360505
651.000000	32.305215
650.000000	32.274547
649.000000	32.227682
648.000000	32.164124
647.000000	32.181622
646.000000	32.151229
645.000000	32.120956
644.000000	32.073680
643.000000	32.048852
642.000000	31.993075
641.000000	31.967388
640.000000	31.933707
639.000000	31.915250
638.000000	31.882427
637.000000	31.847167
636.000000	31.796901
635.000000	31.749147
634.000000	31.673105
633.000000	31.670318
632.000000	31.627623
631.000000	31.586965
630.000000	31.530400
629.000000	31.507602
628.000000	31.471864
627.000000	31.467733
626.000000	31.379521
625.000000	31.336085
624.000000	31.323417
623.000000	31.259796
622.000000	31.227541
621.000000	31.197138
620.000000	31.142005
619.000000	31.080147
618.000000	31.085177
617.000000	31.053340
616.000000	30.936170
615.000000	30.914706
614.000000	30.840513
613.000000	30.873213
612.000000	30.812876
611.000000	30.764429
610.000000	30.712130
609.000000	30.683097
608.000000	30.639824
607.000000	30.597595
606.000000	30.551517
605.000000	30.483114
604.000000	30.453491
603.000000	30.422825
602.000000	30.346667
601.000000	30.329030
600.000000	30.275041
599.000000	30.252672
598.000000	30.158932
597.000000	30.111087
596.000000	30.074629
595.000000	30.041623
594.000000	29.992324
593.000000	29.950615
592.000000	29.902065
591.000000	29.822213
590.000000	29.809726
589.000000	29.765890
588.000000	29.708517
587.000000	29.638681
586.000000	29.620925
585.000000	29.561310
584.000000	29.471752
583.000000	29.442232
582.000000	29.430996
581.000000	29.390055
580.000000	29.312201
579.000000	29.225255
578.000000	29.194652
577.000000	29.160790
576.000000	29.094286
575.000000	29.081280
574.000000	28.987060
573.000000	28.939457
572.000000	28.886710
571.000000	28.850619
570.000000	28.803539
569.000000	28.748568
568.000000	28.687358
567.000000	28.628871
566.000000	28.547912
565.000000	28.507673
564.000000	28.455495
563.000000	28.377202
562.000000	28.330220
561.000000	28.296196
560.000000	28.233448
559.000000	28.195076
558.000000	28.159354
557.000000	28.061327
556.000000	28.018271
555.000000	27.958775
554.000000	27.897553
553.000000	27.835228
552.000000	27.766722
551.000000	27.727366
550.000000	27.662438
549.000000	27.619520
548.000000	27.567242
547.000000	27.509778
546.000000	27.418201
545.000000	27.372313
544.000000	27.303851
543.000000	27.225963
542.000000	27.157980
541.000000	27.063183
540.000000	27.045418
539.000000	26.978712
538.000000	26.889813
537.000000	26.816595
536.000000	26.775211
535.000000	26.686516
534.000000	26.631958
533.000000	26.578345
532.000000	26.513767
531.000000	26.442801
530.000000	26.352566
529.000000	26.283748
528.000000	26.193221
527.000000	26.127991
526.000000	26.099326
525.000000	26.024848
524.000000	25.925625
523.000000	25.873260
522.000000	25.790497
521.000000	25.722358
520.000000	25.625527
519.000000	25.560492
518.000000	25.491339
517.000000	25.426926
516.000000	25.318927
515.000000	25.253009
514.000000	25.214276
513.000000	25.118587
512.000000	25.026521
511.000000	24.960425
510.000000	24.869422
509.000000	24.783577
508.000000	24.692067
507.000000	24.602535
506.000000	24.519981
505.000000	24.460213
504.000000	24.367096
503.000000	24.300123
502.000000	24.189554
501.000000	24.109758
500.000000	23.997930
499.000000	23.899276
498.000000	23.816797
497.000000	23.723350
496.000000	23.638281
495.000000	23.538408
494.000000	23.437168
493.000000	23.359640
492.000000	23.280986
491.000000	23.167528
490.000000	23.060384
489.000000	22.977303
488.000000	22.885427
487.000000	22.797645
486.000000	22.677387
485.000000	22.565328
484.000000	22.450774
483.000000	22.364741
482.000000	22.288650
481.000000	22.186129
480.000000	22.102205
479.000000	21.989860
478.000000	21.872174
477.000000	21.768323
476.000000	21.639882
475.000000	21.518095
474.000000	21.415107
473.000000	21.301657
472.000000	21.181256
471.000000	21.073795
470.000000	20.969833
469.000000	20.838300
468.000000	20.716755
467.000000	20.605769
466.000000	20.483871
465.000000	20.366511
464.000000	20.244562
463.000000	20.117818
462.000000	20.003930
461.000000	19.879594
460.000000	19.768781
459.000000	19.647833
458.000000	19.501600
457.000000	19.379172
456.000000	19.258190
455.000000	19.157083
454.000000	19.035363
453.000000	18.878208
452.000000	18.725609
451.000000	18.591937
450.000000	18.452113
449.000000	18.323119
448.000000	18.206107
447.000000	18.069412
446.000000	17.942076
445.000000	17.795276
444.000000	17.672502
443.000000	17.527777
442.000000	17.380734
441.000000	17.250514
440.000000	17.101239
439.000000	16.952604
438.000000	16.810687
437.000000	16.651912
436.000000	16.511410
435.000000	16.385792
434.000000	16.244758
433.000000	16.104239
432.000000	15.947434
431.000000	15.810904
430.000000	15.664841
429.000000	15.497877
428.000000	15.355080
427.000000	15.197123
426.000000	15.050323
425.000000	14.899073
424.000000	14.755417
423.000000	14.618528
422.000000	14.469866
421.000000	14.318029
420.000000	14.169011
419.000000	14.020606
418.000000	13.895945
417.000000	13.761464
416.000000	13.622873
415.000000	13.491479
414.000000	13.378735
413.000000	13.266690
412.000000	13.143876
411.000000	13.034278
410.000000	12.926073
409.000000	12.835878
408.000000	12.729200
407.000000	12.631123
406.000000	12.525752
405.000000	12.430160
404.000000	12.318207
403.000000	12.224468
402.000000	12.131216
401.000000	12.026284
400.000000	11.893188
399.000000	11.797450
398.000000	11.684345
397.000000	11.596664
396.000000	11.483012
395.000000	11.374136
394.000000	11.259846
393.000000	11.140468
392.000000	11.031542
391.000000	10.886476
390.000000	10.780338
389.000000	10.645106
388.000000	10.519038
387.000000	10.407656
386.000000	10.251340
385.000000	10.139850
384.000000	10.018105
383.000000	9.890507
382.000000	9.774042
381.000000	9.609067
380.000000	9.492506
379.000000	9.377509
378.000000	9.223003
377.000000	9.126990
376.000000	8.969293
375.000000	8.898447
374.000000	8.755724
373.000000	8.639273
372.000000	8.490419
371.000000	8.351702
370.000000	8.245835
369.000000	8.158857
368.000000	8.015477
367.000000	7.947263
366.000000	7.809130
365.000000	7.690117
364.000000	7.583410
363.000000	7.450461
362.000000	7.387359
361.000000	7.266643
360.000000	7.140843
359.000000	7.036094
358.000000	6.925402
357.000000	6.868192
356.000000	6.724535
355.000000	6.633728
354.000000	6.522551
353.000000	6.418408
352.000000	6.337063
351.000000	6.217057
350.000000	6.119205
349.000000	6.055140
348.000000	5.938655
347.000000	5.842062
346.000000	5.734051
345.000000	5.641031
344.000000	5.544294
343.000000	5.432735
342.000000	5.333937
341.000000	5.254128
340.000000	5.147490
339.000000	5.047634
338.000000	4.974978
337.000000	4.803291
336.000000	4.818290
335.000000	4.666221
334.000000	4.571918
333.000000	4.452320
332.000000	4.430507
331.000000	4.306302
330.000000	4.248846
329.000000	4.154443
328.000000	4.012882
327.000000	3.988644
326.000000	3.907357
325.000000	3.854123
324.000000	3.761974
323.000000	3.681564
322.000000	3.552051
321.000000	3.464175
320.000000	3.433731
319.000000	3.350942
318.000000	3.289622
317.000000	3.242824
316.000000	3.151778
315.000000	3.075000
314.000000	3.011737
313.000000	2.946226
312.000000	2.882087
311.000000	2.819262
310.000000	2.748247
309.000000	2.658194
308.000000	2.585401
307.000000	2.481239
306.000000	2.408174
305.000000	2.316388
304.000000	2.237069
303.000000	2.142441
302.000000	2.060186
301.000000	1.969180
300.000000	1.876377
299.000000	1.794494
298.000000	1.746420
297.000000	1.674442
296.000000	1.604276
295.000000	1.543991
294.000000	1.481866
293.000000	1.421579
292.000000	1.332657
291.000000	1.298229
290.000000	1.225998
289.000000	1.177439
288.000000	1.154906
287.000000	1.121761
286.000000	1.118260
285.000000	1.107328
284.000000	1.121447
283.000000	1.124401
282.000000	1.140056
281.000000	1.147482
280.000000	1.165041
279.000000	1.196641
278.000000	1.199717
277.000000	1.244941
276.000000	1.265734
275.000000	1.284588
274.000000	1.336930
273.000000	1.386273
272.000000	1.417807
271.000000	1.466834
270.000000	1.487661
269.000000	1.519976
268.000000	1.546430
267.000000	1.583432
266.000000	1.627006
265.000000	1.677605
264.000000	1.702013
263.000000	1.749725
262.000000	1.813104
261.000000	1.851157
260.000000	1.876629
259.000000	1.921960
258.000000	1.937948
257.000000	1.980495
256.000000	2.018982
255.000000	2.040359
254.000000	2.033377
253.000000	2.028053
252.000000	1.982931
251.000000	1.950354
250.000000	1.918828
249.000000	1.842449
248.000000	1.746895
247.000000	1.636569
246.000000	1.510609
245.000000	1.376963
244.000000	1.257679
243.000000	1.135965
242.000000	1.024400
241.000000	0.914005
240.000000	0.816790
239.000000	0.755744
238.000000	0.683901
237.000000	0.628793
236.000000	0.592242
235.000000	0.560099
234.000000	0.536484
233.000000	0.502786
232.000000	0.454588
231.000000	0.407158
230.000000	0.371272
229.000000	0.348598
228.000000	0.323733
227.000000	0.299596
226.000000	0.266516
225.000000	0.243554
224.000000	0.222476
223.000000	0.197773
222.000000	0.182448
221.000000	0.175272
220.000000	0.167160
219.000000	0.155560
218.000000	0.151467
217.000000	0.145975
216.000000	0.138461
215.000000	0.111149
214.000000	0.093093
213.000000	0.101345
212.000000	0.106323
211.000000	0.087976
210.000000	0.090429
209.000000	0.101764
208.000000	0.095791
207.000000	0.104223
206.000000	0.115260
205.000000	0.112801
204.000000	0.106313
203.000000	0.131121
202.000000	0.189222
201.000000	0.194514
200.000000	0.132052
