PE IR       SUBTECH     SPECTRUM    ASCII       PEDS        4.00        
   -1
3G-N10-C023_1.ASC
22/02/24
09:57:43.00
22/02/24
10:18:11.00
uco
Sample 023 By uco Date Thursday, February 24 2022
450.000000
#HDR
-1
-1
#GR
cm-1
A
1.0
0.0
4000.000000
-1.000000
3551
8
0.019833
0.001729
#DATA
4000.000000	0.002234
3999.000000	0.002242
3998.000000	0.002248
3997.000000	0.002246
3996.000000	0.002236
3995.000000	0.002225
3994.000000	0.002222
3993.000000	0.002232
3992.000000	0.002252
3991.000000	0.002270
3990.000000	0.002275
3989.000000	0.002264
3988.000000	0.002248
3987.000000	0.002239
3986.000000	0.002243
3985.000000	0.002255
3984.000000	0.002265
3983.000000	0.002271
3982.000000	0.002278
3981.000000	0.002293
3980.000000	0.002312
3979.000000	0.002327
3978.000000	0.002329
3977.000000	0.002316
3976.000000	0.002294
3975.000000	0.002270
3974.000000	0.002247
3973.000000	0.002228
3972.000000	0.002209
3971.000000	0.002196
3970.000000	0.002193
3969.000000	0.002211
3968.000000	0.002251
3967.000000	0.002300
3966.000000	0.002341
3965.000000	0.002361
3964.000000	0.002358
3963.000000	0.002343
3962.000000	0.002326
3961.000000	0.002312
3960.000000	0.002301
3959.000000	0.002289
3958.000000	0.002277
3957.000000	0.002271
3956.000000	0.002273
3955.000000	0.002284
3954.000000	0.002294
3953.000000	0.002296
3952.000000	0.002289
3951.000000	0.002283
3950.000000	0.002289
3949.000000	0.002304
3948.000000	0.002318
3947.000000	0.002316
3946.000000	0.002293
3945.000000	0.002260
3944.000000	0.002236
3943.000000	0.002242
3942.000000	0.002278
3941.000000	0.002329
3940.000000	0.002369
3939.000000	0.002384
3938.000000	0.002373
3937.000000	0.002344
3936.000000	0.002307
3935.000000	0.002274
3934.000000	0.002253
3933.000000	0.002249
3932.000000	0.002264
3931.000000	0.002290
3930.000000	0.002317
3929.000000	0.002336
3928.000000	0.002344
3927.000000	0.002344
3926.000000	0.002341
3925.000000	0.002335
3924.000000	0.002325
3923.000000	0.002311
3922.000000	0.002297
3921.000000	0.002288
3920.000000	0.002282
3919.000000	0.002282
3918.000000	0.002287
3917.000000	0.002299
3916.000000	0.002310
3915.000000	0.002315
3914.000000	0.002312
3913.000000	0.002303
3912.000000	0.002295
3911.000000	0.002289
3910.000000	0.002287
3909.000000	0.002287
3908.000000	0.002290
3907.000000	0.002292
3906.000000	0.002288
3905.000000	0.002284
3904.000000	0.002291
3903.000000	0.002315
3902.000000	0.002355
3901.000000	0.002397
3900.000000	0.002429
3899.000000	0.002444
3898.000000	0.002444
3897.000000	0.002434
3896.000000	0.002416
3895.000000	0.002395
3894.000000	0.002378
3893.000000	0.002375
3892.000000	0.002391
3891.000000	0.002415
3890.000000	0.002430
3889.000000	0.002430
3888.000000	0.002417
3887.000000	0.002395
3886.000000	0.002364
3885.000000	0.002330
3884.000000	0.002297
3883.000000	0.002276
3882.000000	0.002279
3881.000000	0.002312
3880.000000	0.002362
3879.000000	0.002403
3878.000000	0.002416
3877.000000	0.002397
3876.000000	0.002359
3875.000000	0.002327
3874.000000	0.002320
3873.000000	0.002339
3872.000000	0.002365
3871.000000	0.002386
3870.000000	0.002404
3869.000000	0.002424
3868.000000	0.002442
3867.000000	0.002453
3866.000000	0.002450
3865.000000	0.002437
3864.000000	0.002419
3863.000000	0.002398
3862.000000	0.002376
3861.000000	0.002353
3860.000000	0.002333
3859.000000	0.002321
3858.000000	0.002320
3857.000000	0.002330
3856.000000	0.002343
3855.000000	0.002355
3854.000000	0.002371
3853.000000	0.002395
3852.000000	0.002417
3851.000000	0.002435
3850.000000	0.002451
3849.000000	0.002463
3848.000000	0.002468
3847.000000	0.002465
3846.000000	0.002459
3845.000000	0.002456
3844.000000	0.002451
3843.000000	0.002439
3842.000000	0.002420
3841.000000	0.002399
3840.000000	0.002389
3839.000000	0.002393
3838.000000	0.002401
3837.000000	0.002397
3836.000000	0.002380
3835.000000	0.002358
3834.000000	0.002345
3833.000000	0.002346
3832.000000	0.002359
3831.000000	0.002378
3830.000000	0.002394
3829.000000	0.002402
3828.000000	0.002403
3827.000000	0.002400
3826.000000	0.002396
3825.000000	0.002395
3824.000000	0.002397
3823.000000	0.002401
3822.000000	0.002409
3821.000000	0.002423
3820.000000	0.002433
3819.000000	0.002429
3818.000000	0.002414
3817.000000	0.002395
3816.000000	0.002378
3815.000000	0.002366
3814.000000	0.002363
3813.000000	0.002370
3812.000000	0.002390
3811.000000	0.002415
3810.000000	0.002437
3809.000000	0.002449
3808.000000	0.002451
3807.000000	0.002448
3806.000000	0.002445
3805.000000	0.002440
3804.000000	0.002429
3803.000000	0.002408
3802.000000	0.002382
3801.000000	0.002358
3800.000000	0.002342
3799.000000	0.002339
3798.000000	0.002348
3797.000000	0.002363
3796.000000	0.002376
3795.000000	0.002384
3794.000000	0.002388
3793.000000	0.002389
3792.000000	0.002385
3791.000000	0.002373
3790.000000	0.002356
3789.000000	0.002341
3788.000000	0.002330
3787.000000	0.002326
3786.000000	0.002325
3785.000000	0.002328
3784.000000	0.002339
3783.000000	0.002361
3782.000000	0.002396
3781.000000	0.002436
3780.000000	0.002464
3779.000000	0.002468
3778.000000	0.002445
3777.000000	0.002404
3776.000000	0.002359
3775.000000	0.002321
3774.000000	0.002295
3773.000000	0.002283
3772.000000	0.002283
3771.000000	0.002290
3770.000000	0.002301
3769.000000	0.002311
3768.000000	0.002316
3767.000000	0.002310
3766.000000	0.002296
3765.000000	0.002276
3764.000000	0.002256
3763.000000	0.002244
3762.000000	0.002242
3761.000000	0.002250
3760.000000	0.002265
3759.000000	0.002287
3758.000000	0.002312
3757.000000	0.002338
3756.000000	0.002358
3755.000000	0.002365
3754.000000	0.002361
3753.000000	0.002357
3752.000000	0.002371
3751.000000	0.002407
3750.000000	0.002446
3749.000000	0.002465
3748.000000	0.002460
3747.000000	0.002441
3746.000000	0.002423
3745.000000	0.002416
3744.000000	0.002408
3743.000000	0.002379
3742.000000	0.002333
3741.000000	0.002291
3740.000000	0.002268
3739.000000	0.002260
3738.000000	0.002255
3737.000000	0.002243
3736.000000	0.002229
3735.000000	0.002219
3734.000000	0.002214
3733.000000	0.002217
3732.000000	0.002231
3731.000000	0.002250
3730.000000	0.002262
3729.000000	0.002259
3728.000000	0.002243
3727.000000	0.002223
3726.000000	0.002213
3725.000000	0.002219
3724.000000	0.002236
3723.000000	0.002258
3722.000000	0.002277
3721.000000	0.002290
3720.000000	0.002299
3719.000000	0.002307
3718.000000	0.002311
3717.000000	0.002306
3716.000000	0.002288
3715.000000	0.002259
3714.000000	0.002234
3713.000000	0.002236
3712.000000	0.002274
3711.000000	0.002326
3710.000000	0.002358
3709.000000	0.002356
3708.000000	0.002334
3707.000000	0.002311
3706.000000	0.002298
3705.000000	0.002289
3704.000000	0.002280
3703.000000	0.002267
3702.000000	0.002251
3701.000000	0.002232
3700.000000	0.002212
3699.000000	0.002200
3698.000000	0.002203
3697.000000	0.002222
3696.000000	0.002246
3695.000000	0.002266
3694.000000	0.002275
3693.000000	0.002272
3692.000000	0.002261
3691.000000	0.002250
3690.000000	0.002250
3689.000000	0.002259
3688.000000	0.002269
3687.000000	0.002274
3686.000000	0.002276
3685.000000	0.002277
3684.000000	0.002280
3683.000000	0.002285
3682.000000	0.002292
3681.000000	0.002303
3680.000000	0.002319
3679.000000	0.002342
3678.000000	0.002363
3677.000000	0.002374
3676.000000	0.002379
3675.000000	0.002385
3674.000000	0.002392
3673.000000	0.002397
3672.000000	0.002398
3671.000000	0.002397
3670.000000	0.002399
3669.000000	0.002399
3668.000000	0.002390
3667.000000	0.002379
3666.000000	0.002371
3665.000000	0.002370
3664.000000	0.002365
3663.000000	0.002348
3662.000000	0.002321
3661.000000	0.002296
3660.000000	0.002280
3659.000000	0.002275
3658.000000	0.002279
3657.000000	0.002298
3656.000000	0.002336
3655.000000	0.002388
3654.000000	0.002448
3653.000000	0.002505
3652.000000	0.002537
3651.000000	0.002525
3650.000000	0.002476
3649.000000	0.002425
3648.000000	0.002401
3647.000000	0.002406
3646.000000	0.002421
3645.000000	0.002432
3644.000000	0.002443
3643.000000	0.002467
3642.000000	0.002507
3641.000000	0.002557
3640.000000	0.002598
3639.000000	0.002621
3638.000000	0.002626
3637.000000	0.002619
3636.000000	0.002604
3635.000000	0.002586
3634.000000	0.002574
3633.000000	0.002580
3632.000000	0.002609
3631.000000	0.002651
3630.000000	0.002693
3629.000000	0.002721
3628.000000	0.002721
3627.000000	0.002696
3626.000000	0.002664
3625.000000	0.002638
3624.000000	0.002619
3623.000000	0.002604
3622.000000	0.002592
3621.000000	0.002589
3620.000000	0.002603
3619.000000	0.002633
3618.000000	0.002657
3617.000000	0.002661
3616.000000	0.002652
3615.000000	0.002647
3614.000000	0.002663
3613.000000	0.002701
3612.000000	0.002750
3611.000000	0.002799
3610.000000	0.002840
3609.000000	0.002872
3608.000000	0.002894
3607.000000	0.002905
3606.000000	0.002905
3605.000000	0.002891
3604.000000	0.002864
3603.000000	0.002828
3602.000000	0.002797
3601.000000	0.002787
3600.000000	0.002801
3599.000000	0.002827
3598.000000	0.002857
3597.000000	0.002887
3596.000000	0.002916
3595.000000	0.002943
3594.000000	0.002962
3593.000000	0.002971
3592.000000	0.002975
3591.000000	0.002976
3590.000000	0.002972
3589.000000	0.002966
3588.000000	0.002967
3587.000000	0.002982
3586.000000	0.003004
3585.000000	0.003025
3584.000000	0.003049
3583.000000	0.003085
3582.000000	0.003136
3581.000000	0.003194
3580.000000	0.003244
3579.000000	0.003282
3578.000000	0.003310
3577.000000	0.003337
3576.000000	0.003365
3575.000000	0.003390
3574.000000	0.003404
3573.000000	0.003399
3572.000000	0.003374
3571.000000	0.003338
3570.000000	0.003304
3569.000000	0.003292
3568.000000	0.003313
3567.000000	0.003364
3566.000000	0.003424
3565.000000	0.003473
3564.000000	0.003504
3563.000000	0.003521
3562.000000	0.003528
3561.000000	0.003532
3560.000000	0.003538
3559.000000	0.003554
3558.000000	0.003585
3557.000000	0.003628
3556.000000	0.003675
3555.000000	0.003715
3554.000000	0.003746
3553.000000	0.003766
3552.000000	0.003777
3551.000000	0.003775
3550.000000	0.003767
3549.000000	0.003764
3548.000000	0.003780
3547.000000	0.003818
3546.000000	0.003868
3545.000000	0.003909
3544.000000	0.003933
3543.000000	0.003943
3542.000000	0.003948
3541.000000	0.003952
3540.000000	0.003952
3539.000000	0.003951
3538.000000	0.003956
3537.000000	0.003976
3536.000000	0.004007
3535.000000	0.004036
3534.000000	0.004053
3533.000000	0.004057
3532.000000	0.004059
3531.000000	0.004072
3530.000000	0.004104
3529.000000	0.004153
3528.000000	0.004206
3527.000000	0.004252
3526.000000	0.004286
3525.000000	0.004313
3524.000000	0.004336
3523.000000	0.004352
3522.000000	0.004360
3521.000000	0.004370
3520.000000	0.004394
3519.000000	0.004437
3518.000000	0.004487
3517.000000	0.004525
3516.000000	0.004541
3515.000000	0.004540
3514.000000	0.004530
3513.000000	0.004520
3512.000000	0.004518
3511.000000	0.004529
3510.000000	0.004555
3509.000000	0.004589
3508.000000	0.004619
3507.000000	0.004637
3506.000000	0.004643
3505.000000	0.004646
3504.000000	0.004656
3503.000000	0.004673
3502.000000	0.004693
3501.000000	0.004709
3500.000000	0.004722
3499.000000	0.004735
3498.000000	0.004753
3497.000000	0.004774
3496.000000	0.004796
3495.000000	0.004818
3494.000000	0.004840
3493.000000	0.004861
3492.000000	0.004881
3491.000000	0.004898
3490.000000	0.004912
3489.000000	0.004921
3488.000000	0.004925
3487.000000	0.004926
3486.000000	0.004929
3485.000000	0.004943
3484.000000	0.004970
3483.000000	0.005008
3482.000000	0.005050
3481.000000	0.005085
3480.000000	0.005104
3479.000000	0.005105
3478.000000	0.005094
3477.000000	0.005081
3476.000000	0.005074
3475.000000	0.005076
3474.000000	0.005086
3473.000000	0.005102
3472.000000	0.005126
3471.000000	0.005156
3470.000000	0.005191
3469.000000	0.005226
3468.000000	0.005257
3467.000000	0.005282
3466.000000	0.005298
3465.000000	0.005310
3464.000000	0.005324
3463.000000	0.005341
3462.000000	0.005352
3461.000000	0.005340
3460.000000	0.005303
3459.000000	0.005264
3458.000000	0.005253
3457.000000	0.005284
3456.000000	0.005344
3455.000000	0.005406
3454.000000	0.005450
3453.000000	0.005470
3452.000000	0.005469
3451.000000	0.005456
3450.000000	0.005445
3449.000000	0.005448
3448.000000	0.005468
3447.000000	0.005497
3446.000000	0.005530
3445.000000	0.005569
3444.000000	0.005611
3443.000000	0.005644
3442.000000	0.005653
3441.000000	0.005639
3440.000000	0.005623
3439.000000	0.005629
3438.000000	0.005661
3437.000000	0.005704
3436.000000	0.005738
3435.000000	0.005754
3434.000000	0.005754
3433.000000	0.005748
3432.000000	0.005746
3431.000000	0.005758
3430.000000	0.005789
3429.000000	0.005836
3428.000000	0.005884
3427.000000	0.005915
3426.000000	0.005923
3425.000000	0.005918
3424.000000	0.005916
3423.000000	0.005928
3422.000000	0.005952
3421.000000	0.005981
3420.000000	0.006005
3419.000000	0.006019
3418.000000	0.006022
3417.000000	0.006022
3416.000000	0.006032
3415.000000	0.006057
3414.000000	0.006092
3413.000000	0.006119
3412.000000	0.006127
3411.000000	0.006123
3410.000000	0.006127
3409.000000	0.006152
3408.000000	0.006190
3407.000000	0.006224
3406.000000	0.006241
3405.000000	0.006249
3404.000000	0.006258
3403.000000	0.006275
3402.000000	0.006292
3401.000000	0.006301
3400.000000	0.006304
3399.000000	0.006310
3398.000000	0.006327
3397.000000	0.006355
3396.000000	0.006386
3395.000000	0.006412
3394.000000	0.006433
3393.000000	0.006453
3392.000000	0.006476
3391.000000	0.006498
3390.000000	0.006515
3389.000000	0.006524
3388.000000	0.006532
3387.000000	0.006549
3386.000000	0.006576
3385.000000	0.006608
3384.000000	0.006636
3383.000000	0.006651
3382.000000	0.006646
3381.000000	0.006620
3380.000000	0.006587
3379.000000	0.006569
3378.000000	0.006587
3377.000000	0.006639
3376.000000	0.006702
3375.000000	0.006750
3374.000000	0.006773
3373.000000	0.006780
3372.000000	0.006789
3371.000000	0.006810
3370.000000	0.006845
3369.000000	0.006890
3368.000000	0.006934
3367.000000	0.006970
3366.000000	0.006995
3365.000000	0.007011
3364.000000	0.007024
3363.000000	0.007041
3362.000000	0.007067
3361.000000	0.007101
3360.000000	0.007139
3359.000000	0.007171
3358.000000	0.007194
3357.000000	0.007209
3356.000000	0.007222
3355.000000	0.007241
3354.000000	0.007268
3353.000000	0.007304
3352.000000	0.007346
3351.000000	0.007390
3350.000000	0.007433
3349.000000	0.007474
3348.000000	0.007512
3347.000000	0.007545
3346.000000	0.007570
3345.000000	0.007587
3344.000000	0.007602
3343.000000	0.007622
3342.000000	0.007652
3341.000000	0.007688
3340.000000	0.007725
3339.000000	0.007760
3338.000000	0.007788
3337.000000	0.007810
3336.000000	0.007827
3335.000000	0.007845
3334.000000	0.007868
3333.000000	0.007900
3332.000000	0.007935
3331.000000	0.007967
3330.000000	0.007986
3329.000000	0.007991
3328.000000	0.007989
3327.000000	0.007991
3326.000000	0.008010
3325.000000	0.008047
3324.000000	0.008091
3323.000000	0.008131
3322.000000	0.008159
3321.000000	0.008178
3320.000000	0.008194
3319.000000	0.008215
3318.000000	0.008245
3317.000000	0.008286
3316.000000	0.008332
3315.000000	0.008370
3314.000000	0.008392
3313.000000	0.008393
3312.000000	0.008379
3311.000000	0.008359
3310.000000	0.008338
3309.000000	0.008319
3308.000000	0.008305
3307.000000	0.008299
3306.000000	0.008307
3305.000000	0.008331
3304.000000	0.008368
3303.000000	0.008411
3302.000000	0.008457
3301.000000	0.008498
3300.000000	0.008521
3299.000000	0.008520
3298.000000	0.008498
3297.000000	0.008472
3296.000000	0.008459
3295.000000	0.008463
3294.000000	0.008481
3293.000000	0.008505
3292.000000	0.008527
3291.000000	0.008536
3290.000000	0.008528
3289.000000	0.008508
3288.000000	0.008492
3287.000000	0.008492
3286.000000	0.008508
3285.000000	0.008527
3284.000000	0.008537
3283.000000	0.008535
3282.000000	0.008533
3281.000000	0.008538
3280.000000	0.008546
3279.000000	0.008544
3278.000000	0.008532
3277.000000	0.008518
3276.000000	0.008510
3275.000000	0.008505
3274.000000	0.008493
3273.000000	0.008471
3272.000000	0.008442
3271.000000	0.008414
3270.000000	0.008395
3269.000000	0.008389
3268.000000	0.008392
3267.000000	0.008393
3266.000000	0.008383
3265.000000	0.008364
3264.000000	0.008350
3263.000000	0.008350
3262.000000	0.008361
3261.000000	0.008369
3260.000000	0.008370
3259.000000	0.008367
3258.000000	0.008365
3257.000000	0.008359
3256.000000	0.008341
3255.000000	0.008306
3254.000000	0.008264
3253.000000	0.008225
3252.000000	0.008196
3251.000000	0.008175
3250.000000	0.008156
3249.000000	0.008134
3248.000000	0.008111
3247.000000	0.008088
3246.000000	0.008065
3245.000000	0.008045
3244.000000	0.008030
3243.000000	0.008023
3242.000000	0.008017
3241.000000	0.008004
3240.000000	0.007983
3239.000000	0.007962
3238.000000	0.007950
3237.000000	0.007949
3236.000000	0.007951
3235.000000	0.007949
3234.000000	0.007938
3233.000000	0.007922
3232.000000	0.007901
3231.000000	0.007876
3230.000000	0.007851
3229.000000	0.007834
3228.000000	0.007827
3227.000000	0.007826
3226.000000	0.007823
3225.000000	0.007809
3224.000000	0.007787
3223.000000	0.007766
3222.000000	0.007753
3221.000000	0.007747
3220.000000	0.007742
3219.000000	0.007734
3218.000000	0.007726
3217.000000	0.007724
3216.000000	0.007728
3215.000000	0.007730
3214.000000	0.007720
3213.000000	0.007691
3212.000000	0.007647
3211.000000	0.007598
3210.000000	0.007560
3209.000000	0.007545
3208.000000	0.007551
3207.000000	0.007568
3206.000000	0.007582
3205.000000	0.007583
3204.000000	0.007574
3203.000000	0.007558
3202.000000	0.007543
3201.000000	0.007533
3200.000000	0.007527
3199.000000	0.007519
3198.000000	0.007501
3197.000000	0.007469
3196.000000	0.007431
3195.000000	0.007408
3194.000000	0.007412
3193.000000	0.007433
3192.000000	0.007443
3191.000000	0.007423
3190.000000	0.007376
3189.000000	0.007325
3188.000000	0.007294
3187.000000	0.007289
3186.000000	0.007294
3185.000000	0.007290
3184.000000	0.007269
3183.000000	0.007237
3182.000000	0.007198
3181.000000	0.007160
3180.000000	0.007129
3179.000000	0.007111
3178.000000	0.007105
3177.000000	0.007101
3176.000000	0.007092
3175.000000	0.007079
3174.000000	0.007066
3173.000000	0.007048
3172.000000	0.007022
3171.000000	0.006993
3170.000000	0.006975
3169.000000	0.006971
3168.000000	0.006969
3167.000000	0.006950
3166.000000	0.006911
3165.000000	0.006865
3164.000000	0.006822
3163.000000	0.006793
3162.000000	0.006783
3161.000000	0.006791
3160.000000	0.006806
3159.000000	0.006810
3158.000000	0.006791
3157.000000	0.006754
3156.000000	0.006711
3155.000000	0.006672
3154.000000	0.006642
3153.000000	0.006625
3152.000000	0.006624
3151.000000	0.006633
3150.000000	0.006641
3149.000000	0.006634
3148.000000	0.006609
3147.000000	0.006575
3146.000000	0.006546
3145.000000	0.006528
3144.000000	0.006516
3143.000000	0.006502
3142.000000	0.006480
3141.000000	0.006456
3140.000000	0.006441
3139.000000	0.006439
3138.000000	0.006446
3137.000000	0.006450
3136.000000	0.006446
3135.000000	0.006434
3134.000000	0.006418
3133.000000	0.006397
3132.000000	0.006375
3131.000000	0.006356
3130.000000	0.006344
3129.000000	0.006339
3128.000000	0.006334
3127.000000	0.006325
3126.000000	0.006313
3125.000000	0.006296
3124.000000	0.006273
3123.000000	0.006246
3122.000000	0.006220
3121.000000	0.006204
3120.000000	0.006206
3119.000000	0.006223
3118.000000	0.006248
3117.000000	0.006271
3116.000000	0.006285
3115.000000	0.006290
3114.000000	0.006286
3113.000000	0.006275
3112.000000	0.006265
3111.000000	0.006267
3110.000000	0.006282
3109.000000	0.006302
3108.000000	0.006310
3107.000000	0.006303
3106.000000	0.006295
3105.000000	0.006301
3104.000000	0.006326
3103.000000	0.006354
3102.000000	0.006363
3101.000000	0.006348
3100.000000	0.006322
3099.000000	0.006309
3098.000000	0.006319
3097.000000	0.006349
3096.000000	0.006388
3095.000000	0.006424
3094.000000	0.006449
3093.000000	0.006456
3092.000000	0.006444
3091.000000	0.006424
3090.000000	0.006412
3089.000000	0.006416
3088.000000	0.006428
3087.000000	0.006433
3086.000000	0.006425
3085.000000	0.006410
3084.000000	0.006401
3083.000000	0.006403
3082.000000	0.006413
3081.000000	0.006425
3080.000000	0.006437
3079.000000	0.006452
3078.000000	0.006471
3077.000000	0.006490
3076.000000	0.006503
3075.000000	0.006504
3074.000000	0.006496
3073.000000	0.006486
3072.000000	0.006480
3071.000000	0.006477
3070.000000	0.006473
3069.000000	0.006464
3068.000000	0.006456
3067.000000	0.006455
3066.000000	0.006465
3065.000000	0.006477
3064.000000	0.006479
3063.000000	0.006468
3062.000000	0.006449
3061.000000	0.006432
3060.000000	0.006419
3059.000000	0.006404
3058.000000	0.006382
3057.000000	0.006356
3056.000000	0.006332
3055.000000	0.006318
3054.000000	0.006315
3053.000000	0.006316
3052.000000	0.006312
3051.000000	0.006300
3050.000000	0.006287
3049.000000	0.006279
3048.000000	0.006278
3047.000000	0.006276
3046.000000	0.006264
3045.000000	0.006239
3044.000000	0.006205
3043.000000	0.006166
3042.000000	0.006131
3041.000000	0.006109
3040.000000	0.006099
3039.000000	0.006092
3038.000000	0.006080
3037.000000	0.006064
3036.000000	0.006052
3035.000000	0.006047
3034.000000	0.006044
3033.000000	0.006033
3032.000000	0.006019
3031.000000	0.006010
3030.000000	0.006014
3029.000000	0.006020
3028.000000	0.006015
3027.000000	0.005989
3026.000000	0.005944
3025.000000	0.005887
3024.000000	0.005830
3023.000000	0.005790
3022.000000	0.005778
3021.000000	0.005791
3020.000000	0.005811
3019.000000	0.005812
3018.000000	0.005784
3017.000000	0.005738
3016.000000	0.005697
3015.000000	0.005681
3014.000000	0.005688
3013.000000	0.005703
3012.000000	0.005703
3011.000000	0.005682
3010.000000	0.005645
3009.000000	0.005604
3008.000000	0.005570
3007.000000	0.005551
3006.000000	0.005548
3005.000000	0.005558
3004.000000	0.005570
3003.000000	0.005583
3002.000000	0.005600
3001.000000	0.005623
3000.000000	0.005649
2999.000000	0.005668
2998.000000	0.005679
2997.000000	0.005684
2996.000000	0.005688
2995.000000	0.005695
2994.000000	0.005709
2993.000000	0.005728
2992.000000	0.005748
2991.000000	0.005762
2990.000000	0.005771
2989.000000	0.005783
2988.000000	0.005803
2987.000000	0.005827
2986.000000	0.005847
2985.000000	0.005863
2984.000000	0.005882
2983.000000	0.005908
2982.000000	0.005940
2981.000000	0.005967
2980.000000	0.005983
2979.000000	0.005985
2978.000000	0.005979
2977.000000	0.005973
2976.000000	0.005973
2975.000000	0.005982
2974.000000	0.005995
2973.000000	0.006009
2972.000000	0.006016
2971.000000	0.006012
2970.000000	0.006003
2969.000000	0.006004
2968.000000	0.006024
2967.000000	0.006060
2966.000000	0.006101
2965.000000	0.006136
2964.000000	0.006165
2963.000000	0.006184
2962.000000	0.006194
2961.000000	0.006195
2960.000000	0.006196
2959.000000	0.006205
2958.000000	0.006224
2957.000000	0.006250
2956.000000	0.006272
2955.000000	0.006282
2954.000000	0.006276
2953.000000	0.006261
2952.000000	0.006244
2951.000000	0.006231
2950.000000	0.006223
2949.000000	0.006223
2948.000000	0.006230
2947.000000	0.006245
2946.000000	0.006263
2945.000000	0.006277
2944.000000	0.006284
2943.000000	0.006281
2942.000000	0.006270
2941.000000	0.006257
2940.000000	0.006250
2939.000000	0.006257
2938.000000	0.006273
2937.000000	0.006289
2936.000000	0.006297
2935.000000	0.006302
2934.000000	0.006312
2933.000000	0.006336
2932.000000	0.006376
2931.000000	0.006421
2930.000000	0.006451
2929.000000	0.006453
2928.000000	0.006434
2927.000000	0.006415
2926.000000	0.006420
2925.000000	0.006452
2924.000000	0.006500
2923.000000	0.006551
2922.000000	0.006591
2921.000000	0.006615
2920.000000	0.006628
2919.000000	0.006638
2918.000000	0.006649
2917.000000	0.006654
2916.000000	0.006641
2915.000000	0.006608
2914.000000	0.006561
2913.000000	0.006506
2912.000000	0.006445
2911.000000	0.006376
2910.000000	0.006306
2909.000000	0.006245
2908.000000	0.006195
2907.000000	0.006153
2906.000000	0.006112
2905.000000	0.006073
2904.000000	0.006043
2903.000000	0.006024
2902.000000	0.006014
2901.000000	0.006003
2900.000000	0.005991
2899.000000	0.005986
2898.000000	0.005990
2897.000000	0.005996
2896.000000	0.005994
2895.000000	0.005983
2894.000000	0.005972
2893.000000	0.005969
2892.000000	0.005967
2891.000000	0.005953
2890.000000	0.005924
2889.000000	0.005894
2888.000000	0.005878
2887.000000	0.005885
2886.000000	0.005907
2885.000000	0.005930
2884.000000	0.005950
2883.000000	0.005965
2882.000000	0.005979
2881.000000	0.005989
2880.000000	0.005996
2879.000000	0.006000
2878.000000	0.006004
2877.000000	0.006012
2876.000000	0.006022
2875.000000	0.006034
2874.000000	0.006039
2873.000000	0.006030
2872.000000	0.006002
2871.000000	0.005960
2870.000000	0.005919
2869.000000	0.005892
2868.000000	0.005879
2867.000000	0.005873
2866.000000	0.005863
2865.000000	0.005846
2864.000000	0.005824
2863.000000	0.005803
2862.000000	0.005789
2861.000000	0.005780
2860.000000	0.005771
2859.000000	0.005754
2858.000000	0.005729
2857.000000	0.005705
2856.000000	0.005690
2855.000000	0.005689
2854.000000	0.005706
2853.000000	0.005742
2852.000000	0.005792
2851.000000	0.005842
2850.000000	0.005869
2849.000000	0.005863
2848.000000	0.005826
2847.000000	0.005771
2846.000000	0.005707
2845.000000	0.005643
2844.000000	0.005583
2843.000000	0.005536
2842.000000	0.005507
2841.000000	0.005496
2840.000000	0.005497
2839.000000	0.005499
2838.000000	0.005492
2837.000000	0.005472
2836.000000	0.005443
2835.000000	0.005414
2834.000000	0.005391
2833.000000	0.005380
2832.000000	0.005385
2831.000000	0.005406
2830.000000	0.005435
2829.000000	0.005456
2828.000000	0.005453
2827.000000	0.005427
2826.000000	0.005391
2825.000000	0.005363
2824.000000	0.005351
2823.000000	0.005348
2822.000000	0.005341
2821.000000	0.005323
2820.000000	0.005303
2819.000000	0.005293
2818.000000	0.005295
2817.000000	0.005300
2816.000000	0.005295
2815.000000	0.005277
2814.000000	0.005252
2813.000000	0.005225
2812.000000	0.005202
2811.000000	0.005189
2810.000000	0.005188
2809.000000	0.005200
2808.000000	0.005221
2807.000000	0.005245
2806.000000	0.005263
2805.000000	0.005268
2804.000000	0.005258
2803.000000	0.005239
2802.000000	0.005212
2801.000000	0.005180
2800.000000	0.005151
2799.000000	0.005141
2798.000000	0.005156
2797.000000	0.005184
2796.000000	0.005201
2795.000000	0.005195
2794.000000	0.005174
2793.000000	0.005159
2792.000000	0.005161
2791.000000	0.005175
2790.000000	0.005187
2789.000000	0.005185
2788.000000	0.005167
2787.000000	0.005145
2786.000000	0.005129
2785.000000	0.005123
2784.000000	0.005120
2783.000000	0.005115
2782.000000	0.005112
2781.000000	0.005112
2780.000000	0.005114
2779.000000	0.005112
2778.000000	0.005103
2777.000000	0.005088
2776.000000	0.005073
2775.000000	0.005063
2774.000000	0.005061
2773.000000	0.005065
2772.000000	0.005068
2771.000000	0.005062
2770.000000	0.005044
2769.000000	0.005020
2768.000000	0.004996
2767.000000	0.004984
2766.000000	0.004986
2765.000000	0.004997
2764.000000	0.005006
2763.000000	0.005008
2762.000000	0.005003
2761.000000	0.004994
2760.000000	0.004980
2759.000000	0.004962
2758.000000	0.004951
2757.000000	0.004958
2756.000000	0.004978
2755.000000	0.004998
2754.000000	0.005002
2753.000000	0.004990
2752.000000	0.004971
2751.000000	0.004955
2750.000000	0.004941
2749.000000	0.004927
2748.000000	0.004912
2747.000000	0.004898
2746.000000	0.004885
2745.000000	0.004875
2744.000000	0.004868
2743.000000	0.004864
2742.000000	0.004865
2741.000000	0.004870
2740.000000	0.004875
2739.000000	0.004876
2738.000000	0.004870
2737.000000	0.004861
2736.000000	0.004851
2735.000000	0.004843
2734.000000	0.004837
2733.000000	0.004834
2732.000000	0.004833
2731.000000	0.004837
2730.000000	0.004845
2729.000000	0.004855
2728.000000	0.004862
2727.000000	0.004860
2726.000000	0.004849
2725.000000	0.004835
2724.000000	0.004825
2723.000000	0.004821
2722.000000	0.004820
2721.000000	0.004815
2720.000000	0.004806
2719.000000	0.004798
2718.000000	0.004796
2717.000000	0.004799
2716.000000	0.004800
2715.000000	0.004792
2714.000000	0.004776
2713.000000	0.004757
2712.000000	0.004744
2711.000000	0.004743
2710.000000	0.004752
2709.000000	0.004761
2708.000000	0.004759
2707.000000	0.004746
2706.000000	0.004730
2705.000000	0.004721
2704.000000	0.004725
2703.000000	0.004739
2702.000000	0.004757
2701.000000	0.004770
2700.000000	0.004771
2699.000000	0.004759
2698.000000	0.004743
2697.000000	0.004731
2696.000000	0.004721
2695.000000	0.004705
2694.000000	0.004679
2693.000000	0.004654
2692.000000	0.004639
2691.000000	0.004639
2690.000000	0.004651
2689.000000	0.004669
2688.000000	0.004688
2687.000000	0.004702
2686.000000	0.004706
2685.000000	0.004702
2684.000000	0.004699
2683.000000	0.004700
2682.000000	0.004704
2681.000000	0.004705
2680.000000	0.004701
2679.000000	0.004694
2678.000000	0.004686
2677.000000	0.004679
2676.000000	0.004673
2675.000000	0.004667
2674.000000	0.004660
2673.000000	0.004652
2672.000000	0.004644
2671.000000	0.004642
2670.000000	0.004649
2669.000000	0.004664
2668.000000	0.004679
2667.000000	0.004688
2666.000000	0.004691
2665.000000	0.004689
2664.000000	0.004685
2663.000000	0.004686
2662.000000	0.004694
2661.000000	0.004700
2660.000000	0.004696
2659.000000	0.004679
2658.000000	0.004655
2657.000000	0.004630
2656.000000	0.004607
2655.000000	0.004588
2654.000000	0.004576
2653.000000	0.004569
2652.000000	0.004560
2651.000000	0.004541
2650.000000	0.004515
2649.000000	0.004493
2648.000000	0.004478
2647.000000	0.004467
2646.000000	0.004451
2645.000000	0.004427
2644.000000	0.004396
2643.000000	0.004367
2642.000000	0.004344
2641.000000	0.004330
2640.000000	0.004323
2639.000000	0.004322
2638.000000	0.004324
2637.000000	0.004320
2636.000000	0.004305
2635.000000	0.004283
2634.000000	0.004263
2633.000000	0.004248
2632.000000	0.004232
2631.000000	0.004210
2630.000000	0.004192
2629.000000	0.004185
2628.000000	0.004189
2627.000000	0.004190
2626.000000	0.004180
2625.000000	0.004158
2624.000000	0.004134
2623.000000	0.004116
2622.000000	0.004110
2621.000000	0.004114
2620.000000	0.004121
2619.000000	0.004121
2618.000000	0.004107
2617.000000	0.004081
2616.000000	0.004048
2615.000000	0.004017
2614.000000	0.003997
2613.000000	0.003994
2612.000000	0.004010
2611.000000	0.004035
2610.000000	0.004057
2609.000000	0.004065
2608.000000	0.004053
2607.000000	0.004023
2606.000000	0.003985
2605.000000	0.003951
2604.000000	0.003928
2603.000000	0.003916
2602.000000	0.003915
2601.000000	0.003922
2600.000000	0.003934
2599.000000	0.003942
2598.000000	0.003937
2597.000000	0.003919
2596.000000	0.003896
2595.000000	0.003883
2594.000000	0.003881
2593.000000	0.003878
2592.000000	0.003865
2591.000000	0.003847
2590.000000	0.003839
2589.000000	0.003850
2588.000000	0.003870
2587.000000	0.003881
2586.000000	0.003872
2585.000000	0.003849
2584.000000	0.003831
2583.000000	0.003835
2582.000000	0.003856
2581.000000	0.003870
2580.000000	0.003856
2579.000000	0.003820
2578.000000	0.003787
2577.000000	0.003776
2576.000000	0.003779
2575.000000	0.003773
2574.000000	0.003747
2573.000000	0.003710
2572.000000	0.003677
2571.000000	0.003661
2570.000000	0.003664
2569.000000	0.003684
2568.000000	0.003715
2567.000000	0.003746
2566.000000	0.003770
2565.000000	0.003781
2564.000000	0.003782
2563.000000	0.003779
2562.000000	0.003778
2561.000000	0.003773
2560.000000	0.003754
2559.000000	0.003726
2558.000000	0.003707
2557.000000	0.003701
2556.000000	0.003699
2555.000000	0.003689
2554.000000	0.003679
2553.000000	0.003682
2552.000000	0.003694
2551.000000	0.003695
2550.000000	0.003668
2549.000000	0.003620
2548.000000	0.003571
2547.000000	0.003538
2546.000000	0.003525
2545.000000	0.003525
2544.000000	0.003527
2543.000000	0.003524
2542.000000	0.003525
2541.000000	0.003543
2540.000000	0.003581
2539.000000	0.003625
2538.000000	0.003652
2537.000000	0.003651
2536.000000	0.003630
2535.000000	0.003603
2534.000000	0.003586
2533.000000	0.003582
2532.000000	0.003584
2531.000000	0.003579
2530.000000	0.003563
2529.000000	0.003541
2528.000000	0.003523
2527.000000	0.003516
2526.000000	0.003528
2525.000000	0.003559
2524.000000	0.003604
2523.000000	0.003645
2522.000000	0.003667
2521.000000	0.003664
2520.000000	0.003639
2519.000000	0.003598
2518.000000	0.003550
2517.000000	0.003507
2516.000000	0.003485
2515.000000	0.003502
2514.000000	0.003553
2513.000000	0.003615
2512.000000	0.003657
2511.000000	0.003665
2510.000000	0.003650
2509.000000	0.003629
2508.000000	0.003608
2507.000000	0.003582
2506.000000	0.003554
2505.000000	0.003537
2504.000000	0.003544
2503.000000	0.003577
2502.000000	0.003620
2501.000000	0.003649
2500.000000	0.003661
2499.000000	0.003669
2498.000000	0.003683
2497.000000	0.003684
2496.000000	0.003640
2495.000000	0.003548
2494.000000	0.003448
2493.000000	0.003394
2492.000000	0.003408
2491.000000	0.003466
2490.000000	0.003528
2489.000000	0.003563
2488.000000	0.003558
2487.000000	0.003521
2486.000000	0.003471
2485.000000	0.003433
2484.000000	0.003416
2483.000000	0.003411
2482.000000	0.003408
2481.000000	0.003408
2480.000000	0.003424
2479.000000	0.003461
2478.000000	0.003505
2477.000000	0.003538
2476.000000	0.003552
2475.000000	0.003561
2474.000000	0.003577
2473.000000	0.003598
2472.000000	0.003612
2471.000000	0.003604
2470.000000	0.003573
2469.000000	0.003527
2468.000000	0.003481
2467.000000	0.003453
2466.000000	0.003453
2465.000000	0.003470
2464.000000	0.003482
2463.000000	0.003480
2462.000000	0.003477
2461.000000	0.003490
2460.000000	0.003523
2459.000000	0.003567
2458.000000	0.003613
2457.000000	0.003655
2456.000000	0.003679
2455.000000	0.003675
2454.000000	0.003643
2453.000000	0.003604
2452.000000	0.003573
2451.000000	0.003560
2450.000000	0.003561
2449.000000	0.003569
2448.000000	0.003574
2447.000000	0.003576
2446.000000	0.003579
2445.000000	0.003584
2444.000000	0.003587
2443.000000	0.003583
2442.000000	0.003577
2441.000000	0.003570
2440.000000	0.003558
2439.000000	0.003533
2438.000000	0.003500
2437.000000	0.003476
2436.000000	0.003473
2435.000000	0.003484
2434.000000	0.003496
2433.000000	0.003498
2432.000000	0.003491
2431.000000	0.003481
2430.000000	0.003475
2429.000000	0.003477
2428.000000	0.003483
2427.000000	0.003485
2426.000000	0.003480
2425.000000	0.003470
2424.000000	0.003461
2423.000000	0.003457
2422.000000	0.003462
2421.000000	0.003481
2420.000000	0.003506
2419.000000	0.003521
2418.000000	0.003516
2417.000000	0.003493
2416.000000	0.003470
2415.000000	0.003460
2414.000000	0.003467
2413.000000	0.003490
2412.000000	0.003522
2411.000000	0.003559
2410.000000	0.003589
2409.000000	0.003599
2408.000000	0.003579
2407.000000	0.003535
2406.000000	0.003483
2405.000000	0.003436
2404.000000	0.003401
2403.000000	0.003384
2402.000000	0.003391
2401.000000	0.003418
2400.000000	0.003445
2399.000000	0.003458
2398.000000	0.003452
2397.000000	0.003443
2396.000000	0.003447
2395.000000	0.003471
2394.000000	0.003511
2393.000000	0.003551
2392.000000	0.003571
2391.000000	0.003561
2390.000000	0.003533
2389.000000	0.003513
2388.000000	0.003519
2387.000000	0.003542
2386.000000	0.003558
2385.000000	0.003553
2384.000000	0.003536
2383.000000	0.003527
2382.000000	0.003531
2381.000000	0.003532
2380.000000	0.003519
2379.000000	0.003502
2378.000000	0.003507
2377.000000	0.003538
2376.000000	0.003571
2375.000000	0.003588
2374.000000	0.003591
2373.000000	0.003586
2372.000000	0.003570
2371.000000	0.003541
2370.000000	0.003506
2369.000000	0.003478
2368.000000	0.003463
2367.000000	0.003472
2366.000000	0.003512
2365.000000	0.003570
2364.000000	0.003619
2363.000000	0.003660
2362.000000	0.003710
2361.000000	0.003764
2360.000000	0.003789
2359.000000	0.003761
2358.000000	0.003697
2357.000000	0.003632
2356.000000	0.003603
2355.000000	0.003617
2354.000000	0.003636
2353.000000	0.003616
2352.000000	0.003570
2351.000000	0.003551
2350.000000	0.003587
2349.000000	0.003663
2348.000000	0.003733
2347.000000	0.003748
2346.000000	0.003706
2345.000000	0.003668
2344.000000	0.003678
2343.000000	0.003713
2342.000000	0.003733
2341.000000	0.003728
2340.000000	0.003718
2339.000000	0.003721
2338.000000	0.003724
2337.000000	0.003701
2336.000000	0.003644
2335.000000	0.003571
2334.000000	0.003504
2333.000000	0.003467
2332.000000	0.003479
2331.000000	0.003539
2330.000000	0.003621
2329.000000	0.003700
2328.000000	0.003770
2327.000000	0.003836
2326.000000	0.003887
2325.000000	0.003908
2324.000000	0.003893
2323.000000	0.003852
2322.000000	0.003809
2321.000000	0.003791
2320.000000	0.003811
2319.000000	0.003857
2318.000000	0.003906
2317.000000	0.003938
2316.000000	0.003946
2315.000000	0.003923
2314.000000	0.003868
2313.000000	0.003788
2312.000000	0.003704
2311.000000	0.003635
2310.000000	0.003594
2309.000000	0.003586
2308.000000	0.003596
2307.000000	0.003601
2306.000000	0.003593
2305.000000	0.003585
2304.000000	0.003581
2303.000000	0.003564
2302.000000	0.003520
2301.000000	0.003468
2300.000000	0.003440
2299.000000	0.003447
2298.000000	0.003470
2297.000000	0.003493
2296.000000	0.003523
2295.000000	0.003565
2294.000000	0.003604
2293.000000	0.003619
2292.000000	0.003604
2291.000000	0.003576
2290.000000	0.003553
2289.000000	0.003553
2288.000000	0.003579
2287.000000	0.003621
2286.000000	0.003654
2285.000000	0.003663
2284.000000	0.003658
2283.000000	0.003659
2282.000000	0.003662
2281.000000	0.003653
2280.000000	0.003625
2279.000000	0.003589
2278.000000	0.003552
2277.000000	0.003509
2276.000000	0.003458
2275.000000	0.003413
2274.000000	0.003389
2273.000000	0.003383
2272.000000	0.003383
2271.000000	0.003388
2270.000000	0.003406
2269.000000	0.003431
2268.000000	0.003436
2267.000000	0.003404
2266.000000	0.003351
2265.000000	0.003312
2264.000000	0.003307
2263.000000	0.003323
2262.000000	0.003329
2261.000000	0.003300
2260.000000	0.003238
2259.000000	0.003163
2258.000000	0.003103
2257.000000	0.003077
2256.000000	0.003089
2255.000000	0.003128
2254.000000	0.003177
2253.000000	0.003216
2252.000000	0.003229
2251.000000	0.003215
2250.000000	0.003183
2249.000000	0.003140
2248.000000	0.003097
2247.000000	0.003079
2246.000000	0.003112
2245.000000	0.003188
2244.000000	0.003251
2243.000000	0.003243
2242.000000	0.003159
2241.000000	0.003051
2240.000000	0.002981
2239.000000	0.002976
2238.000000	0.003026
2237.000000	0.003092
2236.000000	0.003132
2235.000000	0.003126
2234.000000	0.003084
2233.000000	0.003037
2232.000000	0.003017
2231.000000	0.003040
2230.000000	0.003093
2229.000000	0.003140
2228.000000	0.003145
2227.000000	0.003107
2226.000000	0.003065
2225.000000	0.003053
2224.000000	0.003073
2223.000000	0.003098
2222.000000	0.003110
2221.000000	0.003100
2220.000000	0.003056
2219.000000	0.002980
2218.000000	0.002912
2217.000000	0.002918
2216.000000	0.003036
2215.000000	0.003225
2214.000000	0.003387
2213.000000	0.003433
2212.000000	0.003348
2211.000000	0.003204
2210.000000	0.003086
2209.000000	0.003024
2208.000000	0.002991
2207.000000	0.002974
2206.000000	0.003005
2205.000000	0.003091
2204.000000	0.003161
2203.000000	0.003127
2202.000000	0.002991
2201.000000	0.002850
2200.000000	0.002789
2199.000000	0.002815
2198.000000	0.002888
2197.000000	0.002979
2196.000000	0.003074
2195.000000	0.003153
2194.000000	0.003184
2193.000000	0.003154
2192.000000	0.003074
2191.000000	0.002981
2190.000000	0.002916
2189.000000	0.002897
2188.000000	0.002916
2187.000000	0.002979
2186.000000	0.003106
2185.000000	0.003277
2184.000000	0.003407
2183.000000	0.003409
2182.000000	0.003299
2181.000000	0.003169
2180.000000	0.003077
2179.000000	0.003002
2178.000000	0.002922
2177.000000	0.002862
2176.000000	0.002854
2175.000000	0.002882
2174.000000	0.002895
2173.000000	0.002866
2172.000000	0.002818
2171.000000	0.002812
2170.000000	0.002901
2169.000000	0.003065
2168.000000	0.003203
2167.000000	0.003219
2166.000000	0.003134
2165.000000	0.003056
2164.000000	0.003051
2163.000000	0.003078
2162.000000	0.003046
2161.000000	0.002893
2160.000000	0.002602
2159.000000	0.002230
2158.000000	0.001930
2157.000000	0.001853
2156.000000	0.001984
2155.000000	0.002172
2154.000000	0.002308
2153.000000	0.002403
2152.000000	0.002514
2151.000000	0.002661
2150.000000	0.002834
2149.000000	0.003017
2148.000000	0.003169
2147.000000	0.003215
2146.000000	0.003102
2145.000000	0.002872
2144.000000	0.002635
2143.000000	0.002488
2142.000000	0.002453
2141.000000	0.002489
2140.000000	0.002530
2139.000000	0.002536
2138.000000	0.002516
2137.000000	0.002491
2136.000000	0.002464
2135.000000	0.002436
2134.000000	0.002440
2133.000000	0.002525
2132.000000	0.002684
2131.000000	0.002840
2130.000000	0.002910
2129.000000	0.002879
2128.000000	0.002801
2127.000000	0.002751
2126.000000	0.002775
2125.000000	0.002868
2124.000000	0.002981
2123.000000	0.003063
2122.000000	0.003095
2121.000000	0.003094
2120.000000	0.003077
2119.000000	0.003050
2118.000000	0.003026
2117.000000	0.003030
2116.000000	0.003073
2115.000000	0.003129
2114.000000	0.003155
2113.000000	0.003137
2112.000000	0.003091
2111.000000	0.003049
2110.000000	0.003031
2109.000000	0.003037
2108.000000	0.003045
2107.000000	0.003031
2106.000000	0.003004
2105.000000	0.002991
2104.000000	0.002995
2103.000000	0.002991
2102.000000	0.002969
2101.000000	0.002965
2100.000000	0.003021
2099.000000	0.003118
2098.000000	0.003191
2097.000000	0.003198
2096.000000	0.003156
2095.000000	0.003112
2094.000000	0.003098
2093.000000	0.003118
2092.000000	0.003158
2091.000000	0.003197
2090.000000	0.003220
2089.000000	0.003223
2088.000000	0.003215
2087.000000	0.003203
2086.000000	0.003195
2085.000000	0.003198
2084.000000	0.003212
2083.000000	0.003222
2082.000000	0.003221
2081.000000	0.003223
2080.000000	0.003247
2079.000000	0.003283
2078.000000	0.003292
2077.000000	0.003255
2076.000000	0.003194
2075.000000	0.003151
2074.000000	0.003151
2073.000000	0.003181
2072.000000	0.003207
2071.000000	0.003210
2070.000000	0.003203
2069.000000	0.003222
2068.000000	0.003267
2067.000000	0.003290
2066.000000	0.003237
2065.000000	0.003120
2064.000000	0.003006
2063.000000	0.002951
2062.000000	0.002950
2061.000000	0.002968
2060.000000	0.002976
2059.000000	0.002954
2058.000000	0.002883
2057.000000	0.002778
2056.000000	0.002699
2055.000000	0.002697
2054.000000	0.002750
2053.000000	0.002786
2052.000000	0.002773
2051.000000	0.002759
2050.000000	0.002799
2049.000000	0.002876
2048.000000	0.002918
2047.000000	0.002903
2046.000000	0.002890
2045.000000	0.002939
2044.000000	0.003040
2043.000000	0.003125
2042.000000	0.003140
2041.000000	0.003080
2040.000000	0.002976
2039.000000	0.002863
2038.000000	0.002758
2037.000000	0.002650
2036.000000	0.002537
2035.000000	0.002449
2034.000000	0.002434
2033.000000	0.002480
2032.000000	0.002508
2031.000000	0.002462
2030.000000	0.002384
2029.000000	0.002368
2028.000000	0.002440
2027.000000	0.002539
2026.000000	0.002593
2025.000000	0.002581
2024.000000	0.002515
2023.000000	0.002413
2022.000000	0.002304
2021.000000	0.002234
2020.000000	0.002241
2019.000000	0.002315
2018.000000	0.002416
2017.000000	0.002505
2016.000000	0.002569
2015.000000	0.002615
2014.000000	0.002646
2013.000000	0.002652
2012.000000	0.002616
2011.000000	0.002535
2010.000000	0.002421
2009.000000	0.002290
2008.000000	0.002165
2007.000000	0.002094
2006.000000	0.002124
2005.000000	0.002246
2004.000000	0.002390
2003.000000	0.002492
2002.000000	0.002544
2001.000000	0.002563
2000.000000	0.002548
1999.000000	0.002491
1998.000000	0.002407
1997.000000	0.002339
1996.000000	0.002332
1995.000000	0.002426
1994.000000	0.002635
1993.000000	0.002903
1992.000000	0.003096
1991.000000	0.003109
1990.000000	0.002969
1989.000000	0.002795
1988.000000	0.002692
1987.000000	0.002686
1986.000000	0.002759
1985.000000	0.002885
1984.000000	0.003030
1983.000000	0.003176
1982.000000	0.003340
1981.000000	0.003536
1980.000000	0.003715
1979.000000	0.003765
1978.000000	0.003621
1977.000000	0.003353
1976.000000	0.003099
1975.000000	0.002927
1974.000000	0.002805
1973.000000	0.002683
1972.000000	0.002545
1971.000000	0.002405
1970.000000	0.002285
1969.000000	0.002217
1968.000000	0.002233
1967.000000	0.002353
1966.000000	0.002553
1965.000000	0.002760
1964.000000	0.002894
1963.000000	0.002934
1962.000000	0.002904
1961.000000	0.002817
1960.000000	0.002654
1959.000000	0.002430
1958.000000	0.002231
1957.000000	0.002159
1956.000000	0.002237
1955.000000	0.002410
1954.000000	0.002609
1953.000000	0.002780
1952.000000	0.002868
1951.000000	0.002838
1950.000000	0.002724
1949.000000	0.002626
1948.000000	0.002622
1947.000000	0.002693
1946.000000	0.002748
1945.000000	0.002717
1944.000000	0.002611
1943.000000	0.002511
1942.000000	0.002502
1941.000000	0.002593
1940.000000	0.002711
1939.000000	0.002782
1938.000000	0.002792
1937.000000	0.002772
1936.000000	0.002742
1935.000000	0.002704
1934.000000	0.002670
1933.000000	0.002666
1932.000000	0.002687
1931.000000	0.002695
1930.000000	0.002676
1929.000000	0.002664
1928.000000	0.002703
1927.000000	0.002780
1926.000000	0.002837
1925.000000	0.002835
1924.000000	0.002789
1923.000000	0.002745
1922.000000	0.002735
1921.000000	0.002747
1920.000000	0.002738
1919.000000	0.002687
1918.000000	0.002616
1917.000000	0.002572
1916.000000	0.002569
1915.000000	0.002575
1914.000000	0.002573
1913.000000	0.002584
1912.000000	0.002644
1911.000000	0.002748
1910.000000	0.002850
1909.000000	0.002894
1908.000000	0.002860
1907.000000	0.002774
1906.000000	0.002683
1905.000000	0.002633
1904.000000	0.002636
1903.000000	0.002667
1902.000000	0.002680
1901.000000	0.002645
1900.000000	0.002567
1899.000000	0.002491
1898.000000	0.002462
1897.000000	0.002490
1896.000000	0.002536
1895.000000	0.002563
1894.000000	0.002570
1893.000000	0.002584
1892.000000	0.002609
1891.000000	0.002620
1890.000000	0.002601
1889.000000	0.002576
1888.000000	0.002573
1887.000000	0.002584
1886.000000	0.002573
1885.000000	0.002528
1884.000000	0.002481
1883.000000	0.002473
1882.000000	0.002511
1881.000000	0.002569
1880.000000	0.002611
1879.000000	0.002627
1878.000000	0.002621
1877.000000	0.002599
1876.000000	0.002575
1875.000000	0.002566
1874.000000	0.002584
1873.000000	0.002607
1872.000000	0.002594
1871.000000	0.002526
1870.000000	0.002433
1869.000000	0.002370
1868.000000	0.002379
1867.000000	0.002457
1866.000000	0.002570
1865.000000	0.002666
1864.000000	0.002707
1863.000000	0.002690
1862.000000	0.002648
1861.000000	0.002614
1860.000000	0.002598
1859.000000	0.002591
1858.000000	0.002589
1857.000000	0.002590
1856.000000	0.002593
1855.000000	0.002591
1854.000000	0.002589
1853.000000	0.002592
1852.000000	0.002597
1851.000000	0.002603
1850.000000	0.002604
1849.000000	0.002578
1848.000000	0.002509
1847.000000	0.002413
1846.000000	0.002345
1845.000000	0.002347
1844.000000	0.002407
1843.000000	0.002475
1842.000000	0.002535
1841.000000	0.002587
1840.000000	0.002617
1839.000000	0.002607
1838.000000	0.002573
1837.000000	0.002560
1836.000000	0.002580
1835.000000	0.002596
1834.000000	0.002572
1833.000000	0.002507
1832.000000	0.002432
1831.000000	0.002381
1830.000000	0.002364
1829.000000	0.002369
1828.000000	0.002387
1827.000000	0.002416
1826.000000	0.002457
1825.000000	0.002505
1824.000000	0.002543
1823.000000	0.002560
1822.000000	0.002562
1821.000000	0.002561
1820.000000	0.002562
1819.000000	0.002557
1818.000000	0.002543
1817.000000	0.002540
1816.000000	0.002554
1815.000000	0.002576
1814.000000	0.002586
1813.000000	0.002576
1812.000000	0.002550
1811.000000	0.002515
1810.000000	0.002493
1809.000000	0.002502
1808.000000	0.002535
1807.000000	0.002558
1806.000000	0.002545
1805.000000	0.002501
1804.000000	0.002452
1803.000000	0.002428
1802.000000	0.002439
1801.000000	0.002471
1800.000000	0.002501
1799.000000	0.002515
1798.000000	0.002518
1797.000000	0.002517
1796.000000	0.002515
1795.000000	0.002512
1794.000000	0.002510
1793.000000	0.002507
1792.000000	0.002493
1791.000000	0.002465
1790.000000	0.002441
1789.000000	0.002433
1788.000000	0.002436
1787.000000	0.002439
1786.000000	0.002437
1785.000000	0.002434
1784.000000	0.002423
1783.000000	0.002407
1782.000000	0.002394
1781.000000	0.002388
1780.000000	0.002393
1779.000000	0.002402
1778.000000	0.002403
1777.000000	0.002382
1776.000000	0.002337
1775.000000	0.002285
1774.000000	0.002248
1773.000000	0.002227
1772.000000	0.002208
1771.000000	0.002193
1770.000000	0.002208
1769.000000	0.002257
1768.000000	0.002303
1767.000000	0.002312
1766.000000	0.002287
1765.000000	0.002256
1764.000000	0.002236
1763.000000	0.002222
1762.000000	0.002209
1761.000000	0.002202
1760.000000	0.002212
1759.000000	0.002230
1758.000000	0.002249
1757.000000	0.002257
1756.000000	0.002264
1755.000000	0.002297
1754.000000	0.002373
1753.000000	0.002475
1752.000000	0.002553
1751.000000	0.002571
1750.000000	0.002544
1749.000000	0.002522
1748.000000	0.002519
1747.000000	0.002519
1746.000000	0.002521
1745.000000	0.002525
1744.000000	0.002520
1743.000000	0.002485
1742.000000	0.002433
1741.000000	0.002408
1740.000000	0.002420
1739.000000	0.002429
1738.000000	0.002412
1737.000000	0.002392
1736.000000	0.002385
1735.000000	0.002386
1734.000000	0.002379
1733.000000	0.002373
1732.000000	0.002374
1731.000000	0.002372
1730.000000	0.002357
1729.000000	0.002339
1728.000000	0.002330
1727.000000	0.002334
1726.000000	0.002340
1725.000000	0.002346
1724.000000	0.002348
1723.000000	0.002324
1722.000000	0.002267
1721.000000	0.002209
1720.000000	0.002182
1719.000000	0.002186
1718.000000	0.002187
1717.000000	0.002179
1716.000000	0.002193
1715.000000	0.002236
1714.000000	0.002301
1713.000000	0.002396
1712.000000	0.002523
1711.000000	0.002659
1710.000000	0.002777
1709.000000	0.002866
1708.000000	0.002947
1707.000000	0.003057
1706.000000	0.003200
1705.000000	0.003345
1704.000000	0.003463
1703.000000	0.003566
1702.000000	0.003682
1701.000000	0.003863
1700.000000	0.004119
1699.000000	0.004400
1698.000000	0.004705
1697.000000	0.005059
1696.000000	0.005422
1695.000000	0.005736
1694.000000	0.006001
1693.000000	0.006259
1692.000000	0.006533
1691.000000	0.006795
1690.000000	0.007017
1689.000000	0.007201
1688.000000	0.007377
1687.000000	0.007567
1686.000000	0.007785
1685.000000	0.008058
1684.000000	0.008347
1683.000000	0.008613
1682.000000	0.008924
1681.000000	0.009291
1680.000000	0.009649
1679.000000	0.009939
1678.000000	0.010181
1677.000000	0.010448
1676.000000	0.010781
1675.000000	0.011146
1674.000000	0.011491
1673.000000	0.011822
1672.000000	0.012177
1671.000000	0.012571
1670.000000	0.013000
1669.000000	0.013434
1668.000000	0.013839
1667.000000	0.014188
1666.000000	0.014489
1665.000000	0.014787
1664.000000	0.015121
1663.000000	0.015481
1662.000000	0.015834
1661.000000	0.016170
1660.000000	0.016491
1659.000000	0.016774
1658.000000	0.016987
1657.000000	0.017145
1656.000000	0.017296
1655.000000	0.017477
1654.000000	0.017697
1653.000000	0.017922
1652.000000	0.018126
1651.000000	0.018289
1650.000000	0.018420
1649.000000	0.018579
1648.000000	0.018766
1647.000000	0.018920
1646.000000	0.019031
1645.000000	0.019158
1644.000000	0.019307
1643.000000	0.019449
1642.000000	0.019568
1641.000000	0.019648
1640.000000	0.019684
1639.000000	0.019694
1638.000000	0.019704
1637.000000	0.019720
1636.000000	0.019714
1635.000000	0.019687
1634.000000	0.019695
1633.000000	0.019755
1632.000000	0.019820
1631.000000	0.019833
1630.000000	0.019765
1629.000000	0.019634
1628.000000	0.019467
1627.000000	0.019283
1626.000000	0.019087
1625.000000	0.018875
1624.000000	0.018631
1623.000000	0.018346
1622.000000	0.018048
1621.000000	0.017774
1620.000000	0.017529
1619.000000	0.017276
1618.000000	0.016951
1617.000000	0.016528
1616.000000	0.016069
1615.000000	0.015673
1614.000000	0.015358
1613.000000	0.015081
1612.000000	0.014794
1611.000000	0.014484
1610.000000	0.014169
1609.000000	0.013858
1608.000000	0.013547
1607.000000	0.013249
1606.000000	0.012984
1605.000000	0.012746
1604.000000	0.012514
1603.000000	0.012276
1602.000000	0.012042
1601.000000	0.011828
1600.000000	0.011645
1599.000000	0.011494
1598.000000	0.011365
1597.000000	0.011243
1596.000000	0.011123
1595.000000	0.011012
1594.000000	0.010925
1593.000000	0.010868
1592.000000	0.010838
1591.000000	0.010826
1590.000000	0.010823
1589.000000	0.010813
1588.000000	0.010801
1587.000000	0.010805
1586.000000	0.010844
1585.000000	0.010907
1584.000000	0.010976
1583.000000	0.011055
1582.000000	0.011143
1581.000000	0.011232
1580.000000	0.011322
1579.000000	0.011443
1578.000000	0.011606
1577.000000	0.011775
1576.000000	0.011890
1575.000000	0.011947
1574.000000	0.012002
1573.000000	0.012083
1572.000000	0.012185
1571.000000	0.012305
1570.000000	0.012461
1569.000000	0.012655
1568.000000	0.012879
1567.000000	0.013128
1566.000000	0.013392
1565.000000	0.013649
1564.000000	0.013868
1563.000000	0.014042
1562.000000	0.014183
1561.000000	0.014279
1560.000000	0.014411
1559.000000	0.014593
1558.000000	0.014781
1557.000000	0.015056
1556.000000	0.015387
1555.000000	0.015694
1554.000000	0.015944
1553.000000	0.016139
1552.000000	0.016321
1551.000000	0.016501
1550.000000	0.016658
1549.000000	0.016775
1548.000000	0.016868
1547.000000	0.016955
1546.000000	0.017035
1545.000000	0.017088
1544.000000	0.017100
1543.000000	0.017087
1542.000000	0.017094
1541.000000	0.017140
1540.000000	0.017167
1539.000000	0.017151
1538.000000	0.017139
1537.000000	0.017137
1536.000000	0.017130
1535.000000	0.017096
1534.000000	0.017010
1533.000000	0.016895
1532.000000	0.016819
1531.000000	0.016799
1530.000000	0.016780
1529.000000	0.016726
1528.000000	0.016634
1527.000000	0.016510
1526.000000	0.016359
1525.000000	0.016205
1524.000000	0.016075
1523.000000	0.015962
1522.000000	0.015816
1521.000000	0.015614
1520.000000	0.015421
1519.000000	0.015294
1518.000000	0.015220
1517.000000	0.015153
1516.000000	0.015075
1515.000000	0.015008
1514.000000	0.014953
1513.000000	0.014865
1512.000000	0.014717
1511.000000	0.014520
1510.000000	0.014319
1509.000000	0.014128
1508.000000	0.013903
1507.000000	0.013549
1506.000000	0.013160
1505.000000	0.012943
1504.000000	0.012859
1503.000000	0.012792
1502.000000	0.012687
1501.000000	0.012520
1500.000000	0.012307
1499.000000	0.012088
1498.000000	0.011879
1497.000000	0.011674
1496.000000	0.011469
1495.000000	0.011269
1494.000000	0.011079
1493.000000	0.010898
1492.000000	0.010718
1491.000000	0.010532
1490.000000	0.010349
1489.000000	0.010200
1488.000000	0.010115
1487.000000	0.010074
1486.000000	0.010049
1485.000000	0.010026
1484.000000	0.010003
1483.000000	0.009978
1482.000000	0.009949
1481.000000	0.009936
1480.000000	0.009955
1479.000000	0.010004
1478.000000	0.010064
1477.000000	0.010133
1476.000000	0.010211
1475.000000	0.010300
1474.000000	0.010395
1473.000000	0.010489
1472.000000	0.010589
1471.000000	0.010720
1470.000000	0.010883
1469.000000	0.011050
1468.000000	0.011195
1467.000000	0.011314
1466.000000	0.011432
1465.000000	0.011566
1464.000000	0.011717
1463.000000	0.011872
1462.000000	0.012009
1461.000000	0.012116
1460.000000	0.012203
1459.000000	0.012300
1458.000000	0.012442
1457.000000	0.012638
1456.000000	0.012866
1455.000000	0.013100
1454.000000	0.013319
1453.000000	0.013507
1452.000000	0.013641
1451.000000	0.013713
1450.000000	0.013755
1449.000000	0.013792
1448.000000	0.013815
1447.000000	0.013815
1446.000000	0.013811
1445.000000	0.013806
1444.000000	0.013791
1443.000000	0.013758
1442.000000	0.013710
1441.000000	0.013646
1440.000000	0.013562
1439.000000	0.013450
1438.000000	0.013314
1437.000000	0.013173
1436.000000	0.013054
1435.000000	0.012985
1434.000000	0.012961
1433.000000	0.012945
1432.000000	0.012902
1431.000000	0.012822
1430.000000	0.012727
1429.000000	0.012643
1428.000000	0.012579
1427.000000	0.012539
1426.000000	0.012520
1425.000000	0.012498
1424.000000	0.012440
1423.000000	0.012347
1422.000000	0.012253
1421.000000	0.012177
1420.000000	0.012118
1419.000000	0.012078
1418.000000	0.012069
1417.000000	0.012103
1416.000000	0.012158
1415.000000	0.012199
1414.000000	0.012214
1413.000000	0.012216
1412.000000	0.012216
1411.000000	0.012220
1410.000000	0.012234
1409.000000	0.012272
1408.000000	0.012327
1407.000000	0.012380
1406.000000	0.012417
1405.000000	0.012433
1404.000000	0.012434
1403.000000	0.012427
1402.000000	0.012422
1401.000000	0.012418
1400.000000	0.012406
1399.000000	0.012373
1398.000000	0.012320
1397.000000	0.012260
1396.000000	0.012193
1395.000000	0.012115
1394.000000	0.012046
1393.000000	0.012007
1392.000000	0.011989
1391.000000	0.011968
1390.000000	0.011932
1389.000000	0.011881
1388.000000	0.011811
1387.000000	0.011714
1386.000000	0.011603
1385.000000	0.011505
1384.000000	0.011426
1383.000000	0.011348
1382.000000	0.011252
1381.000000	0.011137
1380.000000	0.011012
1379.000000	0.010888
1378.000000	0.010768
1377.000000	0.010652
1376.000000	0.010534
1375.000000	0.010411
1374.000000	0.010284
1373.000000	0.010163
1372.000000	0.010057
1371.000000	0.009964
1370.000000	0.009876
1369.000000	0.009782
1368.000000	0.009668
1367.000000	0.009527
1366.000000	0.009367
1365.000000	0.009205
1364.000000	0.009061
1363.000000	0.008947
1362.000000	0.008865
1361.000000	0.008808
1360.000000	0.008766
1359.000000	0.008728
1358.000000	0.008693
1357.000000	0.008664
1356.000000	0.008646
1355.000000	0.008643
1354.000000	0.008658
1353.000000	0.008693
1352.000000	0.008741
1351.000000	0.008796
1350.000000	0.008862
1349.000000	0.008945
1348.000000	0.009044
1347.000000	0.009146
1346.000000	0.009238
1345.000000	0.009321
1344.000000	0.009409
1343.000000	0.009514
1342.000000	0.009638
1341.000000	0.009766
1340.000000	0.009871
1339.000000	0.009937
1338.000000	0.009971
1337.000000	0.009987
1336.000000	0.009990
1335.000000	0.009972
1334.000000	0.009933
1333.000000	0.009884
1332.000000	0.009838
1331.000000	0.009799
1330.000000	0.009761
1329.000000	0.009712
1328.000000	0.009647
1327.000000	0.009569
1326.000000	0.009488
1325.000000	0.009420
1324.000000	0.009373
1323.000000	0.009347
1322.000000	0.009337
1321.000000	0.009338
1320.000000	0.009343
1319.000000	0.009341
1318.000000	0.009328
1317.000000	0.009306
1316.000000	0.009283
1315.000000	0.009259
1314.000000	0.009224
1313.000000	0.009172
1312.000000	0.009103
1311.000000	0.009028
1310.000000	0.008955
1309.000000	0.008886
1308.000000	0.008816
1307.000000	0.008745
1306.000000	0.008675
1305.000000	0.008609
1304.000000	0.008545
1303.000000	0.008481
1302.000000	0.008420
1301.000000	0.008365
1300.000000	0.008318
1299.000000	0.008276
1298.000000	0.008239
1297.000000	0.008210
1296.000000	0.008193
1295.000000	0.008192
1294.000000	0.008203
1293.000000	0.008222
1292.000000	0.008244
1291.000000	0.008270
1290.000000	0.008307
1289.000000	0.008359
1288.000000	0.008422
1287.000000	0.008487
1286.000000	0.008547
1285.000000	0.008599
1284.000000	0.008642
1283.000000	0.008681
1282.000000	0.008717
1281.000000	0.008749
1280.000000	0.008766
1279.000000	0.008765
1278.000000	0.008750
1277.000000	0.008736
1276.000000	0.008726
1275.000000	0.008710
1274.000000	0.008683
1273.000000	0.008653
1272.000000	0.008635
1271.000000	0.008638
1270.000000	0.008662
1269.000000	0.008706
1268.000000	0.008766
1267.000000	0.008824
1266.000000	0.008866
1265.000000	0.008898
1264.000000	0.008942
1263.000000	0.009006
1262.000000	0.009076
1261.000000	0.009132
1260.000000	0.009170
1259.000000	0.009208
1258.000000	0.009261
1257.000000	0.009328
1256.000000	0.009403
1255.000000	0.009479
1254.000000	0.009556
1253.000000	0.009639
1252.000000	0.009733
1251.000000	0.009839
1250.000000	0.009953
1249.000000	0.010069
1248.000000	0.010187
1247.000000	0.010314
1246.000000	0.010447
1245.000000	0.010571
1244.000000	0.010671
1243.000000	0.010745
1242.000000	0.010807
1241.000000	0.010869
1240.000000	0.010932
1239.000000	0.010988
1238.000000	0.011033
1237.000000	0.011066
1236.000000	0.011087
1235.000000	0.011086
1234.000000	0.011058
1233.000000	0.011002
1232.000000	0.010927
1231.000000	0.010839
1230.000000	0.010742
1229.000000	0.010631
1228.000000	0.010499
1227.000000	0.010346
1226.000000	0.010177
1225.000000	0.009997
1224.000000	0.009808
1223.000000	0.009611
1222.000000	0.009416
1221.000000	0.009230
1220.000000	0.009053
1219.000000	0.008890
1218.000000	0.008750
1217.000000	0.008640
1216.000000	0.008557
1215.000000	0.008487
1214.000000	0.008421
1213.000000	0.008367
1212.000000	0.008332
1211.000000	0.008324
1210.000000	0.008342
1209.000000	0.008378
1208.000000	0.008424
1207.000000	0.008470
1206.000000	0.008517
1205.000000	0.008567
1204.000000	0.008616
1203.000000	0.008646
1202.000000	0.008643
1201.000000	0.008600
1200.000000	0.008523
1199.000000	0.008427
1198.000000	0.008328
1197.000000	0.008239
1196.000000	0.008157
1195.000000	0.008066
1194.000000	0.007949
1193.000000	0.007810
1192.000000	0.007669
1191.000000	0.007548
1190.000000	0.007455
1189.000000	0.007379
1188.000000	0.007304
1187.000000	0.007220
1186.000000	0.007126
1185.000000	0.007033
1184.000000	0.006957
1183.000000	0.006903
1182.000000	0.006864
1181.000000	0.006828
1180.000000	0.006792
1179.000000	0.006764
1178.000000	0.006754
1177.000000	0.006765
1176.000000	0.006787
1175.000000	0.006809
1174.000000	0.006825
1173.000000	0.006834
1172.000000	0.006842
1171.000000	0.006856
1170.000000	0.006882
1169.000000	0.006922
1168.000000	0.006976
1167.000000	0.007041
1166.000000	0.007112
1165.000000	0.007176
1164.000000	0.007231
1163.000000	0.007279
1162.000000	0.007319
1161.000000	0.007337
1160.000000	0.007315
1159.000000	0.007254
1158.000000	0.007177
1157.000000	0.007107
1156.000000	0.007044
1155.000000	0.006973
1154.000000	0.006887
1153.000000	0.006791
1152.000000	0.006693
1151.000000	0.006592
1150.000000	0.006486
1149.000000	0.006381
1148.000000	0.006288
1147.000000	0.006212
1146.000000	0.006143
1145.000000	0.006066
1144.000000	0.005967
1143.000000	0.005850
1142.000000	0.005742
1141.000000	0.005668
1140.000000	0.005631
1139.000000	0.005608
1138.000000	0.005577
1137.000000	0.005531
1136.000000	0.005484
1135.000000	0.005444
1134.000000	0.005416
1133.000000	0.005402
1132.000000	0.005406
1131.000000	0.005421
1130.000000	0.005436
1129.000000	0.005441
1128.000000	0.005442
1127.000000	0.005449
1126.000000	0.005469
1125.000000	0.005501
1124.000000	0.005534
1123.000000	0.005555
1122.000000	0.005558
1121.000000	0.005552
1120.000000	0.005554
1119.000000	0.005578
1118.000000	0.005623
1117.000000	0.005685
1116.000000	0.005762
1115.000000	0.005852
1114.000000	0.005948
1113.000000	0.006036
1112.000000	0.006101
1111.000000	0.006136
1110.000000	0.006148
1109.000000	0.006154
1108.000000	0.006170
1107.000000	0.006194
1106.000000	0.006215
1105.000000	0.006226
1104.000000	0.006233
1103.000000	0.006241
1102.000000	0.006250
1101.000000	0.006262
1100.000000	0.006281
1099.000000	0.006313
1098.000000	0.006350
1097.000000	0.006383
1096.000000	0.006406
1095.000000	0.006428
1094.000000	0.006462
1093.000000	0.006516
1092.000000	0.006588
1091.000000	0.006667
1090.000000	0.006738
1089.000000	0.006808
1088.000000	0.006892
1087.000000	0.007008
1086.000000	0.007149
1085.000000	0.007300
1084.000000	0.007441
1083.000000	0.007561
1082.000000	0.007650
1081.000000	0.007703
1080.000000	0.007721
1079.000000	0.007713
1078.000000	0.007683
1077.000000	0.007632
1076.000000	0.007561
1075.000000	0.007469
1074.000000	0.007356
1073.000000	0.007238
1072.000000	0.007141
1071.000000	0.007088
1070.000000	0.007077
1069.000000	0.007085
1068.000000	0.007095
1067.000000	0.007106
1066.000000	0.007125
1065.000000	0.007156
1064.000000	0.007204
1063.000000	0.007277
1062.000000	0.007374
1061.000000	0.007475
1060.000000	0.007556
1059.000000	0.007594
1058.000000	0.007592
1057.000000	0.007568
1056.000000	0.007548
1055.000000	0.007547
1054.000000	0.007552
1053.000000	0.007540
1052.000000	0.007504
1051.000000	0.007464
1050.000000	0.007447
1049.000000	0.007453
1048.000000	0.007457
1047.000000	0.007441
1046.000000	0.007404
1045.000000	0.007363
1044.000000	0.007335
1043.000000	0.007328
1042.000000	0.007345
1041.000000	0.007383
1040.000000	0.007439
1039.000000	0.007516
1038.000000	0.007623
1037.000000	0.007761
1036.000000	0.007918
1035.000000	0.008073
1034.000000	0.008215
1033.000000	0.008346
1032.000000	0.008471
1031.000000	0.008581
1030.000000	0.008657
1029.000000	0.008692
1028.000000	0.008700
1027.000000	0.008690
1026.000000	0.008657
1025.000000	0.008602
1024.000000	0.008552
1023.000000	0.008551
1022.000000	0.008611
1021.000000	0.008700
1020.000000	0.008774
1019.000000	0.008811
1018.000000	0.008814
1017.000000	0.008781
1016.000000	0.008704
1015.000000	0.008579
1014.000000	0.008424
1013.000000	0.008263
1012.000000	0.008107
1011.000000	0.007952
1010.000000	0.007793
1009.000000	0.007636
1008.000000	0.007489
1007.000000	0.007353
1006.000000	0.007212
1005.000000	0.007049
1004.000000	0.006875
1003.000000	0.006719
1002.000000	0.006601
1001.000000	0.006509
1000.000000	0.006422
999.000000	0.006332
998.000000	0.006249
997.000000	0.006174
996.000000	0.006098
995.000000	0.006008
994.000000	0.005902
993.000000	0.005783
992.000000	0.005661
991.000000	0.005550
990.000000	0.005460
989.000000	0.005390
988.000000	0.005332
987.000000	0.005276
986.000000	0.005215
985.000000	0.005147
984.000000	0.005074
983.000000	0.005013
982.000000	0.004975
981.000000	0.004954
980.000000	0.004932
979.000000	0.004900
978.000000	0.004858
977.000000	0.004806
976.000000	0.004741
975.000000	0.004672
974.000000	0.004617
973.000000	0.004588
972.000000	0.004571
971.000000	0.004549
970.000000	0.004512
969.000000	0.004465
968.000000	0.004414
967.000000	0.004360
966.000000	0.004300
965.000000	0.004231
964.000000	0.004154
963.000000	0.004076
962.000000	0.004008
961.000000	0.003952
960.000000	0.003903
959.000000	0.003858
958.000000	0.003818
957.000000	0.003781
956.000000	0.003740
955.000000	0.003695
954.000000	0.003656
953.000000	0.003625
952.000000	0.003583
951.000000	0.003517
950.000000	0.003434
949.000000	0.003363
948.000000	0.003319
947.000000	0.003303
946.000000	0.003303
945.000000	0.003312
944.000000	0.003327
943.000000	0.003340
942.000000	0.003349
941.000000	0.003354
940.000000	0.003357
939.000000	0.003352
938.000000	0.003331
937.000000	0.003284
936.000000	0.003210
935.000000	0.003127
934.000000	0.003070
933.000000	0.003058
932.000000	0.003078
931.000000	0.003088
930.000000	0.003067
929.000000	0.003024
928.000000	0.002984
927.000000	0.002965
926.000000	0.002968
925.000000	0.002985
924.000000	0.003001
923.000000	0.003001
922.000000	0.002973
921.000000	0.002922
920.000000	0.002866
919.000000	0.002816
918.000000	0.002774
917.000000	0.002738
916.000000	0.002712
915.000000	0.002701
914.000000	0.002705
913.000000	0.002711
912.000000	0.002695
911.000000	0.002644
910.000000	0.002570
909.000000	0.002504
908.000000	0.002474
907.000000	0.002481
906.000000	0.002502
905.000000	0.002511
904.000000	0.002505
903.000000	0.002495
902.000000	0.002495
901.000000	0.002504
900.000000	0.002509
899.000000	0.002498
898.000000	0.002462
897.000000	0.002405
896.000000	0.002343
895.000000	0.002290
894.000000	0.002254
893.000000	0.002232
892.000000	0.002214
891.000000	0.002196
890.000000	0.002179
889.000000	0.002176
888.000000	0.002198
887.000000	0.002244
886.000000	0.002303
885.000000	0.002366
884.000000	0.002434
883.000000	0.002522
882.000000	0.002649
881.000000	0.002831
880.000000	0.003073
879.000000	0.003359
878.000000	0.003646
877.000000	0.003884
876.000000	0.004032
875.000000	0.004069
874.000000	0.003991
873.000000	0.003817
872.000000	0.003594
871.000000	0.003377
870.000000	0.003197
869.000000	0.003051
868.000000	0.002923
867.000000	0.002820
866.000000	0.002758
865.000000	0.002732
864.000000	0.002709
863.000000	0.002662
862.000000	0.002595
861.000000	0.002533
860.000000	0.002493
859.000000	0.002478
858.000000	0.002478
857.000000	0.002485
856.000000	0.002497
855.000000	0.002513
854.000000	0.002533
853.000000	0.002554
852.000000	0.002571
851.000000	0.002593
850.000000	0.002625
849.000000	0.002654
848.000000	0.002639
847.000000	0.002555
846.000000	0.002427
845.000000	0.002316
844.000000	0.002263
843.000000	0.002258
842.000000	0.002271
841.000000	0.002283
840.000000	0.002293
839.000000	0.002295
838.000000	0.002282
837.000000	0.002261
836.000000	0.002248
835.000000	0.002253
834.000000	0.002266
833.000000	0.002271
832.000000	0.002251
831.000000	0.002203
830.000000	0.002148
829.000000	0.002123
828.000000	0.002151
827.000000	0.002211
826.000000	0.002259
825.000000	0.002273
824.000000	0.002273
823.000000	0.002284
822.000000	0.002304
821.000000	0.002320
820.000000	0.002326
819.000000	0.002327
818.000000	0.002324
817.000000	0.002315
816.000000	0.002295
815.000000	0.002266
814.000000	0.002232
813.000000	0.002211
812.000000	0.002224
811.000000	0.002264
810.000000	0.002297
809.000000	0.002289
808.000000	0.002243
807.000000	0.002196
806.000000	0.002181
805.000000	0.002197
804.000000	0.002216
803.000000	0.002220
802.000000	0.002215
801.000000	0.002222
800.000000	0.002249
799.000000	0.002284
798.000000	0.002313
797.000000	0.002344
796.000000	0.002388
795.000000	0.002438
794.000000	0.002465
793.000000	0.002453
792.000000	0.002421
791.000000	0.002398
790.000000	0.002390
789.000000	0.002383
788.000000	0.002376
787.000000	0.002383
786.000000	0.002405
785.000000	0.002417
784.000000	0.002394
783.000000	0.002338
782.000000	0.002280
781.000000	0.002252
780.000000	0.002261
779.000000	0.002289
778.000000	0.002311
777.000000	0.002312
776.000000	0.002295
775.000000	0.002280
774.000000	0.002286
773.000000	0.002314
772.000000	0.002347
771.000000	0.002368
770.000000	0.002378
769.000000	0.002398
768.000000	0.002433
767.000000	0.002459
766.000000	0.002443
765.000000	0.002391
764.000000	0.002345
763.000000	0.002337
762.000000	0.002359
761.000000	0.002375
760.000000	0.002370
759.000000	0.002363
758.000000	0.002371
757.000000	0.002388
756.000000	0.002400
755.000000	0.002404
754.000000	0.002407
753.000000	0.002414
752.000000	0.002421
751.000000	0.002432
750.000000	0.002462
749.000000	0.002512
748.000000	0.002565
747.000000	0.002601
746.000000	0.002624
745.000000	0.002651
744.000000	0.002687
743.000000	0.002713
742.000000	0.002706
741.000000	0.002676
740.000000	0.002663
739.000000	0.002693
738.000000	0.002765
737.000000	0.002854
736.000000	0.002937
735.000000	0.003001
734.000000	0.003039
733.000000	0.003050
732.000000	0.003037
731.000000	0.003000
730.000000	0.002946
729.000000	0.002913
728.000000	0.002949
727.000000	0.003065
726.000000	0.003210
725.000000	0.003328
724.000000	0.003401
723.000000	0.003454
722.000000	0.003514
721.000000	0.003585
720.000000	0.003653
719.000000	0.003698
718.000000	0.003706
717.000000	0.003691
716.000000	0.003694
715.000000	0.003762
714.000000	0.003898
713.000000	0.004052
712.000000	0.004161
711.000000	0.004205
710.000000	0.004218
709.000000	0.004255
708.000000	0.004336
707.000000	0.004417
706.000000	0.004439
705.000000	0.004407
704.000000	0.004375
703.000000	0.004381
702.000000	0.004396
701.000000	0.004384
700.000000	0.004360
699.000000	0.004363
698.000000	0.004381
697.000000	0.004373
696.000000	0.004340
695.000000	0.004340
694.000000	0.004395
693.000000	0.004452
692.000000	0.004461
691.000000	0.004445
690.000000	0.004462
689.000000	0.004527
688.000000	0.004606
687.000000	0.004684
686.000000	0.004770
685.000000	0.004853
684.000000	0.004890
683.000000	0.004857
682.000000	0.004776
681.000000	0.004716
680.000000	0.004740
679.000000	0.004840
678.000000	0.004935
677.000000	0.004971
676.000000	0.004986
675.000000	0.005046
674.000000	0.005153
673.000000	0.005244
672.000000	0.005275
671.000000	0.005252
670.000000	0.005181
669.000000	0.005057
668.000000	0.005033
667.000000	0.005212
666.000000	0.005344
665.000000	0.005435
664.000000	0.005540
663.000000	0.005625
662.000000	0.005665
661.000000	0.005676
660.000000	0.005664
659.000000	0.005607
658.000000	0.005498
657.000000	0.005402
656.000000	0.005375
655.000000	0.005400
654.000000	0.005426
653.000000	0.005432
652.000000	0.005422
651.000000	0.005407
650.000000	0.005411
649.000000	0.005457
648.000000	0.005513
647.000000	0.005516
646.000000	0.005467
645.000000	0.005447
644.000000	0.005510
643.000000	0.005628
642.000000	0.005721
641.000000	0.005741
640.000000	0.005696
639.000000	0.005625
638.000000	0.005572
637.000000	0.005551
636.000000	0.005525
635.000000	0.005447
634.000000	0.005329
633.000000	0.005240
632.000000	0.005221
631.000000	0.005252
630.000000	0.005290
629.000000	0.005322
628.000000	0.005372
627.000000	0.005467
626.000000	0.005619
625.000000	0.005794
624.000000	0.005918
623.000000	0.005934
622.000000	0.005859
621.000000	0.005753
620.000000	0.005663
619.000000	0.005604
618.000000	0.005592
617.000000	0.005630
616.000000	0.005686
615.000000	0.005718
614.000000	0.005732
613.000000	0.005771
612.000000	0.005844
611.000000	0.005907
610.000000	0.005928
609.000000	0.005915
608.000000	0.005889
607.000000	0.005851
606.000000	0.005816
605.000000	0.005819
604.000000	0.005865
603.000000	0.005916
602.000000	0.005925
601.000000	0.005871
600.000000	0.005766
599.000000	0.005643
598.000000	0.005547
597.000000	0.005506
596.000000	0.005498
595.000000	0.005480
594.000000	0.005456
593.000000	0.005478
592.000000	0.005564
591.000000	0.005668
590.000000	0.005731
589.000000	0.005745
588.000000	0.005721
587.000000	0.005651
586.000000	0.005536
585.000000	0.005430
584.000000	0.005403
583.000000	0.005468
582.000000	0.005573
581.000000	0.005658
580.000000	0.005707
579.000000	0.005743
578.000000	0.005793
577.000000	0.005854
576.000000	0.005894
575.000000	0.005894
574.000000	0.005883
573.000000	0.005919
572.000000	0.006028
571.000000	0.006173
570.000000	0.006294
569.000000	0.006358
568.000000	0.006367
567.000000	0.006350
566.000000	0.006354
565.000000	0.006431
564.000000	0.006597
563.000000	0.006810
562.000000	0.006991
561.000000	0.007088
560.000000	0.007105
559.000000	0.007088
558.000000	0.007071
557.000000	0.007032
556.000000	0.006922
555.000000	0.006746
554.000000	0.006583
553.000000	0.006495
552.000000	0.006446
551.000000	0.006361
550.000000	0.006243
549.000000	0.006161
548.000000	0.006141
547.000000	0.006138
546.000000	0.006119
545.000000	0.006098
544.000000	0.006083
543.000000	0.006051
542.000000	0.006006
541.000000	0.005994
540.000000	0.006028
539.000000	0.006056
538.000000	0.006037
537.000000	0.006004
536.000000	0.006017
535.000000	0.006075
534.000000	0.006129
533.000000	0.006145
532.000000	0.006136
531.000000	0.006141
530.000000	0.006174
529.000000	0.006199
528.000000	0.006153
527.000000	0.006014
526.000000	0.005841
525.000000	0.005709
524.000000	0.005627
523.000000	0.005584
522.000000	0.005613
521.000000	0.005720
520.000000	0.005777
519.000000	0.005614
518.000000	0.005237
517.000000	0.004877
516.000000	0.004729
515.000000	0.004773
514.000000	0.004866
513.000000	0.004906
512.000000	0.004858
511.000000	0.004726
510.000000	0.004590
509.000000	0.004583
508.000000	0.004773
507.000000	0.005069
506.000000	0.005292
505.000000	0.005326
504.000000	0.005165
503.000000	0.004868
502.000000	0.004546
501.000000	0.004326
500.000000	0.004254
499.000000	0.004289
498.000000	0.004367
497.000000	0.004431
496.000000	0.004412
495.000000	0.004281
494.000000	0.004146
493.000000	0.004164
492.000000	0.004322
491.000000	0.004394
490.000000	0.004215
489.000000	0.003893
488.000000	0.003661
487.000000	0.003616
486.000000	0.003691
485.000000	0.003791
484.000000	0.003866
483.000000	0.003890
482.000000	0.003877
481.000000	0.003890
480.000000	0.003945
479.000000	0.003971
478.000000	0.003907
477.000000	0.003792
476.000000	0.003677
475.000000	0.003543
474.000000	0.003409
473.000000	0.003426
472.000000	0.003681
471.000000	0.003988
470.000000	0.004072
469.000000	0.003917
468.000000	0.003735
467.000000	0.003657
466.000000	0.003618
465.000000	0.003549
464.000000	0.003492
463.000000	0.003476
462.000000	0.003391
461.000000	0.003105
460.000000	0.002629
459.000000	0.002121
458.000000	0.001783
457.000000	0.001729
456.000000	0.001886
455.000000	0.002074
454.000000	0.002191
453.000000	0.002277
452.000000	0.002400
451.000000	0.002484
450.000000	0.002388
