PE IR       SUBTECH     SPECTRUM    ASCII       PEDS        4.00        
   -1
3G-N10-C035_1.ASC
22/02/24
10:12:29.00
22/02/24
10:18:11.00
uco
Sample 035 By uco Date Thursday, February 24 2022
450.000000
#HDR
-1
-1
#GR
cm-1
A
1.0
0.0
4000.000000
-1.000000
3551
8
0.027541
0.003201
#DATA
4000.000000	0.003522
3999.000000	0.003527
3998.000000	0.003539
3997.000000	0.003550
3996.000000	0.003550
3995.000000	0.003540
3994.000000	0.003531
3993.000000	0.003534
3992.000000	0.003554
3991.000000	0.003585
3990.000000	0.003612
3989.000000	0.003626
3988.000000	0.003625
3987.000000	0.003612
3986.000000	0.003594
3985.000000	0.003580
3984.000000	0.003577
3983.000000	0.003588
3982.000000	0.003610
3981.000000	0.003636
3980.000000	0.003658
3979.000000	0.003673
3978.000000	0.003683
3977.000000	0.003688
3976.000000	0.003688
3975.000000	0.003684
3974.000000	0.003677
3973.000000	0.003665
3972.000000	0.003650
3971.000000	0.003630
3970.000000	0.003614
3969.000000	0.003610
3968.000000	0.003621
3967.000000	0.003639
3966.000000	0.003652
3965.000000	0.003657
3964.000000	0.003658
3963.000000	0.003662
3962.000000	0.003670
3961.000000	0.003674
3960.000000	0.003668
3959.000000	0.003656
3958.000000	0.003651
3957.000000	0.003665
3956.000000	0.003692
3955.000000	0.003719
3954.000000	0.003727
3953.000000	0.003716
3952.000000	0.003695
3951.000000	0.003678
3950.000000	0.003669
3949.000000	0.003662
3948.000000	0.003651
3947.000000	0.003634
3946.000000	0.003616
3945.000000	0.003602
3944.000000	0.003598
3943.000000	0.003611
3942.000000	0.003643
3941.000000	0.003686
3940.000000	0.003721
3939.000000	0.003736
3938.000000	0.003730
3937.000000	0.003714
3936.000000	0.003701
3935.000000	0.003698
3934.000000	0.003704
3933.000000	0.003715
3932.000000	0.003727
3931.000000	0.003740
3930.000000	0.003750
3929.000000	0.003758
3928.000000	0.003762
3927.000000	0.003762
3926.000000	0.003758
3925.000000	0.003749
3924.000000	0.003738
3923.000000	0.003727
3922.000000	0.003719
3921.000000	0.003712
3920.000000	0.003702
3919.000000	0.003689
3918.000000	0.003677
3917.000000	0.003669
3916.000000	0.003665
3915.000000	0.003662
3914.000000	0.003660
3913.000000	0.003661
3912.000000	0.003665
3911.000000	0.003668
3910.000000	0.003669
3909.000000	0.003669
3908.000000	0.003672
3907.000000	0.003679
3906.000000	0.003690
3905.000000	0.003702
3904.000000	0.003713
3903.000000	0.003728
3902.000000	0.003746
3901.000000	0.003760
3900.000000	0.003763
3899.000000	0.003757
3898.000000	0.003750
3897.000000	0.003746
3896.000000	0.003743
3895.000000	0.003736
3894.000000	0.003727
3893.000000	0.003716
3892.000000	0.003708
3891.000000	0.003706
3890.000000	0.003709
3889.000000	0.003712
3888.000000	0.003713
3887.000000	0.003710
3886.000000	0.003703
3885.000000	0.003699
3884.000000	0.003700
3883.000000	0.003699
3882.000000	0.003691
3881.000000	0.003677
3880.000000	0.003668
3879.000000	0.003676
3878.000000	0.003697
3877.000000	0.003715
3876.000000	0.003722
3875.000000	0.003720
3874.000000	0.003720
3873.000000	0.003727
3872.000000	0.003740
3871.000000	0.003749
3870.000000	0.003757
3869.000000	0.003773
3868.000000	0.003803
3867.000000	0.003839
3866.000000	0.003862
3865.000000	0.003859
3864.000000	0.003830
3863.000000	0.003790
3862.000000	0.003756
3861.000000	0.003736
3860.000000	0.003728
3859.000000	0.003724
3858.000000	0.003722
3857.000000	0.003723
3856.000000	0.003734
3855.000000	0.003757
3854.000000	0.003785
3853.000000	0.003808
3852.000000	0.003827
3851.000000	0.003842
3850.000000	0.003852
3849.000000	0.003852
3848.000000	0.003838
3847.000000	0.003812
3846.000000	0.003783
3845.000000	0.003763
3844.000000	0.003763
3843.000000	0.003782
3842.000000	0.003807
3841.000000	0.003828
3840.000000	0.003841
3839.000000	0.003848
3838.000000	0.003854
3837.000000	0.003855
3836.000000	0.003845
3835.000000	0.003821
3834.000000	0.003787
3833.000000	0.003752
3832.000000	0.003728
3831.000000	0.003723
3830.000000	0.003738
3829.000000	0.003764
3828.000000	0.003786
3827.000000	0.003796
3826.000000	0.003797
3825.000000	0.003801
3824.000000	0.003820
3823.000000	0.003853
3822.000000	0.003883
3821.000000	0.003891
3820.000000	0.003875
3819.000000	0.003849
3818.000000	0.003824
3817.000000	0.003801
3816.000000	0.003778
3815.000000	0.003754
3814.000000	0.003737
3813.000000	0.003731
3812.000000	0.003735
3811.000000	0.003746
3810.000000	0.003760
3809.000000	0.003772
3808.000000	0.003782
3807.000000	0.003792
3806.000000	0.003802
3805.000000	0.003813
3804.000000	0.003824
3803.000000	0.003828
3802.000000	0.003819
3801.000000	0.003802
3800.000000	0.003789
3799.000000	0.003780
3798.000000	0.003764
3797.000000	0.003733
3796.000000	0.003693
3795.000000	0.003659
3794.000000	0.003641
3793.000000	0.003638
3792.000000	0.003642
3791.000000	0.003642
3790.000000	0.003636
3789.000000	0.003627
3788.000000	0.003621
3787.000000	0.003619
3786.000000	0.003620
3785.000000	0.003621
3784.000000	0.003627
3783.000000	0.003644
3782.000000	0.003672
3781.000000	0.003702
3780.000000	0.003715
3779.000000	0.003705
3778.000000	0.003681
3777.000000	0.003654
3776.000000	0.003631
3775.000000	0.003611
3774.000000	0.003595
3773.000000	0.003584
3772.000000	0.003586
3771.000000	0.003602
3770.000000	0.003631
3769.000000	0.003666
3768.000000	0.003698
3767.000000	0.003716
3766.000000	0.003718
3765.000000	0.003711
3764.000000	0.003703
3763.000000	0.003697
3762.000000	0.003687
3761.000000	0.003668
3760.000000	0.003646
3759.000000	0.003638
3758.000000	0.003651
3757.000000	0.003676
3756.000000	0.003701
3755.000000	0.003721
3754.000000	0.003746
3753.000000	0.003787
3752.000000	0.003840
3751.000000	0.003886
3750.000000	0.003898
3749.000000	0.003869
3748.000000	0.003814
3747.000000	0.003760
3746.000000	0.003729
3745.000000	0.003721
3744.000000	0.003713
3743.000000	0.003686
3742.000000	0.003639
3741.000000	0.003587
3740.000000	0.003551
3739.000000	0.003544
3738.000000	0.003566
3737.000000	0.003596
3736.000000	0.003602
3735.000000	0.003571
3734.000000	0.003525
3733.000000	0.003497
3732.000000	0.003500
3731.000000	0.003521
3730.000000	0.003541
3729.000000	0.003551
3728.000000	0.003554
3727.000000	0.003553
3726.000000	0.003551
3725.000000	0.003549
3724.000000	0.003545
3723.000000	0.003538
3722.000000	0.003531
3721.000000	0.003532
3720.000000	0.003545
3719.000000	0.003569
3718.000000	0.003596
3717.000000	0.003619
3716.000000	0.003633
3715.000000	0.003642
3714.000000	0.003655
3713.000000	0.003678
3712.000000	0.003703
3711.000000	0.003716
3710.000000	0.003710
3709.000000	0.003691
3708.000000	0.003670
3707.000000	0.003648
3706.000000	0.003623
3705.000000	0.003594
3704.000000	0.003560
3703.000000	0.003526
3702.000000	0.003496
3701.000000	0.003477
3700.000000	0.003477
3699.000000	0.003497
3698.000000	0.003528
3697.000000	0.003560
3696.000000	0.003583
3695.000000	0.003594
3694.000000	0.003597
3693.000000	0.003599
3692.000000	0.003606
3691.000000	0.003622
3690.000000	0.003635
3689.000000	0.003631
3688.000000	0.003610
3687.000000	0.003582
3686.000000	0.003561
3685.000000	0.003552
3684.000000	0.003557
3683.000000	0.003575
3682.000000	0.003608
3681.000000	0.003661
3680.000000	0.003740
3679.000000	0.003840
3678.000000	0.003944
3677.000000	0.004016
3676.000000	0.004019
3675.000000	0.003964
3674.000000	0.003902
3673.000000	0.003866
3672.000000	0.003852
3671.000000	0.003846
3670.000000	0.003832
3669.000000	0.003808
3668.000000	0.003781
3667.000000	0.003757
3666.000000	0.003740
3665.000000	0.003729
3664.000000	0.003714
3663.000000	0.003689
3662.000000	0.003656
3661.000000	0.003628
3660.000000	0.003617
3659.000000	0.003629
3658.000000	0.003659
3657.000000	0.003696
3656.000000	0.003733
3655.000000	0.003776
3654.000000	0.003832
3653.000000	0.003900
3652.000000	0.003965
3651.000000	0.003999
3650.000000	0.003976
3649.000000	0.003911
3648.000000	0.003841
3647.000000	0.003799
3646.000000	0.003790
3645.000000	0.003803
3644.000000	0.003827
3643.000000	0.003855
3642.000000	0.003881
3641.000000	0.003903
3640.000000	0.003914
3639.000000	0.003912
3638.000000	0.003902
3637.000000	0.003894
3636.000000	0.003895
3635.000000	0.003905
3634.000000	0.003922
3633.000000	0.003947
3632.000000	0.003984
3631.000000	0.004028
3630.000000	0.004063
3629.000000	0.004072
3628.000000	0.004061
3627.000000	0.004047
3626.000000	0.004037
3625.000000	0.004032
3624.000000	0.004034
3623.000000	0.004044
3622.000000	0.004063
3621.000000	0.004090
3620.000000	0.004118
3619.000000	0.004142
3618.000000	0.004161
3617.000000	0.004178
3616.000000	0.004194
3615.000000	0.004214
3614.000000	0.004238
3613.000000	0.004262
3612.000000	0.004283
3611.000000	0.004302
3610.000000	0.004320
3609.000000	0.004331
3608.000000	0.004333
3607.000000	0.004330
3606.000000	0.004334
3605.000000	0.004349
3604.000000	0.004371
3603.000000	0.004395
3602.000000	0.004417
3601.000000	0.004441
3600.000000	0.004467
3599.000000	0.004496
3598.000000	0.004522
3597.000000	0.004535
3596.000000	0.004528
3595.000000	0.004504
3594.000000	0.004480
3593.000000	0.004480
3592.000000	0.004512
3591.000000	0.004559
3590.000000	0.004595
3589.000000	0.004607
3588.000000	0.004607
3587.000000	0.004624
3586.000000	0.004666
3585.000000	0.004716
3584.000000	0.004747
3583.000000	0.004752
3582.000000	0.004747
3581.000000	0.004752
3580.000000	0.004775
3579.000000	0.004809
3578.000000	0.004848
3577.000000	0.004887
3576.000000	0.004926
3575.000000	0.004967
3574.000000	0.005006
3573.000000	0.005040
3572.000000	0.005069
3571.000000	0.005096
3570.000000	0.005126
3569.000000	0.005159
3568.000000	0.005187
3567.000000	0.005206
3566.000000	0.005226
3565.000000	0.005255
3564.000000	0.005290
3563.000000	0.005321
3562.000000	0.005338
3561.000000	0.005342
3560.000000	0.005343
3559.000000	0.005354
3558.000000	0.005383
3557.000000	0.005428
3556.000000	0.005476
3555.000000	0.005514
3554.000000	0.005539
3553.000000	0.005558
3552.000000	0.005578
3551.000000	0.005597
3550.000000	0.005613
3549.000000	0.005625
3548.000000	0.005639
3547.000000	0.005660
3546.000000	0.005690
3545.000000	0.005725
3544.000000	0.005754
3543.000000	0.005771
3542.000000	0.005778
3541.000000	0.005782
3540.000000	0.005791
3539.000000	0.005812
3538.000000	0.005845
3537.000000	0.005888
3536.000000	0.005933
3535.000000	0.005969
3534.000000	0.005987
3533.000000	0.005988
3532.000000	0.005988
3531.000000	0.006005
3530.000000	0.006051
3529.000000	0.006118
3528.000000	0.006186
3527.000000	0.006241
3526.000000	0.006278
3525.000000	0.006297
3524.000000	0.006300
3523.000000	0.006293
3522.000000	0.006292
3521.000000	0.006316
3520.000000	0.006370
3519.000000	0.006438
3518.000000	0.006496
3517.000000	0.006528
3516.000000	0.006532
3515.000000	0.006518
3514.000000	0.006504
3513.000000	0.006505
3512.000000	0.006532
3511.000000	0.006582
3510.000000	0.006638
3509.000000	0.006682
3508.000000	0.006705
3507.000000	0.006713
3506.000000	0.006718
3505.000000	0.006730
3504.000000	0.006750
3503.000000	0.006777
3502.000000	0.006806
3501.000000	0.006830
3500.000000	0.006846
3499.000000	0.006855
3498.000000	0.006868
3497.000000	0.006893
3496.000000	0.006930
3495.000000	0.006965
3494.000000	0.006985
3493.000000	0.006981
3492.000000	0.006963
3491.000000	0.006945
3490.000000	0.006942
3489.000000	0.006956
3488.000000	0.006984
3487.000000	0.007018
3486.000000	0.007055
3485.000000	0.007093
3484.000000	0.007129
3483.000000	0.007158
3482.000000	0.007182
3481.000000	0.007207
3480.000000	0.007237
3479.000000	0.007269
3478.000000	0.007295
3477.000000	0.007314
3476.000000	0.007327
3475.000000	0.007339
3474.000000	0.007356
3473.000000	0.007378
3472.000000	0.007405
3471.000000	0.007433
3470.000000	0.007455
3469.000000	0.007469
3468.000000	0.007476
3467.000000	0.007480
3466.000000	0.007486
3465.000000	0.007497
3464.000000	0.007514
3463.000000	0.007535
3462.000000	0.007555
3461.000000	0.007568
3460.000000	0.007569
3459.000000	0.007565
3458.000000	0.007568
3457.000000	0.007589
3456.000000	0.007626
3455.000000	0.007671
3454.000000	0.007713
3453.000000	0.007741
3452.000000	0.007752
3451.000000	0.007750
3450.000000	0.007750
3449.000000	0.007765
3448.000000	0.007795
3447.000000	0.007834
3446.000000	0.007879
3445.000000	0.007929
3444.000000	0.007979
3443.000000	0.008010
3442.000000	0.008011
3441.000000	0.007991
3440.000000	0.007974
3439.000000	0.007977
3438.000000	0.007997
3437.000000	0.008019
3436.000000	0.008032
3435.000000	0.008040
3434.000000	0.008052
3433.000000	0.008076
3432.000000	0.008112
3431.000000	0.008155
3430.000000	0.008201
3429.000000	0.008246
3428.000000	0.008279
3427.000000	0.008295
3426.000000	0.008296
3425.000000	0.008297
3424.000000	0.008305
3423.000000	0.008323
3422.000000	0.008343
3421.000000	0.008363
3420.000000	0.008386
3419.000000	0.008413
3418.000000	0.008441
3417.000000	0.008467
3416.000000	0.008487
3415.000000	0.008504
3414.000000	0.008518
3413.000000	0.008535
3412.000000	0.008555
3411.000000	0.008579
3410.000000	0.008614
3409.000000	0.008662
3408.000000	0.008716
3407.000000	0.008761
3406.000000	0.008782
3405.000000	0.008781
3404.000000	0.008774
3403.000000	0.008771
3402.000000	0.008773
3401.000000	0.008779
3400.000000	0.008792
3399.000000	0.008813
3398.000000	0.008837
3397.000000	0.008859
3396.000000	0.008878
3395.000000	0.008903
3394.000000	0.008937
3393.000000	0.008976
3392.000000	0.009014
3391.000000	0.009041
3390.000000	0.009052
3389.000000	0.009049
3388.000000	0.009041
3387.000000	0.009043
3386.000000	0.009065
3385.000000	0.009105
3384.000000	0.009152
3383.000000	0.009194
3382.000000	0.009219
3381.000000	0.009226
3380.000000	0.009226
3379.000000	0.009234
3378.000000	0.009262
3377.000000	0.009304
3376.000000	0.009349
3375.000000	0.009385
3374.000000	0.009411
3373.000000	0.009429
3372.000000	0.009445
3371.000000	0.009461
3370.000000	0.009477
3369.000000	0.009496
3368.000000	0.009525
3367.000000	0.009570
3366.000000	0.009635
3365.000000	0.009706
3364.000000	0.009766
3363.000000	0.009805
3362.000000	0.009829
3361.000000	0.009850
3360.000000	0.009875
3359.000000	0.009901
3358.000000	0.009924
3357.000000	0.009947
3356.000000	0.009978
3355.000000	0.010020
3354.000000	0.010066
3353.000000	0.010109
3352.000000	0.010143
3351.000000	0.010172
3350.000000	0.010202
3349.000000	0.010243
3348.000000	0.010301
3347.000000	0.010369
3346.000000	0.010434
3345.000000	0.010485
3344.000000	0.010521
3343.000000	0.010549
3342.000000	0.010576
3341.000000	0.010606
3340.000000	0.010638
3339.000000	0.010670
3338.000000	0.010699
3337.000000	0.010729
3336.000000	0.010764
3335.000000	0.010808
3334.000000	0.010859
3333.000000	0.010908
3332.000000	0.010948
3331.000000	0.010976
3330.000000	0.010993
3329.000000	0.011002
3328.000000	0.011007
3327.000000	0.011016
3326.000000	0.011038
3325.000000	0.011079
3324.000000	0.011137
3323.000000	0.011201
3322.000000	0.011257
3321.000000	0.011299
3320.000000	0.011329
3319.000000	0.011356
3318.000000	0.011383
3317.000000	0.011411
3316.000000	0.011438
3315.000000	0.011468
3314.000000	0.011500
3313.000000	0.011529
3312.000000	0.011543
3311.000000	0.011542
3310.000000	0.011529
3309.000000	0.011515
3308.000000	0.011506
3307.000000	0.011511
3306.000000	0.011536
3305.000000	0.011577
3304.000000	0.011624
3303.000000	0.011668
3302.000000	0.011704
3301.000000	0.011732
3300.000000	0.011746
3299.000000	0.011741
3298.000000	0.011717
3297.000000	0.011685
3296.000000	0.011663
3295.000000	0.011666
3294.000000	0.011695
3293.000000	0.011735
3292.000000	0.011772
3291.000000	0.011792
3290.000000	0.011794
3289.000000	0.011782
3288.000000	0.011764
3287.000000	0.011749
3286.000000	0.011743
3285.000000	0.011742
3284.000000	0.011739
3283.000000	0.011730
3282.000000	0.011721
3281.000000	0.011718
3280.000000	0.011716
3279.000000	0.011711
3278.000000	0.011702
3277.000000	0.011696
3276.000000	0.011691
3275.000000	0.011682
3274.000000	0.011661
3273.000000	0.011631
3272.000000	0.011602
3271.000000	0.011584
3270.000000	0.011582
3269.000000	0.011596
3268.000000	0.011617
3267.000000	0.011632
3266.000000	0.011626
3265.000000	0.011599
3264.000000	0.011558
3263.000000	0.011515
3262.000000	0.011479
3261.000000	0.011451
3260.000000	0.011426
3259.000000	0.011405
3258.000000	0.011387
3257.000000	0.011379
3256.000000	0.011380
3255.000000	0.011384
3254.000000	0.011375
3253.000000	0.011345
3252.000000	0.011295
3251.000000	0.011239
3250.000000	0.011193
3249.000000	0.011167
3248.000000	0.011157
3247.000000	0.011154
3246.000000	0.011150
3245.000000	0.011139
3244.000000	0.011119
3243.000000	0.011091
3242.000000	0.011054
3241.000000	0.011010
3240.000000	0.010963
3239.000000	0.010925
3238.000000	0.010907
3237.000000	0.010911
3236.000000	0.010930
3235.000000	0.010949
3234.000000	0.010952
3233.000000	0.010928
3232.000000	0.010878
3231.000000	0.010816
3230.000000	0.010762
3229.000000	0.010731
3228.000000	0.010728
3227.000000	0.010743
3226.000000	0.010760
3225.000000	0.010763
3224.000000	0.010749
3223.000000	0.010724
3222.000000	0.010697
3221.000000	0.010670
3220.000000	0.010647
3219.000000	0.010631
3218.000000	0.010626
3217.000000	0.010631
3216.000000	0.010636
3215.000000	0.010627
3214.000000	0.010601
3213.000000	0.010561
3212.000000	0.010518
3211.000000	0.010477
3210.000000	0.010442
3209.000000	0.010416
3208.000000	0.010396
3207.000000	0.010387
3206.000000	0.010391
3205.000000	0.010401
3204.000000	0.010406
3203.000000	0.010394
3202.000000	0.010369
3201.000000	0.010344
3200.000000	0.010330
3199.000000	0.010322
3198.000000	0.010305
3197.000000	0.010270
3196.000000	0.010224
3195.000000	0.010179
3194.000000	0.010146
3193.000000	0.010125
3192.000000	0.010110
3191.000000	0.010089
3190.000000	0.010057
3189.000000	0.010021
3188.000000	0.009996
3187.000000	0.009987
3186.000000	0.009988
3185.000000	0.009987
3184.000000	0.009978
3183.000000	0.009963
3182.000000	0.009943
3181.000000	0.009918
3180.000000	0.009885
3179.000000	0.009847
3178.000000	0.009806
3177.000000	0.009760
3176.000000	0.009714
3175.000000	0.009678
3174.000000	0.009657
3173.000000	0.009649
3172.000000	0.009643
3171.000000	0.009630
3170.000000	0.009608
3169.000000	0.009576
3168.000000	0.009531
3167.000000	0.009478
3166.000000	0.009424
3165.000000	0.009382
3164.000000	0.009354
3163.000000	0.009336
3162.000000	0.009322
3161.000000	0.009312
3160.000000	0.009305
3159.000000	0.009298
3158.000000	0.009282
3157.000000	0.009255
3156.000000	0.009219
3155.000000	0.009182
3154.000000	0.009153
3153.000000	0.009138
3152.000000	0.009138
3151.000000	0.009146
3150.000000	0.009148
3149.000000	0.009130
3148.000000	0.009088
3147.000000	0.009035
3146.000000	0.008986
3145.000000	0.008956
3144.000000	0.008946
3143.000000	0.008946
3142.000000	0.008944
3141.000000	0.008933
3140.000000	0.008916
3139.000000	0.008899
3138.000000	0.008884
3137.000000	0.008870
3136.000000	0.008854
3135.000000	0.008834
3134.000000	0.008807
3133.000000	0.008776
3132.000000	0.008745
3131.000000	0.008722
3130.000000	0.008715
3129.000000	0.008720
3128.000000	0.008730
3127.000000	0.008734
3126.000000	0.008731
3125.000000	0.008720
3124.000000	0.008701
3123.000000	0.008674
3122.000000	0.008646
3121.000000	0.008625
3120.000000	0.008617
3119.000000	0.008622
3118.000000	0.008633
3117.000000	0.008646
3116.000000	0.008654
3115.000000	0.008653
3114.000000	0.008642
3113.000000	0.008623
3112.000000	0.008608
3111.000000	0.008609
3110.000000	0.008630
3109.000000	0.008664
3108.000000	0.008698
3107.000000	0.008721
3106.000000	0.008732
3105.000000	0.008740
3104.000000	0.008752
3103.000000	0.008766
3102.000000	0.008775
3101.000000	0.008772
3100.000000	0.008759
3099.000000	0.008749
3098.000000	0.008751
3097.000000	0.008767
3096.000000	0.008792
3095.000000	0.008818
3094.000000	0.008838
3093.000000	0.008849
3092.000000	0.008851
3091.000000	0.008854
3090.000000	0.008863
3089.000000	0.008876
3088.000000	0.008889
3087.000000	0.008895
3086.000000	0.008895
3085.000000	0.008892
3084.000000	0.008888
3083.000000	0.008882
3082.000000	0.008877
3081.000000	0.008882
3080.000000	0.008900
3079.000000	0.008927
3078.000000	0.008954
3077.000000	0.008969
3076.000000	0.008972
3075.000000	0.008967
3074.000000	0.008959
3073.000000	0.008952
3072.000000	0.008948
3071.000000	0.008949
3070.000000	0.008951
3069.000000	0.008945
3068.000000	0.008928
3067.000000	0.008901
3066.000000	0.008878
3065.000000	0.008868
3064.000000	0.008872
3063.000000	0.008885
3062.000000	0.008899
3061.000000	0.008907
3060.000000	0.008904
3059.000000	0.008889
3058.000000	0.008864
3057.000000	0.008836
3056.000000	0.008812
3055.000000	0.008799
3054.000000	0.008793
3053.000000	0.008782
3052.000000	0.008757
3051.000000	0.008723
3050.000000	0.008692
3049.000000	0.008673
3048.000000	0.008662
3047.000000	0.008649
3046.000000	0.008627
3045.000000	0.008593
3044.000000	0.008549
3043.000000	0.008503
3042.000000	0.008460
3041.000000	0.008426
3040.000000	0.008398
3039.000000	0.008378
3038.000000	0.008365
3037.000000	0.008360
3036.000000	0.008359
3035.000000	0.008357
3034.000000	0.008348
3033.000000	0.008328
3032.000000	0.008299
3031.000000	0.008270
3030.000000	0.008248
3029.000000	0.008228
3028.000000	0.008204
3027.000000	0.008168
3026.000000	0.008125
3025.000000	0.008086
3024.000000	0.008061
3023.000000	0.008050
3022.000000	0.008047
3021.000000	0.008046
3020.000000	0.008041
3019.000000	0.008030
3018.000000	0.008009
3017.000000	0.007980
3016.000000	0.007946
3015.000000	0.007915
3014.000000	0.007890
3013.000000	0.007875
3012.000000	0.007867
3011.000000	0.007862
3010.000000	0.007856
3009.000000	0.007850
3008.000000	0.007849
3007.000000	0.007853
3006.000000	0.007858
3005.000000	0.007857
3004.000000	0.007849
3003.000000	0.007840
3002.000000	0.007839
3001.000000	0.007847
3000.000000	0.007859
2999.000000	0.007872
2998.000000	0.007886
2997.000000	0.007903
2996.000000	0.007925
2995.000000	0.007952
2994.000000	0.007981
2993.000000	0.008007
2992.000000	0.008029
2991.000000	0.008046
2990.000000	0.008064
2989.000000	0.008090
2988.000000	0.008123
2987.000000	0.008157
2986.000000	0.008184
2985.000000	0.008203
2984.000000	0.008219
2983.000000	0.008239
2982.000000	0.008268
2981.000000	0.008303
2980.000000	0.008339
2979.000000	0.008368
2978.000000	0.008386
2977.000000	0.008397
2976.000000	0.008410
2975.000000	0.008434
2974.000000	0.008470
2973.000000	0.008511
2972.000000	0.008549
2971.000000	0.008580
2970.000000	0.008605
2969.000000	0.008632
2968.000000	0.008669
2967.000000	0.008717
2966.000000	0.008771
2965.000000	0.008822
2964.000000	0.008868
2963.000000	0.008909
2962.000000	0.008946
2961.000000	0.008979
2960.000000	0.009001
2959.000000	0.009015
2958.000000	0.009028
2957.000000	0.009048
2956.000000	0.009073
2955.000000	0.009092
2954.000000	0.009093
2953.000000	0.009074
2952.000000	0.009045
2951.000000	0.009023
2950.000000	0.009016
2949.000000	0.009024
2948.000000	0.009042
2947.000000	0.009065
2946.000000	0.009092
2945.000000	0.009123
2944.000000	0.009158
2943.000000	0.009195
2942.000000	0.009233
2941.000000	0.009270
2940.000000	0.009310
2939.000000	0.009355
2938.000000	0.009409
2937.000000	0.009468
2936.000000	0.009529
2935.000000	0.009592
2934.000000	0.009656
2933.000000	0.009725
2932.000000	0.009801
2931.000000	0.009879
2930.000000	0.009947
2929.000000	0.009991
2928.000000	0.010012
2927.000000	0.010025
2926.000000	0.010052
2925.000000	0.010102
2924.000000	0.010165
2923.000000	0.010222
2922.000000	0.010256
2921.000000	0.010264
2920.000000	0.010252
2919.000000	0.010225
2918.000000	0.010178
2917.000000	0.010106
2916.000000	0.010010
2915.000000	0.009902
2914.000000	0.009790
2913.000000	0.009674
2912.000000	0.009553
2911.000000	0.009431
2910.000000	0.009322
2909.000000	0.009233
2908.000000	0.009159
2907.000000	0.009089
2906.000000	0.009013
2905.000000	0.008934
2904.000000	0.008863
2903.000000	0.008809
2902.000000	0.008770
2901.000000	0.008732
2900.000000	0.008692
2899.000000	0.008660
2898.000000	0.008644
2897.000000	0.008637
2896.000000	0.008624
2895.000000	0.008597
2894.000000	0.008568
2893.000000	0.008548
2892.000000	0.008535
2891.000000	0.008513
2890.000000	0.008472
2889.000000	0.008420
2888.000000	0.008380
2887.000000	0.008370
2886.000000	0.008389
2885.000000	0.008422
2884.000000	0.008446
2883.000000	0.008457
2882.000000	0.008458
2881.000000	0.008462
2880.000000	0.008473
2879.000000	0.008488
2878.000000	0.008498
2877.000000	0.008498
2876.000000	0.008489
2875.000000	0.008483
2874.000000	0.008485
2873.000000	0.008491
2872.000000	0.008489
2871.000000	0.008474
2870.000000	0.008456
2869.000000	0.008445
2868.000000	0.008441
2867.000000	0.008434
2866.000000	0.008414
2865.000000	0.008381
2864.000000	0.008349
2863.000000	0.008327
2862.000000	0.008324
2861.000000	0.008338
2860.000000	0.008365
2859.000000	0.008396
2858.000000	0.008423
2857.000000	0.008447
2856.000000	0.008480
2855.000000	0.008528
2854.000000	0.008591
2853.000000	0.008653
2852.000000	0.008691
2851.000000	0.008688
2850.000000	0.008640
2849.000000	0.008555
2848.000000	0.008449
2847.000000	0.008337
2846.000000	0.008229
2845.000000	0.008131
2844.000000	0.008039
2843.000000	0.007948
2842.000000	0.007857
2841.000000	0.007771
2840.000000	0.007703
2839.000000	0.007660
2838.000000	0.007638
2837.000000	0.007628
2836.000000	0.007615
2835.000000	0.007595
2834.000000	0.007569
2833.000000	0.007547
2832.000000	0.007539
2831.000000	0.007542
2830.000000	0.007546
2829.000000	0.007545
2828.000000	0.007537
2827.000000	0.007522
2826.000000	0.007501
2825.000000	0.007481
2824.000000	0.007473
2823.000000	0.007477
2822.000000	0.007481
2821.000000	0.007469
2820.000000	0.007442
2819.000000	0.007414
2818.000000	0.007394
2817.000000	0.007380
2816.000000	0.007366
2815.000000	0.007346
2814.000000	0.007319
2813.000000	0.007284
2812.000000	0.007249
2811.000000	0.007224
2810.000000	0.007215
2809.000000	0.007217
2808.000000	0.007223
2807.000000	0.007228
2806.000000	0.007229
2805.000000	0.007227
2804.000000	0.007225
2803.000000	0.007224
2802.000000	0.007221
2801.000000	0.007208
2800.000000	0.007186
2799.000000	0.007169
2798.000000	0.007172
2797.000000	0.007191
2796.000000	0.007208
2795.000000	0.007212
2794.000000	0.007203
2793.000000	0.007185
2792.000000	0.007165
2791.000000	0.007146
2790.000000	0.007132
2789.000000	0.007119
2788.000000	0.007103
2787.000000	0.007086
2786.000000	0.007075
2785.000000	0.007072
2784.000000	0.007074
2783.000000	0.007075
2782.000000	0.007074
2781.000000	0.007068
2780.000000	0.007055
2779.000000	0.007036
2778.000000	0.007016
2777.000000	0.007002
2776.000000	0.006994
2775.000000	0.006991
2774.000000	0.006989
2773.000000	0.006982
2772.000000	0.006968
2771.000000	0.006949
2770.000000	0.006931
2769.000000	0.006920
2768.000000	0.006917
2767.000000	0.006919
2766.000000	0.006923
2765.000000	0.006921
2764.000000	0.006912
2763.000000	0.006903
2762.000000	0.006897
2761.000000	0.006890
2760.000000	0.006874
2759.000000	0.006847
2758.000000	0.006825
2757.000000	0.006823
2756.000000	0.006836
2755.000000	0.006847
2754.000000	0.006843
2753.000000	0.006825
2752.000000	0.006806
2751.000000	0.006796
2750.000000	0.006796
2749.000000	0.006802
2748.000000	0.006810
2747.000000	0.006812
2746.000000	0.006804
2745.000000	0.006791
2744.000000	0.006779
2743.000000	0.006773
2742.000000	0.006773
2741.000000	0.006776
2740.000000	0.006785
2739.000000	0.006799
2738.000000	0.006808
2737.000000	0.006803
2736.000000	0.006783
2735.000000	0.006761
2734.000000	0.006743
2733.000000	0.006727
2732.000000	0.006710
2731.000000	0.006698
2730.000000	0.006692
2729.000000	0.006690
2728.000000	0.006686
2727.000000	0.006681
2726.000000	0.006676
2725.000000	0.006669
2724.000000	0.006659
2723.000000	0.006647
2722.000000	0.006639
2721.000000	0.006638
2720.000000	0.006639
2719.000000	0.006634
2718.000000	0.006620
2717.000000	0.006601
2716.000000	0.006581
2715.000000	0.006568
2714.000000	0.006561
2713.000000	0.006556
2712.000000	0.006549
2711.000000	0.006543
2710.000000	0.006539
2709.000000	0.006536
2708.000000	0.006527
2707.000000	0.006511
2706.000000	0.006493
2705.000000	0.006482
2704.000000	0.006481
2703.000000	0.006494
2702.000000	0.006514
2701.000000	0.006530
2700.000000	0.006529
2699.000000	0.006515
2698.000000	0.006498
2697.000000	0.006487
2696.000000	0.006479
2695.000000	0.006471
2694.000000	0.006463
2693.000000	0.006458
2692.000000	0.006454
2691.000000	0.006454
2690.000000	0.006460
2689.000000	0.006470
2688.000000	0.006477
2687.000000	0.006476
2686.000000	0.006473
2685.000000	0.006478
2684.000000	0.006493
2683.000000	0.006507
2682.000000	0.006510
2681.000000	0.006501
2680.000000	0.006491
2679.000000	0.006487
2678.000000	0.006484
2677.000000	0.006476
2676.000000	0.006460
2675.000000	0.006439
2674.000000	0.006419
2673.000000	0.006399
2672.000000	0.006383
2671.000000	0.006380
2670.000000	0.006395
2669.000000	0.006417
2668.000000	0.006429
2667.000000	0.006422
2666.000000	0.006401
2665.000000	0.006382
2664.000000	0.006374
2663.000000	0.006382
2662.000000	0.006395
2661.000000	0.006402
2660.000000	0.006393
2659.000000	0.006374
2658.000000	0.006355
2657.000000	0.006344
2656.000000	0.006336
2655.000000	0.006328
2654.000000	0.006321
2653.000000	0.006318
2652.000000	0.006319
2651.000000	0.006315
2650.000000	0.006302
2649.000000	0.006280
2648.000000	0.006256
2647.000000	0.006231
2646.000000	0.006204
2645.000000	0.006172
2644.000000	0.006136
2643.000000	0.006106
2642.000000	0.006088
2641.000000	0.006076
2640.000000	0.006065
2639.000000	0.006051
2638.000000	0.006035
2637.000000	0.006016
2636.000000	0.005987
2635.000000	0.005954
2634.000000	0.005926
2633.000000	0.005909
2632.000000	0.005896
2631.000000	0.005882
2630.000000	0.005866
2629.000000	0.005852
2628.000000	0.005843
2627.000000	0.005839
2626.000000	0.005841
2625.000000	0.005845
2624.000000	0.005840
2623.000000	0.005822
2622.000000	0.005795
2621.000000	0.005771
2620.000000	0.005758
2619.000000	0.005756
2618.000000	0.005762
2617.000000	0.005766
2616.000000	0.005758
2615.000000	0.005738
2614.000000	0.005710
2613.000000	0.005679
2612.000000	0.005648
2611.000000	0.005625
2610.000000	0.005613
2609.000000	0.005613
2608.000000	0.005619
2607.000000	0.005627
2606.000000	0.005634
2605.000000	0.005633
2604.000000	0.005612
2603.000000	0.005571
2602.000000	0.005526
2601.000000	0.005498
2600.000000	0.005497
2599.000000	0.005516
2598.000000	0.005540
2597.000000	0.005553
2596.000000	0.005551
2595.000000	0.005540
2594.000000	0.005527
2593.000000	0.005515
2592.000000	0.005498
2591.000000	0.005478
2590.000000	0.005467
2589.000000	0.005474
2588.000000	0.005488
2587.000000	0.005486
2586.000000	0.005457
2585.000000	0.005416
2584.000000	0.005389
2583.000000	0.005386
2582.000000	0.005399
2581.000000	0.005409
2580.000000	0.005408
2579.000000	0.005405
2578.000000	0.005410
2577.000000	0.005418
2576.000000	0.005413
2575.000000	0.005386
2574.000000	0.005347
2573.000000	0.005320
2572.000000	0.005324
2571.000000	0.005360
2570.000000	0.005403
2569.000000	0.005419
2568.000000	0.005393
2567.000000	0.005347
2566.000000	0.005316
2565.000000	0.005313
2564.000000	0.005320
2563.000000	0.005316
2562.000000	0.005302
2561.000000	0.005293
2560.000000	0.005289
2559.000000	0.005283
2558.000000	0.005273
2557.000000	0.005271
2556.000000	0.005279
2555.000000	0.005288
2554.000000	0.005284
2553.000000	0.005266
2552.000000	0.005245
2551.000000	0.005234
2550.000000	0.005239
2549.000000	0.005250
2548.000000	0.005254
2547.000000	0.005247
2546.000000	0.005232
2545.000000	0.005219
2544.000000	0.005212
2543.000000	0.005211
2542.000000	0.005211
2541.000000	0.005209
2540.000000	0.005205
2539.000000	0.005206
2538.000000	0.005217
2537.000000	0.005230
2536.000000	0.005231
2535.000000	0.005213
2534.000000	0.005188
2533.000000	0.005168
2532.000000	0.005158
2531.000000	0.005156
2530.000000	0.005158
2529.000000	0.005158
2528.000000	0.005154
2527.000000	0.005155
2526.000000	0.005177
2525.000000	0.005220
2524.000000	0.005264
2523.000000	0.005284
2522.000000	0.005274
2521.000000	0.005241
2520.000000	0.005197
2519.000000	0.005155
2518.000000	0.005129
2517.000000	0.005129
2516.000000	0.005150
2515.000000	0.005175
2514.000000	0.005189
2513.000000	0.005189
2512.000000	0.005176
2511.000000	0.005162
2510.000000	0.005161
2509.000000	0.005179
2508.000000	0.005201
2507.000000	0.005208
2506.000000	0.005195
2505.000000	0.005185
2504.000000	0.005205
2503.000000	0.005254
2502.000000	0.005301
2501.000000	0.005313
2500.000000	0.005289
2499.000000	0.005260
2498.000000	0.005247
2497.000000	0.005235
2496.000000	0.005190
2495.000000	0.005107
2494.000000	0.005020
2493.000000	0.004972
2492.000000	0.004973
2491.000000	0.005004
2490.000000	0.005038
2489.000000	0.005062
2488.000000	0.005076
2487.000000	0.005082
2486.000000	0.005082
2485.000000	0.005076
2484.000000	0.005066
2483.000000	0.005059
2482.000000	0.005060
2481.000000	0.005064
2480.000000	0.005061
2479.000000	0.005053
2478.000000	0.005054
2477.000000	0.005069
2476.000000	0.005092
2475.000000	0.005110
2474.000000	0.005118
2473.000000	0.005111
2472.000000	0.005089
2471.000000	0.005057
2470.000000	0.005025
2469.000000	0.005008
2468.000000	0.005009
2467.000000	0.005025
2466.000000	0.005047
2465.000000	0.005061
2464.000000	0.005058
2463.000000	0.005040
2462.000000	0.005025
2461.000000	0.005030
2460.000000	0.005057
2459.000000	0.005100
2458.000000	0.005143
2457.000000	0.005167
2456.000000	0.005155
2455.000000	0.005113
2454.000000	0.005068
2453.000000	0.005048
2452.000000	0.005062
2451.000000	0.005091
2450.000000	0.005112
2449.000000	0.005112
2448.000000	0.005099
2447.000000	0.005090
2446.000000	0.005098
2445.000000	0.005116
2444.000000	0.005127
2443.000000	0.005120
2442.000000	0.005104
2441.000000	0.005094
2440.000000	0.005093
2439.000000	0.005086
2438.000000	0.005068
2437.000000	0.005044
2436.000000	0.005027
2435.000000	0.005020
2434.000000	0.005013
2433.000000	0.005001
2432.000000	0.004988
2431.000000	0.004983
2430.000000	0.004992
2429.000000	0.004999
2428.000000	0.004992
2427.000000	0.004970
2426.000000	0.004946
2425.000000	0.004923
2424.000000	0.004898
2423.000000	0.004873
2422.000000	0.004864
2421.000000	0.004878
2420.000000	0.004903
2419.000000	0.004915
2418.000000	0.004912
2417.000000	0.004910
2416.000000	0.004928
2415.000000	0.004970
2414.000000	0.005017
2413.000000	0.005048
2412.000000	0.005056
2411.000000	0.005055
2410.000000	0.005064
2409.000000	0.005083
2408.000000	0.005094
2407.000000	0.005086
2406.000000	0.005059
2405.000000	0.005019
2404.000000	0.004973
2403.000000	0.004933
2402.000000	0.004916
2401.000000	0.004929
2400.000000	0.004953
2399.000000	0.004961
2398.000000	0.004940
2397.000000	0.004901
2396.000000	0.004874
2395.000000	0.004881
2394.000000	0.004927
2393.000000	0.004986
2392.000000	0.005027
2391.000000	0.005030
2390.000000	0.005006
2389.000000	0.004978
2388.000000	0.004964
2387.000000	0.004969
2386.000000	0.004981
2385.000000	0.004984
2384.000000	0.004970
2383.000000	0.004947
2382.000000	0.004924
2381.000000	0.004896
2380.000000	0.004859
2379.000000	0.004834
2378.000000	0.004851
2377.000000	0.004906
2376.000000	0.004961
2375.000000	0.004981
2374.000000	0.004968
2373.000000	0.004937
2372.000000	0.004886
2371.000000	0.004811
2370.000000	0.004728
2369.000000	0.004664
2368.000000	0.004633
2367.000000	0.004643
2366.000000	0.004701
2365.000000	0.004795
2364.000000	0.004888
2363.000000	0.004952
2362.000000	0.004986
2361.000000	0.004997
2360.000000	0.004986
2359.000000	0.004959
2358.000000	0.004930
2357.000000	0.004908
2356.000000	0.004903
2355.000000	0.004919
2354.000000	0.004923
2353.000000	0.004873
2352.000000	0.004789
2351.000000	0.004739
2350.000000	0.004764
2349.000000	0.004855
2348.000000	0.004959
2347.000000	0.005011
2346.000000	0.004991
2345.000000	0.004952
2344.000000	0.004945
2343.000000	0.004958
2342.000000	0.004963
2341.000000	0.004959
2340.000000	0.004962
2339.000000	0.004977
2338.000000	0.004989
2337.000000	0.004983
2336.000000	0.004956
2335.000000	0.004915
2334.000000	0.004860
2333.000000	0.004800
2332.000000	0.004764
2331.000000	0.004781
2330.000000	0.004842
2329.000000	0.004918
2328.000000	0.004989
2327.000000	0.005053
2326.000000	0.005107
2325.000000	0.005137
2324.000000	0.005135
2323.000000	0.005104
2322.000000	0.005073
2321.000000	0.005066
2320.000000	0.005091
2319.000000	0.005129
2318.000000	0.005164
2317.000000	0.005180
2316.000000	0.005164
2315.000000	0.005105
2314.000000	0.005011
2313.000000	0.004906
2312.000000	0.004815
2311.000000	0.004751
2310.000000	0.004714
2309.000000	0.004703
2308.000000	0.004711
2307.000000	0.004726
2306.000000	0.004740
2305.000000	0.004754
2304.000000	0.004767
2303.000000	0.004776
2302.000000	0.004771
2301.000000	0.004752
2300.000000	0.004726
2299.000000	0.004705
2298.000000	0.004703
2297.000000	0.004725
2296.000000	0.004768
2295.000000	0.004822
2294.000000	0.004876
2293.000000	0.004922
2292.000000	0.004943
2291.000000	0.004928
2290.000000	0.004887
2289.000000	0.004858
2288.000000	0.004875
2287.000000	0.004942
2286.000000	0.005026
2285.000000	0.005079
2284.000000	0.005073
2283.000000	0.005014
2282.000000	0.004943
2281.000000	0.004904
2280.000000	0.004912
2279.000000	0.004942
2278.000000	0.004954
2277.000000	0.004918
2276.000000	0.004834
2275.000000	0.004737
2274.000000	0.004664
2273.000000	0.004637
2272.000000	0.004648
2271.000000	0.004682
2270.000000	0.004733
2269.000000	0.004799
2268.000000	0.004865
2267.000000	0.004904
2266.000000	0.004896
2265.000000	0.004832
2264.000000	0.004726
2263.000000	0.004615
2262.000000	0.004551
2261.000000	0.004553
2260.000000	0.004581
2259.000000	0.004584
2258.000000	0.004549
2257.000000	0.004506
2256.000000	0.004467
2255.000000	0.004416
2254.000000	0.004344
2253.000000	0.004288
2252.000000	0.004298
2251.000000	0.004385
2250.000000	0.004508
2249.000000	0.004606
2248.000000	0.004640
2247.000000	0.004623
2246.000000	0.004609
2245.000000	0.004633
2244.000000	0.004669
2243.000000	0.004646
2242.000000	0.004525
2241.000000	0.004351
2240.000000	0.004222
2239.000000	0.004213
2238.000000	0.004316
2237.000000	0.004456
2236.000000	0.004545
2235.000000	0.004546
2234.000000	0.004489
2233.000000	0.004431
2232.000000	0.004413
2231.000000	0.004434
2230.000000	0.004469
2229.000000	0.004481
2228.000000	0.004451
2227.000000	0.004398
2226.000000	0.004365
2225.000000	0.004377
2224.000000	0.004423
2223.000000	0.004482
2222.000000	0.004551
2221.000000	0.004619
2220.000000	0.004644
2219.000000	0.004599
2218.000000	0.004511
2217.000000	0.004446
2216.000000	0.004436
2215.000000	0.004459
2214.000000	0.004478
2213.000000	0.004469
2212.000000	0.004422
2211.000000	0.004340
2210.000000	0.004232
2209.000000	0.004110
2208.000000	0.003992
2207.000000	0.003926
2206.000000	0.003989
2205.000000	0.004201
2204.000000	0.004460
2203.000000	0.004600
2202.000000	0.004549
2201.000000	0.004389
2200.000000	0.004260
2199.000000	0.004220
2198.000000	0.004232
2197.000000	0.004241
2196.000000	0.004252
2195.000000	0.004305
2194.000000	0.004415
2193.000000	0.004530
2192.000000	0.004563
2191.000000	0.004474
2190.000000	0.004302
2189.000000	0.004135
2188.000000	0.004056
2187.000000	0.004121
2186.000000	0.004345
2185.000000	0.004650
2184.000000	0.004873
2183.000000	0.004881
2182.000000	0.004691
2181.000000	0.004443
2180.000000	0.004269
2179.000000	0.004206
2178.000000	0.004218
2177.000000	0.004240
2176.000000	0.004211
2175.000000	0.004113
2174.000000	0.004005
2173.000000	0.003967
2172.000000	0.004016
2171.000000	0.004097
2170.000000	0.004156
2169.000000	0.004172
2168.000000	0.004138
2167.000000	0.004048
2166.000000	0.003927
2165.000000	0.003836
2164.000000	0.003820
2163.000000	0.003880
2162.000000	0.003976
2161.000000	0.004028
2160.000000	0.003939
2159.000000	0.003705
2158.000000	0.003466
2157.000000	0.003365
2156.000000	0.003388
2155.000000	0.003432
2154.000000	0.003459
2153.000000	0.003507
2152.000000	0.003592
2151.000000	0.003699
2150.000000	0.003836
2149.000000	0.004027
2148.000000	0.004218
2147.000000	0.004289
2146.000000	0.004183
2145.000000	0.003989
2144.000000	0.003857
2143.000000	0.003860
2142.000000	0.003961
2141.000000	0.004068
2140.000000	0.004096
2139.000000	0.004017
2138.000000	0.003867
2137.000000	0.003723
2136.000000	0.003640
2135.000000	0.003621
2134.000000	0.003646
2133.000000	0.003695
2132.000000	0.003754
2131.000000	0.003816
2130.000000	0.003887
2129.000000	0.003986
2128.000000	0.004111
2127.000000	0.004231
2126.000000	0.004312
2125.000000	0.004350
2124.000000	0.004369
2123.000000	0.004389
2122.000000	0.004413
2121.000000	0.004431
2120.000000	0.004435
2119.000000	0.004435
2118.000000	0.004448
2117.000000	0.004478
2116.000000	0.004509
2115.000000	0.004534
2114.000000	0.004570
2113.000000	0.004636
2112.000000	0.004713
2111.000000	0.004754
2110.000000	0.004732
2109.000000	0.004657
2108.000000	0.004552
2107.000000	0.004437
2106.000000	0.004350
2105.000000	0.004339
2104.000000	0.004419
2103.000000	0.004545
2102.000000	0.004653
2101.000000	0.004711
2100.000000	0.004726
2099.000000	0.004705
2098.000000	0.004647
2097.000000	0.004557
2096.000000	0.004458
2095.000000	0.004384
2094.000000	0.004361
2093.000000	0.004393
2092.000000	0.004459
2091.000000	0.004516
2090.000000	0.004529
2089.000000	0.004494
2088.000000	0.004441
2087.000000	0.004393
2086.000000	0.004353
2085.000000	0.004311
2084.000000	0.004270
2083.000000	0.004253
2082.000000	0.004287
2081.000000	0.004379
2080.000000	0.004505
2079.000000	0.004612
2078.000000	0.004644
2077.000000	0.004581
2076.000000	0.004465
2075.000000	0.004385
2074.000000	0.004409
2073.000000	0.004531
2072.000000	0.004671
2071.000000	0.004755
2070.000000	0.004773
2069.000000	0.004753
2068.000000	0.004704
2067.000000	0.004615
2066.000000	0.004493
2065.000000	0.004384
2064.000000	0.004318
2063.000000	0.004278
2062.000000	0.004232
2061.000000	0.004183
2060.000000	0.004169
2059.000000	0.004207
2058.000000	0.004276
2057.000000	0.004334
2056.000000	0.004359
2055.000000	0.004348
2054.000000	0.004298
2053.000000	0.004210
2052.000000	0.004117
2051.000000	0.004081
2050.000000	0.004134
2049.000000	0.004227
2048.000000	0.004262
2047.000000	0.004198
2046.000000	0.004100
2045.000000	0.004061
2044.000000	0.004107
2043.000000	0.004185
2042.000000	0.004219
2041.000000	0.004153
2040.000000	0.003987
2039.000000	0.003809
2038.000000	0.003763
2037.000000	0.003934
2036.000000	0.004242
2035.000000	0.004498
2034.000000	0.004551
2033.000000	0.004375
2032.000000	0.004044
2031.000000	0.003684
2030.000000	0.003428
2029.000000	0.003355
2028.000000	0.003426
2027.000000	0.003523
2026.000000	0.003566
2025.000000	0.003566
2024.000000	0.003559
2023.000000	0.003543
2022.000000	0.003503
2021.000000	0.003455
2020.000000	0.003437
2019.000000	0.003476
2018.000000	0.003570
2017.000000	0.003715
2016.000000	0.003900
2015.000000	0.004085
2014.000000	0.004195
2013.000000	0.004167
2012.000000	0.004014
2011.000000	0.003821
2010.000000	0.003660
2009.000000	0.003527
2008.000000	0.003391
2007.000000	0.003275
2006.000000	0.003256
2005.000000	0.003380
2004.000000	0.003605
2003.000000	0.003849
2002.000000	0.004031
2001.000000	0.004090
2000.000000	0.004005
1999.000000	0.003836
1998.000000	0.003687
1997.000000	0.003637
1996.000000	0.003701
1995.000000	0.003849
1994.000000	0.004025
1993.000000	0.004152
1992.000000	0.004158
1991.000000	0.004050
1990.000000	0.003901
1989.000000	0.003780
1988.000000	0.003726
1987.000000	0.003779
1986.000000	0.003949
1985.000000	0.004162
1984.000000	0.004305
1983.000000	0.004372
1982.000000	0.004471
1981.000000	0.004665
1980.000000	0.004853
1979.000000	0.004888
1978.000000	0.004756
1977.000000	0.004567
1976.000000	0.004398
1975.000000	0.004239
1974.000000	0.004067
1973.000000	0.003880
1972.000000	0.003663
1971.000000	0.003431
1970.000000	0.003265
1969.000000	0.003249
1968.000000	0.003377
1967.000000	0.003569
1966.000000	0.003768
1965.000000	0.003967
1964.000000	0.004147
1963.000000	0.004262
1962.000000	0.004274
1961.000000	0.004180
1960.000000	0.004021
1959.000000	0.003882
1958.000000	0.003839
1957.000000	0.003892
1956.000000	0.003959
1955.000000	0.003970
1954.000000	0.003936
1953.000000	0.003906
1952.000000	0.003901
1951.000000	0.003898
1950.000000	0.003864
1949.000000	0.003780
1948.000000	0.003663
1947.000000	0.003585
1946.000000	0.003627
1945.000000	0.003777
1944.000000	0.003931
1943.000000	0.004006
1942.000000	0.004026
1941.000000	0.004046
1940.000000	0.004063
1939.000000	0.004052
1938.000000	0.004034
1937.000000	0.004049
1936.000000	0.004081
1935.000000	0.004087
1934.000000	0.004067
1933.000000	0.004050
1932.000000	0.004033
1931.000000	0.003984
1930.000000	0.003923
1929.000000	0.003917
1928.000000	0.003990
1927.000000	0.004089
1926.000000	0.004139
1925.000000	0.004109
1924.000000	0.004029
1923.000000	0.003953
1922.000000	0.003932
1921.000000	0.003966
1920.000000	0.004004
1919.000000	0.003993
1918.000000	0.003933
1917.000000	0.003874
1916.000000	0.003846
1915.000000	0.003847
1914.000000	0.003878
1913.000000	0.003950
1912.000000	0.004045
1911.000000	0.004127
1910.000000	0.004170
1909.000000	0.004178
1908.000000	0.004152
1907.000000	0.004094
1906.000000	0.004027
1905.000000	0.003994
1904.000000	0.004008
1903.000000	0.004038
1902.000000	0.004044
1901.000000	0.004012
1900.000000	0.003955
1899.000000	0.003895
1898.000000	0.003863
1897.000000	0.003874
1896.000000	0.003907
1895.000000	0.003934
1894.000000	0.003955
1893.000000	0.003997
1892.000000	0.004053
1891.000000	0.004082
1890.000000	0.004060
1889.000000	0.004017
1888.000000	0.003991
1887.000000	0.003972
1886.000000	0.003933
1885.000000	0.003885
1884.000000	0.003871
1883.000000	0.003903
1882.000000	0.003954
1881.000000	0.003991
1880.000000	0.004005
1879.000000	0.004003
1878.000000	0.003985
1877.000000	0.003954
1876.000000	0.003926
1875.000000	0.003920
1874.000000	0.003931
1873.000000	0.003931
1872.000000	0.003893
1871.000000	0.003822
1870.000000	0.003755
1869.000000	0.003726
1868.000000	0.003742
1867.000000	0.003799
1866.000000	0.003893
1865.000000	0.004001
1864.000000	0.004080
1863.000000	0.004092
1862.000000	0.004045
1861.000000	0.003978
1860.000000	0.003925
1859.000000	0.003889
1858.000000	0.003865
1857.000000	0.003850
1856.000000	0.003844
1855.000000	0.003838
1854.000000	0.003826
1853.000000	0.003806
1852.000000	0.003779
1851.000000	0.003764
1850.000000	0.003773
1849.000000	0.003795
1848.000000	0.003805
1847.000000	0.003798
1846.000000	0.003797
1845.000000	0.003809
1844.000000	0.003810
1843.000000	0.003781
1842.000000	0.003751
1841.000000	0.003761
1840.000000	0.003810
1839.000000	0.003855
1838.000000	0.003867
1837.000000	0.003858
1836.000000	0.003855
1835.000000	0.003857
1834.000000	0.003842
1833.000000	0.003797
1832.000000	0.003728
1831.000000	0.003663
1830.000000	0.003639
1829.000000	0.003668
1828.000000	0.003722
1827.000000	0.003767
1826.000000	0.003791
1825.000000	0.003804
1824.000000	0.003816
1823.000000	0.003828
1822.000000	0.003845
1821.000000	0.003865
1820.000000	0.003882
1819.000000	0.003884
1818.000000	0.003872
1817.000000	0.003854
1816.000000	0.003836
1815.000000	0.003816
1814.000000	0.003792
1813.000000	0.003766
1812.000000	0.003735
1811.000000	0.003698
1810.000000	0.003671
1809.000000	0.003669
1808.000000	0.003685
1807.000000	0.003700
1806.000000	0.003704
1805.000000	0.003705
1804.000000	0.003711
1803.000000	0.003726
1802.000000	0.003751
1801.000000	0.003780
1800.000000	0.003806
1799.000000	0.003824
1798.000000	0.003838
1797.000000	0.003849
1796.000000	0.003851
1795.000000	0.003844
1794.000000	0.003832
1793.000000	0.003814
1792.000000	0.003785
1791.000000	0.003751
1790.000000	0.003725
1789.000000	0.003721
1788.000000	0.003736
1787.000000	0.003755
1786.000000	0.003765
1785.000000	0.003755
1784.000000	0.003727
1783.000000	0.003689
1782.000000	0.003666
1781.000000	0.003665
1780.000000	0.003673
1779.000000	0.003673
1778.000000	0.003661
1777.000000	0.003644
1776.000000	0.003628
1775.000000	0.003617
1774.000000	0.003603
1773.000000	0.003569
1772.000000	0.003507
1771.000000	0.003450
1770.000000	0.003441
1769.000000	0.003485
1768.000000	0.003543
1767.000000	0.003568
1766.000000	0.003561
1765.000000	0.003552
1764.000000	0.003556
1763.000000	0.003554
1762.000000	0.003538
1761.000000	0.003525
1760.000000	0.003530
1759.000000	0.003551
1758.000000	0.003588
1757.000000	0.003644
1756.000000	0.003709
1755.000000	0.003777
1754.000000	0.003869
1753.000000	0.004002
1752.000000	0.004146
1751.000000	0.004242
1750.000000	0.004272
1749.000000	0.004280
1748.000000	0.004300
1747.000000	0.004336
1746.000000	0.004383
1745.000000	0.004431
1744.000000	0.004455
1743.000000	0.004432
1742.000000	0.004382
1741.000000	0.004353
1740.000000	0.004351
1739.000000	0.004333
1738.000000	0.004288
1737.000000	0.004264
1736.000000	0.004292
1735.000000	0.004330
1734.000000	0.004313
1733.000000	0.004242
1732.000000	0.004133
1731.000000	0.003999
1730.000000	0.003881
1729.000000	0.003809
1728.000000	0.003772
1727.000000	0.003741
1726.000000	0.003702
1725.000000	0.003663
1724.000000	0.003639
1723.000000	0.003617
1722.000000	0.003582
1721.000000	0.003544
1720.000000	0.003520
1719.000000	0.003502
1718.000000	0.003480
1717.000000	0.003468
1716.000000	0.003474
1715.000000	0.003488
1714.000000	0.003526
1713.000000	0.003620
1712.000000	0.003764
1711.000000	0.003926
1710.000000	0.004086
1709.000000	0.004243
1708.000000	0.004390
1707.000000	0.004537
1706.000000	0.004709
1705.000000	0.004916
1704.000000	0.005138
1703.000000	0.005378
1702.000000	0.005674
1701.000000	0.006040
1700.000000	0.006422
1699.000000	0.006745
1698.000000	0.007045
1697.000000	0.007423
1696.000000	0.007886
1695.000000	0.008311
1694.000000	0.008623
1693.000000	0.008876
1692.000000	0.009157
1691.000000	0.009476
1690.000000	0.009788
1689.000000	0.010070
1688.000000	0.010340
1687.000000	0.010634
1686.000000	0.010984
1685.000000	0.011410
1684.000000	0.011880
1683.000000	0.012298
1682.000000	0.012674
1681.000000	0.013081
1680.000000	0.013522
1679.000000	0.013936
1678.000000	0.014315
1677.000000	0.014733
1676.000000	0.015245
1675.000000	0.015799
1674.000000	0.016303
1673.000000	0.016747
1672.000000	0.017193
1671.000000	0.017689
1670.000000	0.018248
1669.000000	0.018849
1668.000000	0.019434
1667.000000	0.019941
1666.000000	0.020374
1665.000000	0.020800
1664.000000	0.021269
1663.000000	0.021764
1662.000000	0.022239
1661.000000	0.022681
1660.000000	0.023104
1659.000000	0.023494
1658.000000	0.023817
1657.000000	0.024074
1656.000000	0.024318
1655.000000	0.024613
1654.000000	0.024986
1653.000000	0.025431
1652.000000	0.025820
1651.000000	0.025983
1650.000000	0.025969
1649.000000	0.025992
1648.000000	0.026146
1647.000000	0.026378
1646.000000	0.026608
1645.000000	0.026810
1644.000000	0.026968
1643.000000	0.027081
1642.000000	0.027180
1641.000000	0.027267
1640.000000	0.027314
1639.000000	0.027318
1638.000000	0.027316
1637.000000	0.027350
1636.000000	0.027420
1635.000000	0.027488
1634.000000	0.027531
1633.000000	0.027541
1632.000000	0.027519
1631.000000	0.027451
1630.000000	0.027306
1629.000000	0.027086
1628.000000	0.026822
1627.000000	0.026539
1626.000000	0.026239
1625.000000	0.025907
1624.000000	0.025527
1623.000000	0.025099
1622.000000	0.024655
1621.000000	0.024224
1620.000000	0.023810
1619.000000	0.023394
1618.000000	0.022921
1617.000000	0.022355
1616.000000	0.021758
1615.000000	0.021210
1614.000000	0.020720
1613.000000	0.020268
1612.000000	0.019831
1611.000000	0.019387
1610.000000	0.018937
1609.000000	0.018492
1608.000000	0.018070
1607.000000	0.017685
1606.000000	0.017340
1605.000000	0.017017
1604.000000	0.016691
1603.000000	0.016362
1602.000000	0.016045
1601.000000	0.015763
1600.000000	0.015534
1599.000000	0.015364
1598.000000	0.015230
1597.000000	0.015097
1596.000000	0.014953
1595.000000	0.014819
1594.000000	0.014714
1593.000000	0.014639
1592.000000	0.014589
1591.000000	0.014567
1590.000000	0.014576
1589.000000	0.014602
1588.000000	0.014631
1587.000000	0.014669
1586.000000	0.014723
1585.000000	0.014792
1584.000000	0.014876
1583.000000	0.014990
1582.000000	0.015134
1581.000000	0.015278
1580.000000	0.015404
1579.000000	0.015545
1578.000000	0.015744
1577.000000	0.015987
1576.000000	0.016218
1575.000000	0.016391
1574.000000	0.016509
1573.000000	0.016616
1572.000000	0.016766
1571.000000	0.016980
1570.000000	0.017256
1569.000000	0.017574
1568.000000	0.017895
1567.000000	0.018206
1566.000000	0.018515
1565.000000	0.018824
1564.000000	0.019106
1563.000000	0.019352
1562.000000	0.019580
1561.000000	0.019803
1560.000000	0.020057
1559.000000	0.020418
1558.000000	0.020815
1557.000000	0.021165
1556.000000	0.021461
1555.000000	0.021750
1554.000000	0.022036
1553.000000	0.022282
1552.000000	0.022486
1551.000000	0.022689
1550.000000	0.022899
1549.000000	0.023088
1548.000000	0.023238
1547.000000	0.023364
1546.000000	0.023476
1545.000000	0.023562
1544.000000	0.023603
1543.000000	0.023608
1542.000000	0.023606
1541.000000	0.023622
1540.000000	0.023670
1539.000000	0.023744
1538.000000	0.023777
1537.000000	0.023706
1536.000000	0.023568
1535.000000	0.023412
1534.000000	0.023248
1533.000000	0.023090
1532.000000	0.022965
1531.000000	0.022871
1530.000000	0.022775
1529.000000	0.022656
1528.000000	0.022515
1527.000000	0.022361
1526.000000	0.022197
1525.000000	0.022024
1524.000000	0.021849
1523.000000	0.021681
1522.000000	0.021505
1521.000000	0.021310
1520.000000	0.021097
1519.000000	0.020879
1518.000000	0.020692
1517.000000	0.020562
1516.000000	0.020469
1515.000000	0.020372
1514.000000	0.020246
1513.000000	0.020078
1512.000000	0.019859
1511.000000	0.019592
1510.000000	0.019313
1509.000000	0.019047
1508.000000	0.018767
1507.000000	0.018419
1506.000000	0.018065
1505.000000	0.017815
1504.000000	0.017603
1503.000000	0.017372
1502.000000	0.017140
1501.000000	0.016907
1500.000000	0.016654
1499.000000	0.016387
1498.000000	0.016128
1497.000000	0.015895
1496.000000	0.015688
1495.000000	0.015487
1494.000000	0.015274
1493.000000	0.015055
1492.000000	0.014830
1491.000000	0.014596
1490.000000	0.014379
1489.000000	0.014221
1488.000000	0.014131
1487.000000	0.014077
1486.000000	0.014036
1485.000000	0.014011
1484.000000	0.014001
1483.000000	0.014003
1482.000000	0.014022
1481.000000	0.014073
1480.000000	0.014153
1479.000000	0.014250
1478.000000	0.014358
1477.000000	0.014479
1476.000000	0.014612
1475.000000	0.014756
1474.000000	0.014936
1473.000000	0.015169
1472.000000	0.015434
1471.000000	0.015688
1470.000000	0.015910
1469.000000	0.016108
1468.000000	0.016286
1467.000000	0.016449
1466.000000	0.016622
1465.000000	0.016831
1464.000000	0.017061
1463.000000	0.017275
1462.000000	0.017456
1461.000000	0.017619
1460.000000	0.017791
1459.000000	0.018013
1458.000000	0.018319
1457.000000	0.018694
1456.000000	0.019035
1455.000000	0.019255
1454.000000	0.019388
1453.000000	0.019519
1452.000000	0.019657
1451.000000	0.019759
1450.000000	0.019817
1449.000000	0.019855
1448.000000	0.019878
1447.000000	0.019876
1446.000000	0.019863
1445.000000	0.019845
1444.000000	0.019817
1443.000000	0.019771
1442.000000	0.019706
1441.000000	0.019619
1440.000000	0.019508
1439.000000	0.019381
1438.000000	0.019251
1437.000000	0.019129
1436.000000	0.019012
1435.000000	0.018894
1434.000000	0.018779
1433.000000	0.018675
1432.000000	0.018576
1431.000000	0.018467
1430.000000	0.018359
1429.000000	0.018275
1428.000000	0.018214
1427.000000	0.018163
1426.000000	0.018126
1425.000000	0.018100
1424.000000	0.018058
1423.000000	0.017978
1422.000000	0.017888
1421.000000	0.017833
1420.000000	0.017821
1419.000000	0.017828
1418.000000	0.017826
1417.000000	0.017811
1416.000000	0.017792
1415.000000	0.017775
1414.000000	0.017761
1413.000000	0.017753
1412.000000	0.017748
1411.000000	0.017734
1410.000000	0.017711
1409.000000	0.017692
1408.000000	0.017685
1407.000000	0.017686
1406.000000	0.017700
1405.000000	0.017730
1404.000000	0.017762
1403.000000	0.017776
1402.000000	0.017767
1401.000000	0.017746
1400.000000	0.017711
1399.000000	0.017644
1398.000000	0.017546
1397.000000	0.017440
1396.000000	0.017339
1395.000000	0.017243
1394.000000	0.017156
1393.000000	0.017080
1392.000000	0.017001
1391.000000	0.016902
1390.000000	0.016793
1389.000000	0.016689
1388.000000	0.016586
1387.000000	0.016466
1386.000000	0.016322
1385.000000	0.016168
1384.000000	0.016023
1383.000000	0.015888
1382.000000	0.015752
1381.000000	0.015607
1380.000000	0.015450
1379.000000	0.015282
1378.000000	0.015107
1377.000000	0.014929
1376.000000	0.014745
1375.000000	0.014552
1374.000000	0.014358
1373.000000	0.014179
1372.000000	0.014018
1371.000000	0.013868
1370.000000	0.013721
1369.000000	0.013572
1368.000000	0.013414
1367.000000	0.013236
1366.000000	0.013039
1365.000000	0.012840
1364.000000	0.012655
1363.000000	0.012496
1362.000000	0.012363
1361.000000	0.012255
1360.000000	0.012171
1359.000000	0.012108
1358.000000	0.012061
1357.000000	0.012026
1356.000000	0.012006
1355.000000	0.012007
1354.000000	0.012037
1353.000000	0.012096
1352.000000	0.012176
1351.000000	0.012268
1350.000000	0.012370
1349.000000	0.012489
1348.000000	0.012621
1347.000000	0.012750
1346.000000	0.012866
1345.000000	0.012973
1344.000000	0.013088
1343.000000	0.013221
1342.000000	0.013362
1341.000000	0.013495
1340.000000	0.013601
1339.000000	0.013671
1338.000000	0.013711
1337.000000	0.013735
1336.000000	0.013747
1335.000000	0.013737
1334.000000	0.013695
1333.000000	0.013629
1332.000000	0.013555
1331.000000	0.013481
1330.000000	0.013409
1329.000000	0.013333
1328.000000	0.013249
1327.000000	0.013152
1326.000000	0.013049
1325.000000	0.012952
1324.000000	0.012878
1323.000000	0.012829
1322.000000	0.012799
1321.000000	0.012776
1320.000000	0.012759
1319.000000	0.012745
1318.000000	0.012726
1317.000000	0.012694
1316.000000	0.012647
1315.000000	0.012587
1314.000000	0.012520
1313.000000	0.012451
1312.000000	0.012381
1311.000000	0.012304
1310.000000	0.012212
1309.000000	0.012107
1308.000000	0.012004
1307.000000	0.011916
1306.000000	0.011845
1305.000000	0.011782
1304.000000	0.011717
1303.000000	0.011652
1302.000000	0.011590
1301.000000	0.011533
1300.000000	0.011470
1299.000000	0.011397
1298.000000	0.011321
1297.000000	0.011263
1296.000000	0.011239
1295.000000	0.011246
1294.000000	0.011268
1293.000000	0.011299
1292.000000	0.011340
1291.000000	0.011394
1290.000000	0.011454
1289.000000	0.011509
1288.000000	0.011560
1287.000000	0.011613
1286.000000	0.011676
1285.000000	0.011750
1284.000000	0.011826
1283.000000	0.011892
1282.000000	0.011941
1281.000000	0.011973
1280.000000	0.011993
1279.000000	0.012001
1278.000000	0.012000
1277.000000	0.011999
1276.000000	0.012008
1275.000000	0.012020
1274.000000	0.012021
1273.000000	0.012008
1272.000000	0.011990
1271.000000	0.011984
1270.000000	0.011997
1269.000000	0.012036
1268.000000	0.012099
1267.000000	0.012181
1266.000000	0.012274
1265.000000	0.012376
1264.000000	0.012481
1263.000000	0.012577
1262.000000	0.012649
1261.000000	0.012700
1260.000000	0.012751
1259.000000	0.012825
1258.000000	0.012924
1257.000000	0.013039
1256.000000	0.013158
1255.000000	0.013277
1254.000000	0.013392
1253.000000	0.013505
1252.000000	0.013626
1251.000000	0.013757
1250.000000	0.013889
1249.000000	0.014015
1248.000000	0.014143
1247.000000	0.014289
1246.000000	0.014455
1245.000000	0.014629
1244.000000	0.014791
1243.000000	0.014933
1242.000000	0.015053
1241.000000	0.015148
1240.000000	0.015213
1239.000000	0.015247
1238.000000	0.015257
1237.000000	0.015254
1236.000000	0.015241
1235.000000	0.015209
1234.000000	0.015146
1233.000000	0.015043
1232.000000	0.014910
1231.000000	0.014762
1230.000000	0.014610
1229.000000	0.014450
1228.000000	0.014265
1227.000000	0.014050
1226.000000	0.013811
1225.000000	0.013564
1224.000000	0.013317
1223.000000	0.013068
1222.000000	0.012815
1221.000000	0.012557
1220.000000	0.012303
1219.000000	0.012067
1218.000000	0.011868
1217.000000	0.011718
1216.000000	0.011618
1215.000000	0.011554
1214.000000	0.011504
1213.000000	0.011458
1212.000000	0.011417
1211.000000	0.011398
1210.000000	0.011411
1209.000000	0.011452
1208.000000	0.011509
1207.000000	0.011573
1206.000000	0.011640
1205.000000	0.011702
1204.000000	0.011747
1203.000000	0.011758
1202.000000	0.011728
1201.000000	0.011661
1200.000000	0.011570
1199.000000	0.011467
1198.000000	0.011364
1197.000000	0.011265
1196.000000	0.011164
1195.000000	0.011047
1194.000000	0.010899
1193.000000	0.010723
1192.000000	0.010543
1191.000000	0.010388
1190.000000	0.010269
1189.000000	0.010176
1188.000000	0.010094
1187.000000	0.010012
1186.000000	0.009925
1185.000000	0.009832
1184.000000	0.009743
1183.000000	0.009678
1182.000000	0.009644
1181.000000	0.009633
1180.000000	0.009628
1179.000000	0.009624
1178.000000	0.009623
1177.000000	0.009626
1176.000000	0.009630
1175.000000	0.009638
1174.000000	0.009653
1173.000000	0.009675
1172.000000	0.009696
1171.000000	0.009710
1170.000000	0.009718
1169.000000	0.009731
1168.000000	0.009764
1167.000000	0.009828
1166.000000	0.009923
1165.000000	0.010028
1164.000000	0.010118
1163.000000	0.010180
1162.000000	0.010215
1161.000000	0.010223
1160.000000	0.010199
1159.000000	0.010138
1158.000000	0.010047
1157.000000	0.009942
1156.000000	0.009832
1155.000000	0.009726
1154.000000	0.009626
1153.000000	0.009530
1152.000000	0.009434
1151.000000	0.009332
1150.000000	0.009223
1149.000000	0.009106
1148.000000	0.008982
1147.000000	0.008854
1146.000000	0.008729
1145.000000	0.008605
1144.000000	0.008477
1143.000000	0.008349
1142.000000	0.008239
1141.000000	0.008159
1140.000000	0.008098
1139.000000	0.008031
1138.000000	0.007945
1137.000000	0.007854
1136.000000	0.007782
1135.000000	0.007740
1134.000000	0.007721
1133.000000	0.007706
1132.000000	0.007681
1131.000000	0.007642
1130.000000	0.007601
1129.000000	0.007578
1128.000000	0.007584
1127.000000	0.007610
1126.000000	0.007643
1125.000000	0.007675
1124.000000	0.007706
1123.000000	0.007729
1122.000000	0.007732
1121.000000	0.007715
1120.000000	0.007696
1119.000000	0.007703
1118.000000	0.007744
1117.000000	0.007813
1116.000000	0.007893
1115.000000	0.007972
1114.000000	0.008044
1113.000000	0.008109
1112.000000	0.008177
1111.000000	0.008253
1110.000000	0.008330
1109.000000	0.008391
1108.000000	0.008420
1107.000000	0.008422
1106.000000	0.008412
1105.000000	0.008409
1104.000000	0.008422
1103.000000	0.008454
1102.000000	0.008504
1101.000000	0.008566
1100.000000	0.008635
1099.000000	0.008710
1098.000000	0.008787
1097.000000	0.008857
1096.000000	0.008915
1095.000000	0.008969
1094.000000	0.009042
1093.000000	0.009144
1092.000000	0.009266
1091.000000	0.009395
1090.000000	0.009530
1089.000000	0.009679
1088.000000	0.009838
1087.000000	0.009989
1086.000000	0.010118
1085.000000	0.010232
1084.000000	0.010347
1083.000000	0.010465
1082.000000	0.010568
1081.000000	0.010634
1080.000000	0.010645
1079.000000	0.010603
1078.000000	0.010520
1077.000000	0.010416
1076.000000	0.010296
1075.000000	0.010162
1074.000000	0.010013
1073.000000	0.009860
1072.000000	0.009722
1071.000000	0.009614
1070.000000	0.009547
1069.000000	0.009527
1068.000000	0.009548
1067.000000	0.009593
1066.000000	0.009635
1065.000000	0.009659
1064.000000	0.009669
1063.000000	0.009684
1062.000000	0.009723
1061.000000	0.009778
1060.000000	0.009823
1059.000000	0.009825
1058.000000	0.009785
1057.000000	0.009736
1056.000000	0.009723
1055.000000	0.009762
1054.000000	0.009829
1053.000000	0.009881
1052.000000	0.009892
1051.000000	0.009875
1050.000000	0.009860
1049.000000	0.009871
1048.000000	0.009908
1047.000000	0.009952
1046.000000	0.009984
1045.000000	0.009994
1044.000000	0.009990
1043.000000	0.009985
1042.000000	0.009990
1041.000000	0.010012
1040.000000	0.010055
1039.000000	0.010131
1038.000000	0.010248
1037.000000	0.010402
1036.000000	0.010574
1035.000000	0.010742
1034.000000	0.010904
1033.000000	0.011072
1032.000000	0.011248
1031.000000	0.011411
1030.000000	0.011532
1029.000000	0.011608
1028.000000	0.011654
1027.000000	0.011686
1026.000000	0.011706
1025.000000	0.011715
1024.000000	0.011731
1023.000000	0.011780
1022.000000	0.011879
1021.000000	0.012017
1020.000000	0.012170
1019.000000	0.012305
1018.000000	0.012397
1017.000000	0.012426
1016.000000	0.012376
1015.000000	0.012247
1014.000000	0.012051
1013.000000	0.011806
1012.000000	0.011532
1011.000000	0.011246
1010.000000	0.010969
1009.000000	0.010710
1008.000000	0.010472
1007.000000	0.010246
1006.000000	0.010030
1005.000000	0.009820
1004.000000	0.009621
1003.000000	0.009433
1002.000000	0.009261
1001.000000	0.009103
1000.000000	0.008954
999.000000	0.008802
998.000000	0.008647
997.000000	0.008494
996.000000	0.008350
995.000000	0.008211
994.000000	0.008068
993.000000	0.007919
992.000000	0.007773
991.000000	0.007638
990.000000	0.007513
989.000000	0.007392
988.000000	0.007279
987.000000	0.007187
986.000000	0.007118
985.000000	0.007052
984.000000	0.006976
983.000000	0.006902
982.000000	0.006851
981.000000	0.006830
980.000000	0.006819
979.000000	0.006800
978.000000	0.006765
977.000000	0.006716
976.000000	0.006654
975.000000	0.006587
974.000000	0.006526
973.000000	0.006480
972.000000	0.006442
971.000000	0.006400
970.000000	0.006353
969.000000	0.006309
968.000000	0.006270
967.000000	0.006231
966.000000	0.006183
965.000000	0.006118
964.000000	0.006032
963.000000	0.005928
962.000000	0.005824
961.000000	0.005740
960.000000	0.005681
959.000000	0.005636
958.000000	0.005593
957.000000	0.005550
956.000000	0.005510
955.000000	0.005472
954.000000	0.005434
953.000000	0.005397
952.000000	0.005359
951.000000	0.005317
950.000000	0.005265
949.000000	0.005199
948.000000	0.005126
947.000000	0.005058
946.000000	0.005011
945.000000	0.004991
944.000000	0.004992
943.000000	0.005006
942.000000	0.005027
941.000000	0.005055
940.000000	0.005081
939.000000	0.005090
938.000000	0.005070
937.000000	0.005024
936.000000	0.004963
935.000000	0.004904
934.000000	0.004855
933.000000	0.004822
932.000000	0.004798
931.000000	0.004764
930.000000	0.004706
929.000000	0.004631
928.000000	0.004570
927.000000	0.004556
926.000000	0.004596
925.000000	0.004663
924.000000	0.004718
923.000000	0.004733
922.000000	0.004710
921.000000	0.004664
920.000000	0.004604
919.000000	0.004522
918.000000	0.004413
917.000000	0.004291
916.000000	0.004190
915.000000	0.004138
914.000000	0.004130
913.000000	0.004137
912.000000	0.004126
911.000000	0.004087
910.000000	0.004028
909.000000	0.003971
908.000000	0.003928
907.000000	0.003902
906.000000	0.003886
905.000000	0.003872
904.000000	0.003859
903.000000	0.003849
902.000000	0.003841
901.000000	0.003827
900.000000	0.003793
899.000000	0.003736
898.000000	0.003670
897.000000	0.003613
896.000000	0.003577
895.000000	0.003560
894.000000	0.003546
893.000000	0.003524
892.000000	0.003486
891.000000	0.003439
890.000000	0.003408
889.000000	0.003418
888.000000	0.003485
887.000000	0.003605
886.000000	0.003762
885.000000	0.003943
884.000000	0.004141
883.000000	0.004351
882.000000	0.004586
881.000000	0.004870
880.000000	0.005227
879.000000	0.005641
878.000000	0.006052
877.000000	0.006378
876.000000	0.006555
875.000000	0.006561
874.000000	0.006412
873.000000	0.006151
872.000000	0.005823
871.000000	0.005462
870.000000	0.005097
869.000000	0.004767
868.000000	0.004522
867.000000	0.004393
866.000000	0.004355
865.000000	0.004345
864.000000	0.004306
863.000000	0.004223
862.000000	0.004119
861.000000	0.004024
860.000000	0.003956
859.000000	0.003915
858.000000	0.003896
857.000000	0.003885
856.000000	0.003870
855.000000	0.003847
854.000000	0.003818
853.000000	0.003788
852.000000	0.003761
851.000000	0.003754
850.000000	0.003785
849.000000	0.003847
848.000000	0.003897
847.000000	0.003894
846.000000	0.003836
845.000000	0.003763
844.000000	0.003714
843.000000	0.003690
842.000000	0.003675
841.000000	0.003655
840.000000	0.003632
839.000000	0.003603
838.000000	0.003568
837.000000	0.003536
836.000000	0.003515
835.000000	0.003504
834.000000	0.003494
833.000000	0.003486
832.000000	0.003487
831.000000	0.003494
830.000000	0.003496
829.000000	0.003491
828.000000	0.003492
827.000000	0.003512
826.000000	0.003541
825.000000	0.003555
824.000000	0.003542
823.000000	0.003514
822.000000	0.003501
821.000000	0.003519
820.000000	0.003561
819.000000	0.003604
818.000000	0.003623
817.000000	0.003610
816.000000	0.003573
815.000000	0.003533
814.000000	0.003518
813.000000	0.003554
812.000000	0.003637
811.000000	0.003731
810.000000	0.003789
809.000000	0.003788
808.000000	0.003736
807.000000	0.003655
806.000000	0.003565
805.000000	0.003490
804.000000	0.003439
803.000000	0.003413
802.000000	0.003410
801.000000	0.003440
800.000000	0.003505
799.000000	0.003587
798.000000	0.003663
797.000000	0.003723
796.000000	0.003773
795.000000	0.003801
794.000000	0.003787
793.000000	0.003743
792.000000	0.003718
791.000000	0.003744
790.000000	0.003799
789.000000	0.003831
788.000000	0.003824
787.000000	0.003803
786.000000	0.003798
785.000000	0.003812
784.000000	0.003825
783.000000	0.003820
782.000000	0.003806
781.000000	0.003798
780.000000	0.003805
779.000000	0.003818
778.000000	0.003820
777.000000	0.003802
776.000000	0.003766
775.000000	0.003721
774.000000	0.003687
773.000000	0.003691
772.000000	0.003744
771.000000	0.003824
770.000000	0.003893
769.000000	0.003933
768.000000	0.003945
767.000000	0.003929
766.000000	0.003882
765.000000	0.003818
764.000000	0.003773
763.000000	0.003773
762.000000	0.003815
761.000000	0.003882
760.000000	0.003958
759.000000	0.004028
758.000000	0.004074
757.000000	0.004102
756.000000	0.004139
755.000000	0.004189
754.000000	0.004220
753.000000	0.004196
752.000000	0.004126
751.000000	0.004060
750.000000	0.004036
749.000000	0.004061
748.000000	0.004117
747.000000	0.004177
746.000000	0.004217
745.000000	0.004235
744.000000	0.004250
743.000000	0.004282
742.000000	0.004326
741.000000	0.004361
740.000000	0.004386
739.000000	0.004412
738.000000	0.004451
737.000000	0.004506
736.000000	0.004577
735.000000	0.004663
734.000000	0.004743
733.000000	0.004796
732.000000	0.004815
731.000000	0.004810
730.000000	0.004790
729.000000	0.004772
728.000000	0.004782
727.000000	0.004838
726.000000	0.004936
725.000000	0.005065
724.000000	0.005213
723.000000	0.005355
722.000000	0.005456
721.000000	0.005500
720.000000	0.005504
719.000000	0.005497
718.000000	0.005497
717.000000	0.005529
716.000000	0.005640
715.000000	0.005852
714.000000	0.006105
713.000000	0.006295
712.000000	0.006368
711.000000	0.006362
710.000000	0.006353
709.000000	0.006379
708.000000	0.006420
707.000000	0.006439
706.000000	0.006428
705.000000	0.006420
704.000000	0.006452
703.000000	0.006517
702.000000	0.006564
701.000000	0.006558
700.000000	0.006531
699.000000	0.006529
698.000000	0.006557
697.000000	0.006579
696.000000	0.006581
695.000000	0.006590
694.000000	0.006620
693.000000	0.006644
692.000000	0.006649
691.000000	0.006662
690.000000	0.006706
689.000000	0.006766
688.000000	0.006816
687.000000	0.006861
686.000000	0.006909
685.000000	0.006943
684.000000	0.006950
683.000000	0.006954
682.000000	0.006980
681.000000	0.007035
680.000000	0.007111
679.000000	0.007192
678.000000	0.007240
677.000000	0.007248
676.000000	0.007275
675.000000	0.007388
674.000000	0.007562
673.000000	0.007684
672.000000	0.007680
671.000000	0.007583
670.000000	0.007464
669.000000	0.007383
668.000000	0.007495
667.000000	0.007763
666.000000	0.007846
665.000000	0.007855
664.000000	0.007911
663.000000	0.007960
662.000000	0.007941
661.000000	0.007881
660.000000	0.007838
659.000000	0.007823
658.000000	0.007819
657.000000	0.007843
656.000000	0.007903
655.000000	0.007942
654.000000	0.007902
653.000000	0.007792
652.000000	0.007663
651.000000	0.007564
650.000000	0.007537
649.000000	0.007607
648.000000	0.007727
647.000000	0.007806
646.000000	0.007807
645.000000	0.007779
644.000000	0.007772
643.000000	0.007785
642.000000	0.007800
641.000000	0.007825
640.000000	0.007875
639.000000	0.007927
638.000000	0.007940
637.000000	0.007900
636.000000	0.007813
635.000000	0.007708
634.000000	0.007634
633.000000	0.007635
632.000000	0.007704
631.000000	0.007789
630.000000	0.007839
629.000000	0.007853
628.000000	0.007860
627.000000	0.007876
626.000000	0.007906
625.000000	0.007944
624.000000	0.007981
623.000000	0.008013
622.000000	0.008039
621.000000	0.008038
620.000000	0.007988
619.000000	0.007901
618.000000	0.007837
617.000000	0.007832
616.000000	0.007850
615.000000	0.007846
614.000000	0.007841
613.000000	0.007890
612.000000	0.007984
611.000000	0.008061
610.000000	0.008088
609.000000	0.008088
608.000000	0.008079
607.000000	0.008046
606.000000	0.008006
605.000000	0.008008
604.000000	0.008055
603.000000	0.008078
602.000000	0.008015
601.000000	0.007890
600.000000	0.007781
599.000000	0.007740
598.000000	0.007740
597.000000	0.007712
596.000000	0.007607
595.000000	0.007446
594.000000	0.007310
593.000000	0.007284
592.000000	0.007375
591.000000	0.007517
590.000000	0.007631
589.000000	0.007677
588.000000	0.007643
587.000000	0.007543
586.000000	0.007432
585.000000	0.007367
584.000000	0.007361
583.000000	0.007376
582.000000	0.007396
581.000000	0.007453
580.000000	0.007572
579.000000	0.007718
578.000000	0.007817
577.000000	0.007805
576.000000	0.007672
575.000000	0.007488
574.000000	0.007394
573.000000	0.007493
572.000000	0.007748
571.000000	0.008006
570.000000	0.008151
569.000000	0.008211
568.000000	0.008280
567.000000	0.008385
566.000000	0.008472
565.000000	0.008501
564.000000	0.008482
563.000000	0.008441
562.000000	0.008378
561.000000	0.008294
560.000000	0.008211
559.000000	0.008166
558.000000	0.008181
557.000000	0.008234
556.000000	0.008279
555.000000	0.008292
554.000000	0.008286
553.000000	0.008274
552.000000	0.008239
551.000000	0.008168
550.000000	0.008096
549.000000	0.008069
548.000000	0.008084
547.000000	0.008106
546.000000	0.008123
545.000000	0.008145
544.000000	0.008166
543.000000	0.008161
542.000000	0.008133
541.000000	0.008087
540.000000	0.007985
539.000000	0.007789
538.000000	0.007568
537.000000	0.007472
536.000000	0.007592
535.000000	0.007874
534.000000	0.008185
533.000000	0.008392
532.000000	0.008410
531.000000	0.008240
530.000000	0.008003
529.000000	0.007844
528.000000	0.007796
527.000000	0.007768
526.000000	0.007680
525.000000	0.007549
524.000000	0.007420
523.000000	0.007308
522.000000	0.007220
521.000000	0.007155
520.000000	0.007060
519.000000	0.006874
518.000000	0.006639
517.000000	0.006487
516.000000	0.006466
515.000000	0.006487
514.000000	0.006482
513.000000	0.006484
512.000000	0.006514
511.000000	0.006508
510.000000	0.006419
509.000000	0.006336
508.000000	0.006369
507.000000	0.006491
506.000000	0.006550
505.000000	0.006442
504.000000	0.006183
503.000000	0.005869
502.000000	0.005631
501.000000	0.005571
500.000000	0.005659
499.000000	0.005744
498.000000	0.005695
497.000000	0.005513
496.000000	0.005293
495.000000	0.005123
494.000000	0.005057
493.000000	0.005115
492.000000	0.005246
491.000000	0.005326
490.000000	0.005264
489.000000	0.005094
488.000000	0.004923
487.000000	0.004842
486.000000	0.004901
485.000000	0.005105
484.000000	0.005350
483.000000	0.005462
482.000000	0.005378
481.000000	0.005235
480.000000	0.005186
479.000000	0.005198
478.000000	0.005135
477.000000	0.004998
476.000000	0.004938
475.000000	0.005060
474.000000	0.005307
473.000000	0.005539
472.000000	0.005648
471.000000	0.005622
470.000000	0.005565
469.000000	0.005624
468.000000	0.005845
467.000000	0.006077
466.000000	0.006123
465.000000	0.005975
464.000000	0.005794
463.000000	0.005670
462.000000	0.005491
461.000000	0.005083
460.000000	0.004423
459.000000	0.003704
458.000000	0.003242
457.000000	0.003201
456.000000	0.003372
455.000000	0.003420
454.000000	0.003288
453.000000	0.003215
452.000000	0.003400
451.000000	0.003706
450.000000	0.003793
