PE IR       SUBTECH     SPECTRUM    ASCII       PEDS        4.00        
   -1
3G-N10-F025_1.ASC
22/02/24
10:49:33.00
22/02/24
11:04:21.00
uco
Sample 025 By uco Date Thursday, February 24 2022
450.000000
#HDR
-1
-1
#GR
cm-1
A
1.0
0.0
4000.000000
-1.000000
3551
8
0.048395
0.007585
#DATA
4000.000000	0.007859
3999.000000	0.007864
3998.000000	0.007862
3997.000000	0.007854
3996.000000	0.007843
3995.000000	0.007835
3994.000000	0.007837
3993.000000	0.007849
3992.000000	0.007865
3991.000000	0.007878
3990.000000	0.007880
3989.000000	0.007872
3988.000000	0.007854
3987.000000	0.007835
3986.000000	0.007822
3985.000000	0.007824
3984.000000	0.007842
3983.000000	0.007876
3982.000000	0.007918
3981.000000	0.007960
3980.000000	0.007996
3979.000000	0.008022
3978.000000	0.008038
3977.000000	0.008045
3976.000000	0.008041
3975.000000	0.008023
3974.000000	0.007992
3973.000000	0.007952
3972.000000	0.007911
3971.000000	0.007881
3970.000000	0.007870
3969.000000	0.007883
3968.000000	0.007918
3967.000000	0.007963
3966.000000	0.008002
3965.000000	0.008024
3964.000000	0.008028
3963.000000	0.008022
3962.000000	0.008013
3961.000000	0.008002
3960.000000	0.007993
3959.000000	0.007985
3958.000000	0.007984
3957.000000	0.007992
3956.000000	0.008009
3955.000000	0.008025
3954.000000	0.008033
3953.000000	0.008029
3952.000000	0.008018
3951.000000	0.008010
3950.000000	0.008010
3949.000000	0.008014
3948.000000	0.008016
3947.000000	0.008009
3946.000000	0.007991
3945.000000	0.007969
3944.000000	0.007954
3943.000000	0.007957
3942.000000	0.007982
3941.000000	0.008019
3940.000000	0.008050
3939.000000	0.008059
3938.000000	0.008045
3937.000000	0.008024
3936.000000	0.008016
3935.000000	0.008030
3934.000000	0.008059
3933.000000	0.008085
3932.000000	0.008098
3931.000000	0.008099
3930.000000	0.008099
3929.000000	0.008104
3928.000000	0.008109
3927.000000	0.008109
3926.000000	0.008097
3925.000000	0.008072
3924.000000	0.008039
3923.000000	0.008013
3922.000000	0.008000
3921.000000	0.008000
3920.000000	0.008003
3919.000000	0.008003
3918.000000	0.008001
3917.000000	0.007998
3916.000000	0.007996
3915.000000	0.007997
3914.000000	0.007998
3913.000000	0.008000
3912.000000	0.008006
3911.000000	0.008019
3910.000000	0.008042
3909.000000	0.008068
3908.000000	0.008085
3907.000000	0.008086
3906.000000	0.008069
3905.000000	0.008047
3904.000000	0.008040
3903.000000	0.008064
3902.000000	0.008113
3901.000000	0.008162
3900.000000	0.008184
3899.000000	0.008173
3898.000000	0.008147
3897.000000	0.008122
3896.000000	0.008107
3895.000000	0.008098
3894.000000	0.008092
3893.000000	0.008089
3892.000000	0.008086
3891.000000	0.008086
3890.000000	0.008094
3889.000000	0.008113
3888.000000	0.008137
3887.000000	0.008152
3886.000000	0.008145
3885.000000	0.008122
3884.000000	0.008102
3883.000000	0.008094
3882.000000	0.008093
3881.000000	0.008087
3880.000000	0.008078
3879.000000	0.008083
3878.000000	0.008110
3877.000000	0.008149
3876.000000	0.008182
3875.000000	0.008193
3874.000000	0.008185
3873.000000	0.008173
3872.000000	0.008165
3871.000000	0.008157
3870.000000	0.008147
3869.000000	0.008144
3868.000000	0.008160
3867.000000	0.008194
3866.000000	0.008223
3865.000000	0.008227
3864.000000	0.008203
3863.000000	0.008167
3862.000000	0.008141
3861.000000	0.008137
3860.000000	0.008160
3859.000000	0.008195
3858.000000	0.008226
3857.000000	0.008241
3856.000000	0.008238
3855.000000	0.008220
3854.000000	0.008193
3853.000000	0.008175
3852.000000	0.008176
3851.000000	0.008185
3850.000000	0.008186
3849.000000	0.008173
3848.000000	0.008151
3847.000000	0.008130
3846.000000	0.008118
3845.000000	0.008117
3844.000000	0.008123
3843.000000	0.008130
3842.000000	0.008134
3841.000000	0.008134
3840.000000	0.008134
3839.000000	0.008136
3838.000000	0.008139
3837.000000	0.008137
3836.000000	0.008125
3835.000000	0.008103
3834.000000	0.008081
3833.000000	0.008069
3832.000000	0.008078
3831.000000	0.008110
3830.000000	0.008160
3829.000000	0.008213
3828.000000	0.008254
3827.000000	0.008275
3826.000000	0.008281
3825.000000	0.008284
3824.000000	0.008289
3823.000000	0.008283
3822.000000	0.008250
3821.000000	0.008195
3820.000000	0.008151
3819.000000	0.008137
3818.000000	0.008143
3817.000000	0.008144
3816.000000	0.008123
3815.000000	0.008090
3814.000000	0.008067
3813.000000	0.008061
3812.000000	0.008069
3811.000000	0.008086
3810.000000	0.008111
3809.000000	0.008138
3808.000000	0.008160
3807.000000	0.008176
3806.000000	0.008193
3805.000000	0.008217
3804.000000	0.008238
3803.000000	0.008232
3802.000000	0.008183
3801.000000	0.008115
3800.000000	0.008069
3799.000000	0.008064
3798.000000	0.008083
3797.000000	0.008104
3796.000000	0.008111
3795.000000	0.008107
3794.000000	0.008098
3793.000000	0.008090
3792.000000	0.008080
3791.000000	0.008067
3790.000000	0.008056
3789.000000	0.008049
3788.000000	0.008046
3787.000000	0.008045
3786.000000	0.008041
3785.000000	0.008035
3784.000000	0.008030
3783.000000	0.008033
3782.000000	0.008045
3781.000000	0.008057
3780.000000	0.008059
3779.000000	0.008048
3778.000000	0.008033
3777.000000	0.008018
3776.000000	0.008000
3775.000000	0.007980
3774.000000	0.007961
3773.000000	0.007955
3772.000000	0.007966
3771.000000	0.007991
3770.000000	0.008019
3769.000000	0.008045
3768.000000	0.008062
3767.000000	0.008065
3766.000000	0.008052
3765.000000	0.008038
3764.000000	0.008037
3763.000000	0.008056
3762.000000	0.008081
3761.000000	0.008097
3760.000000	0.008095
3759.000000	0.008088
3758.000000	0.008089
3757.000000	0.008098
3756.000000	0.008109
3755.000000	0.008120
3754.000000	0.008132
3753.000000	0.008147
3752.000000	0.008166
3751.000000	0.008192
3750.000000	0.008219
3749.000000	0.008227
3748.000000	0.008205
3747.000000	0.008162
3746.000000	0.008115
3745.000000	0.008074
3744.000000	0.008040
3743.000000	0.008013
3742.000000	0.007986
3741.000000	0.007964
3740.000000	0.007954
3739.000000	0.007965
3738.000000	0.007993
3737.000000	0.008012
3736.000000	0.007990
3735.000000	0.007923
3734.000000	0.007849
3733.000000	0.007806
3732.000000	0.007804
3731.000000	0.007823
3730.000000	0.007842
3729.000000	0.007851
3728.000000	0.007853
3727.000000	0.007856
3726.000000	0.007869
3725.000000	0.007893
3724.000000	0.007916
3723.000000	0.007928
3722.000000	0.007933
3721.000000	0.007941
3720.000000	0.007954
3719.000000	0.007959
3718.000000	0.007946
3717.000000	0.007916
3716.000000	0.007885
3715.000000	0.007875
3714.000000	0.007899
3713.000000	0.007954
3712.000000	0.008009
3711.000000	0.008033
3710.000000	0.008016
3709.000000	0.007974
3708.000000	0.007929
3707.000000	0.007894
3706.000000	0.007869
3705.000000	0.007849
3704.000000	0.007827
3703.000000	0.007806
3702.000000	0.007795
3701.000000	0.007810
3700.000000	0.007854
3699.000000	0.007913
3698.000000	0.007965
3697.000000	0.007994
3696.000000	0.007998
3695.000000	0.007993
3694.000000	0.007987
3693.000000	0.007985
3692.000000	0.007981
3691.000000	0.007973
3690.000000	0.007960
3689.000000	0.007945
3688.000000	0.007934
3687.000000	0.007929
3686.000000	0.007931
3685.000000	0.007935
3684.000000	0.007938
3683.000000	0.007940
3682.000000	0.007952
3681.000000	0.007990
3680.000000	0.008067
3679.000000	0.008187
3678.000000	0.008337
3677.000000	0.008471
3676.000000	0.008527
3675.000000	0.008491
3674.000000	0.008426
3673.000000	0.008389
3672.000000	0.008389
3671.000000	0.008390
3670.000000	0.008356
3669.000000	0.008290
3668.000000	0.008225
3667.000000	0.008185
3666.000000	0.008171
3665.000000	0.008174
3664.000000	0.008182
3663.000000	0.008188
3662.000000	0.008188
3661.000000	0.008181
3660.000000	0.008165
3659.000000	0.008144
3658.000000	0.008126
3657.000000	0.008126
3656.000000	0.008158
3655.000000	0.008225
3654.000000	0.008317
3653.000000	0.008408
3652.000000	0.008475
3651.000000	0.008496
3650.000000	0.008478
3649.000000	0.008455
3648.000000	0.008451
3647.000000	0.008460
3646.000000	0.008471
3645.000000	0.008480
3644.000000	0.008492
3643.000000	0.008510
3642.000000	0.008538
3641.000000	0.008573
3640.000000	0.008607
3639.000000	0.008630
3638.000000	0.008640
3637.000000	0.008643
3636.000000	0.008645
3635.000000	0.008649
3634.000000	0.008657
3633.000000	0.008675
3632.000000	0.008712
3631.000000	0.008770
3630.000000	0.008834
3629.000000	0.008886
3628.000000	0.008921
3627.000000	0.008945
3626.000000	0.008956
3625.000000	0.008953
3624.000000	0.008945
3623.000000	0.008939
3622.000000	0.008944
3621.000000	0.008969
3620.000000	0.009014
3619.000000	0.009076
3618.000000	0.009143
3617.000000	0.009202
3616.000000	0.009245
3615.000000	0.009279
3614.000000	0.009314
3613.000000	0.009360
3612.000000	0.009420
3611.000000	0.009487
3610.000000	0.009546
3609.000000	0.009581
3608.000000	0.009587
3607.000000	0.009578
3606.000000	0.009578
3605.000000	0.009595
3604.000000	0.009627
3603.000000	0.009661
3602.000000	0.009690
3601.000000	0.009714
3600.000000	0.009745
3599.000000	0.009791
3598.000000	0.009853
3597.000000	0.009921
3596.000000	0.009976
3595.000000	0.010003
3594.000000	0.010007
3593.000000	0.010009
3592.000000	0.010032
3591.000000	0.010086
3590.000000	0.010158
3589.000000	0.010225
3588.000000	0.010271
3587.000000	0.010305
3586.000000	0.010349
3585.000000	0.010410
3584.000000	0.010477
3583.000000	0.010537
3582.000000	0.010584
3581.000000	0.010623
3580.000000	0.010656
3579.000000	0.010693
3578.000000	0.010740
3577.000000	0.010805
3576.000000	0.010888
3575.000000	0.010980
3574.000000	0.011066
3573.000000	0.011133
3572.000000	0.011181
3571.000000	0.011218
3570.000000	0.011260
3569.000000	0.011316
3568.000000	0.011377
3567.000000	0.011436
3566.000000	0.011491
3565.000000	0.011545
3564.000000	0.011592
3563.000000	0.011625
3562.000000	0.011641
3561.000000	0.011652
3560.000000	0.011670
3559.000000	0.011709
3558.000000	0.011771
3557.000000	0.011852
3556.000000	0.011943
3555.000000	0.012035
3554.000000	0.012123
3553.000000	0.012203
3552.000000	0.012268
3551.000000	0.012316
3550.000000	0.012351
3549.000000	0.012385
3548.000000	0.012426
3547.000000	0.012478
3546.000000	0.012538
3545.000000	0.012599
3544.000000	0.012655
3543.000000	0.012705
3542.000000	0.012748
3541.000000	0.012786
3540.000000	0.012820
3539.000000	0.012852
3538.000000	0.012888
3537.000000	0.012936
3536.000000	0.012995
3535.000000	0.013055
3534.000000	0.013104
3533.000000	0.013143
3532.000000	0.013177
3531.000000	0.013214
3530.000000	0.013257
3529.000000	0.013306
3528.000000	0.013366
3527.000000	0.013445
3526.000000	0.013544
3525.000000	0.013648
3524.000000	0.013733
3523.000000	0.013784
3522.000000	0.013810
3521.000000	0.013836
3520.000000	0.013886
3519.000000	0.013962
3518.000000	0.014048
3517.000000	0.014124
3516.000000	0.014174
3515.000000	0.014200
3514.000000	0.014218
3513.000000	0.014246
3512.000000	0.014295
3511.000000	0.014359
3510.000000	0.014422
3509.000000	0.014478
3508.000000	0.014529
3507.000000	0.014583
3506.000000	0.014642
3505.000000	0.014698
3504.000000	0.014742
3503.000000	0.014772
3502.000000	0.014799
3501.000000	0.014830
3500.000000	0.014873
3499.000000	0.014930
3498.000000	0.014998
3497.000000	0.015069
3496.000000	0.015130
3495.000000	0.015174
3494.000000	0.015200
3493.000000	0.015219
3492.000000	0.015246
3491.000000	0.015289
3490.000000	0.015346
3489.000000	0.015406
3488.000000	0.015457
3487.000000	0.015499
3486.000000	0.015543
3485.000000	0.015597
3484.000000	0.015661
3483.000000	0.015728
3482.000000	0.015791
3481.000000	0.015851
3480.000000	0.015903
3479.000000	0.015946
3478.000000	0.015981
3477.000000	0.016015
3476.000000	0.016054
3475.000000	0.016103
3474.000000	0.016160
3473.000000	0.016220
3472.000000	0.016276
3471.000000	0.016326
3470.000000	0.016372
3469.000000	0.016417
3468.000000	0.016464
3467.000000	0.016511
3466.000000	0.016557
3465.000000	0.016604
3464.000000	0.016654
3463.000000	0.016702
3462.000000	0.016737
3461.000000	0.016755
3460.000000	0.016763
3459.000000	0.016783
3458.000000	0.016831
3457.000000	0.016908
3456.000000	0.016994
3455.000000	0.017071
3454.000000	0.017128
3453.000000	0.017170
3452.000000	0.017204
3451.000000	0.017238
3450.000000	0.017278
3449.000000	0.017327
3448.000000	0.017381
3447.000000	0.017439
3446.000000	0.017504
3445.000000	0.017576
3444.000000	0.017646
3443.000000	0.017701
3442.000000	0.017732
3441.000000	0.017749
3440.000000	0.017770
3439.000000	0.017808
3438.000000	0.017863
3437.000000	0.017923
3436.000000	0.017976
3435.000000	0.018019
3434.000000	0.018057
3433.000000	0.018098
3432.000000	0.018149
3431.000000	0.018210
3430.000000	0.018286
3429.000000	0.018374
3428.000000	0.018463
3427.000000	0.018538
3426.000000	0.018591
3425.000000	0.018626
3424.000000	0.018656
3423.000000	0.018693
3422.000000	0.018742
3421.000000	0.018802
3420.000000	0.018864
3419.000000	0.018921
3418.000000	0.018969
3417.000000	0.019012
3416.000000	0.019062
3415.000000	0.019121
3414.000000	0.019185
3413.000000	0.019240
3412.000000	0.019280
3411.000000	0.019312
3410.000000	0.019348
3409.000000	0.019393
3408.000000	0.019441
3407.000000	0.019483
3406.000000	0.019522
3405.000000	0.019569
3404.000000	0.019634
3403.000000	0.019711
3402.000000	0.019784
3401.000000	0.019838
3400.000000	0.019871
3399.000000	0.019894
3398.000000	0.019927
3397.000000	0.019978
3396.000000	0.020041
3395.000000	0.020107
3394.000000	0.020167
3393.000000	0.020221
3392.000000	0.020270
3391.000000	0.020313
3390.000000	0.020350
3389.000000	0.020382
3388.000000	0.020416
3387.000000	0.020454
3386.000000	0.020499
3385.000000	0.020551
3384.000000	0.020607
3383.000000	0.020660
3382.000000	0.020705
3381.000000	0.020738
3380.000000	0.020765
3379.000000	0.020800
3378.000000	0.020854
3377.000000	0.020927
3376.000000	0.021006
3375.000000	0.021080
3374.000000	0.021142
3373.000000	0.021196
3372.000000	0.021249
3371.000000	0.021310
3370.000000	0.021379
3369.000000	0.021453
3368.000000	0.021524
3367.000000	0.021592
3366.000000	0.021658
3365.000000	0.021721
3364.000000	0.021780
3363.000000	0.021838
3362.000000	0.021902
3361.000000	0.021974
3360.000000	0.022043
3359.000000	0.022099
3358.000000	0.022143
3357.000000	0.022189
3356.000000	0.022253
3355.000000	0.022333
3354.000000	0.022419
3353.000000	0.022501
3352.000000	0.022574
3351.000000	0.022642
3350.000000	0.022709
3349.000000	0.022781
3348.000000	0.022858
3347.000000	0.022934
3346.000000	0.023001
3345.000000	0.023053
3344.000000	0.023098
3343.000000	0.023144
3342.000000	0.023201
3341.000000	0.023270
3340.000000	0.023347
3339.000000	0.023427
3338.000000	0.023502
3337.000000	0.023569
3336.000000	0.023628
3335.000000	0.023688
3334.000000	0.023752
3333.000000	0.023819
3332.000000	0.023882
3331.000000	0.023938
3330.000000	0.023992
3329.000000	0.024044
3328.000000	0.024092
3327.000000	0.024135
3326.000000	0.024182
3325.000000	0.024240
3324.000000	0.024308
3323.000000	0.024372
3322.000000	0.024424
3321.000000	0.024466
3320.000000	0.024509
3319.000000	0.024559
3318.000000	0.024615
3317.000000	0.024673
3316.000000	0.024733
3315.000000	0.024796
3314.000000	0.024857
3313.000000	0.024911
3312.000000	0.024949
3311.000000	0.024970
3310.000000	0.024980
3309.000000	0.024984
3308.000000	0.024983
3307.000000	0.024984
3306.000000	0.024998
3305.000000	0.025035
3304.000000	0.025101
3303.000000	0.025190
3302.000000	0.025291
3301.000000	0.025386
3300.000000	0.025454
3299.000000	0.025482
3298.000000	0.025478
3297.000000	0.025463
3296.000000	0.025457
3295.000000	0.025460
3294.000000	0.025463
3293.000000	0.025462
3292.000000	0.025462
3291.000000	0.025476
3290.000000	0.025505
3289.000000	0.025542
3288.000000	0.025577
3287.000000	0.025605
3286.000000	0.025622
3285.000000	0.025628
3284.000000	0.025623
3283.000000	0.025611
3282.000000	0.025597
3281.000000	0.025576
3280.000000	0.025545
3279.000000	0.025505
3278.000000	0.025465
3277.000000	0.025431
3276.000000	0.025398
3275.000000	0.025356
3274.000000	0.025302
3273.000000	0.025246
3272.000000	0.025199
3271.000000	0.025165
3270.000000	0.025144
3269.000000	0.025130
3268.000000	0.025117
3267.000000	0.025091
3266.000000	0.025045
3265.000000	0.024981
3264.000000	0.024913
3263.000000	0.024853
3262.000000	0.024807
3261.000000	0.024766
3260.000000	0.024725
3259.000000	0.024684
3258.000000	0.024645
3257.000000	0.024610
3256.000000	0.024575
3255.000000	0.024528
3254.000000	0.024461
3253.000000	0.024368
3252.000000	0.024256
3251.000000	0.024144
3250.000000	0.024051
3249.000000	0.023981
3248.000000	0.023928
3247.000000	0.023880
3246.000000	0.023833
3245.000000	0.023789
3244.000000	0.023744
3243.000000	0.023695
3242.000000	0.023638
3241.000000	0.023579
3240.000000	0.023524
3239.000000	0.023477
3238.000000	0.023434
3237.000000	0.023389
3236.000000	0.023337
3235.000000	0.023281
3234.000000	0.023224
3233.000000	0.023173
3232.000000	0.023133
3231.000000	0.023100
3230.000000	0.023068
3229.000000	0.023033
3228.000000	0.022994
3227.000000	0.022962
3226.000000	0.022942
3225.000000	0.022935
3224.000000	0.022932
3223.000000	0.022925
3222.000000	0.022900
3221.000000	0.022851
3220.000000	0.022781
3219.000000	0.022710
3218.000000	0.022658
3217.000000	0.022630
3216.000000	0.022607
3215.000000	0.022567
3214.000000	0.022502
3213.000000	0.022425
3212.000000	0.022352
3211.000000	0.022294
3210.000000	0.022250
3209.000000	0.022213
3208.000000	0.022178
3207.000000	0.022150
3206.000000	0.022131
3205.000000	0.022118
3204.000000	0.022095
3203.000000	0.022051
3202.000000	0.021994
3201.000000	0.021938
3200.000000	0.021896
3199.000000	0.021861
3198.000000	0.021820
3197.000000	0.021764
3196.000000	0.021697
3195.000000	0.021633
3194.000000	0.021582
3193.000000	0.021544
3192.000000	0.021510
3191.000000	0.021466
3190.000000	0.021408
3189.000000	0.021343
3188.000000	0.021283
3187.000000	0.021230
3186.000000	0.021178
3185.000000	0.021126
3184.000000	0.021078
3183.000000	0.021040
3182.000000	0.021006
3181.000000	0.020963
3180.000000	0.020904
3179.000000	0.020834
3178.000000	0.020762
3177.000000	0.020691
3176.000000	0.020619
3175.000000	0.020548
3174.000000	0.020485
3173.000000	0.020436
3172.000000	0.020395
3171.000000	0.020357
3170.000000	0.020318
3169.000000	0.020277
3168.000000	0.020230
3167.000000	0.020172
3166.000000	0.020109
3165.000000	0.020051
3164.000000	0.020003
3163.000000	0.019963
3162.000000	0.019926
3161.000000	0.019885
3160.000000	0.019840
3159.000000	0.019788
3158.000000	0.019729
3157.000000	0.019665
3156.000000	0.019594
3155.000000	0.019519
3154.000000	0.019448
3153.000000	0.019390
3152.000000	0.019349
3151.000000	0.019319
3150.000000	0.019293
3149.000000	0.019259
3148.000000	0.019212
3147.000000	0.019156
3146.000000	0.019098
3145.000000	0.019043
3144.000000	0.018989
3143.000000	0.018933
3142.000000	0.018881
3141.000000	0.018843
3140.000000	0.018823
3139.000000	0.018813
3138.000000	0.018797
3137.000000	0.018763
3136.000000	0.018712
3135.000000	0.018651
3134.000000	0.018589
3133.000000	0.018533
3132.000000	0.018487
3131.000000	0.018451
3130.000000	0.018426
3129.000000	0.018411
3128.000000	0.018403
3127.000000	0.018394
3126.000000	0.018376
3125.000000	0.018346
3124.000000	0.018305
3123.000000	0.018259
3122.000000	0.018212
3121.000000	0.018169
3120.000000	0.018135
3119.000000	0.018115
3118.000000	0.018108
3117.000000	0.018108
3116.000000	0.018106
3115.000000	0.018099
3114.000000	0.018088
3113.000000	0.018080
3112.000000	0.018075
3111.000000	0.018075
3110.000000	0.018077
3109.000000	0.018075
3108.000000	0.018064
3107.000000	0.018050
3106.000000	0.018046
3105.000000	0.018062
3104.000000	0.018093
3103.000000	0.018121
3102.000000	0.018125
3101.000000	0.018106
3100.000000	0.018082
3099.000000	0.018077
3098.000000	0.018099
3097.000000	0.018135
3096.000000	0.018164
3095.000000	0.018174
3094.000000	0.018165
3093.000000	0.018147
3092.000000	0.018131
3091.000000	0.018129
3090.000000	0.018148
3089.000000	0.018181
3088.000000	0.018213
3087.000000	0.018227
3086.000000	0.018220
3085.000000	0.018200
3084.000000	0.018184
3083.000000	0.018179
3082.000000	0.018183
3081.000000	0.018186
3080.000000	0.018184
3079.000000	0.018183
3078.000000	0.018194
3077.000000	0.018216
3076.000000	0.018231
3075.000000	0.018229
3074.000000	0.018211
3073.000000	0.018191
3072.000000	0.018179
3071.000000	0.018175
3070.000000	0.018171
3069.000000	0.018159
3068.000000	0.018140
3067.000000	0.018116
3066.000000	0.018094
3065.000000	0.018074
3064.000000	0.018054
3063.000000	0.018036
3062.000000	0.018022
3061.000000	0.018011
3060.000000	0.017994
3059.000000	0.017967
3058.000000	0.017938
3057.000000	0.017918
3056.000000	0.017909
3055.000000	0.017901
3054.000000	0.017878
3053.000000	0.017833
3052.000000	0.017771
3051.000000	0.017706
3050.000000	0.017649
3049.000000	0.017602
3048.000000	0.017553
3047.000000	0.017497
3046.000000	0.017438
3045.000000	0.017391
3044.000000	0.017363
3043.000000	0.017342
3042.000000	0.017313
3041.000000	0.017274
3040.000000	0.017232
3039.000000	0.017192
3038.000000	0.017159
3037.000000	0.017137
3036.000000	0.017124
3035.000000	0.017114
3034.000000	0.017090
3033.000000	0.017045
3032.000000	0.016984
3031.000000	0.016926
3030.000000	0.016882
3029.000000	0.016849
3028.000000	0.016815
3027.000000	0.016774
3026.000000	0.016725
3025.000000	0.016668
3024.000000	0.016601
3023.000000	0.016530
3022.000000	0.016468
3021.000000	0.016428
3020.000000	0.016411
3019.000000	0.016407
3018.000000	0.016399
3017.000000	0.016379
3016.000000	0.016349
3015.000000	0.016319
3014.000000	0.016298
3013.000000	0.016284
3012.000000	0.016271
3011.000000	0.016253
3010.000000	0.016233
3009.000000	0.016222
3008.000000	0.016226
3007.000000	0.016243
3006.000000	0.016266
3005.000000	0.016289
3004.000000	0.016309
3003.000000	0.016333
3002.000000	0.016361
3001.000000	0.016391
3000.000000	0.016415
2999.000000	0.016430
2998.000000	0.016439
2997.000000	0.016453
2996.000000	0.016484
2995.000000	0.016541
2994.000000	0.016621
2993.000000	0.016712
2992.000000	0.016794
2991.000000	0.016860
2990.000000	0.016919
2989.000000	0.016987
2988.000000	0.017074
2987.000000	0.017179
2986.000000	0.017298
2985.000000	0.017433
2984.000000	0.017583
2983.000000	0.017741
2982.000000	0.017898
2981.000000	0.018048
2980.000000	0.018192
2979.000000	0.018335
2978.000000	0.018484
2977.000000	0.018636
2976.000000	0.018791
2975.000000	0.018950
2974.000000	0.019118
2973.000000	0.019299
2972.000000	0.019493
2971.000000	0.019698
2970.000000	0.019918
2969.000000	0.020153
2968.000000	0.020396
2967.000000	0.020635
2966.000000	0.020863
2965.000000	0.021083
2964.000000	0.021303
2963.000000	0.021521
2962.000000	0.021726
2961.000000	0.021902
2960.000000	0.022045
2959.000000	0.022166
2958.000000	0.022275
2957.000000	0.022375
2956.000000	0.022457
2955.000000	0.022515
2954.000000	0.022552
2953.000000	0.022575
2952.000000	0.022589
2951.000000	0.022597
2950.000000	0.022606
2949.000000	0.022630
2948.000000	0.022676
2947.000000	0.022744
2946.000000	0.022831
2945.000000	0.022943
2944.000000	0.023084
2943.000000	0.023258
2942.000000	0.023463
2941.000000	0.023704
2940.000000	0.023989
2939.000000	0.024317
2938.000000	0.024675
2937.000000	0.025041
2936.000000	0.025404
2935.000000	0.025773
2934.000000	0.026164
2933.000000	0.026588
2932.000000	0.027036
2931.000000	0.027488
2930.000000	0.027924
2929.000000	0.028332
2928.000000	0.028713
2927.000000	0.029076
2926.000000	0.029428
2925.000000	0.029764
2924.000000	0.030067
2923.000000	0.030319
2922.000000	0.030500
2921.000000	0.030595
2920.000000	0.030595
2919.000000	0.030495
2918.000000	0.030285
2917.000000	0.029950
2916.000000	0.029485
2915.000000	0.028906
2914.000000	0.028249
2913.000000	0.027557
2912.000000	0.026879
2911.000000	0.026260
2910.000000	0.025731
2909.000000	0.025296
2908.000000	0.024929
2907.000000	0.024599
2906.000000	0.024282
2905.000000	0.023975
2904.000000	0.023686
2903.000000	0.023424
2902.000000	0.023193
2901.000000	0.022988
2900.000000	0.022800
2899.000000	0.022623
2898.000000	0.022456
2897.000000	0.022295
2896.000000	0.022137
2895.000000	0.021981
2894.000000	0.021826
2893.000000	0.021668
2892.000000	0.021503
2891.000000	0.021338
2890.000000	0.021187
2889.000000	0.021064
2888.000000	0.020969
2887.000000	0.020893
2886.000000	0.020832
2885.000000	0.020786
2884.000000	0.020750
2883.000000	0.020715
2882.000000	0.020675
2881.000000	0.020642
2880.000000	0.020627
2879.000000	0.020637
2878.000000	0.020670
2877.000000	0.020718
2876.000000	0.020770
2875.000000	0.020820
2874.000000	0.020861
2873.000000	0.020890
2872.000000	0.020901
2871.000000	0.020891
2870.000000	0.020866
2869.000000	0.020838
2868.000000	0.020817
2867.000000	0.020803
2866.000000	0.020795
2865.000000	0.020803
2864.000000	0.020843
2863.000000	0.020929
2862.000000	0.021067
2861.000000	0.021259
2860.000000	0.021501
2859.000000	0.021783
2858.000000	0.022098
2857.000000	0.022443
2856.000000	0.022820
2855.000000	0.023219
2854.000000	0.023612
2853.000000	0.023954
2852.000000	0.024190
2851.000000	0.024268
2850.000000	0.024146
2849.000000	0.023809
2848.000000	0.023281
2847.000000	0.022618
2846.000000	0.021900
2845.000000	0.021197
2844.000000	0.020559
2843.000000	0.020003
2842.000000	0.019523
2841.000000	0.019114
2840.000000	0.018768
2839.000000	0.018481
2838.000000	0.018239
2837.000000	0.018029
2836.000000	0.017841
2835.000000	0.017671
2834.000000	0.017521
2833.000000	0.017395
2832.000000	0.017292
2831.000000	0.017204
2830.000000	0.017120
2829.000000	0.017030
2828.000000	0.016933
2827.000000	0.016835
2826.000000	0.016744
2825.000000	0.016666
2824.000000	0.016600
2823.000000	0.016539
2822.000000	0.016470
2821.000000	0.016386
2820.000000	0.016300
2819.000000	0.016226
2818.000000	0.016173
2817.000000	0.016134
2816.000000	0.016099
2815.000000	0.016058
2814.000000	0.016000
2813.000000	0.015922
2812.000000	0.015838
2811.000000	0.015769
2810.000000	0.015728
2809.000000	0.015710
2808.000000	0.015696
2807.000000	0.015675
2806.000000	0.015645
2805.000000	0.015612
2804.000000	0.015578
2803.000000	0.015546
2802.000000	0.015514
2801.000000	0.015474
2800.000000	0.015427
2799.000000	0.015386
2798.000000	0.015357
2797.000000	0.015337
2796.000000	0.015310
2795.000000	0.015271
2794.000000	0.015228
2793.000000	0.015190
2792.000000	0.015163
2791.000000	0.015151
2790.000000	0.015148
2789.000000	0.015141
2788.000000	0.015113
2787.000000	0.015061
2786.000000	0.015002
2785.000000	0.014955
2784.000000	0.014924
2783.000000	0.014903
2782.000000	0.014888
2781.000000	0.014875
2780.000000	0.014867
2779.000000	0.014861
2778.000000	0.014857
2777.000000	0.014851
2776.000000	0.014841
2775.000000	0.014824
2774.000000	0.014804
2773.000000	0.014783
2772.000000	0.014761
2771.000000	0.014737
2770.000000	0.014710
2769.000000	0.014683
2768.000000	0.014660
2767.000000	0.014644
2766.000000	0.014631
2765.000000	0.014615
2764.000000	0.014590
2763.000000	0.014564
2762.000000	0.014545
2761.000000	0.014532
2760.000000	0.014513
2759.000000	0.014482
2758.000000	0.014448
2757.000000	0.014426
2756.000000	0.014421
2755.000000	0.014419
2754.000000	0.014407
2753.000000	0.014384
2752.000000	0.014359
2751.000000	0.014343
2750.000000	0.014337
2749.000000	0.014335
2748.000000	0.014327
2747.000000	0.014307
2746.000000	0.014279
2745.000000	0.014247
2744.000000	0.014218
2743.000000	0.014198
2742.000000	0.014193
2741.000000	0.014203
2740.000000	0.014221
2739.000000	0.014237
2738.000000	0.014240
2737.000000	0.014229
2736.000000	0.014207
2735.000000	0.014180
2734.000000	0.014152
2733.000000	0.014128
2732.000000	0.014113
2731.000000	0.014110
2730.000000	0.014114
2729.000000	0.014121
2728.000000	0.014122
2727.000000	0.014113
2726.000000	0.014091
2725.000000	0.014061
2724.000000	0.014031
2723.000000	0.014006
2722.000000	0.013987
2721.000000	0.013967
2720.000000	0.013943
2719.000000	0.013916
2718.000000	0.013890
2717.000000	0.013865
2716.000000	0.013842
2715.000000	0.013825
2714.000000	0.013815
2713.000000	0.013813
2712.000000	0.013813
2711.000000	0.013813
2710.000000	0.013813
2709.000000	0.013808
2708.000000	0.013796
2707.000000	0.013776
2706.000000	0.013754
2705.000000	0.013734
2704.000000	0.013716
2703.000000	0.013700
2702.000000	0.013689
2701.000000	0.013686
2700.000000	0.013687
2699.000000	0.013687
2698.000000	0.013686
2697.000000	0.013683
2696.000000	0.013679
2695.000000	0.013666
2694.000000	0.013646
2693.000000	0.013623
2692.000000	0.013608
2691.000000	0.013607
2690.000000	0.013618
2689.000000	0.013629
2688.000000	0.013629
2687.000000	0.013618
2686.000000	0.013603
2685.000000	0.013591
2684.000000	0.013585
2683.000000	0.013586
2682.000000	0.013591
2681.000000	0.013596
2680.000000	0.013597
2679.000000	0.013592
2678.000000	0.013585
2677.000000	0.013580
2676.000000	0.013572
2675.000000	0.013557
2674.000000	0.013531
2673.000000	0.013499
2672.000000	0.013462
2671.000000	0.013428
2670.000000	0.013406
2669.000000	0.013399
2668.000000	0.013403
2667.000000	0.013407
2666.000000	0.013407
2665.000000	0.013402
2664.000000	0.013393
2663.000000	0.013384
2662.000000	0.013379
2661.000000	0.013378
2660.000000	0.013372
2659.000000	0.013354
2658.000000	0.013327
2657.000000	0.013302
2656.000000	0.013285
2655.000000	0.013274
2654.000000	0.013264
2653.000000	0.013251
2652.000000	0.013233
2651.000000	0.013207
2650.000000	0.013176
2649.000000	0.013140
2648.000000	0.013098
2647.000000	0.013048
2646.000000	0.012995
2645.000000	0.012949
2644.000000	0.012917
2643.000000	0.012896
2642.000000	0.012874
2641.000000	0.012848
2640.000000	0.012824
2639.000000	0.012811
2638.000000	0.012803
2637.000000	0.012786
2636.000000	0.012751
2635.000000	0.012707
2634.000000	0.012672
2633.000000	0.012654
2632.000000	0.012641
2631.000000	0.012626
2630.000000	0.012612
2629.000000	0.012606
2628.000000	0.012600
2627.000000	0.012583
2626.000000	0.012551
2625.000000	0.012515
2624.000000	0.012484
2623.000000	0.012458
2622.000000	0.012432
2621.000000	0.012404
2620.000000	0.012381
2619.000000	0.012365
2618.000000	0.012357
2617.000000	0.012350
2616.000000	0.012332
2615.000000	0.012302
2614.000000	0.012265
2613.000000	0.012231
2612.000000	0.012201
2611.000000	0.012177
2610.000000	0.012158
2609.000000	0.012143
2608.000000	0.012132
2607.000000	0.012123
2606.000000	0.012118
2605.000000	0.012117
2604.000000	0.012118
2603.000000	0.012116
2602.000000	0.012109
2601.000000	0.012098
2600.000000	0.012082
2599.000000	0.012058
2598.000000	0.012029
2597.000000	0.012000
2596.000000	0.011978
2595.000000	0.011966
2594.000000	0.011959
2593.000000	0.011952
2592.000000	0.011942
2591.000000	0.011936
2590.000000	0.011947
2589.000000	0.011968
2588.000000	0.011974
2587.000000	0.011939
2586.000000	0.011874
2585.000000	0.011814
2584.000000	0.011792
2583.000000	0.011809
2582.000000	0.011841
2581.000000	0.011856
2580.000000	0.011841
2579.000000	0.011809
2578.000000	0.011787
2577.000000	0.011794
2576.000000	0.011817
2575.000000	0.011823
2574.000000	0.011795
2573.000000	0.011741
2572.000000	0.011686
2571.000000	0.011652
2570.000000	0.011640
2569.000000	0.011639
2568.000000	0.011641
2567.000000	0.011646
2566.000000	0.011662
2565.000000	0.011682
2564.000000	0.011691
2563.000000	0.011679
2562.000000	0.011652
2561.000000	0.011626
2560.000000	0.011603
2559.000000	0.011577
2558.000000	0.011551
2557.000000	0.011538
2556.000000	0.011548
2555.000000	0.011578
2554.000000	0.011618
2553.000000	0.011653
2552.000000	0.011670
2551.000000	0.011661
2550.000000	0.011638
2549.000000	0.011617
2548.000000	0.011604
2547.000000	0.011587
2546.000000	0.011555
2545.000000	0.011509
2544.000000	0.011459
2543.000000	0.011417
2542.000000	0.011392
2541.000000	0.011386
2540.000000	0.011397
2539.000000	0.011421
2538.000000	0.011456
2537.000000	0.011493
2536.000000	0.011514
2535.000000	0.011508
2534.000000	0.011488
2533.000000	0.011478
2532.000000	0.011488
2531.000000	0.011496
2530.000000	0.011478
2529.000000	0.011433
2528.000000	0.011386
2527.000000	0.011361
2526.000000	0.011367
2525.000000	0.011399
2524.000000	0.011442
2523.000000	0.011477
2522.000000	0.011489
2521.000000	0.011469
2520.000000	0.011420
2519.000000	0.011359
2518.000000	0.011310
2517.000000	0.011287
2516.000000	0.011294
2515.000000	0.011323
2514.000000	0.011356
2513.000000	0.011378
2512.000000	0.011384
2511.000000	0.011383
2510.000000	0.011388
2509.000000	0.011401
2508.000000	0.011408
2507.000000	0.011400
2506.000000	0.011382
2505.000000	0.011366
2504.000000	0.011365
2503.000000	0.011379
2502.000000	0.011394
2501.000000	0.011382
2500.000000	0.011334
2499.000000	0.011270
2498.000000	0.011229
2497.000000	0.011222
2496.000000	0.011219
2495.000000	0.011185
2494.000000	0.011120
2493.000000	0.011061
2492.000000	0.011038
2491.000000	0.011053
2490.000000	0.011084
2489.000000	0.011114
2488.000000	0.011134
2487.000000	0.011144
2486.000000	0.011147
2485.000000	0.011141
2484.000000	0.011122
2483.000000	0.011094
2482.000000	0.011076
2481.000000	0.011085
2480.000000	0.011119
2479.000000	0.011161
2478.000000	0.011195
2477.000000	0.011218
2476.000000	0.011230
2475.000000	0.011232
2474.000000	0.011226
2473.000000	0.011213
2472.000000	0.011191
2471.000000	0.011160
2470.000000	0.011120
2469.000000	0.011072
2468.000000	0.011022
2467.000000	0.010981
2466.000000	0.010966
2465.000000	0.010978
2464.000000	0.011001
2463.000000	0.011016
2462.000000	0.011025
2461.000000	0.011039
2460.000000	0.011060
2459.000000	0.011082
2458.000000	0.011104
2457.000000	0.011129
2456.000000	0.011152
2455.000000	0.011156
2454.000000	0.011136
2453.000000	0.011099
2452.000000	0.011062
2451.000000	0.011034
2450.000000	0.011011
2449.000000	0.010993
2448.000000	0.010984
2447.000000	0.010991
2446.000000	0.011016
2445.000000	0.011049
2444.000000	0.011070
2443.000000	0.011066
2442.000000	0.011043
2441.000000	0.011017
2440.000000	0.010996
2439.000000	0.010978
2438.000000	0.010961
2437.000000	0.010950
2436.000000	0.010949
2435.000000	0.010966
2434.000000	0.010998
2433.000000	0.011032
2432.000000	0.011046
2431.000000	0.011031
2430.000000	0.011002
2429.000000	0.010980
2428.000000	0.010968
2427.000000	0.010954
2426.000000	0.010934
2425.000000	0.010919
2424.000000	0.010921
2423.000000	0.010934
2422.000000	0.010946
2421.000000	0.010949
2420.000000	0.010942
2419.000000	0.010924
2418.000000	0.010901
2417.000000	0.010877
2416.000000	0.010858
2415.000000	0.010848
2414.000000	0.010851
2413.000000	0.010868
2412.000000	0.010897
2411.000000	0.010925
2410.000000	0.010946
2409.000000	0.010956
2408.000000	0.010959
2407.000000	0.010957
2406.000000	0.010944
2405.000000	0.010912
2404.000000	0.010870
2403.000000	0.010840
2402.000000	0.010844
2401.000000	0.010875
2400.000000	0.010906
2399.000000	0.010911
2398.000000	0.010891
2397.000000	0.010863
2396.000000	0.010844
2395.000000	0.010847
2394.000000	0.010883
2393.000000	0.010941
2392.000000	0.010987
2391.000000	0.010987
2390.000000	0.010937
2389.000000	0.010867
2388.000000	0.010812
2387.000000	0.010786
2386.000000	0.010779
2385.000000	0.010772
2384.000000	0.010748
2383.000000	0.010705
2382.000000	0.010648
2381.000000	0.010578
2380.000000	0.010502
2379.000000	0.010443
2378.000000	0.010427
2377.000000	0.010463
2376.000000	0.010521
2375.000000	0.010568
2374.000000	0.010592
2373.000000	0.010593
2372.000000	0.010563
2371.000000	0.010494
2370.000000	0.010405
2369.000000	0.010328
2368.000000	0.010286
2367.000000	0.010291
2366.000000	0.010345
2365.000000	0.010429
2364.000000	0.010499
2363.000000	0.010538
2362.000000	0.010559
2361.000000	0.010567
2360.000000	0.010554
2359.000000	0.010510
2358.000000	0.010448
2357.000000	0.010399
2356.000000	0.010383
2355.000000	0.010420
2354.000000	0.010464
2353.000000	0.010447
2352.000000	0.010343
2351.000000	0.010215
2350.000000	0.010162
2349.000000	0.010231
2348.000000	0.010386
2347.000000	0.010523
2346.000000	0.010566
2345.000000	0.010541
2344.000000	0.010515
2343.000000	0.010528
2342.000000	0.010551
2341.000000	0.010565
2340.000000	0.010575
2339.000000	0.010588
2338.000000	0.010589
2337.000000	0.010563
2336.000000	0.010520
2335.000000	0.010478
2334.000000	0.010446
2333.000000	0.010422
2332.000000	0.010423
2331.000000	0.010457
2330.000000	0.010534
2329.000000	0.010622
2328.000000	0.010715
2327.000000	0.010793
2326.000000	0.010851
2325.000000	0.010870
2324.000000	0.010844
2323.000000	0.010779
2322.000000	0.010711
2321.000000	0.010689
2320.000000	0.010737
2319.000000	0.010828
2318.000000	0.010916
2317.000000	0.010954
2316.000000	0.010927
2315.000000	0.010832
2314.000000	0.010699
2313.000000	0.010563
2312.000000	0.010464
2311.000000	0.010407
2310.000000	0.010392
2309.000000	0.010405
2308.000000	0.010429
2307.000000	0.010437
2306.000000	0.010428
2305.000000	0.010423
2304.000000	0.010444
2303.000000	0.010476
2302.000000	0.010495
2301.000000	0.010492
2300.000000	0.010487
2299.000000	0.010483
2298.000000	0.010473
2297.000000	0.010451
2296.000000	0.010436
2295.000000	0.010445
2294.000000	0.010479
2293.000000	0.010512
2292.000000	0.010516
2291.000000	0.010482
2290.000000	0.010435
2289.000000	0.010421
2288.000000	0.010462
2287.000000	0.010538
2286.000000	0.010596
2285.000000	0.010605
2284.000000	0.010576
2283.000000	0.010542
2282.000000	0.010522
2281.000000	0.010511
2280.000000	0.010490
2279.000000	0.010452
2278.000000	0.010407
2277.000000	0.010371
2276.000000	0.010356
2275.000000	0.010365
2274.000000	0.010384
2273.000000	0.010390
2272.000000	0.010366
2271.000000	0.010330
2270.000000	0.010325
2269.000000	0.010375
2268.000000	0.010448
2267.000000	0.010492
2266.000000	0.010487
2265.000000	0.010450
2264.000000	0.010404
2263.000000	0.010352
2262.000000	0.010297
2261.000000	0.010254
2260.000000	0.010228
2259.000000	0.010212
2258.000000	0.010209
2257.000000	0.010234
2256.000000	0.010289
2255.000000	0.010329
2254.000000	0.010306
2253.000000	0.010215
2252.000000	0.010103
2251.000000	0.010011
2250.000000	0.009952
2249.000000	0.009922
2248.000000	0.009929
2247.000000	0.009986
2246.000000	0.010084
2245.000000	0.010184
2244.000000	0.010231
2243.000000	0.010195
2242.000000	0.010093
2241.000000	0.009973
2240.000000	0.009878
2239.000000	0.009832
2238.000000	0.009844
2237.000000	0.009906
2236.000000	0.009972
2235.000000	0.009978
2234.000000	0.009893
2233.000000	0.009757
2232.000000	0.009655
2231.000000	0.009633
2230.000000	0.009664
2229.000000	0.009685
2228.000000	0.009675
2227.000000	0.009679
2226.000000	0.009738
2225.000000	0.009825
2224.000000	0.009869
2223.000000	0.009842
2222.000000	0.009787
2221.000000	0.009759
2220.000000	0.009760
2219.000000	0.009773
2218.000000	0.009804
2217.000000	0.009884
2216.000000	0.010000
2215.000000	0.010090
2214.000000	0.010087
2213.000000	0.009983
2212.000000	0.009831
2211.000000	0.009711
2210.000000	0.009662
2209.000000	0.009654
2208.000000	0.009632
2207.000000	0.009599
2206.000000	0.009628
2205.000000	0.009760
2204.000000	0.009915
2203.000000	0.009961
2202.000000	0.009848
2201.000000	0.009643
2200.000000	0.009448
2199.000000	0.009314
2198.000000	0.009243
2197.000000	0.009226
2196.000000	0.009253
2195.000000	0.009322
2194.000000	0.009426
2193.000000	0.009531
2192.000000	0.009584
2191.000000	0.009571
2190.000000	0.009539
2189.000000	0.009540
2188.000000	0.009567
2187.000000	0.009592
2186.000000	0.009616
2185.000000	0.009649
2184.000000	0.009647
2183.000000	0.009553
2182.000000	0.009401
2181.000000	0.009315
2180.000000	0.009390
2179.000000	0.009609
2178.000000	0.009877
2177.000000	0.010081
2176.000000	0.010140
2175.000000	0.010051
2174.000000	0.009898
2173.000000	0.009774
2172.000000	0.009696
2171.000000	0.009642
2170.000000	0.009619
2169.000000	0.009655
2168.000000	0.009714
2167.000000	0.009714
2166.000000	0.009635
2165.000000	0.009547
2164.000000	0.009514
2163.000000	0.009522
2162.000000	0.009535
2161.000000	0.009540
2160.000000	0.009513
2159.000000	0.009397
2158.000000	0.009174
2157.000000	0.008908
2156.000000	0.008681
2155.000000	0.008555
2154.000000	0.008576
2153.000000	0.008746
2152.000000	0.008973
2151.000000	0.009134
2150.000000	0.009193
2149.000000	0.009215
2148.000000	0.009257
2147.000000	0.009300
2146.000000	0.009304
2145.000000	0.009286
2144.000000	0.009287
2143.000000	0.009315
2142.000000	0.009321
2141.000000	0.009257
2140.000000	0.009121
2139.000000	0.008974
2138.000000	0.008893
2137.000000	0.008906
2136.000000	0.008980
2135.000000	0.009068
2134.000000	0.009155
2133.000000	0.009244
2132.000000	0.009322
2131.000000	0.009379
2130.000000	0.009433
2129.000000	0.009506
2128.000000	0.009588
2127.000000	0.009649
2126.000000	0.009679
2125.000000	0.009694
2124.000000	0.009705
2123.000000	0.009714
2122.000000	0.009736
2121.000000	0.009791
2120.000000	0.009869
2119.000000	0.009934
2118.000000	0.009960
2117.000000	0.009950
2116.000000	0.009921
2115.000000	0.009891
2114.000000	0.009888
2113.000000	0.009923
2112.000000	0.009959
2111.000000	0.009940
2110.000000	0.009864
2109.000000	0.009788
2108.000000	0.009759
2107.000000	0.009763
2106.000000	0.009768
2105.000000	0.009774
2104.000000	0.009797
2103.000000	0.009829
2102.000000	0.009844
2101.000000	0.009843
2100.000000	0.009858
2099.000000	0.009904
2098.000000	0.009943
2097.000000	0.009915
2096.000000	0.009797
2095.000000	0.009643
2094.000000	0.009548
2093.000000	0.009563
2092.000000	0.009653
2091.000000	0.009745
2090.000000	0.009794
2089.000000	0.009803
2088.000000	0.009786
2087.000000	0.009756
2086.000000	0.009730
2085.000000	0.009717
2084.000000	0.009696
2083.000000	0.009647
2082.000000	0.009598
2081.000000	0.009604
2080.000000	0.009668
2079.000000	0.009718
2078.000000	0.009690
2077.000000	0.009597
2076.000000	0.009507
2075.000000	0.009465
2074.000000	0.009465
2073.000000	0.009475
2072.000000	0.009465
2071.000000	0.009421
2070.000000	0.009363
2069.000000	0.009344
2068.000000	0.009397
2067.000000	0.009506
2066.000000	0.009615
2065.000000	0.009664
2064.000000	0.009623
2063.000000	0.009511
2062.000000	0.009395
2061.000000	0.009350
2060.000000	0.009401
2059.000000	0.009500
2058.000000	0.009580
2057.000000	0.009609
2056.000000	0.009598
2055.000000	0.009562
2054.000000	0.009503
2053.000000	0.009425
2052.000000	0.009352
2051.000000	0.009321
2050.000000	0.009334
2049.000000	0.009328
2048.000000	0.009220
2047.000000	0.009019
2046.000000	0.008842
2045.000000	0.008785
2044.000000	0.008810
2043.000000	0.008796
2042.000000	0.008689
2041.000000	0.008539
2040.000000	0.008417
2039.000000	0.008349
2038.000000	0.008343
2037.000000	0.008402
2036.000000	0.008498
2035.000000	0.008581
2034.000000	0.008636
2033.000000	0.008675
2032.000000	0.008685
2031.000000	0.008617
2030.000000	0.008461
2029.000000	0.008278
2028.000000	0.008135
2027.000000	0.008055
2026.000000	0.008008
2025.000000	0.007947
2024.000000	0.007839
2023.000000	0.007708
2022.000000	0.007630
2021.000000	0.007661
2020.000000	0.007780
2019.000000	0.007934
2018.000000	0.008102
2017.000000	0.008275
2016.000000	0.008406
2015.000000	0.008458
2014.000000	0.008451
2013.000000	0.008428
2012.000000	0.008398
2011.000000	0.008353
2010.000000	0.008305
2009.000000	0.008272
2008.000000	0.008246
2007.000000	0.008232
2006.000000	0.008266
2005.000000	0.008356
2004.000000	0.008433
2003.000000	0.008442
2002.000000	0.008426
2001.000000	0.008457
2000.000000	0.008529
1999.000000	0.008573
1998.000000	0.008557
1997.000000	0.008513
1996.000000	0.008492
1995.000000	0.008528
1994.000000	0.008644
1993.000000	0.008814
1992.000000	0.008951
1991.000000	0.008978
1990.000000	0.008908
1989.000000	0.008807
1988.000000	0.008721
1987.000000	0.008686
1986.000000	0.008747
1985.000000	0.008905
1984.000000	0.009078
1983.000000	0.009212
1982.000000	0.009359
1981.000000	0.009568
1980.000000	0.009718
1979.000000	0.009597
1978.000000	0.009165
1977.000000	0.008639
1976.000000	0.008247
1975.000000	0.008027
1974.000000	0.007926
1973.000000	0.007931
1972.000000	0.008040
1971.000000	0.008195
1970.000000	0.008320
1969.000000	0.008375
1968.000000	0.008360
1967.000000	0.008324
1966.000000	0.008339
1965.000000	0.008429
1964.000000	0.008521
1963.000000	0.008523
1962.000000	0.008427
1961.000000	0.008297
1960.000000	0.008179
1959.000000	0.008090
1958.000000	0.008071
1957.000000	0.008152
1956.000000	0.008293
1955.000000	0.008413
1954.000000	0.008482
1953.000000	0.008540
1952.000000	0.008616
1951.000000	0.008688
1950.000000	0.008724
1949.000000	0.008723
1948.000000	0.008719
1947.000000	0.008744
1946.000000	0.008806
1945.000000	0.008862
1944.000000	0.008862
1943.000000	0.008822
1942.000000	0.008815
1941.000000	0.008864
1940.000000	0.008899
1939.000000	0.008866
1938.000000	0.008815
1937.000000	0.008816
1936.000000	0.008846
1935.000000	0.008831
1934.000000	0.008762
1933.000000	0.008702
1932.000000	0.008678
1931.000000	0.008658
1930.000000	0.008638
1929.000000	0.008669
1928.000000	0.008771
1927.000000	0.008896
1926.000000	0.008980
1925.000000	0.009005
1924.000000	0.008976
1923.000000	0.008911
1922.000000	0.008843
1921.000000	0.008794
1920.000000	0.008745
1919.000000	0.008663
1918.000000	0.008575
1917.000000	0.008550
1916.000000	0.008603
1915.000000	0.008674
1914.000000	0.008712
1913.000000	0.008736
1912.000000	0.008786
1911.000000	0.008870
1910.000000	0.008962
1909.000000	0.009016
1908.000000	0.008995
1907.000000	0.008895
1906.000000	0.008765
1905.000000	0.008675
1904.000000	0.008647
1903.000000	0.008651
1902.000000	0.008661
1901.000000	0.008677
1900.000000	0.008699
1899.000000	0.008712
1898.000000	0.008710
1897.000000	0.008709
1896.000000	0.008710
1895.000000	0.008691
1894.000000	0.008657
1893.000000	0.008647
1892.000000	0.008679
1891.000000	0.008717
1890.000000	0.008719
1889.000000	0.008687
1888.000000	0.008657
1887.000000	0.008638
1886.000000	0.008612
1885.000000	0.008575
1884.000000	0.008545
1883.000000	0.008540
1882.000000	0.008563
1881.000000	0.008601
1880.000000	0.008630
1879.000000	0.008637
1878.000000	0.008628
1877.000000	0.008622
1876.000000	0.008624
1875.000000	0.008626
1874.000000	0.008618
1873.000000	0.008599
1872.000000	0.008562
1871.000000	0.008507
1870.000000	0.008449
1869.000000	0.008419
1868.000000	0.008439
1867.000000	0.008506
1866.000000	0.008591
1865.000000	0.008654
1864.000000	0.008668
1863.000000	0.008633
1862.000000	0.008580
1861.000000	0.008539
1860.000000	0.008515
1859.000000	0.008497
1858.000000	0.008481
1857.000000	0.008465
1856.000000	0.008439
1855.000000	0.008398
1854.000000	0.008362
1853.000000	0.008351
1852.000000	0.008354
1851.000000	0.008355
1850.000000	0.008346
1849.000000	0.008333
1848.000000	0.008310
1847.000000	0.008284
1846.000000	0.008284
1845.000000	0.008335
1844.000000	0.008400
1843.000000	0.008430
1842.000000	0.008430
1841.000000	0.008430
1840.000000	0.008430
1839.000000	0.008412
1838.000000	0.008381
1837.000000	0.008366
1836.000000	0.008371
1835.000000	0.008362
1834.000000	0.008316
1833.000000	0.008250
1832.000000	0.008195
1831.000000	0.008166
1830.000000	0.008149
1829.000000	0.008139
1828.000000	0.008153
1827.000000	0.008202
1826.000000	0.008274
1825.000000	0.008328
1824.000000	0.008331
1823.000000	0.008290
1822.000000	0.008242
1821.000000	0.008214
1820.000000	0.008203
1819.000000	0.008195
1818.000000	0.008197
1817.000000	0.008223
1816.000000	0.008263
1815.000000	0.008289
1814.000000	0.008295
1813.000000	0.008292
1812.000000	0.008286
1811.000000	0.008267
1810.000000	0.008243
1809.000000	0.008241
1808.000000	0.008262
1807.000000	0.008279
1806.000000	0.008270
1805.000000	0.008249
1804.000000	0.008238
1803.000000	0.008251
1802.000000	0.008284
1801.000000	0.008314
1800.000000	0.008330
1799.000000	0.008335
1798.000000	0.008347
1797.000000	0.008367
1796.000000	0.008376
1795.000000	0.008366
1794.000000	0.008358
1793.000000	0.008366
1792.000000	0.008364
1791.000000	0.008322
1790.000000	0.008263
1789.000000	0.008223
1788.000000	0.008206
1787.000000	0.008198
1786.000000	0.008188
1785.000000	0.008177
1784.000000	0.008161
1783.000000	0.008148
1782.000000	0.008146
1781.000000	0.008147
1780.000000	0.008133
1779.000000	0.008098
1778.000000	0.008061
1777.000000	0.008029
1776.000000	0.007981
1775.000000	0.007909
1774.000000	0.007838
1773.000000	0.007799
1772.000000	0.007778
1771.000000	0.007766
1770.000000	0.007786
1769.000000	0.007848
1768.000000	0.007908
1767.000000	0.007917
1766.000000	0.007891
1765.000000	0.007880
1764.000000	0.007901
1763.000000	0.007934
1762.000000	0.007957
1761.000000	0.007976
1760.000000	0.008018
1759.000000	0.008088
1758.000000	0.008189
1757.000000	0.008315
1756.000000	0.008446
1755.000000	0.008580
1754.000000	0.008746
1753.000000	0.008966
1752.000000	0.009218
1751.000000	0.009443
1750.000000	0.009628
1749.000000	0.009816
1748.000000	0.010008
1747.000000	0.010173
1746.000000	0.010321
1745.000000	0.010478
1744.000000	0.010618
1743.000000	0.010678
1742.000000	0.010678
1741.000000	0.010725
1740.000000	0.010859
1739.000000	0.010986
1738.000000	0.011025
1737.000000	0.011001
1736.000000	0.010970
1735.000000	0.010957
1734.000000	0.010934
1733.000000	0.010902
1732.000000	0.010882
1731.000000	0.010825
1730.000000	0.010699
1729.000000	0.010532
1728.000000	0.010365
1727.000000	0.010209
1726.000000	0.010063
1725.000000	0.009943
1724.000000	0.009852
1723.000000	0.009742
1722.000000	0.009589
1721.000000	0.009432
1720.000000	0.009325
1719.000000	0.009279
1718.000000	0.009261
1717.000000	0.009260
1716.000000	0.009306
1715.000000	0.009389
1714.000000	0.009493
1713.000000	0.009640
1712.000000	0.009835
1711.000000	0.010045
1710.000000	0.010240
1709.000000	0.010435
1708.000000	0.010669
1707.000000	0.010978
1706.000000	0.011351
1705.000000	0.011717
1704.000000	0.012013
1703.000000	0.012256
1702.000000	0.012564
1701.000000	0.013096
1700.000000	0.013790
1699.000000	0.014434
1698.000000	0.015043
1697.000000	0.015743
1696.000000	0.016534
1695.000000	0.017275
1694.000000	0.017914
1693.000000	0.018525
1692.000000	0.019169
1691.000000	0.019835
1690.000000	0.020476
1689.000000	0.021050
1688.000000	0.021543
1687.000000	0.021990
1686.000000	0.022510
1685.000000	0.023261
1684.000000	0.024143
1683.000000	0.024924
1682.000000	0.025655
1681.000000	0.026420
1680.000000	0.027165
1679.000000	0.027805
1678.000000	0.028367
1677.000000	0.028990
1676.000000	0.029763
1675.000000	0.030603
1674.000000	0.031389
1673.000000	0.032135
1672.000000	0.032907
1671.000000	0.033730
1670.000000	0.034598
1669.000000	0.035478
1668.000000	0.036315
1667.000000	0.037059
1666.000000	0.037730
1665.000000	0.038421
1664.000000	0.039194
1663.000000	0.040003
1662.000000	0.040772
1661.000000	0.041507
1660.000000	0.042237
1659.000000	0.042914
1658.000000	0.043473
1657.000000	0.043914
1656.000000	0.044295
1655.000000	0.044688
1654.000000	0.045155
1653.000000	0.045645
1652.000000	0.046126
1651.000000	0.046612
1650.000000	0.047054
1649.000000	0.047463
1648.000000	0.047811
1647.000000	0.047998
1646.000000	0.048022
1645.000000	0.048060
1644.000000	0.048184
1643.000000	0.048320
1642.000000	0.048395
1641.000000	0.048376
1640.000000	0.048279
1639.000000	0.048134
1638.000000	0.047953
1637.000000	0.047711
1636.000000	0.047355
1635.000000	0.046938
1634.000000	0.046628
1633.000000	0.046458
1632.000000	0.046302
1631.000000	0.046034
1630.000000	0.045597
1629.000000	0.045008
1628.000000	0.044327
1627.000000	0.043623
1626.000000	0.042944
1625.000000	0.042271
1624.000000	0.041544
1623.000000	0.040726
1622.000000	0.039898
1621.000000	0.039158
1620.000000	0.038499
1619.000000	0.037827
1618.000000	0.037039
1617.000000	0.036110
1616.000000	0.035177
1615.000000	0.034413
1614.000000	0.033820
1613.000000	0.033283
1612.000000	0.032715
1611.000000	0.032107
1610.000000	0.031495
1609.000000	0.030900
1608.000000	0.030323
1607.000000	0.029780
1606.000000	0.029300
1605.000000	0.028877
1604.000000	0.028489
1603.000000	0.028125
1602.000000	0.027788
1601.000000	0.027484
1600.000000	0.027213
1599.000000	0.026977
1598.000000	0.026772
1597.000000	0.026588
1596.000000	0.026418
1595.000000	0.026279
1594.000000	0.026188
1593.000000	0.026138
1592.000000	0.026109
1591.000000	0.026095
1590.000000	0.026100
1589.000000	0.026125
1588.000000	0.026173
1587.000000	0.026255
1586.000000	0.026385
1585.000000	0.026554
1584.000000	0.026745
1583.000000	0.026953
1582.000000	0.027168
1581.000000	0.027363
1580.000000	0.027526
1579.000000	0.027690
1578.000000	0.027896
1577.000000	0.028151
1576.000000	0.028399
1575.000000	0.028606
1574.000000	0.028805
1573.000000	0.029012
1572.000000	0.029231
1571.000000	0.029488
1570.000000	0.029805
1569.000000	0.030151
1568.000000	0.030507
1567.000000	0.030895
1566.000000	0.031321
1565.000000	0.031753
1564.000000	0.032122
1563.000000	0.032403
1562.000000	0.032619
1561.000000	0.032844
1560.000000	0.033235
1559.000000	0.033743
1558.000000	0.034168
1557.000000	0.034674
1556.000000	0.035270
1555.000000	0.035854
1554.000000	0.036372
1553.000000	0.036834
1552.000000	0.037282
1551.000000	0.037719
1550.000000	0.038094
1549.000000	0.038387
1548.000000	0.038644
1547.000000	0.038923
1546.000000	0.039225
1545.000000	0.039485
1544.000000	0.039633
1543.000000	0.039678
1542.000000	0.039707
1541.000000	0.039773
1540.000000	0.039798
1539.000000	0.039758
1538.000000	0.039763
1537.000000	0.039820
1536.000000	0.039859
1535.000000	0.039821
1534.000000	0.039665
1533.000000	0.039413
1532.000000	0.039186
1531.000000	0.039044
1530.000000	0.038934
1529.000000	0.038802
1528.000000	0.038629
1527.000000	0.038406
1526.000000	0.038137
1525.000000	0.037863
1524.000000	0.037623
1523.000000	0.037408
1522.000000	0.037148
1521.000000	0.036818
1520.000000	0.036539
1519.000000	0.036407
1518.000000	0.036367
1517.000000	0.036287
1516.000000	0.036083
1515.000000	0.035801
1514.000000	0.035503
1513.000000	0.035180
1512.000000	0.034809
1511.000000	0.034405
1510.000000	0.034008
1509.000000	0.033614
1508.000000	0.033119
1507.000000	0.032354
1506.000000	0.031478
1505.000000	0.030922
1504.000000	0.030679
1503.000000	0.030511
1502.000000	0.030272
1501.000000	0.029928
1500.000000	0.029515
1499.000000	0.029089
1498.000000	0.028673
1497.000000	0.028263
1496.000000	0.027866
1495.000000	0.027512
1494.000000	0.027216
1493.000000	0.026965
1492.000000	0.026726
1491.000000	0.026471
1490.000000	0.026199
1489.000000	0.025956
1488.000000	0.025790
1487.000000	0.025686
1486.000000	0.025618
1485.000000	0.025591
1484.000000	0.025612
1483.000000	0.025674
1482.000000	0.025767
1481.000000	0.025899
1480.000000	0.026083
1479.000000	0.026326
1478.000000	0.026628
1477.000000	0.026982
1476.000000	0.027358
1475.000000	0.027752
1474.000000	0.028229
1473.000000	0.028829
1472.000000	0.029478
1471.000000	0.030086
1470.000000	0.030640
1469.000000	0.031144
1468.000000	0.031587
1467.000000	0.031973
1466.000000	0.032341
1465.000000	0.032703
1464.000000	0.033024
1463.000000	0.033289
1462.000000	0.033518
1461.000000	0.033737
1460.000000	0.033966
1459.000000	0.034247
1458.000000	0.034630
1457.000000	0.035078
1456.000000	0.035483
1455.000000	0.035832
1454.000000	0.036150
1453.000000	0.036433
1452.000000	0.036638
1451.000000	0.036743
1450.000000	0.036790
1449.000000	0.036827
1448.000000	0.036854
1447.000000	0.036860
1446.000000	0.036871
1445.000000	0.036891
1444.000000	0.036897
1443.000000	0.036873
1442.000000	0.036833
1441.000000	0.036785
1440.000000	0.036718
1439.000000	0.036624
1438.000000	0.036522
1437.000000	0.036428
1436.000000	0.036330
1435.000000	0.036257
1434.000000	0.036234
1433.000000	0.036225
1432.000000	0.036172
1431.000000	0.036058
1430.000000	0.035918
1429.000000	0.035800
1428.000000	0.035716
1427.000000	0.035665
1426.000000	0.035657
1425.000000	0.035665
1424.000000	0.035623
1423.000000	0.035501
1422.000000	0.035354
1421.000000	0.035241
1420.000000	0.035182
1419.000000	0.035151
1418.000000	0.035130
1417.000000	0.035120
1416.000000	0.035088
1415.000000	0.034998
1414.000000	0.034867
1413.000000	0.034726
1412.000000	0.034568
1411.000000	0.034374
1410.000000	0.034162
1409.000000	0.033974
1408.000000	0.033822
1407.000000	0.033689
1406.000000	0.033560
1405.000000	0.033417
1404.000000	0.033245
1403.000000	0.033063
1402.000000	0.032906
1401.000000	0.032786
1400.000000	0.032666
1399.000000	0.032502
1398.000000	0.032298
1397.000000	0.032086
1396.000000	0.031867
1395.000000	0.031622
1394.000000	0.031371
1393.000000	0.031147
1392.000000	0.030936
1391.000000	0.030704
1390.000000	0.030455
1389.000000	0.030214
1388.000000	0.029981
1387.000000	0.029733
1386.000000	0.029472
1385.000000	0.029227
1384.000000	0.029006
1383.000000	0.028791
1382.000000	0.028579
1381.000000	0.028380
1380.000000	0.028186
1379.000000	0.027978
1378.000000	0.027748
1377.000000	0.027507
1376.000000	0.027258
1375.000000	0.026984
1374.000000	0.026670
1373.000000	0.026345
1372.000000	0.026049
1371.000000	0.025790
1370.000000	0.025543
1369.000000	0.025277
1368.000000	0.024979
1367.000000	0.024661
1366.000000	0.024350
1365.000000	0.024070
1364.000000	0.023822
1363.000000	0.023592
1362.000000	0.023363
1361.000000	0.023147
1360.000000	0.022964
1359.000000	0.022817
1358.000000	0.022693
1357.000000	0.022582
1356.000000	0.022484
1355.000000	0.022408
1354.000000	0.022361
1353.000000	0.022344
1352.000000	0.022356
1351.000000	0.022392
1350.000000	0.022448
1349.000000	0.022514
1348.000000	0.022583
1347.000000	0.022655
1346.000000	0.022735
1345.000000	0.022832
1344.000000	0.022958
1343.000000	0.023120
1342.000000	0.023307
1341.000000	0.023492
1340.000000	0.023633
1339.000000	0.023702
1338.000000	0.023710
1337.000000	0.023693
1336.000000	0.023668
1335.000000	0.023624
1334.000000	0.023550
1333.000000	0.023455
1332.000000	0.023357
1331.000000	0.023265
1330.000000	0.023174
1329.000000	0.023076
1328.000000	0.022970
1327.000000	0.022859
1326.000000	0.022754
1325.000000	0.022666
1324.000000	0.022604
1323.000000	0.022571
1322.000000	0.022553
1321.000000	0.022539
1320.000000	0.022518
1319.000000	0.022487
1318.000000	0.022442
1317.000000	0.022384
1316.000000	0.022320
1315.000000	0.022253
1314.000000	0.022178
1313.000000	0.022085
1312.000000	0.021971
1311.000000	0.021843
1310.000000	0.021712
1309.000000	0.021584
1308.000000	0.021462
1307.000000	0.021349
1306.000000	0.021243
1305.000000	0.021137
1304.000000	0.021030
1303.000000	0.020925
1302.000000	0.020831
1301.000000	0.020748
1300.000000	0.020668
1299.000000	0.020578
1298.000000	0.020480
1297.000000	0.020391
1296.000000	0.020330
1295.000000	0.020300
1294.000000	0.020289
1293.000000	0.020288
1292.000000	0.020304
1291.000000	0.020344
1290.000000	0.020407
1289.000000	0.020476
1288.000000	0.020534
1287.000000	0.020583
1286.000000	0.020638
1285.000000	0.020714
1284.000000	0.020811
1283.000000	0.020908
1282.000000	0.020984
1281.000000	0.021033
1280.000000	0.021066
1279.000000	0.021101
1278.000000	0.021147
1277.000000	0.021204
1276.000000	0.021261
1275.000000	0.021305
1274.000000	0.021329
1273.000000	0.021345
1272.000000	0.021371
1271.000000	0.021420
1270.000000	0.021497
1269.000000	0.021604
1268.000000	0.021737
1267.000000	0.021887
1266.000000	0.022034
1265.000000	0.022173
1264.000000	0.022315
1263.000000	0.022468
1262.000000	0.022626
1261.000000	0.022775
1260.000000	0.022912
1259.000000	0.023042
1258.000000	0.023174
1257.000000	0.023306
1256.000000	0.023430
1255.000000	0.023543
1254.000000	0.023654
1253.000000	0.023779
1252.000000	0.023927
1251.000000	0.024085
1250.000000	0.024229
1249.000000	0.024350
1248.000000	0.024463
1247.000000	0.024591
1246.000000	0.024742
1245.000000	0.024902
1244.000000	0.025048
1243.000000	0.025163
1242.000000	0.025241
1241.000000	0.025289
1240.000000	0.025315
1239.000000	0.025328
1238.000000	0.025324
1237.000000	0.025297
1236.000000	0.025240
1235.000000	0.025150
1234.000000	0.025023
1233.000000	0.024858
1232.000000	0.024657
1231.000000	0.024437
1230.000000	0.024213
1229.000000	0.023987
1228.000000	0.023752
1227.000000	0.023499
1226.000000	0.023225
1225.000000	0.022933
1224.000000	0.022622
1223.000000	0.022301
1222.000000	0.021978
1221.000000	0.021655
1220.000000	0.021324
1219.000000	0.020992
1218.000000	0.020689
1217.000000	0.020456
1216.000000	0.020311
1215.000000	0.020233
1214.000000	0.020178
1213.000000	0.020113
1212.000000	0.020033
1211.000000	0.019951
1210.000000	0.019888
1209.000000	0.019853
1208.000000	0.019846
1207.000000	0.019857
1206.000000	0.019876
1205.000000	0.019896
1204.000000	0.019912
1203.000000	0.019910
1202.000000	0.019874
1201.000000	0.019798
1200.000000	0.019690
1199.000000	0.019573
1198.000000	0.019461
1197.000000	0.019357
1196.000000	0.019250
1195.000000	0.019129
1194.000000	0.018986
1193.000000	0.018823
1192.000000	0.018653
1191.000000	0.018491
1190.000000	0.018349
1189.000000	0.018229
1188.000000	0.018122
1187.000000	0.018012
1186.000000	0.017892
1185.000000	0.017777
1184.000000	0.017696
1183.000000	0.017664
1182.000000	0.017663
1181.000000	0.017662
1180.000000	0.017655
1179.000000	0.017665
1178.000000	0.017715
1177.000000	0.017799
1176.000000	0.017893
1175.000000	0.017977
1174.000000	0.018055
1173.000000	0.018145
1172.000000	0.018257
1171.000000	0.018381
1170.000000	0.018498
1169.000000	0.018604
1168.000000	0.018712
1167.000000	0.018840
1166.000000	0.018996
1165.000000	0.019166
1164.000000	0.019335
1163.000000	0.019488
1162.000000	0.019617
1161.000000	0.019716
1160.000000	0.019782
1159.000000	0.019811
1158.000000	0.019802
1157.000000	0.019758
1156.000000	0.019689
1155.000000	0.019597
1154.000000	0.019485
1153.000000	0.019360
1152.000000	0.019232
1151.000000	0.019104
1150.000000	0.018963
1149.000000	0.018795
1148.000000	0.018605
1147.000000	0.018416
1146.000000	0.018240
1145.000000	0.018066
1144.000000	0.017885
1143.000000	0.017706
1142.000000	0.017548
1141.000000	0.017420
1140.000000	0.017311
1139.000000	0.017208
1138.000000	0.017109
1137.000000	0.017019
1136.000000	0.016942
1135.000000	0.016883
1134.000000	0.016847
1133.000000	0.016839
1132.000000	0.016861
1131.000000	0.016906
1130.000000	0.016963
1129.000000	0.017031
1128.000000	0.017116
1127.000000	0.017221
1126.000000	0.017339
1125.000000	0.017451
1124.000000	0.017546
1123.000000	0.017619
1122.000000	0.017676
1121.000000	0.017734
1120.000000	0.017814
1119.000000	0.017928
1118.000000	0.018067
1117.000000	0.018213
1116.000000	0.018355
1115.000000	0.018497
1114.000000	0.018646
1113.000000	0.018801
1112.000000	0.018952
1111.000000	0.019091
1110.000000	0.019204
1109.000000	0.019280
1108.000000	0.019324
1107.000000	0.019355
1106.000000	0.019391
1105.000000	0.019431
1104.000000	0.019463
1103.000000	0.019481
1102.000000	0.019497
1101.000000	0.019531
1100.000000	0.019594
1099.000000	0.019685
1098.000000	0.019789
1097.000000	0.019880
1096.000000	0.019939
1095.000000	0.019972
1094.000000	0.020007
1093.000000	0.020074
1092.000000	0.020186
1091.000000	0.020341
1090.000000	0.020536
1089.000000	0.020770
1088.000000	0.021035
1087.000000	0.021310
1086.000000	0.021573
1085.000000	0.021812
1084.000000	0.022026
1083.000000	0.022211
1082.000000	0.022365
1081.000000	0.022482
1080.000000	0.022548
1079.000000	0.022551
1078.000000	0.022501
1077.000000	0.022423
1076.000000	0.022331
1075.000000	0.022210
1074.000000	0.022034
1073.000000	0.021804
1072.000000	0.021563
1071.000000	0.021371
1070.000000	0.021262
1069.000000	0.021234
1068.000000	0.021263
1067.000000	0.021320
1066.000000	0.021384
1065.000000	0.021450
1064.000000	0.021532
1063.000000	0.021655
1062.000000	0.021826
1061.000000	0.022022
1060.000000	0.022200
1059.000000	0.022331
1058.000000	0.022416
1057.000000	0.022480
1056.000000	0.022540
1055.000000	0.022604
1054.000000	0.022673
1053.000000	0.022746
1052.000000	0.022824
1051.000000	0.022909
1050.000000	0.023001
1049.000000	0.023094
1048.000000	0.023179
1047.000000	0.023247
1046.000000	0.023302
1045.000000	0.023354
1044.000000	0.023410
1043.000000	0.023473
1042.000000	0.023554
1041.000000	0.023666
1040.000000	0.023823
1039.000000	0.024027
1038.000000	0.024275
1037.000000	0.024555
1036.000000	0.024839
1035.000000	0.025099
1034.000000	0.025330
1033.000000	0.025557
1032.000000	0.025803
1031.000000	0.026057
1030.000000	0.026284
1029.000000	0.026463
1028.000000	0.026603
1027.000000	0.026729
1026.000000	0.026863
1025.000000	0.027025
1024.000000	0.027241
1023.000000	0.027530
1022.000000	0.027874
1021.000000	0.028216
1020.000000	0.028497
1019.000000	0.028685
1018.000000	0.028780
1017.000000	0.028777
1016.000000	0.028650
1015.000000	0.028379
1014.000000	0.027973
1013.000000	0.027472
1012.000000	0.026922
1011.000000	0.026358
1010.000000	0.025807
1009.000000	0.025283
1008.000000	0.024784
1007.000000	0.024303
1006.000000	0.023838
1005.000000	0.023394
1004.000000	0.022981
1003.000000	0.022609
1002.000000	0.022280
1001.000000	0.021981
1000.000000	0.021691
999.000000	0.021395
998.000000	0.021105
997.000000	0.020837
996.000000	0.020588
995.000000	0.020337
994.000000	0.020069
993.000000	0.019783
992.000000	0.019489
991.000000	0.019185
990.000000	0.018877
989.000000	0.018581
988.000000	0.018312
987.000000	0.018063
986.000000	0.017807
985.000000	0.017529
984.000000	0.017242
983.000000	0.016970
982.000000	0.016713
981.000000	0.016458
980.000000	0.016202
979.000000	0.015966
978.000000	0.015766
977.000000	0.015595
976.000000	0.015435
975.000000	0.015275
974.000000	0.015119
973.000000	0.014969
972.000000	0.014823
971.000000	0.014676
970.000000	0.014520
969.000000	0.014344
968.000000	0.014144
967.000000	0.013931
966.000000	0.013721
965.000000	0.013516
964.000000	0.013313
963.000000	0.013117
962.000000	0.012945
961.000000	0.012799
960.000000	0.012665
959.000000	0.012525
958.000000	0.012377
957.000000	0.012233
956.000000	0.012097
955.000000	0.011963
954.000000	0.011832
953.000000	0.011710
952.000000	0.011598
951.000000	0.011484
950.000000	0.011358
949.000000	0.011226
948.000000	0.011101
947.000000	0.010997
946.000000	0.010918
945.000000	0.010868
944.000000	0.010852
943.000000	0.010862
942.000000	0.010873
941.000000	0.010857
940.000000	0.010805
939.000000	0.010736
938.000000	0.010672
937.000000	0.010618
936.000000	0.010562
935.000000	0.010495
934.000000	0.010429
933.000000	0.010385
932.000000	0.010359
931.000000	0.010328
930.000000	0.010274
929.000000	0.010204
928.000000	0.010141
927.000000	0.010100
926.000000	0.010082
925.000000	0.010074
924.000000	0.010058
923.000000	0.010017
922.000000	0.009948
921.000000	0.009862
920.000000	0.009771
919.000000	0.009676
918.000000	0.009575
917.000000	0.009471
916.000000	0.009373
915.000000	0.009277
914.000000	0.009177
913.000000	0.009083
912.000000	0.009007
911.000000	0.008945
910.000000	0.008874
909.000000	0.008783
908.000000	0.008693
907.000000	0.008625
906.000000	0.008582
905.000000	0.008550
904.000000	0.008524
903.000000	0.008496
902.000000	0.008448
901.000000	0.008365
900.000000	0.008258
899.000000	0.008155
898.000000	0.008075
897.000000	0.008019
896.000000	0.007981
895.000000	0.007957
894.000000	0.007931
893.000000	0.007884
892.000000	0.007820
891.000000	0.007759
890.000000	0.007716
889.000000	0.007699
888.000000	0.007728
887.000000	0.007836
886.000000	0.008048
885.000000	0.008352
884.000000	0.008723
883.000000	0.009153
882.000000	0.009662
881.000000	0.010286
880.000000	0.011041
879.000000	0.011880
878.000000	0.012681
877.000000	0.013292
876.000000	0.013605
875.000000	0.013583
874.000000	0.013254
873.000000	0.012679
872.000000	0.011945
871.000000	0.011158
870.000000	0.010414
869.000000	0.009784
868.000000	0.009305
867.000000	0.008982
866.000000	0.008786
865.000000	0.008659
864.000000	0.008547
863.000000	0.008432
862.000000	0.008324
861.000000	0.008241
860.000000	0.008187
859.000000	0.008163
858.000000	0.008167
857.000000	0.008183
856.000000	0.008195
855.000000	0.008197
854.000000	0.008200
853.000000	0.008217
852.000000	0.008253
851.000000	0.008294
850.000000	0.008320
849.000000	0.008308
848.000000	0.008247
847.000000	0.008140
846.000000	0.008013
845.000000	0.007901
844.000000	0.007833
843.000000	0.007815
842.000000	0.007832
841.000000	0.007856
840.000000	0.007869
839.000000	0.007863
838.000000	0.007848
837.000000	0.007836
836.000000	0.007834
835.000000	0.007838
834.000000	0.007839
833.000000	0.007836
832.000000	0.007837
831.000000	0.007846
830.000000	0.007860
829.000000	0.007867
828.000000	0.007860
827.000000	0.007839
826.000000	0.007812
825.000000	0.007791
824.000000	0.007787
823.000000	0.007805
822.000000	0.007839
821.000000	0.007879
820.000000	0.007916
819.000000	0.007935
818.000000	0.007924
817.000000	0.007880
816.000000	0.007820
815.000000	0.007767
814.000000	0.007739
813.000000	0.007745
812.000000	0.007786
811.000000	0.007855
810.000000	0.007925
809.000000	0.007959
808.000000	0.007946
807.000000	0.007904
806.000000	0.007864
805.000000	0.007839
804.000000	0.007818
803.000000	0.007790
802.000000	0.007768
801.000000	0.007774
800.000000	0.007814
799.000000	0.007866
798.000000	0.007901
797.000000	0.007917
796.000000	0.007927
795.000000	0.007932
794.000000	0.007914
793.000000	0.007871
792.000000	0.007835
791.000000	0.007846
790.000000	0.007906
789.000000	0.007969
788.000000	0.007990
787.000000	0.007964
786.000000	0.007931
785.000000	0.007925
784.000000	0.007940
783.000000	0.007942
782.000000	0.007915
781.000000	0.007879
780.000000	0.007867
779.000000	0.007881
778.000000	0.007905
777.000000	0.007927
776.000000	0.007948
775.000000	0.007971
774.000000	0.007992
773.000000	0.008004
772.000000	0.008003
771.000000	0.007994
770.000000	0.007989
769.000000	0.008005
768.000000	0.008040
767.000000	0.008057
766.000000	0.008022
765.000000	0.007947
764.000000	0.007884
763.000000	0.007863
762.000000	0.007870
761.000000	0.007879
760.000000	0.007889
759.000000	0.007908
758.000000	0.007932
757.000000	0.007955
756.000000	0.007982
755.000000	0.008018
754.000000	0.008044
753.000000	0.008038
752.000000	0.008002
751.000000	0.007958
750.000000	0.007927
749.000000	0.007919
748.000000	0.007936
747.000000	0.007973
746.000000	0.008007
745.000000	0.008018
744.000000	0.008007
743.000000	0.007988
742.000000	0.007963
741.000000	0.007932
740.000000	0.007902
739.000000	0.007887
738.000000	0.007899
737.000000	0.007943
736.000000	0.008028
735.000000	0.008150
734.000000	0.008278
733.000000	0.008379
732.000000	0.008441
731.000000	0.008479
730.000000	0.008500
729.000000	0.008519
728.000000	0.008565
727.000000	0.008660
726.000000	0.008804
725.000000	0.008973
724.000000	0.009143
723.000000	0.009305
722.000000	0.009456
721.000000	0.009597
720.000000	0.009723
719.000000	0.009820
718.000000	0.009880
717.000000	0.009927
716.000000	0.010018
715.000000	0.010181
714.000000	0.010371
713.000000	0.010504
712.000000	0.010537
711.000000	0.010494
710.000000	0.010431
709.000000	0.010405
708.000000	0.010447
707.000000	0.010528
706.000000	0.010586
705.000000	0.010593
704.000000	0.010583
703.000000	0.010613
702.000000	0.010683
701.000000	0.010749
700.000000	0.010795
699.000000	0.010831
698.000000	0.010851
697.000000	0.010830
696.000000	0.010783
695.000000	0.010764
694.000000	0.010779
693.000000	0.010752
692.000000	0.010624
691.000000	0.010443
690.000000	0.010318
689.000000	0.010316
688.000000	0.010420
687.000000	0.010573
686.000000	0.010714
685.000000	0.010794
684.000000	0.010805
683.000000	0.010785
682.000000	0.010780
681.000000	0.010806
680.000000	0.010864
679.000000	0.010940
678.000000	0.011006
677.000000	0.011083
676.000000	0.011233
675.000000	0.011495
674.000000	0.011797
673.000000	0.012009
672.000000	0.012077
671.000000	0.012072
670.000000	0.012061
669.000000	0.012071
668.000000	0.012241
667.000000	0.012512
666.000000	0.012456
665.000000	0.012271
664.000000	0.012174
663.000000	0.012128
662.000000	0.012043
661.000000	0.011905
660.000000	0.011735
659.000000	0.011542
658.000000	0.011349
657.000000	0.011224
656.000000	0.011184
655.000000	0.011164
654.000000	0.011121
653.000000	0.011095
652.000000	0.011135
651.000000	0.011222
650.000000	0.011302
649.000000	0.011339
648.000000	0.011323
647.000000	0.011257
646.000000	0.011188
645.000000	0.011168
644.000000	0.011197
643.000000	0.011237
642.000000	0.011276
641.000000	0.011328
640.000000	0.011383
639.000000	0.011399
638.000000	0.011364
637.000000	0.011314
636.000000	0.011267
635.000000	0.011206
634.000000	0.011132
633.000000	0.011072
632.000000	0.011046
631.000000	0.011041
630.000000	0.011047
629.000000	0.011074
628.000000	0.011133
627.000000	0.011223
626.000000	0.011341
625.000000	0.011464
624.000000	0.011538
623.000000	0.011536
622.000000	0.011494
621.000000	0.011474
620.000000	0.011491
619.000000	0.011526
618.000000	0.011579
617.000000	0.011643
616.000000	0.011669
615.000000	0.011604
614.000000	0.011475
613.000000	0.011376
612.000000	0.011366
611.000000	0.011426
610.000000	0.011511
609.000000	0.011575
608.000000	0.011562
607.000000	0.011433
606.000000	0.011241
605.000000	0.011098
604.000000	0.011067
603.000000	0.011121
602.000000	0.011184
601.000000	0.011188
600.000000	0.011087
599.000000	0.010904
598.000000	0.010741
597.000000	0.010686
596.000000	0.010705
595.000000	0.010672
594.000000	0.010540
593.000000	0.010405
592.000000	0.010383
591.000000	0.010484
590.000000	0.010623
589.000000	0.010699
588.000000	0.010654
587.000000	0.010491
586.000000	0.010312
585.000000	0.010260
584.000000	0.010391
583.000000	0.010623
582.000000	0.010831
581.000000	0.010956
580.000000	0.010988
579.000000	0.010913
578.000000	0.010731
577.000000	0.010494
576.000000	0.010289
575.000000	0.010190
574.000000	0.010237
573.000000	0.010435
572.000000	0.010723
571.000000	0.010981
570.000000	0.011111
569.000000	0.011120
568.000000	0.011086
567.000000	0.011076
566.000000	0.011112
565.000000	0.011189
564.000000	0.011275
563.000000	0.011316
562.000000	0.011284
561.000000	0.011204
560.000000	0.011134
559.000000	0.011112
558.000000	0.011136
557.000000	0.011183
556.000000	0.011226
555.000000	0.011244
554.000000	0.011236
553.000000	0.011206
552.000000	0.011148
551.000000	0.011073
550.000000	0.011027
549.000000	0.011047
548.000000	0.011109
547.000000	0.011159
546.000000	0.011176
545.000000	0.011173
544.000000	0.011156
543.000000	0.011139
542.000000	0.011163
541.000000	0.011233
540.000000	0.011250
539.000000	0.011109
538.000000	0.010872
537.000000	0.010750
536.000000	0.010885
535.000000	0.011204
534.000000	0.011515
533.000000	0.011657
532.000000	0.011571
531.000000	0.011314
530.000000	0.011037
529.000000	0.010874
528.000000	0.010823
527.000000	0.010778
526.000000	0.010686
525.000000	0.010595
524.000000	0.010539
523.000000	0.010479
522.000000	0.010383
521.000000	0.010265
520.000000	0.010109
519.000000	0.009850
518.000000	0.009487
517.000000	0.009134
516.000000	0.008900
515.000000	0.008811
514.000000	0.008841
513.000000	0.008939
512.000000	0.008999
511.000000	0.008933
510.000000	0.008806
509.000000	0.008794
508.000000	0.008969
507.000000	0.009204
506.000000	0.009332
505.000000	0.009288
504.000000	0.009055
503.000000	0.008630
502.000000	0.008152
501.000000	0.007881
500.000000	0.007922
499.000000	0.008091
498.000000	0.008150
497.000000	0.008048
496.000000	0.007872
495.000000	0.007694
494.000000	0.007585
493.000000	0.007645
492.000000	0.007880
491.000000	0.008099
490.000000	0.008099
489.000000	0.007910
488.000000	0.007728
487.000000	0.007667
486.000000	0.007703
485.000000	0.007795
484.000000	0.007922
483.000000	0.008014
482.000000	0.008004
481.000000	0.007929
480.000000	0.007896
479.000000	0.007940
478.000000	0.008013
477.000000	0.008092
476.000000	0.008187
475.000000	0.008289
474.000000	0.008406
473.000000	0.008606
472.000000	0.008926
471.000000	0.009262
470.000000	0.009506
469.000000	0.009688
468.000000	0.009900
467.000000	0.010121
466.000000	0.010255
465.000000	0.010283
464.000000	0.010238
463.000000	0.010071
462.000000	0.009697
461.000000	0.009167
460.000000	0.008649
459.000000	0.008278
458.000000	0.008108
457.000000	0.008131
456.000000	0.008255
455.000000	0.008331
454.000000	0.008288
453.000000	0.008200
452.000000	0.008157
451.000000	0.008082
450.000000	0.007817
