PE IR       SUBTECH     SPECTRUM    ASCII       PEDS        4.00        
   -1
3G-N10-C036_1.ASC
22/02/24
10:13:26.00
22/02/24
10:18:11.00
uco
Sample 036 By uco Date Thursday, February 24 2022
450.000000
#HDR
-1
-1
#GR
cm-1
A
1.0
0.0
4000.000000
-1.000000
3551
8
0.036215
0.004396
#DATA
4000.000000	0.004594
3999.000000	0.004614
3998.000000	0.004633
3997.000000	0.004642
3996.000000	0.004621
3995.000000	0.004607
3994.000000	0.004599
3993.000000	0.004604
3992.000000	0.004620
3991.000000	0.004638
3990.000000	0.004644
3989.000000	0.004632
3988.000000	0.004607
3987.000000	0.004582
3986.000000	0.004567
3985.000000	0.004567
3984.000000	0.004583
3983.000000	0.004609
3982.000000	0.004636
3981.000000	0.004660
3980.000000	0.004679
3979.000000	0.004691
3978.000000	0.004701
3977.000000	0.004710
3976.000000	0.004718
3975.000000	0.004722
3974.000000	0.004716
3973.000000	0.004697
3972.000000	0.004668
3971.000000	0.004636
3970.000000	0.004612
3969.000000	0.004606
3968.000000	0.004623
3967.000000	0.004657
3966.000000	0.004696
3965.000000	0.004728
3964.000000	0.004749
3963.000000	0.004759
3962.000000	0.004762
3961.000000	0.004758
3960.000000	0.004748
3959.000000	0.004734
3958.000000	0.004725
3957.000000	0.004728
3956.000000	0.004742
3955.000000	0.004759
3954.000000	0.004765
3953.000000	0.004755
3952.000000	0.004732
3951.000000	0.004708
3950.000000	0.004691
3949.000000	0.004685
3948.000000	0.004683
3947.000000	0.004677
3946.000000	0.004664
3945.000000	0.004651
3944.000000	0.004645
3943.000000	0.004656
3942.000000	0.004684
3941.000000	0.004718
3940.000000	0.004743
3939.000000	0.004752
3938.000000	0.004745
3937.000000	0.004730
3936.000000	0.004717
3935.000000	0.004711
3934.000000	0.004709
3933.000000	0.004711
3932.000000	0.004717
3931.000000	0.004727
3930.000000	0.004741
3929.000000	0.004753
3928.000000	0.004760
3927.000000	0.004761
3926.000000	0.004758
3925.000000	0.004755
3924.000000	0.004751
3923.000000	0.004750
3922.000000	0.004756
3921.000000	0.004765
3920.000000	0.004770
3919.000000	0.004762
3918.000000	0.004741
3917.000000	0.004716
3916.000000	0.004696
3915.000000	0.004689
3914.000000	0.004693
3913.000000	0.004704
3912.000000	0.004717
3911.000000	0.004731
3910.000000	0.004746
3909.000000	0.004759
3908.000000	0.004769
3907.000000	0.004772
3906.000000	0.004767
3905.000000	0.004758
3904.000000	0.004758
3903.000000	0.004774
3902.000000	0.004802
3901.000000	0.004828
3900.000000	0.004837
3899.000000	0.004827
3898.000000	0.004808
3897.000000	0.004789
3896.000000	0.004773
3895.000000	0.004762
3894.000000	0.004757
3893.000000	0.004761
3892.000000	0.004776
3891.000000	0.004797
3890.000000	0.004814
3889.000000	0.004824
3888.000000	0.004830
3887.000000	0.004833
3886.000000	0.004833
3885.000000	0.004830
3884.000000	0.004830
3883.000000	0.004830
3882.000000	0.004826
3881.000000	0.004811
3880.000000	0.004793
3879.000000	0.004780
3878.000000	0.004775
3877.000000	0.004775
3876.000000	0.004772
3875.000000	0.004760
3874.000000	0.004744
3873.000000	0.004740
3872.000000	0.004760
3871.000000	0.004794
3870.000000	0.004822
3869.000000	0.004836
3868.000000	0.004845
3867.000000	0.004862
3866.000000	0.004882
3865.000000	0.004888
3864.000000	0.004873
3863.000000	0.004849
3862.000000	0.004832
3861.000000	0.004828
3860.000000	0.004832
3859.000000	0.004834
3858.000000	0.004830
3857.000000	0.004825
3856.000000	0.004828
3855.000000	0.004839
3854.000000	0.004852
3853.000000	0.004860
3852.000000	0.004861
3851.000000	0.004853
3850.000000	0.004843
3849.000000	0.004835
3848.000000	0.004827
3847.000000	0.004811
3846.000000	0.004790
3845.000000	0.004771
3844.000000	0.004761
3843.000000	0.004761
3842.000000	0.004765
3841.000000	0.004769
3840.000000	0.004772
3839.000000	0.004775
3838.000000	0.004773
3837.000000	0.004760
3836.000000	0.004734
3835.000000	0.004706
3834.000000	0.004691
3833.000000	0.004700
3832.000000	0.004728
3831.000000	0.004759
3830.000000	0.004782
3829.000000	0.004792
3828.000000	0.004794
3827.000000	0.004790
3826.000000	0.004784
3825.000000	0.004780
3824.000000	0.004784
3823.000000	0.004794
3822.000000	0.004795
3821.000000	0.004782
3820.000000	0.004767
3819.000000	0.004770
3818.000000	0.004798
3817.000000	0.004835
3816.000000	0.004853
3815.000000	0.004838
3814.000000	0.004811
3813.000000	0.004797
3812.000000	0.004804
3811.000000	0.004820
3810.000000	0.004829
3809.000000	0.004827
3808.000000	0.004820
3807.000000	0.004815
3806.000000	0.004813
3805.000000	0.004814
3804.000000	0.004817
3803.000000	0.004813
3802.000000	0.004790
3801.000000	0.004756
3800.000000	0.004731
3799.000000	0.004725
3798.000000	0.004736
3797.000000	0.004748
3796.000000	0.004748
3795.000000	0.004738
3794.000000	0.004726
3793.000000	0.004721
3792.000000	0.004726
3791.000000	0.004732
3790.000000	0.004732
3789.000000	0.004725
3788.000000	0.004719
3787.000000	0.004725
3786.000000	0.004745
3785.000000	0.004770
3784.000000	0.004787
3783.000000	0.004793
3782.000000	0.004793
3781.000000	0.004790
3780.000000	0.004779
3779.000000	0.004759
3778.000000	0.004736
3777.000000	0.004718
3776.000000	0.004710
3775.000000	0.004710
3774.000000	0.004712
3773.000000	0.004714
3772.000000	0.004718
3771.000000	0.004723
3770.000000	0.004728
3769.000000	0.004729
3768.000000	0.004723
3767.000000	0.004712
3766.000000	0.004698
3765.000000	0.004688
3764.000000	0.004687
3763.000000	0.004694
3762.000000	0.004700
3761.000000	0.004691
3760.000000	0.004667
3759.000000	0.004648
3758.000000	0.004652
3757.000000	0.004674
3756.000000	0.004693
3755.000000	0.004700
3754.000000	0.004700
3753.000000	0.004705
3752.000000	0.004731
3751.000000	0.004781
3750.000000	0.004834
3749.000000	0.004855
3748.000000	0.004834
3747.000000	0.004799
3746.000000	0.004780
3745.000000	0.004778
3744.000000	0.004771
3743.000000	0.004737
3742.000000	0.004682
3741.000000	0.004630
3740.000000	0.004599
3739.000000	0.004598
3738.000000	0.004622
3737.000000	0.004647
3736.000000	0.004646
3735.000000	0.004615
3734.000000	0.004582
3733.000000	0.004574
3732.000000	0.004586
3731.000000	0.004599
3730.000000	0.004602
3729.000000	0.004600
3728.000000	0.004603
3727.000000	0.004613
3726.000000	0.004626
3725.000000	0.004637
3724.000000	0.004640
3723.000000	0.004632
3722.000000	0.004616
3721.000000	0.004604
3720.000000	0.004604
3719.000000	0.004616
3718.000000	0.004632
3717.000000	0.004642
3716.000000	0.004646
3715.000000	0.004656
3714.000000	0.004681
3713.000000	0.004712
3712.000000	0.004727
3711.000000	0.004718
3710.000000	0.004692
3709.000000	0.004662
3708.000000	0.004634
3707.000000	0.004607
3706.000000	0.004588
3705.000000	0.004586
3704.000000	0.004602
3703.000000	0.004626
3702.000000	0.004640
3701.000000	0.004638
3700.000000	0.004625
3699.000000	0.004611
3698.000000	0.004599
3697.000000	0.004587
3696.000000	0.004576
3695.000000	0.004576
3694.000000	0.004591
3693.000000	0.004611
3692.000000	0.004629
3691.000000	0.004642
3690.000000	0.004656
3689.000000	0.004672
3688.000000	0.004681
3687.000000	0.004675
3686.000000	0.004659
3685.000000	0.004642
3684.000000	0.004625
3683.000000	0.004614
3682.000000	0.004616
3681.000000	0.004640
3680.000000	0.004687
3679.000000	0.004754
3678.000000	0.004835
3677.000000	0.004910
3676.000000	0.004946
3675.000000	0.004938
3674.000000	0.004913
3673.000000	0.004899
3672.000000	0.004905
3671.000000	0.004911
3670.000000	0.004895
3669.000000	0.004862
3668.000000	0.004832
3667.000000	0.004817
3666.000000	0.004821
3665.000000	0.004836
3664.000000	0.004845
3663.000000	0.004835
3662.000000	0.004803
3661.000000	0.004764
3660.000000	0.004736
3659.000000	0.004733
3658.000000	0.004755
3657.000000	0.004791
3656.000000	0.004833
3655.000000	0.004877
3654.000000	0.004925
3653.000000	0.004978
3652.000000	0.005021
3651.000000	0.005026
3650.000000	0.004979
3649.000000	0.004912
3648.000000	0.004865
3647.000000	0.004849
3646.000000	0.004846
3645.000000	0.004847
3644.000000	0.004851
3643.000000	0.004867
3642.000000	0.004902
3641.000000	0.004954
3640.000000	0.005014
3639.000000	0.005072
3638.000000	0.005124
3637.000000	0.005166
3636.000000	0.005195
3635.000000	0.005206
3634.000000	0.005199
3633.000000	0.005190
3632.000000	0.005197
3631.000000	0.005227
3630.000000	0.005262
3629.000000	0.005280
3628.000000	0.005283
3627.000000	0.005284
3626.000000	0.005286
3625.000000	0.005287
3624.000000	0.005285
3623.000000	0.005280
3622.000000	0.005278
3621.000000	0.005285
3620.000000	0.005301
3619.000000	0.005324
3618.000000	0.005351
3617.000000	0.005382
3616.000000	0.005420
3615.000000	0.005466
3614.000000	0.005512
3613.000000	0.005550
3612.000000	0.005580
3611.000000	0.005607
3610.000000	0.005634
3609.000000	0.005656
3608.000000	0.005668
3607.000000	0.005673
3606.000000	0.005678
3605.000000	0.005684
3604.000000	0.005692
3603.000000	0.005701
3602.000000	0.005712
3601.000000	0.005727
3600.000000	0.005744
3599.000000	0.005765
3598.000000	0.005793
3597.000000	0.005830
3596.000000	0.005868
3595.000000	0.005896
3594.000000	0.005911
3593.000000	0.005924
3592.000000	0.005948
3591.000000	0.005987
3590.000000	0.006031
3589.000000	0.006064
3588.000000	0.006082
3587.000000	0.006102
3586.000000	0.006137
3585.000000	0.006179
3584.000000	0.006215
3583.000000	0.006239
3582.000000	0.006257
3581.000000	0.006279
3580.000000	0.006311
3579.000000	0.006354
3578.000000	0.006406
3577.000000	0.006469
3576.000000	0.006538
3575.000000	0.006605
3574.000000	0.006658
3573.000000	0.006688
3572.000000	0.006694
3571.000000	0.006687
3570.000000	0.006681
3569.000000	0.006687
3568.000000	0.006705
3567.000000	0.006739
3566.000000	0.006788
3565.000000	0.006843
3564.000000	0.006891
3563.000000	0.006926
3562.000000	0.006949
3561.000000	0.006969
3560.000000	0.006992
3559.000000	0.007026
3558.000000	0.007078
3557.000000	0.007144
3556.000000	0.007209
3555.000000	0.007263
3554.000000	0.007301
3553.000000	0.007326
3552.000000	0.007344
3551.000000	0.007359
3550.000000	0.007375
3549.000000	0.007399
3548.000000	0.007436
3547.000000	0.007483
3546.000000	0.007534
3545.000000	0.007579
3544.000000	0.007615
3543.000000	0.007643
3542.000000	0.007666
3541.000000	0.007688
3540.000000	0.007710
3539.000000	0.007733
3538.000000	0.007758
3537.000000	0.007792
3536.000000	0.007833
3535.000000	0.007874
3534.000000	0.007908
3533.000000	0.007931
3532.000000	0.007949
3531.000000	0.007975
3530.000000	0.008019
3529.000000	0.008080
3528.000000	0.008147
3527.000000	0.008209
3526.000000	0.008262
3525.000000	0.008309
3524.000000	0.008348
3523.000000	0.008373
3522.000000	0.008386
3521.000000	0.008400
3520.000000	0.008429
3519.000000	0.008477
3518.000000	0.008531
3517.000000	0.008571
3516.000000	0.008590
3515.000000	0.008594
3514.000000	0.008601
3513.000000	0.008623
3512.000000	0.008665
3511.000000	0.008715
3510.000000	0.008760
3509.000000	0.008799
3508.000000	0.008840
3507.000000	0.008892
3506.000000	0.008952
3505.000000	0.009007
3504.000000	0.009042
3503.000000	0.009054
3502.000000	0.009048
3501.000000	0.009037
3500.000000	0.009034
3499.000000	0.009049
3498.000000	0.009083
3497.000000	0.009132
3496.000000	0.009185
3495.000000	0.009233
3494.000000	0.009272
3493.000000	0.009299
3492.000000	0.009320
3491.000000	0.009340
3490.000000	0.009364
3489.000000	0.009388
3488.000000	0.009405
3487.000000	0.009413
3486.000000	0.009423
3485.000000	0.009448
3484.000000	0.009491
3483.000000	0.009543
3482.000000	0.009591
3481.000000	0.009627
3480.000000	0.009654
3479.000000	0.009677
3478.000000	0.009701
3477.000000	0.009726
3476.000000	0.009748
3475.000000	0.009769
3474.000000	0.009794
3473.000000	0.009825
3472.000000	0.009858
3471.000000	0.009884
3470.000000	0.009899
3469.000000	0.009908
3468.000000	0.009921
3467.000000	0.009941
3466.000000	0.009966
3465.000000	0.009996
3464.000000	0.010030
3463.000000	0.010069
3462.000000	0.010104
3461.000000	0.010126
3460.000000	0.010134
3459.000000	0.010139
3458.000000	0.010161
3457.000000	0.010213
3456.000000	0.010292
3455.000000	0.010374
3454.000000	0.010437
3453.000000	0.010466
3452.000000	0.010461
3451.000000	0.010441
3450.000000	0.010430
3449.000000	0.010440
3448.000000	0.010469
3447.000000	0.010508
3446.000000	0.010551
3445.000000	0.010599
3444.000000	0.010647
3443.000000	0.010685
3442.000000	0.010707
3441.000000	0.010717
3440.000000	0.010727
3439.000000	0.010741
3438.000000	0.010755
3437.000000	0.010770
3436.000000	0.010789
3435.000000	0.010818
3434.000000	0.010854
3433.000000	0.010889
3432.000000	0.010919
3431.000000	0.010948
3430.000000	0.010984
3429.000000	0.011030
3428.000000	0.011077
3427.000000	0.011115
3426.000000	0.011142
3425.000000	0.011160
3424.000000	0.011176
3423.000000	0.011191
3422.000000	0.011202
3421.000000	0.011214
3420.000000	0.011238
3419.000000	0.011275
3418.000000	0.011316
3417.000000	0.011349
3416.000000	0.011371
3415.000000	0.011386
3414.000000	0.011403
3413.000000	0.011429
3412.000000	0.011462
3411.000000	0.011497
3410.000000	0.011528
3409.000000	0.011555
3408.000000	0.011583
3407.000000	0.011613
3406.000000	0.011646
3405.000000	0.011680
3404.000000	0.011716
3403.000000	0.011750
3402.000000	0.011773
3401.000000	0.011780
3400.000000	0.011779
3399.000000	0.011785
3398.000000	0.011812
3397.000000	0.011857
3396.000000	0.011909
3395.000000	0.011958
3394.000000	0.011999
3393.000000	0.012034
3392.000000	0.012066
3391.000000	0.012097
3390.000000	0.012125
3389.000000	0.012147
3388.000000	0.012166
3387.000000	0.012186
3386.000000	0.012211
3385.000000	0.012241
3384.000000	0.012274
3383.000000	0.012306
3382.000000	0.012330
3381.000000	0.012337
3380.000000	0.012331
3379.000000	0.012333
3378.000000	0.012366
3377.000000	0.012433
3376.000000	0.012511
3375.000000	0.012572
3374.000000	0.012609
3373.000000	0.012634
3372.000000	0.012664
3371.000000	0.012706
3370.000000	0.012756
3369.000000	0.012808
3368.000000	0.012860
3367.000000	0.012913
3366.000000	0.012966
3365.000000	0.013011
3364.000000	0.013044
3363.000000	0.013068
3362.000000	0.013096
3361.000000	0.013141
3360.000000	0.013202
3359.000000	0.013269
3358.000000	0.013328
3357.000000	0.013375
3356.000000	0.013414
3355.000000	0.013451
3354.000000	0.013493
3353.000000	0.013544
3352.000000	0.013608
3351.000000	0.013681
3350.000000	0.013758
3349.000000	0.013831
3348.000000	0.013897
3347.000000	0.013953
3346.000000	0.014000
3345.000000	0.014042
3344.000000	0.014087
3343.000000	0.014144
3342.000000	0.014215
3341.000000	0.014292
3340.000000	0.014361
3339.000000	0.014414
3338.000000	0.014451
3337.000000	0.014479
3336.000000	0.014508
3335.000000	0.014549
3334.000000	0.014604
3333.000000	0.014668
3332.000000	0.014728
3331.000000	0.014778
3330.000000	0.014821
3329.000000	0.014861
3328.000000	0.014898
3327.000000	0.014933
3326.000000	0.014970
3325.000000	0.015014
3324.000000	0.015062
3323.000000	0.015104
3322.000000	0.015131
3321.000000	0.015147
3320.000000	0.015164
3319.000000	0.015196
3318.000000	0.015246
3317.000000	0.015309
3316.000000	0.015374
3315.000000	0.015429
3314.000000	0.015462
3313.000000	0.015475
3312.000000	0.015478
3311.000000	0.015483
3310.000000	0.015490
3309.000000	0.015497
3308.000000	0.015503
3307.000000	0.015517
3306.000000	0.015552
3305.000000	0.015610
3304.000000	0.015680
3303.000000	0.015747
3302.000000	0.015801
3301.000000	0.015835
3300.000000	0.015847
3299.000000	0.015836
3298.000000	0.015807
3297.000000	0.015773
3296.000000	0.015750
3295.000000	0.015746
3294.000000	0.015760
3293.000000	0.015781
3292.000000	0.015804
3291.000000	0.015827
3290.000000	0.015852
3289.000000	0.015876
3288.000000	0.015896
3287.000000	0.015909
3286.000000	0.015915
3285.000000	0.015910
3284.000000	0.015890
3283.000000	0.015857
3282.000000	0.015819
3281.000000	0.015788
3280.000000	0.015775
3279.000000	0.015782
3278.000000	0.015801
3277.000000	0.015817
3276.000000	0.015817
3275.000000	0.015798
3274.000000	0.015768
3273.000000	0.015737
3272.000000	0.015707
3271.000000	0.015676
3270.000000	0.015648
3269.000000	0.015628
3268.000000	0.015614
3267.000000	0.015599
3266.000000	0.015579
3265.000000	0.015555
3264.000000	0.015532
3263.000000	0.015514
3262.000000	0.015504
3261.000000	0.015498
3260.000000	0.015489
3259.000000	0.015467
3258.000000	0.015430
3257.000000	0.015388
3256.000000	0.015351
3255.000000	0.015321
3254.000000	0.015288
3253.000000	0.015246
3252.000000	0.015195
3251.000000	0.015142
3250.000000	0.015097
3249.000000	0.015064
3248.000000	0.015043
3247.000000	0.015027
3246.000000	0.015011
3245.000000	0.014990
3244.000000	0.014966
3243.000000	0.014939
3242.000000	0.014908
3241.000000	0.014871
3240.000000	0.014833
3239.000000	0.014803
3238.000000	0.014787
3237.000000	0.014783
3236.000000	0.014783
3235.000000	0.014777
3234.000000	0.014760
3233.000000	0.014728
3232.000000	0.014681
3231.000000	0.014630
3230.000000	0.014585
3229.000000	0.014557
3228.000000	0.014547
3227.000000	0.014546
3226.000000	0.014540
3225.000000	0.014518
3224.000000	0.014484
3223.000000	0.014447
3222.000000	0.014418
3221.000000	0.014402
3220.000000	0.014394
3219.000000	0.014392
3218.000000	0.014391
3217.000000	0.014385
3216.000000	0.014371
3215.000000	0.014342
3214.000000	0.014299
3213.000000	0.014245
3212.000000	0.014189
3211.000000	0.014143
3210.000000	0.014115
3209.000000	0.014104
3208.000000	0.014105
3207.000000	0.014111
3206.000000	0.014114
3205.000000	0.014110
3204.000000	0.014087
3203.000000	0.014046
3202.000000	0.014000
3201.000000	0.013966
3200.000000	0.013954
3199.000000	0.013949
3198.000000	0.013933
3197.000000	0.013900
3196.000000	0.013858
3195.000000	0.013824
3194.000000	0.013801
3193.000000	0.013782
3192.000000	0.013756
3191.000000	0.013713
3190.000000	0.013658
3189.000000	0.013604
3188.000000	0.013566
3187.000000	0.013542
3186.000000	0.013520
3185.000000	0.013489
3184.000000	0.013446
3183.000000	0.013402
3182.000000	0.013364
3181.000000	0.013333
3180.000000	0.013303
3179.000000	0.013268
3178.000000	0.013221
3177.000000	0.013166
3176.000000	0.013112
3175.000000	0.013073
3174.000000	0.013052
3173.000000	0.013040
3172.000000	0.013023
3171.000000	0.012999
3170.000000	0.012976
3169.000000	0.012956
3168.000000	0.012934
3167.000000	0.012900
3166.000000	0.012850
3165.000000	0.012792
3164.000000	0.012735
3163.000000	0.012687
3162.000000	0.012650
3161.000000	0.012622
3160.000000	0.012601
3159.000000	0.012582
3158.000000	0.012560
3157.000000	0.012528
3156.000000	0.012482
3155.000000	0.012429
3154.000000	0.012382
3153.000000	0.012355
3152.000000	0.012345
3151.000000	0.012339
3150.000000	0.012322
3149.000000	0.012287
3148.000000	0.012239
3147.000000	0.012188
3146.000000	0.012144
3145.000000	0.012111
3144.000000	0.012088
3143.000000	0.012068
3142.000000	0.012045
3141.000000	0.012020
3140.000000	0.011997
3139.000000	0.011977
3138.000000	0.011959
3137.000000	0.011935
3136.000000	0.011905
3135.000000	0.011871
3134.000000	0.011839
3133.000000	0.011807
3132.000000	0.011774
3131.000000	0.011743
3130.000000	0.011725
3129.000000	0.011721
3128.000000	0.011729
3127.000000	0.011738
3126.000000	0.011741
3125.000000	0.011734
3124.000000	0.011715
3123.000000	0.011687
3122.000000	0.011655
3121.000000	0.011627
3120.000000	0.011612
3119.000000	0.011612
3118.000000	0.011620
3117.000000	0.011630
3116.000000	0.011637
3115.000000	0.011637
3114.000000	0.011631
3113.000000	0.011618
3112.000000	0.011604
3111.000000	0.011597
3110.000000	0.011601
3109.000000	0.011614
3108.000000	0.011629
3107.000000	0.011643
3106.000000	0.011666
3105.000000	0.011703
3104.000000	0.011748
3103.000000	0.011779
3102.000000	0.011780
3101.000000	0.011751
3100.000000	0.011716
3099.000000	0.011699
3098.000000	0.011710
3097.000000	0.011744
3096.000000	0.011791
3095.000000	0.011838
3094.000000	0.011876
3093.000000	0.011894
3092.000000	0.011892
3091.000000	0.011885
3090.000000	0.011892
3089.000000	0.011921
3088.000000	0.011962
3087.000000	0.011996
3086.000000	0.012010
3085.000000	0.012001
3084.000000	0.011980
3083.000000	0.011963
3082.000000	0.011959
3081.000000	0.011968
3080.000000	0.011985
3079.000000	0.012006
3078.000000	0.012033
3077.000000	0.012057
3076.000000	0.012065
3075.000000	0.012053
3074.000000	0.012030
3073.000000	0.012016
3072.000000	0.012016
3071.000000	0.012020
3070.000000	0.012015
3069.000000	0.012000
3068.000000	0.011979
3067.000000	0.011961
3066.000000	0.011946
3065.000000	0.011932
3064.000000	0.011921
3063.000000	0.011917
3062.000000	0.011921
3061.000000	0.011928
3060.000000	0.011927
3059.000000	0.011910
3058.000000	0.011875
3057.000000	0.011831
3056.000000	0.011786
3055.000000	0.011746
3054.000000	0.011712
3053.000000	0.011682
3052.000000	0.011657
3051.000000	0.011643
3050.000000	0.011637
3049.000000	0.011631
3048.000000	0.011613
3047.000000	0.011583
3046.000000	0.011549
3045.000000	0.011517
3044.000000	0.011483
3043.000000	0.011442
3042.000000	0.011396
3041.000000	0.011352
3040.000000	0.011315
3039.000000	0.011283
3038.000000	0.011251
3037.000000	0.011216
3036.000000	0.011181
3035.000000	0.011149
3034.000000	0.011119
3033.000000	0.011091
3032.000000	0.011064
3031.000000	0.011038
3030.000000	0.011016
3029.000000	0.010996
3028.000000	0.010974
3027.000000	0.010943
3026.000000	0.010904
3025.000000	0.010859
3024.000000	0.010817
3023.000000	0.010787
3022.000000	0.010772
3021.000000	0.010767
3020.000000	0.010761
3019.000000	0.010745
3018.000000	0.010718
3017.000000	0.010686
3016.000000	0.010657
3015.000000	0.010635
3014.000000	0.010620
3013.000000	0.010611
3012.000000	0.010599
3011.000000	0.010576
3010.000000	0.010544
3009.000000	0.010511
3008.000000	0.010492
3007.000000	0.010487
3006.000000	0.010490
3005.000000	0.010492
3004.000000	0.010491
3003.000000	0.010491
3002.000000	0.010498
3001.000000	0.010515
3000.000000	0.010538
2999.000000	0.010557
2998.000000	0.010563
2997.000000	0.010556
2996.000000	0.010549
2995.000000	0.010560
2994.000000	0.010601
2993.000000	0.010660
2992.000000	0.010719
2991.000000	0.010760
2990.000000	0.010784
2989.000000	0.010803
2988.000000	0.010828
2987.000000	0.010859
2986.000000	0.010896
2985.000000	0.010939
2984.000000	0.010989
2983.000000	0.011042
2982.000000	0.011094
2981.000000	0.011142
2980.000000	0.011183
2979.000000	0.011215
2978.000000	0.011239
2977.000000	0.011259
2976.000000	0.011278
2975.000000	0.011298
2974.000000	0.011320
2973.000000	0.011350
2972.000000	0.011393
2971.000000	0.011450
2970.000000	0.011512
2969.000000	0.011572
2968.000000	0.011629
2967.000000	0.011685
2966.000000	0.011739
2965.000000	0.011791
2964.000000	0.011846
2963.000000	0.011906
2962.000000	0.011970
2961.000000	0.012026
2960.000000	0.012068
2959.000000	0.012097
2958.000000	0.012119
2957.000000	0.012138
2956.000000	0.012150
2955.000000	0.012151
2954.000000	0.012144
2953.000000	0.012137
2952.000000	0.012129
2951.000000	0.012114
2950.000000	0.012093
2949.000000	0.012079
2948.000000	0.012086
2947.000000	0.012117
2946.000000	0.012161
2945.000000	0.012203
2944.000000	0.012236
2943.000000	0.012267
2942.000000	0.012301
2941.000000	0.012341
2940.000000	0.012388
2939.000000	0.012446
2938.000000	0.012517
2937.000000	0.012596
2936.000000	0.012664
2935.000000	0.012716
2934.000000	0.012767
2933.000000	0.012844
2932.000000	0.012960
2931.000000	0.013090
2930.000000	0.013192
2929.000000	0.013242
2928.000000	0.013254
2927.000000	0.013268
2926.000000	0.013315
2925.000000	0.013394
2924.000000	0.013483
2923.000000	0.013552
2922.000000	0.013588
2921.000000	0.013602
2920.000000	0.013604
2919.000000	0.013590
2918.000000	0.013541
2917.000000	0.013448
2916.000000	0.013321
2915.000000	0.013181
2914.000000	0.013037
2913.000000	0.012884
2912.000000	0.012720
2911.000000	0.012554
2910.000000	0.012402
2909.000000	0.012276
2908.000000	0.012175
2907.000000	0.012091
2906.000000	0.012015
2905.000000	0.011936
2904.000000	0.011854
2903.000000	0.011770
2902.000000	0.011692
2901.000000	0.011627
2900.000000	0.011576
2899.000000	0.011537
2898.000000	0.011506
2897.000000	0.011476
2896.000000	0.011446
2895.000000	0.011416
2894.000000	0.011387
2893.000000	0.011360
2892.000000	0.011331
2891.000000	0.011298
2890.000000	0.011261
2889.000000	0.011228
2888.000000	0.011205
2887.000000	0.011198
2886.000000	0.011203
2885.000000	0.011214
2884.000000	0.011226
2883.000000	0.011235
2882.000000	0.011237
2881.000000	0.011235
2880.000000	0.011235
2879.000000	0.011246
2878.000000	0.011265
2877.000000	0.011280
2876.000000	0.011286
2875.000000	0.011285
2874.000000	0.011283
2873.000000	0.011278
2872.000000	0.011263
2871.000000	0.011235
2870.000000	0.011200
2869.000000	0.011163
2868.000000	0.011128
2867.000000	0.011097
2866.000000	0.011071
2865.000000	0.011051
2864.000000	0.011040
2863.000000	0.011041
2862.000000	0.011057
2861.000000	0.011082
2860.000000	0.011110
2859.000000	0.011131
2858.000000	0.011145
2857.000000	0.011159
2856.000000	0.011181
2855.000000	0.011219
2854.000000	0.011276
2853.000000	0.011345
2852.000000	0.011406
2851.000000	0.011433
2850.000000	0.011407
2849.000000	0.011324
2848.000000	0.011194
2847.000000	0.011035
2846.000000	0.010864
2845.000000	0.010696
2844.000000	0.010548
2843.000000	0.010427
2842.000000	0.010332
2841.000000	0.010260
2840.000000	0.010208
2839.000000	0.010176
2838.000000	0.010153
2837.000000	0.010125
2836.000000	0.010085
2835.000000	0.010035
2834.000000	0.009985
2833.000000	0.009941
2832.000000	0.009907
2831.000000	0.009885
2830.000000	0.009873
2829.000000	0.009861
2828.000000	0.009840
2827.000000	0.009806
2826.000000	0.009765
2825.000000	0.009733
2824.000000	0.009723
2823.000000	0.009733
2822.000000	0.009745
2821.000000	0.009736
2820.000000	0.009700
2819.000000	0.009654
2818.000000	0.009615
2817.000000	0.009593
2816.000000	0.009587
2815.000000	0.009588
2814.000000	0.009585
2813.000000	0.009567
2812.000000	0.009536
2811.000000	0.009501
2810.000000	0.009473
2809.000000	0.009456
2808.000000	0.009450
2807.000000	0.009454
2806.000000	0.009465
2805.000000	0.009478
2804.000000	0.009484
2803.000000	0.009478
2802.000000	0.009458
2801.000000	0.009421
2800.000000	0.009377
2799.000000	0.009345
2798.000000	0.009340
2797.000000	0.009355
2796.000000	0.009373
2795.000000	0.009379
2794.000000	0.009372
2793.000000	0.009357
2792.000000	0.009342
2791.000000	0.009333
2790.000000	0.009328
2789.000000	0.009318
2788.000000	0.009294
2787.000000	0.009260
2786.000000	0.009231
2785.000000	0.009214
2784.000000	0.009206
2783.000000	0.009195
2782.000000	0.009178
2781.000000	0.009159
2780.000000	0.009141
2779.000000	0.009130
2778.000000	0.009126
2777.000000	0.009127
2776.000000	0.009126
2775.000000	0.009117
2774.000000	0.009101
2773.000000	0.009080
2772.000000	0.009062
2771.000000	0.009049
2770.000000	0.009042
2769.000000	0.009038
2768.000000	0.009034
2767.000000	0.009033
2766.000000	0.009032
2765.000000	0.009023
2764.000000	0.008998
2763.000000	0.008963
2762.000000	0.008935
2761.000000	0.008922
2760.000000	0.008916
2759.000000	0.008909
2758.000000	0.008904
2757.000000	0.008907
2756.000000	0.008914
2755.000000	0.008914
2754.000000	0.008901
2753.000000	0.008880
2752.000000	0.008865
2751.000000	0.008861
2750.000000	0.008864
2749.000000	0.008867
2748.000000	0.008860
2747.000000	0.008836
2746.000000	0.008796
2745.000000	0.008748
2744.000000	0.008709
2743.000000	0.008692
2742.000000	0.008697
2741.000000	0.008715
2740.000000	0.008732
2739.000000	0.008739
2738.000000	0.008735
2737.000000	0.008723
2736.000000	0.008704
2735.000000	0.008684
2734.000000	0.008665
2733.000000	0.008649
2732.000000	0.008637
2731.000000	0.008635
2730.000000	0.008645
2729.000000	0.008665
2728.000000	0.008685
2727.000000	0.008691
2726.000000	0.008681
2725.000000	0.008660
2724.000000	0.008639
2723.000000	0.008622
2722.000000	0.008611
2721.000000	0.008600
2720.000000	0.008588
2719.000000	0.008577
2718.000000	0.008569
2717.000000	0.008562
2716.000000	0.008549
2715.000000	0.008528
2714.000000	0.008506
2713.000000	0.008489
2712.000000	0.008482
2711.000000	0.008480
2710.000000	0.008479
2709.000000	0.008476
2708.000000	0.008468
2707.000000	0.008459
2706.000000	0.008453
2705.000000	0.008453
2704.000000	0.008455
2703.000000	0.008459
2702.000000	0.008461
2701.000000	0.008458
2700.000000	0.008447
2699.000000	0.008431
2698.000000	0.008414
2697.000000	0.008402
2696.000000	0.008394
2695.000000	0.008384
2694.000000	0.008374
2693.000000	0.008368
2692.000000	0.008368
2691.000000	0.008373
2690.000000	0.008382
2689.000000	0.008394
2688.000000	0.008405
2687.000000	0.008415
2686.000000	0.008422
2685.000000	0.008426
2684.000000	0.008425
2683.000000	0.008419
2682.000000	0.008407
2681.000000	0.008388
2680.000000	0.008364
2679.000000	0.008343
2678.000000	0.008326
2677.000000	0.008312
2676.000000	0.008295
2675.000000	0.008277
2674.000000	0.008261
2673.000000	0.008248
2672.000000	0.008241
2671.000000	0.008241
2670.000000	0.008250
2669.000000	0.008265
2668.000000	0.008274
2667.000000	0.008273
2666.000000	0.008264
2665.000000	0.008256
2664.000000	0.008255
2663.000000	0.008264
2662.000000	0.008278
2661.000000	0.008287
2660.000000	0.008280
2659.000000	0.008258
2658.000000	0.008231
2657.000000	0.008214
2656.000000	0.008206
2655.000000	0.008197
2654.000000	0.008183
2653.000000	0.008164
2652.000000	0.008143
2651.000000	0.008120
2650.000000	0.008095
2649.000000	0.008074
2648.000000	0.008056
2647.000000	0.008031
2646.000000	0.007991
2645.000000	0.007939
2644.000000	0.007889
2643.000000	0.007855
2642.000000	0.007842
2641.000000	0.007847
2640.000000	0.007858
2639.000000	0.007868
2638.000000	0.007868
2637.000000	0.007852
2636.000000	0.007817
2635.000000	0.007776
2634.000000	0.007745
2633.000000	0.007732
2632.000000	0.007721
2631.000000	0.007695
2630.000000	0.007659
2629.000000	0.007637
2628.000000	0.007641
2627.000000	0.007660
2626.000000	0.007670
2625.000000	0.007660
2624.000000	0.007635
2623.000000	0.007605
2622.000000	0.007578
2621.000000	0.007555
2620.000000	0.007537
2619.000000	0.007526
2618.000000	0.007520
2617.000000	0.007512
2616.000000	0.007495
2615.000000	0.007468
2614.000000	0.007437
2613.000000	0.007406
2612.000000	0.007377
2611.000000	0.007357
2610.000000	0.007352
2609.000000	0.007366
2608.000000	0.007386
2607.000000	0.007399
2606.000000	0.007397
2605.000000	0.007382
2604.000000	0.007361
2603.000000	0.007336
2602.000000	0.007310
2601.000000	0.007291
2600.000000	0.007285
2599.000000	0.007296
2598.000000	0.007316
2597.000000	0.007328
2596.000000	0.007319
2595.000000	0.007293
2594.000000	0.007264
2593.000000	0.007240
2592.000000	0.007223
2591.000000	0.007212
2590.000000	0.007211
2589.000000	0.007219
2588.000000	0.007223
2587.000000	0.007212
2586.000000	0.007187
2585.000000	0.007164
2584.000000	0.007157
2583.000000	0.007169
2582.000000	0.007192
2581.000000	0.007206
2580.000000	0.007197
2579.000000	0.007168
2578.000000	0.007144
2577.000000	0.007142
2576.000000	0.007153
2575.000000	0.007151
2574.000000	0.007124
2573.000000	0.007084
2572.000000	0.007051
2571.000000	0.007032
2570.000000	0.007020
2569.000000	0.007008
2568.000000	0.006993
2567.000000	0.006979
2566.000000	0.006968
2565.000000	0.006960
2564.000000	0.006951
2563.000000	0.006944
2562.000000	0.006942
2561.000000	0.006947
2560.000000	0.006947
2559.000000	0.006933
2558.000000	0.006908
2557.000000	0.006886
2556.000000	0.006881
2555.000000	0.006892
2554.000000	0.006911
2553.000000	0.006926
2552.000000	0.006930
2551.000000	0.006922
2550.000000	0.006905
2549.000000	0.006888
2548.000000	0.006875
2547.000000	0.006868
2546.000000	0.006865
2545.000000	0.006865
2544.000000	0.006862
2543.000000	0.006860
2542.000000	0.006862
2541.000000	0.006871
2540.000000	0.006881
2539.000000	0.006886
2538.000000	0.006890
2537.000000	0.006896
2536.000000	0.006896
2535.000000	0.006883
2534.000000	0.006861
2533.000000	0.006845
2532.000000	0.006838
2531.000000	0.006827
2530.000000	0.006800
2529.000000	0.006760
2528.000000	0.006725
2527.000000	0.006710
2526.000000	0.006716
2525.000000	0.006737
2524.000000	0.006769
2523.000000	0.006808
2522.000000	0.006848
2521.000000	0.006871
2520.000000	0.006861
2519.000000	0.006823
2518.000000	0.006779
2517.000000	0.006752
2516.000000	0.006744
2515.000000	0.006746
2514.000000	0.006751
2513.000000	0.006764
2512.000000	0.006788
2511.000000	0.006817
2510.000000	0.006838
2509.000000	0.006843
2508.000000	0.006825
2507.000000	0.006791
2506.000000	0.006759
2505.000000	0.006753
2504.000000	0.006781
2503.000000	0.006823
2502.000000	0.006849
2501.000000	0.006845
2500.000000	0.006824
2499.000000	0.006812
2498.000000	0.006814
2497.000000	0.006811
2496.000000	0.006776
2495.000000	0.006713
2494.000000	0.006654
2493.000000	0.006628
2492.000000	0.006633
2491.000000	0.006652
2490.000000	0.006673
2489.000000	0.006693
2488.000000	0.006705
2487.000000	0.006696
2486.000000	0.006665
2485.000000	0.006628
2484.000000	0.006603
2483.000000	0.006595
2482.000000	0.006600
2481.000000	0.006611
2480.000000	0.006628
2479.000000	0.006652
2478.000000	0.006679
2477.000000	0.006704
2476.000000	0.006726
2475.000000	0.006742
2474.000000	0.006750
2473.000000	0.006747
2472.000000	0.006738
2471.000000	0.006732
2470.000000	0.006723
2469.000000	0.006696
2468.000000	0.006641
2467.000000	0.006579
2466.000000	0.006547
2465.000000	0.006556
2464.000000	0.006585
2463.000000	0.006604
2462.000000	0.006607
2461.000000	0.006605
2460.000000	0.006614
2459.000000	0.006641
2458.000000	0.006680
2457.000000	0.006709
2456.000000	0.006704
2455.000000	0.006666
2454.000000	0.006620
2453.000000	0.006593
2452.000000	0.006590
2451.000000	0.006598
2450.000000	0.006608
2449.000000	0.006622
2448.000000	0.006643
2447.000000	0.006671
2446.000000	0.006705
2445.000000	0.006730
2444.000000	0.006725
2443.000000	0.006681
2442.000000	0.006622
2441.000000	0.006579
2440.000000	0.006559
2439.000000	0.006544
2438.000000	0.006520
2437.000000	0.006498
2436.000000	0.006495
2435.000000	0.006520
2434.000000	0.006564
2433.000000	0.006609
2432.000000	0.006640
2431.000000	0.006646
2430.000000	0.006632
2429.000000	0.006601
2428.000000	0.006558
2427.000000	0.006511
2426.000000	0.006475
2425.000000	0.006467
2424.000000	0.006482
2423.000000	0.006506
2422.000000	0.006526
2421.000000	0.006542
2420.000000	0.006553
2419.000000	0.006551
2418.000000	0.006529
2417.000000	0.006493
2416.000000	0.006459
2415.000000	0.006450
2414.000000	0.006470
2413.000000	0.006508
2412.000000	0.006544
2411.000000	0.006570
2410.000000	0.006588
2409.000000	0.006603
2408.000000	0.006610
2407.000000	0.006602
2406.000000	0.006576
2405.000000	0.006535
2404.000000	0.006491
2403.000000	0.006462
2402.000000	0.006465
2401.000000	0.006494
2400.000000	0.006516
2399.000000	0.006501
2398.000000	0.006456
2397.000000	0.006412
2396.000000	0.006397
2395.000000	0.006417
2394.000000	0.006461
2393.000000	0.006514
2392.000000	0.006556
2391.000000	0.006574
2390.000000	0.006570
2389.000000	0.006556
2388.000000	0.006544
2387.000000	0.006536
2386.000000	0.006528
2385.000000	0.006515
2384.000000	0.006497
2383.000000	0.006484
2382.000000	0.006483
2381.000000	0.006490
2380.000000	0.006497
2379.000000	0.006504
2378.000000	0.006519
2377.000000	0.006545
2376.000000	0.006563
2375.000000	0.006562
2374.000000	0.006551
2373.000000	0.006550
2372.000000	0.006554
2371.000000	0.006542
2370.000000	0.006511
2369.000000	0.006473
2368.000000	0.006441
2367.000000	0.006422
2366.000000	0.006424
2365.000000	0.006458
2364.000000	0.006524
2363.000000	0.006609
2362.000000	0.006691
2361.000000	0.006740
2360.000000	0.006745
2359.000000	0.006715
2358.000000	0.006667
2357.000000	0.006618
2356.000000	0.006594
2355.000000	0.006613
2354.000000	0.006639
2353.000000	0.006624
2352.000000	0.006574
2351.000000	0.006547
2350.000000	0.006576
2349.000000	0.006651
2348.000000	0.006724
2347.000000	0.006744
2346.000000	0.006712
2345.000000	0.006688
2344.000000	0.006708
2343.000000	0.006743
2342.000000	0.006753
2341.000000	0.006734
2340.000000	0.006715
2339.000000	0.006720
2338.000000	0.006745
2337.000000	0.006767
2336.000000	0.006767
2335.000000	0.006742
2334.000000	0.006697
2333.000000	0.006646
2332.000000	0.006617
2331.000000	0.006627
2330.000000	0.006666
2329.000000	0.006715
2328.000000	0.006766
2327.000000	0.006826
2326.000000	0.006894
2325.000000	0.006947
2324.000000	0.006955
2323.000000	0.006905
2322.000000	0.006828
2321.000000	0.006783
2320.000000	0.006809
2319.000000	0.006889
2318.000000	0.006968
2317.000000	0.006998
2316.000000	0.006971
2315.000000	0.006905
2314.000000	0.006827
2313.000000	0.006754
2312.000000	0.006682
2311.000000	0.006610
2310.000000	0.006547
2309.000000	0.006514
2308.000000	0.006504
2307.000000	0.006489
2306.000000	0.006448
2305.000000	0.006392
2304.000000	0.006350
2303.000000	0.006331
2302.000000	0.006325
2301.000000	0.006324
2300.000000	0.006331
2299.000000	0.006349
2298.000000	0.006372
2297.000000	0.006395
2296.000000	0.006420
2295.000000	0.006448
2294.000000	0.006469
2293.000000	0.006475
2292.000000	0.006468
2291.000000	0.006456
2290.000000	0.006445
2289.000000	0.006438
2288.000000	0.006439
2287.000000	0.006454
2286.000000	0.006478
2285.000000	0.006504
2284.000000	0.006523
2283.000000	0.006539
2282.000000	0.006552
2281.000000	0.006554
2280.000000	0.006529
2279.000000	0.006477
2278.000000	0.006407
2277.000000	0.006335
2276.000000	0.006275
2275.000000	0.006244
2274.000000	0.006254
2273.000000	0.006282
2272.000000	0.006281
2271.000000	0.006234
2270.000000	0.006174
2269.000000	0.006151
2268.000000	0.006177
2267.000000	0.006226
2266.000000	0.006273
2265.000000	0.006297
2264.000000	0.006277
2263.000000	0.006200
2262.000000	0.006094
2261.000000	0.006019
2260.000000	0.006003
2259.000000	0.006025
2258.000000	0.006051
2257.000000	0.006077
2256.000000	0.006115
2255.000000	0.006160
2254.000000	0.006179
2253.000000	0.006143
2252.000000	0.006049
2251.000000	0.005927
2250.000000	0.005826
2249.000000	0.005782
2248.000000	0.005792
2247.000000	0.005818
2246.000000	0.005834
2245.000000	0.005847
2244.000000	0.005881
2243.000000	0.005935
2242.000000	0.005974
2241.000000	0.005963
2240.000000	0.005916
2239.000000	0.005901
2238.000000	0.005985
2237.000000	0.006159
2236.000000	0.006329
2235.000000	0.006386
2234.000000	0.006297
2233.000000	0.006113
2232.000000	0.005926
2231.000000	0.005806
2230.000000	0.005772
2229.000000	0.005798
2228.000000	0.005839
2227.000000	0.005863
2226.000000	0.005873
2225.000000	0.005876
2224.000000	0.005873
2223.000000	0.005877
2222.000000	0.005911
2221.000000	0.005970
2220.000000	0.006003
2219.000000	0.005965
2218.000000	0.005889
2217.000000	0.005864
2216.000000	0.005938
2215.000000	0.006080
2214.000000	0.006209
2213.000000	0.006252
2212.000000	0.006188
2211.000000	0.006058
2210.000000	0.005929
2209.000000	0.005835
2208.000000	0.005754
2207.000000	0.005682
2206.000000	0.005670
2205.000000	0.005765
2204.000000	0.005921
2203.000000	0.006028
2202.000000	0.006030
2201.000000	0.005958
2200.000000	0.005859
2199.000000	0.005736
2198.000000	0.005587
2197.000000	0.005440
2196.000000	0.005350
2195.000000	0.005359
2194.000000	0.005470
2193.000000	0.005623
2192.000000	0.005722
2191.000000	0.005716
2190.000000	0.005651
2189.000000	0.005608
2188.000000	0.005617
2187.000000	0.005665
2186.000000	0.005757
2185.000000	0.005885
2184.000000	0.005975
2183.000000	0.005940
2182.000000	0.005800
2181.000000	0.005662
2180.000000	0.005577
2179.000000	0.005502
2178.000000	0.005419
2177.000000	0.005386
2176.000000	0.005435
2175.000000	0.005515
2174.000000	0.005566
2173.000000	0.005600
2172.000000	0.005652
2171.000000	0.005713
2170.000000	0.005764
2169.000000	0.005808
2168.000000	0.005825
2167.000000	0.005762
2166.000000	0.005627
2165.000000	0.005527
2164.000000	0.005555
2163.000000	0.005662
2162.000000	0.005702
2161.000000	0.005591
2160.000000	0.005361
2159.000000	0.005103
2158.000000	0.004900
2157.000000	0.004779
2156.000000	0.004699
2155.000000	0.004608
2154.000000	0.004527
2153.000000	0.004552
2152.000000	0.004743
2151.000000	0.005057
2150.000000	0.005382
2149.000000	0.005624
2148.000000	0.005737
2147.000000	0.005725
2146.000000	0.005636
2145.000000	0.005543
2144.000000	0.005482
2143.000000	0.005442
2142.000000	0.005404
2141.000000	0.005373
2140.000000	0.005351
2139.000000	0.005321
2138.000000	0.005274
2137.000000	0.005224
2136.000000	0.005193
2135.000000	0.005190
2134.000000	0.005229
2133.000000	0.005333
2132.000000	0.005492
2131.000000	0.005640
2130.000000	0.005704
2129.000000	0.005667
2128.000000	0.005577
2127.000000	0.005505
2126.000000	0.005507
2125.000000	0.005593
2124.000000	0.005728
2123.000000	0.005846
2122.000000	0.005901
2121.000000	0.005896
2120.000000	0.005872
2119.000000	0.005857
2118.000000	0.005848
2117.000000	0.005826
2116.000000	0.005788
2115.000000	0.005758
2114.000000	0.005770
2113.000000	0.005830
2112.000000	0.005896
2111.000000	0.005911
2110.000000	0.005865
2109.000000	0.005809
2108.000000	0.005803
2107.000000	0.005855
2106.000000	0.005926
2105.000000	0.005971
2104.000000	0.005973
2103.000000	0.005943
2102.000000	0.005916
2101.000000	0.005935
2100.000000	0.006007
2099.000000	0.006088
2098.000000	0.006113
2097.000000	0.006066
2096.000000	0.005986
2095.000000	0.005922
2094.000000	0.005887
2093.000000	0.005867
2092.000000	0.005853
2091.000000	0.005848
2090.000000	0.005852
2089.000000	0.005857
2088.000000	0.005855
2087.000000	0.005848
2086.000000	0.005846
2085.000000	0.005856
2084.000000	0.005873
2083.000000	0.005895
2082.000000	0.005924
2081.000000	0.005969
2080.000000	0.006029
2079.000000	0.006084
2078.000000	0.006102
2077.000000	0.006063
2076.000000	0.005984
2075.000000	0.005915
2074.000000	0.005898
2073.000000	0.005920
2072.000000	0.005937
2071.000000	0.005922
2070.000000	0.005891
2069.000000	0.005866
2068.000000	0.005843
2067.000000	0.005799
2066.000000	0.005736
2065.000000	0.005682
2064.000000	0.005655
2063.000000	0.005642
2062.000000	0.005620
2061.000000	0.005578
2060.000000	0.005529
2059.000000	0.005504
2058.000000	0.005522
2057.000000	0.005572
2056.000000	0.005620
2055.000000	0.005643
2054.000000	0.005645
2053.000000	0.005635
2052.000000	0.005618
2051.000000	0.005621
2050.000000	0.005678
2049.000000	0.005786
2048.000000	0.005874
2047.000000	0.005879
2046.000000	0.005816
2045.000000	0.005743
2044.000000	0.005682
2043.000000	0.005618
2042.000000	0.005548
2041.000000	0.005472
2040.000000	0.005365
2039.000000	0.005213
2038.000000	0.005065
2037.000000	0.005004
2036.000000	0.005050
2035.000000	0.005149
2034.000000	0.005240
2033.000000	0.005300
2032.000000	0.005311
2031.000000	0.005253
2030.000000	0.005136
2029.000000	0.005007
2028.000000	0.004918
2027.000000	0.004893
2026.000000	0.004930
2025.000000	0.004988
2024.000000	0.005012
2023.000000	0.004982
2022.000000	0.004934
2021.000000	0.004889
2020.000000	0.004812
2019.000000	0.004682
2018.000000	0.004571
2017.000000	0.004581
2016.000000	0.004715
2015.000000	0.004873
2014.000000	0.004982
2013.000000	0.005052
2012.000000	0.005116
2011.000000	0.005154
2010.000000	0.005103
2009.000000	0.004924
2008.000000	0.004665
2007.000000	0.004453
2006.000000	0.004396
2005.000000	0.004467
2004.000000	0.004549
2003.000000	0.004576
2002.000000	0.004597
2001.000000	0.004682
2000.000000	0.004816
1999.000000	0.004943
1998.000000	0.005047
1997.000000	0.005149
1996.000000	0.005247
1995.000000	0.005328
1994.000000	0.005401
1993.000000	0.005465
1992.000000	0.005485
1991.000000	0.005437
1990.000000	0.005365
1989.000000	0.005330
1988.000000	0.005326
1987.000000	0.005325
1986.000000	0.005351
1985.000000	0.005464
1984.000000	0.005661
1983.000000	0.005882
1982.000000	0.006080
1981.000000	0.006215
1980.000000	0.006215
1979.000000	0.006016
1978.000000	0.005671
1977.000000	0.005330
1976.000000	0.005089
1975.000000	0.004927
1974.000000	0.004803
1973.000000	0.004719
1972.000000	0.004671
1971.000000	0.004645
1970.000000	0.004650
1969.000000	0.004695
1968.000000	0.004747
1967.000000	0.004779
1966.000000	0.004844
1965.000000	0.005007
1964.000000	0.005217
1963.000000	0.005327
1962.000000	0.005259
1961.000000	0.005075
1960.000000	0.004896
1959.000000	0.004793
1958.000000	0.004772
1957.000000	0.004804
1956.000000	0.004845
1955.000000	0.004873
1954.000000	0.004906
1953.000000	0.004970
1952.000000	0.005051
1951.000000	0.005106
1950.000000	0.005120
1949.000000	0.005118
1948.000000	0.005132
1947.000000	0.005185
1946.000000	0.005278
1945.000000	0.005364
1944.000000	0.005368
1943.000000	0.005269
1942.000000	0.005154
1941.000000	0.005120
1940.000000	0.005158
1939.000000	0.005200
1938.000000	0.005226
1937.000000	0.005267
1936.000000	0.005322
1935.000000	0.005348
1934.000000	0.005336
1933.000000	0.005322
1932.000000	0.005320
1931.000000	0.005304
1930.000000	0.005269
1929.000000	0.005255
1928.000000	0.005277
1927.000000	0.005290
1926.000000	0.005250
1925.000000	0.005175
1924.000000	0.005128
1923.000000	0.005142
1922.000000	0.005200
1921.000000	0.005263
1920.000000	0.005291
1919.000000	0.005264
1918.000000	0.005193
1917.000000	0.005115
1916.000000	0.005052
1915.000000	0.005008
1914.000000	0.004993
1913.000000	0.005035
1912.000000	0.005135
1911.000000	0.005257
1910.000000	0.005358
1909.000000	0.005414
1908.000000	0.005417
1907.000000	0.005376
1906.000000	0.005313
1905.000000	0.005264
1904.000000	0.005237
1903.000000	0.005212
1902.000000	0.005177
1901.000000	0.005142
1900.000000	0.005118
1899.000000	0.005104
1898.000000	0.005107
1897.000000	0.005136
1896.000000	0.005182
1895.000000	0.005210
1894.000000	0.005202
1893.000000	0.005180
1892.000000	0.005165
1891.000000	0.005158
1890.000000	0.005157
1889.000000	0.005168
1888.000000	0.005193
1887.000000	0.005203
1886.000000	0.005171
1885.000000	0.005112
1884.000000	0.005070
1883.000000	0.005075
1882.000000	0.005118
1881.000000	0.005168
1880.000000	0.005204
1879.000000	0.005220
1878.000000	0.005219
1877.000000	0.005202
1876.000000	0.005179
1875.000000	0.005163
1874.000000	0.005154
1873.000000	0.005135
1872.000000	0.005090
1871.000000	0.005019
1870.000000	0.004955
1869.000000	0.004932
1868.000000	0.004963
1867.000000	0.005036
1866.000000	0.005137
1865.000000	0.005238
1864.000000	0.005296
1863.000000	0.005285
1862.000000	0.005219
1861.000000	0.005136
1860.000000	0.005066
1859.000000	0.005016
1858.000000	0.004992
1857.000000	0.004993
1856.000000	0.005010
1855.000000	0.005026
1854.000000	0.005035
1853.000000	0.005031
1852.000000	0.005007
1851.000000	0.004972
1850.000000	0.004950
1849.000000	0.004951
1848.000000	0.004957
1847.000000	0.004957
1846.000000	0.004967
1845.000000	0.005005
1844.000000	0.005050
1843.000000	0.005063
1842.000000	0.005050
1841.000000	0.005043
1840.000000	0.005052
1839.000000	0.005054
1838.000000	0.005042
1837.000000	0.005033
1836.000000	0.005034
1835.000000	0.005022
1834.000000	0.004981
1833.000000	0.004921
1832.000000	0.004863
1831.000000	0.004826
1830.000000	0.004822
1829.000000	0.004841
1828.000000	0.004862
1827.000000	0.004874
1826.000000	0.004881
1825.000000	0.004894
1824.000000	0.004912
1823.000000	0.004930
1822.000000	0.004956
1821.000000	0.004989
1820.000000	0.005008
1819.000000	0.004998
1818.000000	0.004974
1817.000000	0.004971
1816.000000	0.004995
1815.000000	0.005021
1814.000000	0.005029
1813.000000	0.005019
1812.000000	0.004997
1811.000000	0.004961
1810.000000	0.004922
1809.000000	0.004899
1808.000000	0.004900
1807.000000	0.004908
1806.000000	0.004908
1805.000000	0.004905
1804.000000	0.004904
1803.000000	0.004903
1802.000000	0.004903
1801.000000	0.004906
1800.000000	0.004916
1799.000000	0.004934
1798.000000	0.004957
1797.000000	0.004974
1796.000000	0.004976
1795.000000	0.004968
1794.000000	0.004966
1793.000000	0.004973
1792.000000	0.004975
1791.000000	0.004954
1790.000000	0.004923
1789.000000	0.004907
1788.000000	0.004911
1787.000000	0.004919
1786.000000	0.004923
1785.000000	0.004922
1784.000000	0.004911
1783.000000	0.004883
1782.000000	0.004850
1781.000000	0.004821
1780.000000	0.004801
1779.000000	0.004786
1778.000000	0.004766
1777.000000	0.004731
1776.000000	0.004681
1775.000000	0.004639
1774.000000	0.004624
1773.000000	0.004623
1772.000000	0.004600
1771.000000	0.004552
1770.000000	0.004528
1769.000000	0.004561
1768.000000	0.004618
1767.000000	0.004636
1766.000000	0.004615
1765.000000	0.004596
1764.000000	0.004601
1763.000000	0.004605
1762.000000	0.004589
1761.000000	0.004568
1760.000000	0.004565
1759.000000	0.004592
1758.000000	0.004658
1757.000000	0.004757
1756.000000	0.004854
1755.000000	0.004934
1754.000000	0.005027
1753.000000	0.005157
1752.000000	0.005288
1751.000000	0.005358
1750.000000	0.005365
1749.000000	0.005380
1748.000000	0.005431
1747.000000	0.005488
1746.000000	0.005529
1745.000000	0.005561
1744.000000	0.005583
1743.000000	0.005573
1742.000000	0.005536
1741.000000	0.005518
1740.000000	0.005530
1739.000000	0.005521
1738.000000	0.005473
1737.000000	0.005435
1736.000000	0.005445
1735.000000	0.005459
1734.000000	0.005426
1733.000000	0.005348
1732.000000	0.005245
1731.000000	0.005138
1730.000000	0.005043
1729.000000	0.004969
1728.000000	0.004911
1727.000000	0.004862
1726.000000	0.004822
1725.000000	0.004795
1724.000000	0.004775
1723.000000	0.004729
1722.000000	0.004648
1721.000000	0.004572
1720.000000	0.004540
1719.000000	0.004537
1718.000000	0.004534
1717.000000	0.004539
1716.000000	0.004570
1715.000000	0.004619
1714.000000	0.004694
1713.000000	0.004820
1712.000000	0.004995
1711.000000	0.005185
1710.000000	0.005368
1709.000000	0.005543
1708.000000	0.005724
1707.000000	0.005940
1706.000000	0.006209
1705.000000	0.006511
1704.000000	0.006802
1703.000000	0.007096
1702.000000	0.007452
1701.000000	0.007915
1700.000000	0.008421
1699.000000	0.008847
1698.000000	0.009240
1697.000000	0.009741
1696.000000	0.010338
1695.000000	0.010866
1694.000000	0.011246
1693.000000	0.011575
1692.000000	0.011952
1691.000000	0.012369
1690.000000	0.012782
1689.000000	0.013177
1688.000000	0.013568
1687.000000	0.013980
1686.000000	0.014431
1685.000000	0.014961
1684.000000	0.015537
1683.000000	0.016054
1682.000000	0.016537
1681.000000	0.017077
1680.000000	0.017665
1679.000000	0.018223
1678.000000	0.018746
1677.000000	0.019315
1676.000000	0.019972
1675.000000	0.020649
1674.000000	0.021264
1673.000000	0.021841
1672.000000	0.022455
1671.000000	0.023129
1670.000000	0.023850
1669.000000	0.024595
1668.000000	0.025308
1667.000000	0.025938
1666.000000	0.026512
1665.000000	0.027105
1664.000000	0.027752
1663.000000	0.028405
1662.000000	0.029010
1661.000000	0.029573
1660.000000	0.030115
1659.000000	0.030613
1658.000000	0.031038
1657.000000	0.031425
1656.000000	0.031849
1655.000000	0.032321
1654.000000	0.032761
1653.000000	0.033124
1652.000000	0.033416
1651.000000	0.033606
1650.000000	0.033770
1649.000000	0.034015
1648.000000	0.034323
1647.000000	0.034602
1646.000000	0.034816
1645.000000	0.035012
1644.000000	0.035208
1643.000000	0.035393
1642.000000	0.035561
1641.000000	0.035701
1640.000000	0.035811
1639.000000	0.035915
1638.000000	0.036034
1637.000000	0.036154
1636.000000	0.036215
1635.000000	0.036200
1634.000000	0.036170
1633.000000	0.036180
1632.000000	0.036214
1631.000000	0.036201
1630.000000	0.036075
1629.000000	0.035834
1628.000000	0.035521
1627.000000	0.035183
1626.000000	0.034838
1625.000000	0.034461
1624.000000	0.034002
1623.000000	0.033440
1622.000000	0.032845
1621.000000	0.032308
1620.000000	0.031847
1619.000000	0.031390
1618.000000	0.030803
1617.000000	0.030015
1616.000000	0.029154
1615.000000	0.028407
1614.000000	0.027813
1613.000000	0.027298
1612.000000	0.026768
1611.000000	0.026183
1610.000000	0.025571
1609.000000	0.024974
1608.000000	0.024408
1607.000000	0.023882
1606.000000	0.023403
1605.000000	0.022953
1604.000000	0.022512
1603.000000	0.022086
1602.000000	0.021699
1601.000000	0.021358
1600.000000	0.021056
1599.000000	0.020783
1598.000000	0.020533
1597.000000	0.020297
1596.000000	0.020075
1595.000000	0.019887
1594.000000	0.019754
1593.000000	0.019668
1592.000000	0.019606
1591.000000	0.019561
1590.000000	0.019538
1589.000000	0.019536
1588.000000	0.019557
1587.000000	0.019606
1586.000000	0.019694
1585.000000	0.019810
1584.000000	0.019941
1583.000000	0.020098
1582.000000	0.020282
1581.000000	0.020473
1580.000000	0.020664
1579.000000	0.020896
1578.000000	0.021192
1577.000000	0.021498
1576.000000	0.021724
1575.000000	0.021864
1574.000000	0.021997
1573.000000	0.022193
1572.000000	0.022462
1571.000000	0.022773
1570.000000	0.023106
1569.000000	0.023453
1568.000000	0.023801
1567.000000	0.024161
1566.000000	0.024559
1565.000000	0.024991
1564.000000	0.025417
1563.000000	0.025820
1562.000000	0.026213
1561.000000	0.026578
1560.000000	0.026904
1559.000000	0.027250
1558.000000	0.027648
1557.000000	0.028080
1556.000000	0.028511
1555.000000	0.028921
1554.000000	0.029278
1553.000000	0.029574
1552.000000	0.029849
1551.000000	0.030137
1550.000000	0.030422
1549.000000	0.030680
1548.000000	0.030905
1547.000000	0.031105
1546.000000	0.031274
1545.000000	0.031398
1544.000000	0.031479
1543.000000	0.031533
1542.000000	0.031560
1541.000000	0.031557
1540.000000	0.031533
1539.000000	0.031521
1538.000000	0.031519
1537.000000	0.031512
1536.000000	0.031500
1535.000000	0.031434
1534.000000	0.031255
1533.000000	0.031006
1532.000000	0.030815
1531.000000	0.030706
1530.000000	0.030612
1529.000000	0.030489
1528.000000	0.030334
1527.000000	0.030152
1526.000000	0.029941
1525.000000	0.029724
1524.000000	0.029536
1523.000000	0.029350
1522.000000	0.029083
1521.000000	0.028724
1520.000000	0.028390
1519.000000	0.028154
1518.000000	0.027985
1517.000000	0.027812
1516.000000	0.027610
1515.000000	0.027409
1514.000000	0.027219
1513.000000	0.026993
1512.000000	0.026694
1511.000000	0.026342
1510.000000	0.026002
1509.000000	0.025689
1508.000000	0.025320
1507.000000	0.024808
1506.000000	0.024269
1505.000000	0.023882
1504.000000	0.023612
1503.000000	0.023379
1502.000000	0.023135
1501.000000	0.022844
1500.000000	0.022505
1499.000000	0.022151
1498.000000	0.021797
1497.000000	0.021442
1496.000000	0.021094
1495.000000	0.020764
1494.000000	0.020461
1493.000000	0.020183
1492.000000	0.019898
1491.000000	0.019576
1490.000000	0.019250
1489.000000	0.018999
1488.000000	0.018854
1487.000000	0.018766
1486.000000	0.018695
1485.000000	0.018648
1484.000000	0.018630
1483.000000	0.018633
1482.000000	0.018645
1481.000000	0.018682
1480.000000	0.018758
1479.000000	0.018870
1478.000000	0.019006
1477.000000	0.019169
1476.000000	0.019361
1475.000000	0.019570
1474.000000	0.019796
1473.000000	0.020057
1472.000000	0.020362
1471.000000	0.020686
1470.000000	0.021005
1469.000000	0.021311
1468.000000	0.021598
1467.000000	0.021855
1466.000000	0.022096
1465.000000	0.022342
1464.000000	0.022600
1463.000000	0.022856
1462.000000	0.023099
1461.000000	0.023336
1460.000000	0.023579
1459.000000	0.023852
1458.000000	0.024195
1457.000000	0.024622
1456.000000	0.025040
1455.000000	0.025359
1454.000000	0.025617
1453.000000	0.025867
1452.000000	0.026087
1451.000000	0.026235
1450.000000	0.026317
1449.000000	0.026366
1448.000000	0.026388
1447.000000	0.026381
1446.000000	0.026371
1445.000000	0.026359
1444.000000	0.026334
1443.000000	0.026281
1442.000000	0.026202
1441.000000	0.026105
1440.000000	0.025995
1439.000000	0.025873
1438.000000	0.025721
1437.000000	0.025525
1436.000000	0.025309
1435.000000	0.025125
1434.000000	0.024992
1433.000000	0.024890
1432.000000	0.024772
1431.000000	0.024621
1430.000000	0.024469
1429.000000	0.024355
1428.000000	0.024281
1427.000000	0.024232
1426.000000	0.024197
1425.000000	0.024156
1424.000000	0.024087
1423.000000	0.024009
1422.000000	0.023961
1421.000000	0.023948
1420.000000	0.023923
1419.000000	0.023852
1418.000000	0.023769
1417.000000	0.023721
1416.000000	0.023708
1415.000000	0.023701
1414.000000	0.023686
1413.000000	0.023669
1412.000000	0.023658
1411.000000	0.023646
1410.000000	0.023634
1409.000000	0.023634
1408.000000	0.023652
1407.000000	0.023681
1406.000000	0.023719
1405.000000	0.023758
1404.000000	0.023784
1403.000000	0.023783
1402.000000	0.023764
1401.000000	0.023734
1400.000000	0.023683
1399.000000	0.023594
1398.000000	0.023481
1397.000000	0.023368
1396.000000	0.023263
1395.000000	0.023156
1394.000000	0.023054
1393.000000	0.022963
1392.000000	0.022870
1391.000000	0.022763
1390.000000	0.022639
1389.000000	0.022501
1388.000000	0.022342
1387.000000	0.022161
1386.000000	0.021971
1385.000000	0.021789
1384.000000	0.021606
1383.000000	0.021409
1382.000000	0.021199
1381.000000	0.020993
1380.000000	0.020799
1379.000000	0.020613
1378.000000	0.020426
1377.000000	0.020228
1376.000000	0.020001
1375.000000	0.019737
1374.000000	0.019458
1373.000000	0.019207
1372.000000	0.018997
1371.000000	0.018809
1370.000000	0.018614
1369.000000	0.018395
1368.000000	0.018145
1367.000000	0.017870
1366.000000	0.017586
1365.000000	0.017307
1364.000000	0.017051
1363.000000	0.016837
1362.000000	0.016672
1361.000000	0.016550
1360.000000	0.016448
1359.000000	0.016352
1358.000000	0.016266
1357.000000	0.016198
1356.000000	0.016159
1355.000000	0.016154
1354.000000	0.016189
1353.000000	0.016266
1352.000000	0.016374
1351.000000	0.016500
1350.000000	0.016634
1349.000000	0.016776
1348.000000	0.016924
1347.000000	0.017074
1346.000000	0.017220
1345.000000	0.017368
1344.000000	0.017526
1343.000000	0.017696
1342.000000	0.017866
1341.000000	0.018021
1340.000000	0.018153
1339.000000	0.018261
1338.000000	0.018354
1337.000000	0.018432
1336.000000	0.018482
1335.000000	0.018487
1334.000000	0.018442
1333.000000	0.018358
1332.000000	0.018253
1331.000000	0.018136
1330.000000	0.018011
1329.000000	0.017876
1328.000000	0.017731
1327.000000	0.017578
1326.000000	0.017435
1325.000000	0.017319
1324.000000	0.017237
1323.000000	0.017181
1322.000000	0.017137
1321.000000	0.017097
1320.000000	0.017064
1319.000000	0.017033
1318.000000	0.016999
1317.000000	0.016957
1316.000000	0.016912
1315.000000	0.016863
1314.000000	0.016801
1313.000000	0.016715
1312.000000	0.016607
1311.000000	0.016488
1310.000000	0.016366
1309.000000	0.016242
1308.000000	0.016113
1307.000000	0.015986
1306.000000	0.015875
1305.000000	0.015784
1304.000000	0.015701
1303.000000	0.015613
1302.000000	0.015514
1301.000000	0.015411
1300.000000	0.015317
1299.000000	0.015237
1298.000000	0.015177
1297.000000	0.015140
1296.000000	0.015124
1295.000000	0.015120
1294.000000	0.015128
1293.000000	0.015149
1292.000000	0.015190
1291.000000	0.015250
1290.000000	0.015328
1289.000000	0.015423
1288.000000	0.015532
1287.000000	0.015643
1286.000000	0.015744
1285.000000	0.015836
1284.000000	0.015926
1283.000000	0.016015
1282.000000	0.016089
1281.000000	0.016135
1280.000000	0.016153
1279.000000	0.016160
1278.000000	0.016173
1277.000000	0.016194
1276.000000	0.016214
1275.000000	0.016220
1274.000000	0.016209
1273.000000	0.016195
1272.000000	0.016190
1271.000000	0.016199
1270.000000	0.016221
1269.000000	0.016259
1268.000000	0.016317
1267.000000	0.016392
1266.000000	0.016480
1265.000000	0.016580
1264.000000	0.016697
1263.000000	0.016826
1262.000000	0.016953
1261.000000	0.017064
1260.000000	0.017163
1259.000000	0.017264
1258.000000	0.017379
1257.000000	0.017508
1256.000000	0.017644
1255.000000	0.017782
1254.000000	0.017927
1253.000000	0.018088
1252.000000	0.018273
1251.000000	0.018470
1250.000000	0.018661
1249.000000	0.018838
1248.000000	0.019016
1247.000000	0.019213
1246.000000	0.019431
1245.000000	0.019649
1244.000000	0.019845
1243.000000	0.020012
1242.000000	0.020158
1241.000000	0.020294
1240.000000	0.020416
1239.000000	0.020513
1238.000000	0.020580
1237.000000	0.020612
1236.000000	0.020606
1235.000000	0.020560
1234.000000	0.020480
1233.000000	0.020368
1232.000000	0.020229
1231.000000	0.020064
1230.000000	0.019879
1229.000000	0.019669
1228.000000	0.019422
1227.000000	0.019130
1226.000000	0.018801
1225.000000	0.018455
1224.000000	0.018106
1223.000000	0.017754
1222.000000	0.017404
1221.000000	0.017064
1220.000000	0.016739
1219.000000	0.016432
1218.000000	0.016157
1217.000000	0.015936
1216.000000	0.015783
1215.000000	0.015685
1214.000000	0.015613
1213.000000	0.015548
1212.000000	0.015493
1211.000000	0.015467
1210.000000	0.015483
1209.000000	0.015538
1208.000000	0.015615
1207.000000	0.015698
1206.000000	0.015774
1205.000000	0.015840
1204.000000	0.015896
1203.000000	0.015934
1202.000000	0.015939
1201.000000	0.015893
1200.000000	0.015790
1199.000000	0.015641
1198.000000	0.015473
1197.000000	0.015308
1196.000000	0.015145
1195.000000	0.014971
1194.000000	0.014776
1193.000000	0.014565
1192.000000	0.014351
1191.000000	0.014145
1190.000000	0.013954
1189.000000	0.013781
1188.000000	0.013628
1187.000000	0.013489
1186.000000	0.013358
1185.000000	0.013232
1184.000000	0.013120
1183.000000	0.013034
1182.000000	0.012976
1181.000000	0.012936
1180.000000	0.012899
1179.000000	0.012861
1178.000000	0.012829
1177.000000	0.012810
1176.000000	0.012805
1175.000000	0.012810
1174.000000	0.012825
1173.000000	0.012854
1172.000000	0.012898
1171.000000	0.012953
1170.000000	0.013008
1169.000000	0.013060
1168.000000	0.013114
1167.000000	0.013180
1166.000000	0.013263
1165.000000	0.013357
1164.000000	0.013449
1163.000000	0.013527
1162.000000	0.013590
1161.000000	0.013631
1160.000000	0.013631
1159.000000	0.013576
1158.000000	0.013468
1157.000000	0.013336
1156.000000	0.013204
1155.000000	0.013074
1154.000000	0.012937
1153.000000	0.012789
1152.000000	0.012637
1151.000000	0.012481
1150.000000	0.012316
1149.000000	0.012141
1148.000000	0.011966
1147.000000	0.011803
1146.000000	0.011649
1145.000000	0.011488
1144.000000	0.011308
1143.000000	0.011120
1142.000000	0.010953
1141.000000	0.010830
1140.000000	0.010747
1139.000000	0.010680
1138.000000	0.010606
1137.000000	0.010522
1136.000000	0.010437
1135.000000	0.010357
1134.000000	0.010287
1133.000000	0.010236
1132.000000	0.010213
1131.000000	0.010212
1130.000000	0.010213
1129.000000	0.010207
1128.000000	0.010207
1127.000000	0.010223
1126.000000	0.010251
1125.000000	0.010281
1124.000000	0.010313
1123.000000	0.010345
1122.000000	0.010367
1121.000000	0.010369
1120.000000	0.010364
1119.000000	0.010377
1118.000000	0.010418
1117.000000	0.010481
1116.000000	0.010563
1115.000000	0.010669
1114.000000	0.010791
1113.000000	0.010909
1112.000000	0.011011
1111.000000	0.011102
1110.000000	0.011182
1109.000000	0.011240
1108.000000	0.011264
1107.000000	0.011262
1106.000000	0.011255
1105.000000	0.011262
1104.000000	0.011290
1103.000000	0.011340
1102.000000	0.011412
1101.000000	0.011501
1100.000000	0.011594
1099.000000	0.011675
1098.000000	0.011737
1097.000000	0.011784
1096.000000	0.011834
1095.000000	0.011907
1094.000000	0.012010
1093.000000	0.012140
1092.000000	0.012282
1091.000000	0.012426
1090.000000	0.012576
1089.000000	0.012746
1088.000000	0.012952
1087.000000	0.013186
1086.000000	0.013421
1085.000000	0.013630
1084.000000	0.013808
1083.000000	0.013957
1082.000000	0.014069
1081.000000	0.014127
1080.000000	0.014126
1079.000000	0.014079
1078.000000	0.014000
1077.000000	0.013892
1076.000000	0.013746
1075.000000	0.013566
1074.000000	0.013365
1073.000000	0.013162
1072.000000	0.012980
1071.000000	0.012842
1070.000000	0.012762
1069.000000	0.012737
1068.000000	0.012745
1067.000000	0.012771
1066.000000	0.012807
1065.000000	0.012854
1064.000000	0.012910
1063.000000	0.012972
1062.000000	0.013040
1061.000000	0.013106
1060.000000	0.013158
1059.000000	0.013180
1058.000000	0.013167
1057.000000	0.013134
1056.000000	0.013102
1055.000000	0.013084
1054.000000	0.013076
1053.000000	0.013069
1052.000000	0.013067
1051.000000	0.013083
1050.000000	0.013121
1049.000000	0.013173
1048.000000	0.013220
1047.000000	0.013249
1046.000000	0.013256
1045.000000	0.013240
1044.000000	0.013209
1043.000000	0.013184
1042.000000	0.013185
1041.000000	0.013225
1040.000000	0.013315
1039.000000	0.013463
1038.000000	0.013670
1037.000000	0.013915
1036.000000	0.014171
1035.000000	0.014417
1034.000000	0.014647
1033.000000	0.014860
1032.000000	0.015044
1031.000000	0.015187
1030.000000	0.015284
1029.000000	0.015341
1028.000000	0.015369
1027.000000	0.015387
1026.000000	0.015414
1025.000000	0.015457
1024.000000	0.015512
1023.000000	0.015574
1022.000000	0.015645
1021.000000	0.015728
1020.000000	0.015813
1019.000000	0.015889
1018.000000	0.015943
1017.000000	0.015959
1016.000000	0.015908
1015.000000	0.015769
1014.000000	0.015545
1013.000000	0.015265
1012.000000	0.014953
1011.000000	0.014626
1010.000000	0.014300
1009.000000	0.013983
1008.000000	0.013676
1007.000000	0.013368
1006.000000	0.013060
1005.000000	0.012762
1004.000000	0.012485
1003.000000	0.012237
1002.000000	0.012022
1001.000000	0.011838
1000.000000	0.011667
999.000000	0.011493
998.000000	0.011313
997.000000	0.011140
996.000000	0.010977
995.000000	0.010808
994.000000	0.010622
993.000000	0.010428
992.000000	0.010242
991.000000	0.010069
990.000000	0.009904
989.000000	0.009748
988.000000	0.009612
987.000000	0.009495
986.000000	0.009381
985.000000	0.009261
984.000000	0.009147
983.000000	0.009062
982.000000	0.009012
981.000000	0.008980
980.000000	0.008951
979.000000	0.008922
978.000000	0.008893
977.000000	0.008859
976.000000	0.008813
975.000000	0.008760
974.000000	0.008711
973.000000	0.008671
972.000000	0.008627
971.000000	0.008562
970.000000	0.008474
969.000000	0.008372
968.000000	0.008272
967.000000	0.008176
966.000000	0.008076
965.000000	0.007973
964.000000	0.007877
963.000000	0.007794
962.000000	0.007714
961.000000	0.007626
960.000000	0.007536
959.000000	0.007461
958.000000	0.007405
957.000000	0.007346
956.000000	0.007268
955.000000	0.007174
954.000000	0.007083
953.000000	0.007004
952.000000	0.006934
951.000000	0.006869
950.000000	0.006816
949.000000	0.006776
948.000000	0.006742
947.000000	0.006712
946.000000	0.006687
945.000000	0.006671
944.000000	0.006665
943.000000	0.006670
942.000000	0.006678
941.000000	0.006675
940.000000	0.006646
939.000000	0.006602
938.000000	0.006564
937.000000	0.006532
936.000000	0.006476
935.000000	0.006384
934.000000	0.006290
933.000000	0.006242
932.000000	0.006242
931.000000	0.006242
930.000000	0.006204
929.000000	0.006141
928.000000	0.006090
927.000000	0.006062
926.000000	0.006046
925.000000	0.006038
924.000000	0.006046
923.000000	0.006062
922.000000	0.006063
921.000000	0.006027
920.000000	0.005956
919.000000	0.005869
918.000000	0.005780
917.000000	0.005691
916.000000	0.005597
915.000000	0.005505
914.000000	0.005426
913.000000	0.005373
912.000000	0.005335
911.000000	0.005285
910.000000	0.005211
909.000000	0.005133
908.000000	0.005083
907.000000	0.005071
906.000000	0.005073
905.000000	0.005061
904.000000	0.005028
903.000000	0.004983
902.000000	0.004936
901.000000	0.004892
900.000000	0.004851
899.000000	0.004805
898.000000	0.004745
897.000000	0.004672
896.000000	0.004603
895.000000	0.004560
894.000000	0.004550
893.000000	0.004559
892.000000	0.004568
891.000000	0.004560
890.000000	0.004539
889.000000	0.004529
888.000000	0.004564
887.000000	0.004669
886.000000	0.004843
885.000000	0.005071
884.000000	0.005336
883.000000	0.005627
882.000000	0.005945
881.000000	0.006318
880.000000	0.006774
879.000000	0.007299
878.000000	0.007815
877.000000	0.008224
876.000000	0.008462
875.000000	0.008512
874.000000	0.008377
873.000000	0.008074
872.000000	0.007647
871.000000	0.007171
870.000000	0.006718
869.000000	0.006331
868.000000	0.006030
867.000000	0.005818
866.000000	0.005677
865.000000	0.005574
864.000000	0.005478
863.000000	0.005383
862.000000	0.005305
861.000000	0.005251
860.000000	0.005216
859.000000	0.005190
858.000000	0.005169
857.000000	0.005157
856.000000	0.005150
855.000000	0.005149
854.000000	0.005155
853.000000	0.005166
852.000000	0.005172
851.000000	0.005165
850.000000	0.005149
849.000000	0.005133
848.000000	0.005111
847.000000	0.005057
846.000000	0.004964
845.000000	0.004865
844.000000	0.004807
843.000000	0.004798
842.000000	0.004803
841.000000	0.004785
840.000000	0.004745
839.000000	0.004708
838.000000	0.004689
837.000000	0.004680
836.000000	0.004668
835.000000	0.004648
834.000000	0.004625
833.000000	0.004600
832.000000	0.004577
831.000000	0.004559
830.000000	0.004546
829.000000	0.004536
828.000000	0.004530
827.000000	0.004529
826.000000	0.004543
825.000000	0.004577
824.000000	0.004630
823.000000	0.004694
822.000000	0.004751
821.000000	0.004782
820.000000	0.004777
819.000000	0.004734
818.000000	0.004673
817.000000	0.004622
816.000000	0.004602
815.000000	0.004606
814.000000	0.004618
813.000000	0.004624
812.000000	0.004624
811.000000	0.004617
810.000000	0.004599
809.000000	0.004574
808.000000	0.004563
807.000000	0.004581
806.000000	0.004617
805.000000	0.004636
804.000000	0.004606
803.000000	0.004535
802.000000	0.004475
801.000000	0.004481
800.000000	0.004562
799.000000	0.004671
798.000000	0.004753
797.000000	0.004793
796.000000	0.004819
795.000000	0.004850
794.000000	0.004878
793.000000	0.004892
792.000000	0.004901
791.000000	0.004917
790.000000	0.004932
789.000000	0.004933
788.000000	0.004927
787.000000	0.004931
786.000000	0.004945
785.000000	0.004951
784.000000	0.004939
783.000000	0.004927
782.000000	0.004935
781.000000	0.004964
780.000000	0.004992
779.000000	0.004997
778.000000	0.004969
777.000000	0.004920
776.000000	0.004873
775.000000	0.004856
774.000000	0.004883
773.000000	0.004939
772.000000	0.004990
771.000000	0.005013
770.000000	0.005019
769.000000	0.005043
768.000000	0.005098
767.000000	0.005155
766.000000	0.005167
765.000000	0.005130
764.000000	0.005087
763.000000	0.005092
762.000000	0.005149
761.000000	0.005216
760.000000	0.005256
759.000000	0.005270
758.000000	0.005288
757.000000	0.005334
756.000000	0.005395
755.000000	0.005439
754.000000	0.005449
753.000000	0.005436
752.000000	0.005422
751.000000	0.005419
750.000000	0.005426
749.000000	0.005436
748.000000	0.005447
747.000000	0.005457
746.000000	0.005466
745.000000	0.005481
744.000000	0.005509
743.000000	0.005543
742.000000	0.005578
741.000000	0.005623
740.000000	0.005690
739.000000	0.005769
738.000000	0.005831
737.000000	0.005865
736.000000	0.005895
735.000000	0.005951
734.000000	0.006028
733.000000	0.006095
732.000000	0.006136
731.000000	0.006164
730.000000	0.006206
729.000000	0.006272
728.000000	0.006354
727.000000	0.006441
726.000000	0.006534
725.000000	0.006644
724.000000	0.006769
723.000000	0.006882
722.000000	0.006961
721.000000	0.007021
720.000000	0.007092
719.000000	0.007190
718.000000	0.007306
717.000000	0.007438
716.000000	0.007601
715.000000	0.007795
714.000000	0.007984
713.000000	0.008120
712.000000	0.008184
711.000000	0.008197
710.000000	0.008197
709.000000	0.008218
708.000000	0.008271
707.000000	0.008337
706.000000	0.008392
705.000000	0.008446
704.000000	0.008515
703.000000	0.008593
702.000000	0.008636
701.000000	0.008622
700.000000	0.008585
699.000000	0.008574
698.000000	0.008598
697.000000	0.008638
696.000000	0.008683
695.000000	0.008750
694.000000	0.008833
693.000000	0.008895
692.000000	0.008912
691.000000	0.008903
690.000000	0.008901
689.000000	0.008930
688.000000	0.008987
687.000000	0.009067
686.000000	0.009153
685.000000	0.009221
684.000000	0.009265
683.000000	0.009290
682.000000	0.009309
681.000000	0.009338
680.000000	0.009403
679.000000	0.009496
678.000000	0.009553
677.000000	0.009547
676.000000	0.009539
675.000000	0.009621
674.000000	0.009801
673.000000	0.010010
672.000000	0.010193
671.000000	0.010350
670.000000	0.010467
669.000000	0.010480
668.000000	0.010448
667.000000	0.010459
666.000000	0.010362
665.000000	0.010295
664.000000	0.010342
663.000000	0.010418
662.000000	0.010439
661.000000	0.010401
660.000000	0.010343
659.000000	0.010277
658.000000	0.010195
657.000000	0.010130
656.000000	0.010106
655.000000	0.010104
654.000000	0.010101
653.000000	0.010110
652.000000	0.010143
651.000000	0.010196
650.000000	0.010270
649.000000	0.010369
648.000000	0.010456
647.000000	0.010472
646.000000	0.010414
645.000000	0.010339
644.000000	0.010286
643.000000	0.010251
642.000000	0.010224
641.000000	0.010204
640.000000	0.010168
639.000000	0.010088
638.000000	0.009988
637.000000	0.009928
636.000000	0.009916
635.000000	0.009902
634.000000	0.009866
633.000000	0.009850
632.000000	0.009886
631.000000	0.009938
630.000000	0.009966
629.000000	0.009979
628.000000	0.010010
627.000000	0.010064
626.000000	0.010126
625.000000	0.010184
624.000000	0.010232
623.000000	0.010261
622.000000	0.010272
621.000000	0.010276
620.000000	0.010272
619.000000	0.010256
618.000000	0.010240
617.000000	0.010243
616.000000	0.010261
615.000000	0.010276
614.000000	0.010295
613.000000	0.010339
612.000000	0.010401
611.000000	0.010450
610.000000	0.010472
609.000000	0.010470
608.000000	0.010434
607.000000	0.010355
606.000000	0.010267
605.000000	0.010221
604.000000	0.010215
603.000000	0.010194
602.000000	0.010129
601.000000	0.010041
600.000000	0.009958
599.000000	0.009891
598.000000	0.009859
597.000000	0.009872
596.000000	0.009891
595.000000	0.009853
594.000000	0.009752
593.000000	0.009655
592.000000	0.009620
591.000000	0.009635
590.000000	0.009664
589.000000	0.009693
588.000000	0.009715
587.000000	0.009712
586.000000	0.009690
585.000000	0.009687
584.000000	0.009741
583.000000	0.009847
582.000000	0.009966
581.000000	0.010043
580.000000	0.010023
579.000000	0.009892
578.000000	0.009713
577.000000	0.009575
576.000000	0.009513
575.000000	0.009517
574.000000	0.009605
573.000000	0.009816
572.000000	0.010113
571.000000	0.010377
570.000000	0.010511
569.000000	0.010529
568.000000	0.010500
567.000000	0.010483
566.000000	0.010523
565.000000	0.010638
564.000000	0.010769
563.000000	0.010818
562.000000	0.010772
561.000000	0.010726
560.000000	0.010762
559.000000	0.010848
558.000000	0.010902
557.000000	0.010885
556.000000	0.010806
555.000000	0.010692
554.000000	0.010593
553.000000	0.010557
552.000000	0.010571
551.000000	0.010566
550.000000	0.010497
549.000000	0.010384
548.000000	0.010264
547.000000	0.010173
546.000000	0.010173
545.000000	0.010284
544.000000	0.010410
543.000000	0.010425
542.000000	0.010346
541.000000	0.010301
540.000000	0.010317
539.000000	0.010273
538.000000	0.010121
537.000000	0.010006
536.000000	0.010077
535.000000	0.010297
534.000000	0.010528
533.000000	0.010694
532.000000	0.010779
531.000000	0.010756
530.000000	0.010634
529.000000	0.010498
528.000000	0.010408
527.000000	0.010314
526.000000	0.010158
525.000000	0.009984
524.000000	0.009864
523.000000	0.009783
522.000000	0.009695
521.000000	0.009596
520.000000	0.009457
519.000000	0.009188
518.000000	0.008772
517.000000	0.008372
516.000000	0.008171
515.000000	0.008180
514.000000	0.008282
513.000000	0.008390
512.000000	0.008463
511.000000	0.008456
510.000000	0.008368
509.000000	0.008289
508.000000	0.008295
507.000000	0.008333
506.000000	0.008295
505.000000	0.008155
504.000000	0.007953
503.000000	0.007722
502.000000	0.007529
501.000000	0.007487
500.000000	0.007606
499.000000	0.007712
498.000000	0.007629
497.000000	0.007379
496.000000	0.007133
495.000000	0.007012
494.000000	0.007042
493.000000	0.007194
492.000000	0.007363
491.000000	0.007362
490.000000	0.007105
489.000000	0.006766
488.000000	0.006596
487.000000	0.006629
486.000000	0.006698
485.000000	0.006688
484.000000	0.006647
483.000000	0.006643
482.000000	0.006673
481.000000	0.006733
480.000000	0.006806
479.000000	0.006805
478.000000	0.006644
477.000000	0.006385
476.000000	0.006181
475.000000	0.006096
474.000000	0.006098
473.000000	0.006184
472.000000	0.006369
471.000000	0.006552
470.000000	0.006602
469.000000	0.006567
468.000000	0.006599
467.000000	0.006711
466.000000	0.006758
465.000000	0.006691
464.000000	0.006615
463.000000	0.006564
462.000000	0.006378
461.000000	0.005921
460.000000	0.005310
459.000000	0.004847
458.000000	0.004784
457.000000	0.005090
456.000000	0.005434
455.000000	0.005507
454.000000	0.005288
453.000000	0.005008
452.000000	0.004873
451.000000	0.004787
450.000000	0.004475
