PE IR       SUBTECH     SPECTRUM    ASCII       PEDS        4.00        
   -1
3G-N10-C037_1.ASC
22/02/24
10:14:43.00
22/02/24
10:18:11.00
uco
Sample 037 By uco Date Thursday, February 24 2022
450.000000
#HDR
-1
-1
#GR
cm-1
A
1.0
0.0
4000.000000
-1.000000
3551
8
0.043232
0.004793
#DATA
4000.000000	0.005066
3999.000000	0.005068
3998.000000	0.005074
3997.000000	0.005076
3996.000000	0.005069
3995.000000	0.005058
3994.000000	0.005055
3993.000000	0.005066
3992.000000	0.005089
3991.000000	0.005113
3990.000000	0.005129
3989.000000	0.005135
3988.000000	0.005137
3987.000000	0.005141
3986.000000	0.005149
3985.000000	0.005158
3984.000000	0.005167
3983.000000	0.005171
3982.000000	0.005173
3981.000000	0.005175
3980.000000	0.005178
3979.000000	0.005182
3978.000000	0.005183
3977.000000	0.005181
3976.000000	0.005173
3975.000000	0.005162
3974.000000	0.005148
3973.000000	0.005134
3972.000000	0.005122
3971.000000	0.005114
3970.000000	0.005116
3969.000000	0.005133
3968.000000	0.005167
3967.000000	0.005211
3966.000000	0.005250
3965.000000	0.005270
3964.000000	0.005266
3963.000000	0.005246
3962.000000	0.005219
3961.000000	0.005192
3960.000000	0.005168
3959.000000	0.005151
3958.000000	0.005147
3957.000000	0.005163
3956.000000	0.005193
3955.000000	0.005224
3954.000000	0.005239
3953.000000	0.005233
3952.000000	0.005216
3951.000000	0.005204
3950.000000	0.005205
3949.000000	0.005218
3948.000000	0.005230
3947.000000	0.005231
3946.000000	0.005218
3945.000000	0.005195
3944.000000	0.005175
3943.000000	0.005169
3942.000000	0.005184
3941.000000	0.005215
3940.000000	0.005245
3939.000000	0.005258
3938.000000	0.005250
3937.000000	0.005228
3936.000000	0.005205
3935.000000	0.005193
3934.000000	0.005192
3933.000000	0.005195
3932.000000	0.005200
3931.000000	0.005207
3930.000000	0.005216
3929.000000	0.005226
3928.000000	0.005231
3927.000000	0.005231
3926.000000	0.005227
3925.000000	0.005222
3924.000000	0.005217
3923.000000	0.005211
3922.000000	0.005205
3921.000000	0.005198
3920.000000	0.005190
3919.000000	0.005183
3918.000000	0.005181
3917.000000	0.005185
3916.000000	0.005197
3915.000000	0.005214
3914.000000	0.005230
3913.000000	0.005235
3912.000000	0.005225
3911.000000	0.005207
3910.000000	0.005195
3909.000000	0.005198
3908.000000	0.005216
3907.000000	0.005241
3906.000000	0.005266
3905.000000	0.005287
3904.000000	0.005304
3903.000000	0.005319
3902.000000	0.005327
3901.000000	0.005322
3900.000000	0.005304
3899.000000	0.005283
3898.000000	0.005268
3897.000000	0.005265
3896.000000	0.005267
3895.000000	0.005269
3894.000000	0.005270
3893.000000	0.005274
3892.000000	0.005284
3891.000000	0.005296
3890.000000	0.005307
3889.000000	0.005314
3888.000000	0.005319
3887.000000	0.005319
3886.000000	0.005301
3885.000000	0.005266
3884.000000	0.005229
3883.000000	0.005206
3882.000000	0.005196
3881.000000	0.005191
3880.000000	0.005185
3879.000000	0.005180
3878.000000	0.005182
3877.000000	0.005192
3876.000000	0.005208
3875.000000	0.005219
3874.000000	0.005222
3873.000000	0.005220
3872.000000	0.005225
3871.000000	0.005237
3870.000000	0.005250
3869.000000	0.005261
3868.000000	0.005274
3867.000000	0.005298
3866.000000	0.005328
3865.000000	0.005342
3864.000000	0.005330
3863.000000	0.005302
3862.000000	0.005279
3861.000000	0.005276
3860.000000	0.005288
3859.000000	0.005298
3858.000000	0.005294
3857.000000	0.005276
3856.000000	0.005259
3855.000000	0.005256
3854.000000	0.005262
3853.000000	0.005263
3852.000000	0.005261
3851.000000	0.005262
3850.000000	0.005267
3849.000000	0.005275
3848.000000	0.005278
3847.000000	0.005272
3846.000000	0.005260
3845.000000	0.005251
3844.000000	0.005252
3843.000000	0.005263
3842.000000	0.005278
3841.000000	0.005294
3840.000000	0.005306
3839.000000	0.005310
3838.000000	0.005303
3837.000000	0.005284
3836.000000	0.005259
3835.000000	0.005235
3834.000000	0.005223
3833.000000	0.005227
3832.000000	0.005239
3831.000000	0.005248
3830.000000	0.005250
3829.000000	0.005251
3828.000000	0.005258
3827.000000	0.005271
3826.000000	0.005280
3825.000000	0.005283
3824.000000	0.005287
3823.000000	0.005298
3822.000000	0.005308
3821.000000	0.005302
3820.000000	0.005281
3819.000000	0.005258
3818.000000	0.005245
3817.000000	0.005240
3816.000000	0.005232
3815.000000	0.005217
3814.000000	0.005203
3813.000000	0.005205
3812.000000	0.005221
3811.000000	0.005241
3810.000000	0.005259
3809.000000	0.005277
3808.000000	0.005300
3807.000000	0.005324
3806.000000	0.005340
3805.000000	0.005342
3804.000000	0.005340
3803.000000	0.005337
3802.000000	0.005327
3801.000000	0.005305
3800.000000	0.005279
3799.000000	0.005258
3798.000000	0.005242
3797.000000	0.005225
3796.000000	0.005207
3795.000000	0.005191
3794.000000	0.005187
3793.000000	0.005196
3792.000000	0.005212
3791.000000	0.005220
3790.000000	0.005214
3789.000000	0.005196
3788.000000	0.005179
3787.000000	0.005173
3786.000000	0.005182
3785.000000	0.005195
3784.000000	0.005206
3783.000000	0.005213
3782.000000	0.005226
3781.000000	0.005246
3780.000000	0.005263
3779.000000	0.005264
3778.000000	0.005249
3777.000000	0.005222
3776.000000	0.005195
3775.000000	0.005174
3774.000000	0.005163
3773.000000	0.005162
3772.000000	0.005171
3771.000000	0.005181
3770.000000	0.005187
3769.000000	0.005188
3768.000000	0.005187
3767.000000	0.005184
3766.000000	0.005182
3765.000000	0.005183
3764.000000	0.005187
3763.000000	0.005196
3762.000000	0.005206
3761.000000	0.005206
3760.000000	0.005194
3759.000000	0.005178
3758.000000	0.005173
3757.000000	0.005177
3756.000000	0.005180
3755.000000	0.005172
3754.000000	0.005155
3753.000000	0.005139
3752.000000	0.005138
3751.000000	0.005164
3750.000000	0.005206
3749.000000	0.005232
3748.000000	0.005225
3747.000000	0.005202
3746.000000	0.005194
3745.000000	0.005210
3744.000000	0.005228
3743.000000	0.005223
3742.000000	0.005191
3741.000000	0.005146
3740.000000	0.005106
3739.000000	0.005086
3738.000000	0.005096
3737.000000	0.005119
3736.000000	0.005121
3735.000000	0.005086
3734.000000	0.005037
3733.000000	0.005012
3732.000000	0.005022
3731.000000	0.005050
3730.000000	0.005077
3729.000000	0.005098
3728.000000	0.005115
3727.000000	0.005131
3726.000000	0.005141
3725.000000	0.005145
3724.000000	0.005141
3723.000000	0.005126
3722.000000	0.005101
3721.000000	0.005073
3720.000000	0.005051
3719.000000	0.005041
3718.000000	0.005041
3717.000000	0.005045
3716.000000	0.005048
3715.000000	0.005056
3714.000000	0.005080
3713.000000	0.005122
3712.000000	0.005171
3711.000000	0.005206
3710.000000	0.005219
3709.000000	0.005208
3708.000000	0.005183
3707.000000	0.005158
3706.000000	0.005139
3705.000000	0.005129
3704.000000	0.005118
3703.000000	0.005094
3702.000000	0.005057
3701.000000	0.005023
3700.000000	0.005009
3699.000000	0.005022
3698.000000	0.005053
3697.000000	0.005085
3696.000000	0.005105
3695.000000	0.005116
3694.000000	0.005124
3693.000000	0.005133
3692.000000	0.005139
3691.000000	0.005142
3690.000000	0.005149
3689.000000	0.005164
3688.000000	0.005180
3687.000000	0.005185
3686.000000	0.005176
3685.000000	0.005163
3684.000000	0.005157
3683.000000	0.005163
3682.000000	0.005183
3681.000000	0.005216
3680.000000	0.005260
3679.000000	0.005316
3678.000000	0.005387
3677.000000	0.005462
3676.000000	0.005503
3675.000000	0.005488
3674.000000	0.005442
3673.000000	0.005404
3672.000000	0.005395
3671.000000	0.005403
3670.000000	0.005399
3669.000000	0.005376
3668.000000	0.005348
3667.000000	0.005330
3666.000000	0.005323
3665.000000	0.005320
3664.000000	0.005309
3663.000000	0.005286
3662.000000	0.005254
3661.000000	0.005225
3660.000000	0.005208
3659.000000	0.005209
3658.000000	0.005227
3657.000000	0.005251
3656.000000	0.005277
3655.000000	0.005311
3654.000000	0.005365
3653.000000	0.005439
3652.000000	0.005512
3651.000000	0.005544
3650.000000	0.005524
3649.000000	0.005486
3648.000000	0.005471
3647.000000	0.005476
3646.000000	0.005483
3645.000000	0.005485
3644.000000	0.005494
3643.000000	0.005514
3642.000000	0.005545
3641.000000	0.005584
3640.000000	0.005632
3639.000000	0.005690
3638.000000	0.005750
3637.000000	0.005801
3636.000000	0.005836
3635.000000	0.005853
3634.000000	0.005855
3633.000000	0.005856
3632.000000	0.005874
3631.000000	0.005914
3630.000000	0.005957
3629.000000	0.005971
3628.000000	0.005952
3627.000000	0.005921
3626.000000	0.005896
3625.000000	0.005886
3624.000000	0.005892
3623.000000	0.005909
3622.000000	0.005932
3621.000000	0.005959
3620.000000	0.005995
3619.000000	0.006040
3618.000000	0.006088
3617.000000	0.006130
3616.000000	0.006161
3615.000000	0.006186
3614.000000	0.006211
3613.000000	0.006240
3612.000000	0.006276
3611.000000	0.006320
3610.000000	0.006368
3609.000000	0.006404
3608.000000	0.006417
3607.000000	0.006412
3606.000000	0.006404
3605.000000	0.006407
3604.000000	0.006426
3603.000000	0.006456
3602.000000	0.006490
3601.000000	0.006523
3600.000000	0.006551
3599.000000	0.006579
3598.000000	0.006612
3597.000000	0.006647
3596.000000	0.006676
3595.000000	0.006691
3594.000000	0.006697
3593.000000	0.006711
3592.000000	0.006752
3591.000000	0.006822
3590.000000	0.006905
3589.000000	0.006976
3588.000000	0.007016
3587.000000	0.007034
3586.000000	0.007050
3585.000000	0.007070
3584.000000	0.007091
3583.000000	0.007112
3582.000000	0.007141
3581.000000	0.007182
3580.000000	0.007232
3579.000000	0.007281
3578.000000	0.007325
3577.000000	0.007368
3576.000000	0.007418
3575.000000	0.007478
3574.000000	0.007543
3573.000000	0.007602
3572.000000	0.007646
3571.000000	0.007679
3570.000000	0.007713
3569.000000	0.007754
3568.000000	0.007799
3567.000000	0.007841
3566.000000	0.007880
3565.000000	0.007916
3564.000000	0.007948
3563.000000	0.007974
3562.000000	0.008000
3561.000000	0.008031
3560.000000	0.008066
3559.000000	0.008098
3558.000000	0.008130
3557.000000	0.008168
3556.000000	0.008225
3555.000000	0.008301
3554.000000	0.008382
3553.000000	0.008448
3552.000000	0.008489
3551.000000	0.008509
3550.000000	0.008523
3549.000000	0.008547
3548.000000	0.008589
3547.000000	0.008652
3546.000000	0.008728
3545.000000	0.008803
3544.000000	0.008861
3543.000000	0.008895
3542.000000	0.008913
3541.000000	0.008923
3540.000000	0.008933
3539.000000	0.008944
3538.000000	0.008961
3537.000000	0.008989
3536.000000	0.009031
3535.000000	0.009079
3534.000000	0.009127
3533.000000	0.009172
3532.000000	0.009216
3531.000000	0.009264
3530.000000	0.009319
3529.000000	0.009384
3528.000000	0.009453
3527.000000	0.009517
3526.000000	0.009565
3525.000000	0.009597
3524.000000	0.009613
3523.000000	0.009621
3522.000000	0.009633
3521.000000	0.009661
3520.000000	0.009713
3519.000000	0.009780
3518.000000	0.009847
3517.000000	0.009897
3516.000000	0.009927
3515.000000	0.009943
3514.000000	0.009956
3513.000000	0.009974
3512.000000	0.010004
3511.000000	0.010054
3510.000000	0.010121
3509.000000	0.010193
3508.000000	0.010255
3507.000000	0.010300
3506.000000	0.010336
3505.000000	0.010372
3504.000000	0.010411
3503.000000	0.010443
3502.000000	0.010461
3501.000000	0.010467
3500.000000	0.010468
3499.000000	0.010473
3498.000000	0.010487
3497.000000	0.010510
3496.000000	0.010536
3495.000000	0.010565
3494.000000	0.010598
3493.000000	0.010642
3492.000000	0.010695
3491.000000	0.010749
3490.000000	0.010798
3489.000000	0.010839
3488.000000	0.010873
3487.000000	0.010908
3486.000000	0.010947
3485.000000	0.010988
3484.000000	0.011023
3483.000000	0.011045
3482.000000	0.011060
3481.000000	0.011079
3480.000000	0.011108
3479.000000	0.011140
3478.000000	0.011169
3477.000000	0.011196
3476.000000	0.011225
3475.000000	0.011260
3474.000000	0.011299
3473.000000	0.011337
3472.000000	0.011374
3471.000000	0.011409
3470.000000	0.011445
3469.000000	0.011483
3468.000000	0.011521
3467.000000	0.011559
3466.000000	0.011595
3465.000000	0.011630
3464.000000	0.011659
3463.000000	0.011680
3462.000000	0.011692
3461.000000	0.011697
3460.000000	0.011700
3459.000000	0.011710
3458.000000	0.011738
3457.000000	0.011790
3456.000000	0.011856
3455.000000	0.011919
3454.000000	0.011965
3453.000000	0.011991
3452.000000	0.012001
3451.000000	0.012004
3450.000000	0.012012
3449.000000	0.012036
3448.000000	0.012076
3447.000000	0.012124
3446.000000	0.012174
3445.000000	0.012222
3444.000000	0.012267
3443.000000	0.012299
3442.000000	0.012315
3441.000000	0.012318
3440.000000	0.012324
3439.000000	0.012345
3438.000000	0.012383
3437.000000	0.012431
3436.000000	0.012479
3435.000000	0.012519
3434.000000	0.012546
3433.000000	0.012564
3432.000000	0.012579
3431.000000	0.012605
3430.000000	0.012651
3429.000000	0.012714
3428.000000	0.012777
3427.000000	0.012824
3426.000000	0.012849
3425.000000	0.012865
3424.000000	0.012886
3423.000000	0.012917
3422.000000	0.012952
3421.000000	0.012987
3420.000000	0.013025
3419.000000	0.013068
3418.000000	0.013114
3417.000000	0.013161
3416.000000	0.013205
3415.000000	0.013246
3414.000000	0.013279
3413.000000	0.013300
3412.000000	0.013305
3411.000000	0.013303
3410.000000	0.013312
3409.000000	0.013350
3408.000000	0.013417
3407.000000	0.013492
3406.000000	0.013553
3405.000000	0.013592
3404.000000	0.013622
3403.000000	0.013652
3402.000000	0.013683
3401.000000	0.013708
3400.000000	0.013723
3399.000000	0.013734
3398.000000	0.013748
3397.000000	0.013774
3396.000000	0.013818
3395.000000	0.013873
3394.000000	0.013929
3393.000000	0.013978
3392.000000	0.014014
3391.000000	0.014033
3390.000000	0.014038
3389.000000	0.014041
3388.000000	0.014054
3387.000000	0.014083
3386.000000	0.014126
3385.000000	0.014177
3384.000000	0.014232
3383.000000	0.014290
3382.000000	0.014340
3381.000000	0.014373
3380.000000	0.014393
3379.000000	0.014413
3378.000000	0.014448
3377.000000	0.014500
3376.000000	0.014566
3375.000000	0.014637
3374.000000	0.014705
3373.000000	0.014762
3372.000000	0.014808
3371.000000	0.014852
3370.000000	0.014899
3369.000000	0.014951
3368.000000	0.015005
3367.000000	0.015062
3366.000000	0.015120
3365.000000	0.015174
3364.000000	0.015220
3363.000000	0.015259
3362.000000	0.015297
3361.000000	0.015335
3360.000000	0.015374
3359.000000	0.015414
3358.000000	0.015461
3357.000000	0.015521
3356.000000	0.015591
3355.000000	0.015667
3354.000000	0.015737
3353.000000	0.015796
3352.000000	0.015844
3351.000000	0.015890
3350.000000	0.015946
3349.000000	0.016018
3348.000000	0.016100
3347.000000	0.016183
3346.000000	0.016258
3345.000000	0.016319
3344.000000	0.016371
3343.000000	0.016420
3342.000000	0.016473
3341.000000	0.016531
3340.000000	0.016596
3339.000000	0.016666
3338.000000	0.016736
3337.000000	0.016797
3336.000000	0.016840
3335.000000	0.016868
3334.000000	0.016896
3333.000000	0.016936
3332.000000	0.016992
3331.000000	0.017057
3330.000000	0.017123
3329.000000	0.017184
3328.000000	0.017233
3327.000000	0.017274
3326.000000	0.017313
3325.000000	0.017359
3324.000000	0.017411
3323.000000	0.017468
3322.000000	0.017522
3321.000000	0.017570
3320.000000	0.017612
3319.000000	0.017656
3318.000000	0.017712
3317.000000	0.017780
3316.000000	0.017851
3315.000000	0.017908
3314.000000	0.017943
3313.000000	0.017956
3312.000000	0.017956
3311.000000	0.017950
3310.000000	0.017942
3309.000000	0.017933
3308.000000	0.017931
3307.000000	0.017946
3306.000000	0.017989
3305.000000	0.018059
3304.000000	0.018139
3303.000000	0.018207
3302.000000	0.018244
3301.000000	0.018254
3300.000000	0.018246
3299.000000	0.018234
3298.000000	0.018227
3297.000000	0.018228
3296.000000	0.018239
3295.000000	0.018258
3294.000000	0.018279
3293.000000	0.018297
3292.000000	0.018309
3291.000000	0.018315
3290.000000	0.018319
3289.000000	0.018326
3288.000000	0.018341
3287.000000	0.018365
3286.000000	0.018389
3285.000000	0.018401
3284.000000	0.018392
3283.000000	0.018364
3282.000000	0.018325
3281.000000	0.018288
3280.000000	0.018259
3279.000000	0.018243
3278.000000	0.018238
3277.000000	0.018236
3276.000000	0.018230
3275.000000	0.018216
3274.000000	0.018198
3273.000000	0.018182
3272.000000	0.018166
3271.000000	0.018150
3270.000000	0.018138
3269.000000	0.018134
3268.000000	0.018138
3267.000000	0.018142
3266.000000	0.018132
3265.000000	0.018101
3264.000000	0.018056
3263.000000	0.018013
3262.000000	0.017984
3261.000000	0.017967
3260.000000	0.017948
3259.000000	0.017918
3258.000000	0.017878
3257.000000	0.017838
3256.000000	0.017803
3255.000000	0.017768
3254.000000	0.017727
3253.000000	0.017681
3252.000000	0.017636
3251.000000	0.017598
3250.000000	0.017567
3249.000000	0.017539
3248.000000	0.017506
3247.000000	0.017469
3246.000000	0.017432
3245.000000	0.017400
3244.000000	0.017378
3243.000000	0.017362
3242.000000	0.017343
3241.000000	0.017310
3240.000000	0.017257
3239.000000	0.017196
3238.000000	0.017150
3237.000000	0.017132
3236.000000	0.017136
3235.000000	0.017140
3234.000000	0.017123
3233.000000	0.017078
3232.000000	0.017015
3231.000000	0.016949
3230.000000	0.016891
3229.000000	0.016848
3228.000000	0.016818
3227.000000	0.016799
3226.000000	0.016783
3225.000000	0.016765
3224.000000	0.016745
3223.000000	0.016726
3222.000000	0.016710
3221.000000	0.016690
3220.000000	0.016665
3219.000000	0.016640
3218.000000	0.016625
3217.000000	0.016626
3216.000000	0.016633
3215.000000	0.016630
3214.000000	0.016604
3213.000000	0.016552
3212.000000	0.016481
3211.000000	0.016406
3210.000000	0.016346
3209.000000	0.016310
3208.000000	0.016297
3207.000000	0.016295
3206.000000	0.016294
3205.000000	0.016283
3204.000000	0.016258
3203.000000	0.016214
3202.000000	0.016161
3201.000000	0.016115
3200.000000	0.016088
3199.000000	0.016075
3198.000000	0.016060
3197.000000	0.016030
3196.000000	0.015984
3195.000000	0.015936
3194.000000	0.015899
3193.000000	0.015871
3192.000000	0.015839
3191.000000	0.015789
3190.000000	0.015721
3189.000000	0.015652
3188.000000	0.015602
3187.000000	0.015577
3186.000000	0.015563
3185.000000	0.015538
3184.000000	0.015498
3183.000000	0.015455
3182.000000	0.015420
3181.000000	0.015392
3180.000000	0.015357
3179.000000	0.015302
3178.000000	0.015228
3177.000000	0.015148
3176.000000	0.015074
3175.000000	0.015012
3174.000000	0.014965
3173.000000	0.014932
3172.000000	0.014915
3171.000000	0.014912
3170.000000	0.014911
3169.000000	0.014894
3168.000000	0.014847
3167.000000	0.014777
3166.000000	0.014702
3165.000000	0.014639
3164.000000	0.014592
3163.000000	0.014556
3162.000000	0.014523
3161.000000	0.014491
3160.000000	0.014457
3159.000000	0.014415
3158.000000	0.014366
3157.000000	0.014310
3156.000000	0.014254
3155.000000	0.014203
3154.000000	0.014162
3153.000000	0.014134
3152.000000	0.014120
3151.000000	0.014110
3150.000000	0.014089
3149.000000	0.014045
3148.000000	0.013984
3147.000000	0.013926
3146.000000	0.013892
3145.000000	0.013884
3144.000000	0.013882
3143.000000	0.013863
3142.000000	0.013821
3141.000000	0.013765
3140.000000	0.013714
3139.000000	0.013677
3138.000000	0.013649
3137.000000	0.013622
3136.000000	0.013586
3135.000000	0.013543
3134.000000	0.013495
3133.000000	0.013449
3132.000000	0.013412
3131.000000	0.013392
3130.000000	0.013394
3129.000000	0.013412
3128.000000	0.013433
3127.000000	0.013443
3126.000000	0.013439
3125.000000	0.013423
3124.000000	0.013398
3123.000000	0.013365
3122.000000	0.013326
3121.000000	0.013285
3120.000000	0.013254
3119.000000	0.013241
3118.000000	0.013251
3117.000000	0.013281
3116.000000	0.013318
3115.000000	0.013348
3114.000000	0.013361
3113.000000	0.013358
3112.000000	0.013346
3111.000000	0.013335
3110.000000	0.013332
3109.000000	0.013337
3108.000000	0.013349
3107.000000	0.013363
3106.000000	0.013382
3105.000000	0.013411
3104.000000	0.013447
3103.000000	0.013479
3102.000000	0.013495
3101.000000	0.013488
3100.000000	0.013469
3099.000000	0.013457
3098.000000	0.013463
3097.000000	0.013487
3096.000000	0.013523
3095.000000	0.013565
3094.000000	0.013607
3093.000000	0.013643
3092.000000	0.013670
3091.000000	0.013689
3090.000000	0.013707
3089.000000	0.013726
3088.000000	0.013744
3087.000000	0.013754
3086.000000	0.013755
3085.000000	0.013750
3084.000000	0.013744
3083.000000	0.013739
3082.000000	0.013739
3081.000000	0.013746
3080.000000	0.013763
3079.000000	0.013792
3078.000000	0.013829
3077.000000	0.013863
3076.000000	0.013882
3075.000000	0.013878
3074.000000	0.013857
3073.000000	0.013829
3072.000000	0.013807
3071.000000	0.013794
3070.000000	0.013786
3069.000000	0.013778
3068.000000	0.013769
3067.000000	0.013764
3066.000000	0.013763
3065.000000	0.013762
3064.000000	0.013755
3063.000000	0.013741
3062.000000	0.013722
3061.000000	0.013699
3060.000000	0.013670
3059.000000	0.013633
3058.000000	0.013590
3057.000000	0.013545
3056.000000	0.013505
3055.000000	0.013473
3054.000000	0.013445
3053.000000	0.013411
3052.000000	0.013366
3051.000000	0.013317
3050.000000	0.013275
3049.000000	0.013247
3048.000000	0.013227
3047.000000	0.013205
3046.000000	0.013177
3045.000000	0.013144
3044.000000	0.013107
3043.000000	0.013064
3042.000000	0.013017
3041.000000	0.012970
3040.000000	0.012929
3039.000000	0.012895
3038.000000	0.012864
3037.000000	0.012832
3036.000000	0.012799
3035.000000	0.012770
3034.000000	0.012742
3033.000000	0.012711
3032.000000	0.012672
3031.000000	0.012626
3030.000000	0.012579
3029.000000	0.012529
3028.000000	0.012476
3027.000000	0.012422
3026.000000	0.012376
3025.000000	0.012341
3024.000000	0.012313
3023.000000	0.012284
3022.000000	0.012249
3021.000000	0.012213
3020.000000	0.012181
3019.000000	0.012158
3018.000000	0.012144
3017.000000	0.012132
3016.000000	0.012113
3015.000000	0.012087
3014.000000	0.012057
3013.000000	0.012026
3012.000000	0.011992
3011.000000	0.011954
3010.000000	0.011922
3009.000000	0.011906
3008.000000	0.011909
3007.000000	0.011923
3006.000000	0.011936
3005.000000	0.011941
3004.000000	0.011938
3003.000000	0.011936
3002.000000	0.011943
3001.000000	0.011960
3000.000000	0.011983
2999.000000	0.012007
2998.000000	0.012029
2997.000000	0.012047
2996.000000	0.012060
2995.000000	0.012077
2994.000000	0.012113
2993.000000	0.012173
2992.000000	0.012238
2991.000000	0.012285
2990.000000	0.012313
2989.000000	0.012339
2988.000000	0.012381
2987.000000	0.012435
2986.000000	0.012487
2985.000000	0.012533
2984.000000	0.012576
2983.000000	0.012622
2982.000000	0.012671
2981.000000	0.012720
2980.000000	0.012768
2979.000000	0.012813
2978.000000	0.012852
2977.000000	0.012884
2976.000000	0.012913
2975.000000	0.012945
2974.000000	0.012985
2973.000000	0.013028
2972.000000	0.013069
2971.000000	0.013108
2970.000000	0.013154
2969.000000	0.013211
2968.000000	0.013279
2967.000000	0.013349
2966.000000	0.013412
2965.000000	0.013472
2964.000000	0.013535
2963.000000	0.013606
2962.000000	0.013675
2961.000000	0.013728
2960.000000	0.013758
2959.000000	0.013769
2958.000000	0.013775
2957.000000	0.013788
2956.000000	0.013801
2955.000000	0.013806
2954.000000	0.013802
2953.000000	0.013796
2952.000000	0.013796
2951.000000	0.013800
2950.000000	0.013806
2949.000000	0.013820
2948.000000	0.013843
2947.000000	0.013875
2946.000000	0.013907
2945.000000	0.013936
2944.000000	0.013966
2943.000000	0.014003
2942.000000	0.014048
2941.000000	0.014098
2940.000000	0.014156
2939.000000	0.014221
2938.000000	0.014294
2937.000000	0.014368
2936.000000	0.014435
2935.000000	0.014492
2934.000000	0.014554
2933.000000	0.014641
2932.000000	0.014761
2931.000000	0.014888
2930.000000	0.014984
2929.000000	0.015028
2928.000000	0.015038
2927.000000	0.015052
2926.000000	0.015096
2925.000000	0.015165
2924.000000	0.015238
2923.000000	0.015297
2922.000000	0.015331
2921.000000	0.015336
2920.000000	0.015313
2919.000000	0.015261
2918.000000	0.015180
2917.000000	0.015071
2916.000000	0.014940
2915.000000	0.014796
2914.000000	0.014641
2913.000000	0.014469
2912.000000	0.014284
2911.000000	0.014100
2910.000000	0.013937
2909.000000	0.013805
2908.000000	0.013699
2907.000000	0.013608
2906.000000	0.013521
2905.000000	0.013434
2904.000000	0.013349
2903.000000	0.013267
2902.000000	0.013186
2901.000000	0.013109
2900.000000	0.013042
2899.000000	0.012996
2898.000000	0.012970
2897.000000	0.012951
2896.000000	0.012920
2895.000000	0.012873
2894.000000	0.012822
2893.000000	0.012781
2892.000000	0.012750
2891.000000	0.012722
2890.000000	0.012687
2889.000000	0.012644
2888.000000	0.012603
2887.000000	0.012577
2886.000000	0.012571
2885.000000	0.012583
2884.000000	0.012602
2883.000000	0.012623
2882.000000	0.012647
2881.000000	0.012675
2880.000000	0.012705
2879.000000	0.012731
2878.000000	0.012743
2877.000000	0.012739
2876.000000	0.012721
2875.000000	0.012700
2874.000000	0.012686
2873.000000	0.012677
2872.000000	0.012666
2871.000000	0.012643
2870.000000	0.012609
2869.000000	0.012572
2868.000000	0.012540
2867.000000	0.012516
2866.000000	0.012498
2865.000000	0.012485
2864.000000	0.012475
2863.000000	0.012469
2862.000000	0.012468
2861.000000	0.012470
2860.000000	0.012469
2859.000000	0.012462
2858.000000	0.012454
2857.000000	0.012454
2856.000000	0.012473
2855.000000	0.012515
2854.000000	0.012577
2853.000000	0.012646
2852.000000	0.012700
2851.000000	0.012716
2850.000000	0.012677
2849.000000	0.012579
2848.000000	0.012430
2847.000000	0.012253
2846.000000	0.012077
2845.000000	0.011927
2844.000000	0.011806
2843.000000	0.011701
2842.000000	0.011595
2841.000000	0.011491
2840.000000	0.011406
2839.000000	0.011353
2838.000000	0.011324
2837.000000	0.011296
2836.000000	0.011258
2835.000000	0.011214
2834.000000	0.011172
2833.000000	0.011142
2832.000000	0.011123
2831.000000	0.011115
2830.000000	0.011107
2829.000000	0.011088
2828.000000	0.011055
2827.000000	0.011012
2826.000000	0.010972
2825.000000	0.010945
2824.000000	0.010931
2823.000000	0.010923
2822.000000	0.010913
2821.000000	0.010895
2820.000000	0.010866
2819.000000	0.010835
2818.000000	0.010810
2817.000000	0.010793
2816.000000	0.010778
2815.000000	0.010756
2814.000000	0.010722
2813.000000	0.010683
2812.000000	0.010645
2811.000000	0.010615
2810.000000	0.010593
2809.000000	0.010581
2808.000000	0.010581
2807.000000	0.010590
2806.000000	0.010600
2805.000000	0.010600
2804.000000	0.010587
2803.000000	0.010567
2802.000000	0.010541
2801.000000	0.010512
2800.000000	0.010481
2799.000000	0.010457
2798.000000	0.010445
2797.000000	0.010437
2796.000000	0.010424
2795.000000	0.010407
2794.000000	0.010392
2793.000000	0.010382
2792.000000	0.010374
2791.000000	0.010367
2790.000000	0.010362
2789.000000	0.010354
2788.000000	0.010338
2787.000000	0.010316
2786.000000	0.010296
2785.000000	0.010283
2784.000000	0.010271
2783.000000	0.010254
2782.000000	0.010230
2781.000000	0.010201
2780.000000	0.010173
2779.000000	0.010151
2778.000000	0.010140
2777.000000	0.010141
2776.000000	0.010147
2775.000000	0.010150
2774.000000	0.010144
2773.000000	0.010130
2772.000000	0.010111
2771.000000	0.010094
2770.000000	0.010084
2769.000000	0.010079
2768.000000	0.010076
2767.000000	0.010073
2766.000000	0.010067
2765.000000	0.010049
2764.000000	0.010019
2763.000000	0.009986
2762.000000	0.009962
2761.000000	0.009945
2760.000000	0.009928
2759.000000	0.009906
2758.000000	0.009885
2757.000000	0.009873
2756.000000	0.009866
2755.000000	0.009856
2754.000000	0.009840
2753.000000	0.009823
2752.000000	0.009809
2751.000000	0.009799
2750.000000	0.009792
2749.000000	0.009786
2748.000000	0.009778
2747.000000	0.009768
2746.000000	0.009755
2745.000000	0.009737
2744.000000	0.009718
2743.000000	0.009701
2742.000000	0.009696
2741.000000	0.009702
2740.000000	0.009710
2739.000000	0.009711
2738.000000	0.009700
2737.000000	0.009677
2736.000000	0.009647
2735.000000	0.009617
2734.000000	0.009591
2733.000000	0.009571
2732.000000	0.009560
2731.000000	0.009558
2730.000000	0.009566
2729.000000	0.009579
2728.000000	0.009587
2727.000000	0.009581
2726.000000	0.009562
2725.000000	0.009535
2724.000000	0.009509
2723.000000	0.009489
2722.000000	0.009475
2721.000000	0.009467
2720.000000	0.009463
2719.000000	0.009462
2718.000000	0.009458
2717.000000	0.009444
2716.000000	0.009418
2715.000000	0.009384
2714.000000	0.009354
2713.000000	0.009340
2712.000000	0.009340
2711.000000	0.009348
2710.000000	0.009354
2709.000000	0.009352
2708.000000	0.009339
2707.000000	0.009319
2706.000000	0.009299
2705.000000	0.009288
2704.000000	0.009289
2703.000000	0.009298
2702.000000	0.009309
2701.000000	0.009309
2700.000000	0.009294
2699.000000	0.009271
2698.000000	0.009253
2697.000000	0.009245
2696.000000	0.009241
2695.000000	0.009237
2694.000000	0.009232
2693.000000	0.009228
2692.000000	0.009225
2691.000000	0.009221
2690.000000	0.009215
2689.000000	0.009211
2688.000000	0.009212
2687.000000	0.009220
2686.000000	0.009233
2685.000000	0.009247
2684.000000	0.009255
2683.000000	0.009251
2682.000000	0.009239
2681.000000	0.009224
2680.000000	0.009212
2679.000000	0.009204
2678.000000	0.009201
2677.000000	0.009199
2676.000000	0.009191
2675.000000	0.009176
2674.000000	0.009159
2673.000000	0.009141
2672.000000	0.009126
2671.000000	0.009116
2670.000000	0.009116
2669.000000	0.009123
2668.000000	0.009131
2667.000000	0.009134
2666.000000	0.009131
2665.000000	0.009127
2664.000000	0.009124
2663.000000	0.009122
2662.000000	0.009120
2661.000000	0.009114
2660.000000	0.009095
2659.000000	0.009063
2658.000000	0.009028
2657.000000	0.008999
2656.000000	0.008980
2655.000000	0.008964
2654.000000	0.008950
2653.000000	0.008937
2652.000000	0.008926
2651.000000	0.008911
2650.000000	0.008893
2649.000000	0.008877
2648.000000	0.008864
2647.000000	0.008850
2646.000000	0.008826
2645.000000	0.008791
2644.000000	0.008749
2643.000000	0.008710
2642.000000	0.008681
2641.000000	0.008662
2640.000000	0.008649
2639.000000	0.008638
2638.000000	0.008624
2637.000000	0.008603
2636.000000	0.008575
2635.000000	0.008544
2634.000000	0.008518
2633.000000	0.008498
2632.000000	0.008474
2631.000000	0.008443
2630.000000	0.008413
2629.000000	0.008393
2628.000000	0.008384
2627.000000	0.008378
2626.000000	0.008371
2625.000000	0.008371
2624.000000	0.008379
2623.000000	0.008384
2622.000000	0.008376
2621.000000	0.008354
2620.000000	0.008328
2619.000000	0.008302
2618.000000	0.008273
2617.000000	0.008239
2616.000000	0.008202
2615.000000	0.008166
2614.000000	0.008138
2613.000000	0.008117
2612.000000	0.008106
2611.000000	0.008103
2610.000000	0.008104
2609.000000	0.008100
2608.000000	0.008086
2607.000000	0.008070
2606.000000	0.008062
2605.000000	0.008063
2604.000000	0.008060
2603.000000	0.008044
2602.000000	0.008019
2601.000000	0.007995
2600.000000	0.007978
2599.000000	0.007962
2598.000000	0.007944
2597.000000	0.007927
2596.000000	0.007922
2595.000000	0.007930
2594.000000	0.007942
2593.000000	0.007937
2592.000000	0.007909
2591.000000	0.007875
2590.000000	0.007865
2589.000000	0.007887
2588.000000	0.007920
2587.000000	0.007940
2586.000000	0.007939
2585.000000	0.007928
2584.000000	0.007913
2583.000000	0.007894
2582.000000	0.007866
2581.000000	0.007824
2580.000000	0.007776
2579.000000	0.007741
2578.000000	0.007737
2577.000000	0.007764
2576.000000	0.007795
2575.000000	0.007803
2574.000000	0.007783
2573.000000	0.007751
2572.000000	0.007731
2571.000000	0.007734
2570.000000	0.007757
2569.000000	0.007786
2568.000000	0.007801
2567.000000	0.007789
2566.000000	0.007752
2565.000000	0.007701
2564.000000	0.007649
2563.000000	0.007616
2562.000000	0.007614
2561.000000	0.007640
2560.000000	0.007673
2559.000000	0.007696
2558.000000	0.007714
2557.000000	0.007731
2556.000000	0.007744
2555.000000	0.007741
2554.000000	0.007723
2553.000000	0.007693
2552.000000	0.007653
2551.000000	0.007606
2550.000000	0.007563
2549.000000	0.007535
2548.000000	0.007520
2547.000000	0.007505
2546.000000	0.007487
2545.000000	0.007469
2544.000000	0.007458
2543.000000	0.007458
2542.000000	0.007471
2541.000000	0.007494
2540.000000	0.007520
2539.000000	0.007547
2538.000000	0.007580
2537.000000	0.007609
2536.000000	0.007612
2535.000000	0.007581
2534.000000	0.007538
2533.000000	0.007512
2532.000000	0.007507
2531.000000	0.007502
2530.000000	0.007485
2529.000000	0.007460
2528.000000	0.007436
2527.000000	0.007417
2526.000000	0.007412
2525.000000	0.007429
2524.000000	0.007466
2523.000000	0.007511
2522.000000	0.007547
2521.000000	0.007560
2520.000000	0.007536
2519.000000	0.007476
2518.000000	0.007401
2517.000000	0.007347
2516.000000	0.007332
2515.000000	0.007355
2514.000000	0.007396
2513.000000	0.007431
2512.000000	0.007439
2511.000000	0.007415
2510.000000	0.007381
2509.000000	0.007365
2508.000000	0.007371
2507.000000	0.007390
2506.000000	0.007414
2505.000000	0.007450
2504.000000	0.007496
2503.000000	0.007534
2502.000000	0.007543
2501.000000	0.007526
2500.000000	0.007502
2499.000000	0.007492
2498.000000	0.007498
2497.000000	0.007502
2496.000000	0.007477
2495.000000	0.007415
2494.000000	0.007336
2493.000000	0.007271
2492.000000	0.007237
2491.000000	0.007231
2490.000000	0.007243
2489.000000	0.007272
2488.000000	0.007312
2487.000000	0.007346
2486.000000	0.007354
2485.000000	0.007333
2484.000000	0.007296
2483.000000	0.007264
2482.000000	0.007247
2481.000000	0.007243
2480.000000	0.007246
2479.000000	0.007257
2478.000000	0.007275
2477.000000	0.007300
2476.000000	0.007326
2475.000000	0.007349
2474.000000	0.007373
2473.000000	0.007397
2472.000000	0.007413
2471.000000	0.007412
2470.000000	0.007383
2469.000000	0.007326
2468.000000	0.007253
2467.000000	0.007189
2466.000000	0.007153
2465.000000	0.007142
2464.000000	0.007140
2463.000000	0.007144
2462.000000	0.007162
2461.000000	0.007197
2460.000000	0.007237
2459.000000	0.007275
2458.000000	0.007316
2457.000000	0.007358
2456.000000	0.007381
2455.000000	0.007371
2454.000000	0.007340
2453.000000	0.007312
2452.000000	0.007294
2451.000000	0.007278
2450.000000	0.007259
2449.000000	0.007236
2448.000000	0.007209
2447.000000	0.007188
2446.000000	0.007189
2445.000000	0.007209
2444.000000	0.007219
2443.000000	0.007200
2442.000000	0.007171
2441.000000	0.007166
2440.000000	0.007184
2439.000000	0.007194
2438.000000	0.007173
2437.000000	0.007136
2436.000000	0.007114
2435.000000	0.007125
2434.000000	0.007166
2433.000000	0.007219
2432.000000	0.007256
2431.000000	0.007258
2430.000000	0.007232
2429.000000	0.007196
2428.000000	0.007159
2427.000000	0.007125
2426.000000	0.007100
2425.000000	0.007094
2424.000000	0.007100
2423.000000	0.007104
2422.000000	0.007101
2421.000000	0.007105
2420.000000	0.007127
2419.000000	0.007159
2418.000000	0.007182
2417.000000	0.007181
2416.000000	0.007155
2415.000000	0.007124
2414.000000	0.007111
2413.000000	0.007132
2412.000000	0.007172
2411.000000	0.007206
2410.000000	0.007219
2409.000000	0.007220
2408.000000	0.007215
2407.000000	0.007203
2406.000000	0.007181
2405.000000	0.007152
2404.000000	0.007128
2403.000000	0.007119
2402.000000	0.007132
2401.000000	0.007158
2400.000000	0.007170
2399.000000	0.007149
2398.000000	0.007096
2397.000000	0.007039
2396.000000	0.007005
2395.000000	0.007015
2394.000000	0.007076
2393.000000	0.007164
2392.000000	0.007235
2391.000000	0.007245
2390.000000	0.007196
2389.000000	0.007132
2388.000000	0.007098
2387.000000	0.007107
2386.000000	0.007138
2385.000000	0.007168
2384.000000	0.007183
2383.000000	0.007186
2382.000000	0.007177
2381.000000	0.007155
2380.000000	0.007118
2379.000000	0.007083
2378.000000	0.007078
2377.000000	0.007113
2376.000000	0.007164
2375.000000	0.007197
2374.000000	0.007203
2373.000000	0.007193
2372.000000	0.007169
2371.000000	0.007127
2370.000000	0.007079
2369.000000	0.007049
2368.000000	0.007047
2367.000000	0.007063
2366.000000	0.007087
2365.000000	0.007112
2364.000000	0.007136
2363.000000	0.007164
2362.000000	0.007214
2361.000000	0.007284
2360.000000	0.007354
2359.000000	0.007390
2358.000000	0.007370
2357.000000	0.007307
2356.000000	0.007241
2355.000000	0.007215
2354.000000	0.007217
2353.000000	0.007201
2352.000000	0.007163
2351.000000	0.007143
2350.000000	0.007170
2349.000000	0.007232
2348.000000	0.007292
2347.000000	0.007312
2346.000000	0.007289
2345.000000	0.007280
2344.000000	0.007325
2343.000000	0.007397
2342.000000	0.007425
2341.000000	0.007380
2340.000000	0.007305
2339.000000	0.007260
2338.000000	0.007253
2337.000000	0.007242
2336.000000	0.007199
2335.000000	0.007133
2334.000000	0.007075
2333.000000	0.007043
2332.000000	0.007054
2331.000000	0.007101
2330.000000	0.007169
2329.000000	0.007233
2328.000000	0.007294
2327.000000	0.007351
2326.000000	0.007398
2325.000000	0.007408
2324.000000	0.007366
2323.000000	0.007289
2322.000000	0.007225
2321.000000	0.007214
2320.000000	0.007262
2319.000000	0.007339
2318.000000	0.007416
2317.000000	0.007469
2316.000000	0.007481
2315.000000	0.007434
2314.000000	0.007335
2313.000000	0.007214
2312.000000	0.007113
2311.000000	0.007049
2310.000000	0.007022
2309.000000	0.007014
2308.000000	0.007003
2307.000000	0.006971
2306.000000	0.006926
2305.000000	0.006903
2304.000000	0.006933
2303.000000	0.006997
2302.000000	0.007047
2301.000000	0.007048
2300.000000	0.007006
2299.000000	0.006952
2298.000000	0.006922
2297.000000	0.006929
2296.000000	0.006968
2295.000000	0.007019
2294.000000	0.007064
2293.000000	0.007087
2292.000000	0.007078
2291.000000	0.007034
2290.000000	0.006973
2289.000000	0.006933
2288.000000	0.006943
2287.000000	0.006999
2286.000000	0.007061
2285.000000	0.007097
2284.000000	0.007103
2283.000000	0.007096
2282.000000	0.007090
2281.000000	0.007079
2280.000000	0.007048
2279.000000	0.006994
2278.000000	0.006931
2277.000000	0.006873
2276.000000	0.006827
2275.000000	0.006796
2274.000000	0.006782
2273.000000	0.006790
2272.000000	0.006810
2271.000000	0.006828
2270.000000	0.006836
2269.000000	0.006833
2268.000000	0.006825
2267.000000	0.006814
2266.000000	0.006803
2265.000000	0.006782
2264.000000	0.006739
2263.000000	0.006673
2262.000000	0.006606
2261.000000	0.006568
2260.000000	0.006564
2259.000000	0.006565
2258.000000	0.006540
2257.000000	0.006478
2256.000000	0.006398
2255.000000	0.006334
2254.000000	0.006315
2253.000000	0.006347
2252.000000	0.006405
2251.000000	0.006449
2250.000000	0.006450
2249.000000	0.006412
2248.000000	0.006366
2247.000000	0.006342
2246.000000	0.006347
2245.000000	0.006357
2244.000000	0.006348
2243.000000	0.006323
2242.000000	0.006301
2241.000000	0.006293
2240.000000	0.006307
2239.000000	0.006363
2238.000000	0.006482
2237.000000	0.006638
2236.000000	0.006746
2235.000000	0.006733
2234.000000	0.006607
2233.000000	0.006453
2232.000000	0.006358
2231.000000	0.006357
2230.000000	0.006421
2229.000000	0.006479
2228.000000	0.006470
2227.000000	0.006389
2226.000000	0.006289
2225.000000	0.006227
2224.000000	0.006228
2223.000000	0.006293
2222.000000	0.006412
2221.000000	0.006539
2220.000000	0.006589
2219.000000	0.006517
2218.000000	0.006376
2217.000000	0.006288
2216.000000	0.006330
2215.000000	0.006484
2214.000000	0.006658
2213.000000	0.006745
2212.000000	0.006691
2211.000000	0.006534
2210.000000	0.006374
2209.000000	0.006273
2208.000000	0.006213
2207.000000	0.006169
2206.000000	0.006177
2205.000000	0.006270
2204.000000	0.006384
2203.000000	0.006410
2202.000000	0.006326
2201.000000	0.006209
2200.000000	0.006125
2199.000000	0.006070
2198.000000	0.006031
2197.000000	0.006034
2196.000000	0.006107
2195.000000	0.006228
2194.000000	0.006341
2193.000000	0.006391
2192.000000	0.006355
2191.000000	0.006261
2190.000000	0.006166
2189.000000	0.006107
2188.000000	0.006063
2187.000000	0.006017
2186.000000	0.006019
2185.000000	0.006118
2184.000000	0.006254
2183.000000	0.006301
2182.000000	0.006233
2181.000000	0.006163
2180.000000	0.006188
2179.000000	0.006265
2178.000000	0.006285
2177.000000	0.006212
2176.000000	0.006095
2175.000000	0.006000
2174.000000	0.005956
2173.000000	0.005962
2172.000000	0.006011
2171.000000	0.006100
2170.000000	0.006217
2169.000000	0.006306
2168.000000	0.006285
2167.000000	0.006139
2166.000000	0.005967
2165.000000	0.005883
2164.000000	0.005881
2163.000000	0.005866
2162.000000	0.005786
2161.000000	0.005667
2160.000000	0.005521
2159.000000	0.005336
2158.000000	0.005159
2157.000000	0.005078
2156.000000	0.005081
2155.000000	0.005085
2154.000000	0.005073
2153.000000	0.005120
2152.000000	0.005272
2151.000000	0.005487
2150.000000	0.005692
2149.000000	0.005844
2148.000000	0.005914
2147.000000	0.005893
2146.000000	0.005828
2145.000000	0.005798
2144.000000	0.005842
2143.000000	0.005924
2142.000000	0.005994
2141.000000	0.006023
2140.000000	0.005993
2139.000000	0.005892
2138.000000	0.005749
2137.000000	0.005622
2136.000000	0.005551
2135.000000	0.005539
2134.000000	0.005585
2133.000000	0.005690
2132.000000	0.005819
2131.000000	0.005904
2130.000000	0.005921
2129.000000	0.005915
2128.000000	0.005947
2127.000000	0.006032
2126.000000	0.006138
2125.000000	0.006238
2124.000000	0.006334
2123.000000	0.006440
2122.000000	0.006548
2121.000000	0.006622
2120.000000	0.006627
2119.000000	0.006563
2118.000000	0.006475
2117.000000	0.006417
2116.000000	0.006408
2115.000000	0.006438
2114.000000	0.006496
2113.000000	0.006576
2112.000000	0.006640
2111.000000	0.006633
2110.000000	0.006539
2109.000000	0.006408
2108.000000	0.006305
2107.000000	0.006253
2106.000000	0.006234
2105.000000	0.006222
2104.000000	0.006209
2103.000000	0.006204
2102.000000	0.006232
2101.000000	0.006323
2100.000000	0.006470
2099.000000	0.006619
2098.000000	0.006698
2097.000000	0.006671
2096.000000	0.006561
2095.000000	0.006429
2094.000000	0.006333
2093.000000	0.006297
2092.000000	0.006302
2091.000000	0.006324
2090.000000	0.006358
2089.000000	0.006403
2088.000000	0.006436
2087.000000	0.006434
2086.000000	0.006408
2085.000000	0.006391
2084.000000	0.006387
2083.000000	0.006367
2082.000000	0.006322
2081.000000	0.006286
2080.000000	0.006296
2079.000000	0.006337
2078.000000	0.006364
2077.000000	0.006346
2076.000000	0.006293
2075.000000	0.006239
2074.000000	0.006219
2073.000000	0.006250
2072.000000	0.006315
2071.000000	0.006377
2070.000000	0.006412
2069.000000	0.006428
2068.000000	0.006443
2067.000000	0.006445
2066.000000	0.006411
2065.000000	0.006344
2064.000000	0.006281
2063.000000	0.006252
2062.000000	0.006246
2061.000000	0.006227
2060.000000	0.006188
2059.000000	0.006149
2058.000000	0.006125
2057.000000	0.006094
2056.000000	0.006038
2055.000000	0.005977
2054.000000	0.005942
2053.000000	0.005923
2052.000000	0.005888
2051.000000	0.005855
2050.000000	0.005884
2049.000000	0.005973
2048.000000	0.006027
2047.000000	0.005979
2046.000000	0.005893
2045.000000	0.005868
2044.000000	0.005889
2043.000000	0.005862
2042.000000	0.005750
2041.000000	0.005599
2040.000000	0.005449
2039.000000	0.005308
2038.000000	0.005216
2037.000000	0.005243
2036.000000	0.005399
2035.000000	0.005595
2034.000000	0.005712
2033.000000	0.005669
2032.000000	0.005455
2031.000000	0.005160
2030.000000	0.004952
2029.000000	0.004952
2028.000000	0.005125
2027.000000	0.005333
2026.000000	0.005497
2025.000000	0.005617
2024.000000	0.005704
2023.000000	0.005744
2022.000000	0.005742
2021.000000	0.005699
2020.000000	0.005579
2019.000000	0.005362
2018.000000	0.005128
2017.000000	0.005024
2016.000000	0.005111
2015.000000	0.005316
2014.000000	0.005518
2013.000000	0.005629
2012.000000	0.005619
2011.000000	0.005522
2010.000000	0.005407
2009.000000	0.005299
2008.000000	0.005154
2007.000000	0.004953
2006.000000	0.004793
2005.000000	0.004796
2004.000000	0.004956
2003.000000	0.005154
2002.000000	0.005297
2001.000000	0.005356
2000.000000	0.005326
1999.000000	0.005236
1998.000000	0.005174
1997.000000	0.005234
1996.000000	0.005410
1995.000000	0.005602
1994.000000	0.005727
1993.000000	0.005771
1992.000000	0.005739
1991.000000	0.005627
1990.000000	0.005452
1989.000000	0.005277
1988.000000	0.005171
1987.000000	0.005183
1986.000000	0.005320
1985.000000	0.005545
1984.000000	0.005778
1983.000000	0.005976
1982.000000	0.006176
1981.000000	0.006409
1980.000000	0.006592
1979.000000	0.006569
1978.000000	0.006293
1977.000000	0.005885
1976.000000	0.005511
1975.000000	0.005245
1974.000000	0.005098
1973.000000	0.005079
1972.000000	0.005162
1971.000000	0.005282
1970.000000	0.005382
1969.000000	0.005431
1968.000000	0.005428
1967.000000	0.005400
1966.000000	0.005404
1965.000000	0.005474
1964.000000	0.005585
1963.000000	0.005685
1962.000000	0.005732
1961.000000	0.005700
1960.000000	0.005576
1959.000000	0.005410
1958.000000	0.005314
1957.000000	0.005356
1956.000000	0.005481
1955.000000	0.005585
1954.000000	0.005624
1953.000000	0.005619
1952.000000	0.005579
1951.000000	0.005500
1950.000000	0.005404
1949.000000	0.005346
1948.000000	0.005365
1947.000000	0.005468
1946.000000	0.005631
1945.000000	0.005790
1944.000000	0.005865
1943.000000	0.005830
1942.000000	0.005754
1941.000000	0.005709
1940.000000	0.005688
1939.000000	0.005656
1938.000000	0.005638
1937.000000	0.005686
1936.000000	0.005778
1935.000000	0.005837
1934.000000	0.005831
1933.000000	0.005787
1932.000000	0.005724
1931.000000	0.005628
1930.000000	0.005515
1929.000000	0.005451
1928.000000	0.005479
1927.000000	0.005571
1926.000000	0.005663
1925.000000	0.005711
1924.000000	0.005705
1923.000000	0.005671
1922.000000	0.005653
1921.000000	0.005670
1920.000000	0.005688
1919.000000	0.005656
1918.000000	0.005568
1917.000000	0.005479
1916.000000	0.005437
1915.000000	0.005451
1914.000000	0.005517
1913.000000	0.005624
1912.000000	0.005735
1911.000000	0.005808
1910.000000	0.005837
1909.000000	0.005844
1908.000000	0.005830
1907.000000	0.005789
1906.000000	0.005738
1905.000000	0.005722
1904.000000	0.005748
1903.000000	0.005766
1902.000000	0.005730
1901.000000	0.005655
1900.000000	0.005587
1899.000000	0.005560
1898.000000	0.005568
1897.000000	0.005585
1896.000000	0.005587
1895.000000	0.005571
1894.000000	0.005567
1893.000000	0.005606
1892.000000	0.005675
1891.000000	0.005733
1890.000000	0.005747
1889.000000	0.005731
1888.000000	0.005712
1887.000000	0.005689
1886.000000	0.005643
1885.000000	0.005568
1884.000000	0.005489
1883.000000	0.005453
1882.000000	0.005486
1881.000000	0.005570
1880.000000	0.005647
1879.000000	0.005674
1878.000000	0.005660
1877.000000	0.005636
1876.000000	0.005622
1875.000000	0.005619
1874.000000	0.005626
1873.000000	0.005643
1872.000000	0.005646
1871.000000	0.005605
1870.000000	0.005515
1869.000000	0.005418
1868.000000	0.005374
1867.000000	0.005411
1866.000000	0.005508
1865.000000	0.005618
1864.000000	0.005688
1863.000000	0.005696
1862.000000	0.005661
1861.000000	0.005618
1860.000000	0.005578
1859.000000	0.005531
1858.000000	0.005482
1857.000000	0.005447
1856.000000	0.005427
1855.000000	0.005408
1854.000000	0.005386
1853.000000	0.005372
1852.000000	0.005369
1851.000000	0.005380
1850.000000	0.005406
1849.000000	0.005432
1848.000000	0.005436
1847.000000	0.005418
1846.000000	0.005418
1845.000000	0.005461
1844.000000	0.005521
1843.000000	0.005543
1842.000000	0.005521
1841.000000	0.005483
1840.000000	0.005444
1839.000000	0.005402
1838.000000	0.005371
1837.000000	0.005378
1836.000000	0.005423
1835.000000	0.005468
1834.000000	0.005480
1833.000000	0.005460
1832.000000	0.005424
1831.000000	0.005388
1830.000000	0.005359
1829.000000	0.005342
1828.000000	0.005344
1827.000000	0.005365
1826.000000	0.005401
1825.000000	0.005432
1824.000000	0.005432
1823.000000	0.005411
1822.000000	0.005402
1821.000000	0.005420
1820.000000	0.005444
1819.000000	0.005446
1818.000000	0.005429
1817.000000	0.005414
1816.000000	0.005408
1815.000000	0.005409
1814.000000	0.005423
1813.000000	0.005443
1812.000000	0.005440
1811.000000	0.005399
1810.000000	0.005354
1809.000000	0.005350
1808.000000	0.005385
1807.000000	0.005419
1806.000000	0.005428
1805.000000	0.005419
1804.000000	0.005403
1803.000000	0.005385
1802.000000	0.005374
1801.000000	0.005378
1800.000000	0.005391
1799.000000	0.005401
1798.000000	0.005409
1797.000000	0.005420
1796.000000	0.005429
1795.000000	0.005434
1794.000000	0.005443
1793.000000	0.005451
1792.000000	0.005434
1791.000000	0.005386
1790.000000	0.005342
1789.000000	0.005329
1788.000000	0.005337
1787.000000	0.005339
1786.000000	0.005333
1785.000000	0.005334
1784.000000	0.005341
1783.000000	0.005341
1782.000000	0.005335
1781.000000	0.005330
1780.000000	0.005323
1779.000000	0.005308
1778.000000	0.005292
1777.000000	0.005279
1776.000000	0.005257
1775.000000	0.005218
1774.000000	0.005172
1773.000000	0.005125
1772.000000	0.005063
1771.000000	0.004999
1770.000000	0.004971
1769.000000	0.005005
1768.000000	0.005066
1767.000000	0.005092
1766.000000	0.005077
1765.000000	0.005057
1764.000000	0.005057
1763.000000	0.005057
1762.000000	0.005043
1761.000000	0.005029
1760.000000	0.005030
1759.000000	0.005047
1758.000000	0.005088
1757.000000	0.005163
1756.000000	0.005251
1755.000000	0.005334
1754.000000	0.005428
1753.000000	0.005558
1752.000000	0.005700
1751.000000	0.005787
1750.000000	0.005807
1749.000000	0.005815
1748.000000	0.005839
1747.000000	0.005863
1746.000000	0.005890
1745.000000	0.005932
1744.000000	0.005970
1743.000000	0.005965
1742.000000	0.005925
1741.000000	0.005901
1740.000000	0.005899
1739.000000	0.005866
1738.000000	0.005789
1737.000000	0.005727
1736.000000	0.005712
1735.000000	0.005698
1734.000000	0.005620
1733.000000	0.005516
1732.000000	0.005444
1731.000000	0.005397
1730.000000	0.005358
1729.000000	0.005325
1728.000000	0.005291
1727.000000	0.005246
1726.000000	0.005200
1725.000000	0.005173
1724.000000	0.005164
1723.000000	0.005139
1722.000000	0.005091
1721.000000	0.005055
1720.000000	0.005049
1719.000000	0.005038
1718.000000	0.004993
1717.000000	0.004967
1716.000000	0.005010
1715.000000	0.005099
1714.000000	0.005218
1713.000000	0.005391
1712.000000	0.005620
1711.000000	0.005870
1710.000000	0.006120
1709.000000	0.006379
1708.000000	0.006654
1707.000000	0.006954
1706.000000	0.007287
1705.000000	0.007645
1704.000000	0.007989
1703.000000	0.008330
1702.000000	0.008759
1701.000000	0.009347
1700.000000	0.009954
1699.000000	0.010393
1698.000000	0.010764
1697.000000	0.011284
1696.000000	0.011997
1695.000000	0.012710
1694.000000	0.013270
1693.000000	0.013741
1692.000000	0.014224
1691.000000	0.014732
1690.000000	0.015226
1689.000000	0.015679
1688.000000	0.016087
1687.000000	0.016487
1686.000000	0.016976
1685.000000	0.017651
1684.000000	0.018430
1683.000000	0.019106
1682.000000	0.019685
1681.000000	0.020300
1680.000000	0.020969
1679.000000	0.021610
1678.000000	0.022204
1677.000000	0.022858
1676.000000	0.023653
1675.000000	0.024486
1674.000000	0.025208
1673.000000	0.025841
1672.000000	0.026514
1671.000000	0.027305
1670.000000	0.028206
1669.000000	0.029137
1668.000000	0.029982
1667.000000	0.030682
1666.000000	0.031295
1665.000000	0.031941
1664.000000	0.032690
1663.000000	0.033482
1662.000000	0.034214
1661.000000	0.034863
1660.000000	0.035468
1659.000000	0.036031
1658.000000	0.036510
1657.000000	0.036892
1656.000000	0.037224
1655.000000	0.037599
1654.000000	0.038131
1653.000000	0.038821
1652.000000	0.039416
1651.000000	0.039753
1650.000000	0.039953
1649.000000	0.040195
1648.000000	0.040544
1647.000000	0.040943
1646.000000	0.041296
1645.000000	0.041587
1644.000000	0.041833
1643.000000	0.042040
1642.000000	0.042223
1641.000000	0.042393
1640.000000	0.042531
1639.000000	0.042620
1638.000000	0.042691
1637.000000	0.042816
1636.000000	0.043006
1635.000000	0.043169
1634.000000	0.043232
1633.000000	0.043231
1632.000000	0.043206
1631.000000	0.043137
1630.000000	0.042987
1629.000000	0.042750
1628.000000	0.042446
1627.000000	0.042084
1626.000000	0.041664
1625.000000	0.041184
1624.000000	0.040631
1623.000000	0.039996
1622.000000	0.039320
1621.000000	0.038659
1620.000000	0.038023
1619.000000	0.037366
1618.000000	0.036605
1617.000000	0.035712
1616.000000	0.034803
1615.000000	0.034007
1614.000000	0.033315
1613.000000	0.032650
1612.000000	0.031960
1611.000000	0.031241
1610.000000	0.030516
1609.000000	0.029802
1608.000000	0.029115
1607.000000	0.028473
1606.000000	0.027886
1605.000000	0.027332
1604.000000	0.026791
1603.000000	0.026272
1602.000000	0.025797
1601.000000	0.025366
1600.000000	0.024973
1599.000000	0.024625
1598.000000	0.024322
1597.000000	0.024051
1596.000000	0.023802
1595.000000	0.023592
1594.000000	0.023434
1593.000000	0.023313
1592.000000	0.023213
1591.000000	0.023141
1590.000000	0.023109
1589.000000	0.023113
1588.000000	0.023143
1587.000000	0.023206
1586.000000	0.023304
1585.000000	0.023419
1584.000000	0.023539
1583.000000	0.023687
1582.000000	0.023881
1581.000000	0.024090
1580.000000	0.024280
1579.000000	0.024469
1578.000000	0.024713
1577.000000	0.025030
1576.000000	0.025377
1575.000000	0.025685
1574.000000	0.025936
1573.000000	0.026166
1572.000000	0.026433
1571.000000	0.026784
1570.000000	0.027227
1569.000000	0.027698
1568.000000	0.028132
1567.000000	0.028550
1566.000000	0.029005
1565.000000	0.029495
1564.000000	0.029951
1563.000000	0.030329
1562.000000	0.030661
1561.000000	0.031037
1560.000000	0.031552
1559.000000	0.032192
1558.000000	0.032777
1557.000000	0.033226
1556.000000	0.033614
1555.000000	0.034014
1554.000000	0.034420
1553.000000	0.034784
1552.000000	0.035105
1551.000000	0.035423
1550.000000	0.035745
1549.000000	0.036042
1548.000000	0.036290
1547.000000	0.036503
1546.000000	0.036698
1545.000000	0.036859
1544.000000	0.036962
1543.000000	0.037013
1542.000000	0.037044
1541.000000	0.037102
1540.000000	0.037209
1539.000000	0.037320
1538.000000	0.037353
1537.000000	0.037295
1536.000000	0.037197
1535.000000	0.037097
1534.000000	0.036990
1533.000000	0.036860
1532.000000	0.036721
1531.000000	0.036587
1530.000000	0.036451
1529.000000	0.036302
1528.000000	0.036133
1527.000000	0.035940
1526.000000	0.035719
1525.000000	0.035466
1524.000000	0.035200
1523.000000	0.034942
1522.000000	0.034697
1521.000000	0.034456
1520.000000	0.034213
1519.000000	0.033972
1518.000000	0.033733
1517.000000	0.033487
1516.000000	0.033229
1515.000000	0.032965
1514.000000	0.032700
1513.000000	0.032414
1512.000000	0.032076
1511.000000	0.031676
1510.000000	0.031242
1509.000000	0.030796
1508.000000	0.030305
1507.000000	0.029724
1506.000000	0.029154
1505.000000	0.028708
1504.000000	0.028345
1503.000000	0.027997
1502.000000	0.027634
1501.000000	0.027246
1500.000000	0.026825
1499.000000	0.026371
1498.000000	0.025890
1497.000000	0.025413
1496.000000	0.024980
1495.000000	0.024594
1494.000000	0.024246
1493.000000	0.023926
1492.000000	0.023609
1491.000000	0.023251
1490.000000	0.022858
1489.000000	0.022509
1488.000000	0.022264
1487.000000	0.022101
1486.000000	0.021987
1485.000000	0.021915
1484.000000	0.021881
1483.000000	0.021876
1482.000000	0.021894
1481.000000	0.021944
1480.000000	0.022022
1479.000000	0.022125
1478.000000	0.022259
1477.000000	0.022433
1476.000000	0.022634
1475.000000	0.022846
1474.000000	0.023106
1473.000000	0.023458
1472.000000	0.023876
1471.000000	0.024272
1470.000000	0.024611
1469.000000	0.024914
1468.000000	0.025202
1467.000000	0.025488
1466.000000	0.025801
1465.000000	0.026157
1464.000000	0.026521
1463.000000	0.026851
1462.000000	0.027152
1461.000000	0.027446
1460.000000	0.027744
1459.000000	0.028071
1458.000000	0.028499
1457.000000	0.029058
1456.000000	0.029601
1455.000000	0.029990
1454.000000	0.030275
1453.000000	0.030535
1452.000000	0.030768
1451.000000	0.030930
1450.000000	0.031030
1449.000000	0.031113
1448.000000	0.031190
1447.000000	0.031239
1446.000000	0.031259
1445.000000	0.031258
1444.000000	0.031231
1443.000000	0.031173
1442.000000	0.031087
1441.000000	0.030975
1440.000000	0.030833
1439.000000	0.030662
1438.000000	0.030473
1437.000000	0.030268
1436.000000	0.030042
1435.000000	0.029810
1434.000000	0.029601
1433.000000	0.029426
1432.000000	0.029266
1431.000000	0.029101
1430.000000	0.028932
1429.000000	0.028776
1428.000000	0.028639
1427.000000	0.028519
1426.000000	0.028430
1425.000000	0.028374
1424.000000	0.028322
1423.000000	0.028241
1422.000000	0.028139
1421.000000	0.028055
1420.000000	0.028006
1419.000000	0.027973
1418.000000	0.027942
1417.000000	0.027919
1416.000000	0.027900
1415.000000	0.027872
1414.000000	0.027838
1413.000000	0.027814
1412.000000	0.027809
1411.000000	0.027816
1410.000000	0.027826
1409.000000	0.027843
1408.000000	0.027872
1407.000000	0.027908
1406.000000	0.027954
1405.000000	0.028007
1404.000000	0.028046
1403.000000	0.028044
1402.000000	0.028010
1401.000000	0.027969
1400.000000	0.027920
1399.000000	0.027838
1398.000000	0.027720
1397.000000	0.027600
1396.000000	0.027499
1395.000000	0.027404
1394.000000	0.027296
1393.000000	0.027166
1392.000000	0.027012
1391.000000	0.026836
1390.000000	0.026648
1389.000000	0.026463
1388.000000	0.026276
1387.000000	0.026072
1386.000000	0.025851
1385.000000	0.025630
1384.000000	0.025415
1383.000000	0.025200
1382.000000	0.024977
1381.000000	0.024747
1380.000000	0.024516
1379.000000	0.024280
1378.000000	0.024037
1377.000000	0.023778
1376.000000	0.023494
1375.000000	0.023183
1374.000000	0.022869
1373.000000	0.022578
1372.000000	0.022319
1371.000000	0.022076
1370.000000	0.021833
1369.000000	0.021574
1368.000000	0.021288
1367.000000	0.020976
1366.000000	0.020659
1365.000000	0.020360
1364.000000	0.020093
1363.000000	0.019858
1362.000000	0.019652
1361.000000	0.019471
1360.000000	0.019315
1359.000000	0.019183
1358.000000	0.019073
1357.000000	0.018990
1356.000000	0.018940
1355.000000	0.018931
1354.000000	0.018965
1353.000000	0.019035
1352.000000	0.019134
1351.000000	0.019257
1350.000000	0.019407
1349.000000	0.019580
1348.000000	0.019758
1347.000000	0.019931
1346.000000	0.020102
1345.000000	0.020289
1344.000000	0.020499
1343.000000	0.020720
1342.000000	0.020930
1341.000000	0.021121
1340.000000	0.021290
1339.000000	0.021438
1338.000000	0.021562
1337.000000	0.021652
1336.000000	0.021695
1335.000000	0.021680
1334.000000	0.021615
1333.000000	0.021518
1332.000000	0.021400
1331.000000	0.021265
1330.000000	0.021116
1329.000000	0.020966
1328.000000	0.020822
1327.000000	0.020675
1326.000000	0.020517
1325.000000	0.020363
1324.000000	0.020237
1323.000000	0.020151
1322.000000	0.020095
1321.000000	0.020058
1320.000000	0.020032
1319.000000	0.020001
1318.000000	0.019948
1317.000000	0.019867
1316.000000	0.019774
1315.000000	0.019687
1314.000000	0.019609
1313.000000	0.019522
1312.000000	0.019410
1311.000000	0.019271
1310.000000	0.019121
1309.000000	0.018976
1308.000000	0.018845
1307.000000	0.018723
1306.000000	0.018598
1305.000000	0.018467
1304.000000	0.018334
1303.000000	0.018206
1302.000000	0.018087
1301.000000	0.017978
1300.000000	0.017880
1299.000000	0.017790
1298.000000	0.017703
1297.000000	0.017624
1296.000000	0.017565
1295.000000	0.017538
1294.000000	0.017542
1293.000000	0.017571
1292.000000	0.017623
1291.000000	0.017695
1290.000000	0.017783
1289.000000	0.017882
1288.000000	0.017996
1287.000000	0.018130
1286.000000	0.018277
1285.000000	0.018416
1284.000000	0.018531
1283.000000	0.018619
1282.000000	0.018687
1281.000000	0.018741
1280.000000	0.018777
1279.000000	0.018793
1278.000000	0.018797
1277.000000	0.018803
1276.000000	0.018817
1275.000000	0.018833
1274.000000	0.018841
1273.000000	0.018841
1272.000000	0.018839
1271.000000	0.018842
1270.000000	0.018861
1269.000000	0.018909
1268.000000	0.018994
1267.000000	0.019106
1266.000000	0.019231
1265.000000	0.019358
1264.000000	0.019489
1263.000000	0.019626
1262.000000	0.019760
1261.000000	0.019886
1260.000000	0.020007
1259.000000	0.020134
1258.000000	0.020278
1257.000000	0.020446
1256.000000	0.020634
1255.000000	0.020826
1254.000000	0.021013
1253.000000	0.021198
1252.000000	0.021393
1251.000000	0.021602
1250.000000	0.021818
1249.000000	0.022039
1248.000000	0.022270
1247.000000	0.022516
1246.000000	0.022770
1245.000000	0.023016
1244.000000	0.023243
1243.000000	0.023447
1242.000000	0.023633
1241.000000	0.023804
1240.000000	0.023954
1239.000000	0.024077
1238.000000	0.024166
1237.000000	0.024221
1236.000000	0.024238
1235.000000	0.024211
1234.000000	0.024133
1233.000000	0.024009
1232.000000	0.023846
1231.000000	0.023653
1230.000000	0.023437
1229.000000	0.023197
1228.000000	0.022922
1227.000000	0.022605
1226.000000	0.022253
1225.000000	0.021880
1224.000000	0.021492
1223.000000	0.021090
1222.000000	0.020677
1221.000000	0.020265
1220.000000	0.019866
1219.000000	0.019494
1218.000000	0.019166
1217.000000	0.018896
1216.000000	0.018692
1215.000000	0.018546
1214.000000	0.018441
1213.000000	0.018360
1212.000000	0.018296
1211.000000	0.018254
1210.000000	0.018247
1209.000000	0.018288
1208.000000	0.018374
1207.000000	0.018486
1206.000000	0.018602
1205.000000	0.018706
1204.000000	0.018781
1203.000000	0.018811
1202.000000	0.018782
1201.000000	0.018693
1200.000000	0.018561
1199.000000	0.018401
1198.000000	0.018224
1197.000000	0.018030
1196.000000	0.017813
1195.000000	0.017571
1194.000000	0.017314
1193.000000	0.017059
1192.000000	0.016814
1191.000000	0.016575
1190.000000	0.016338
1189.000000	0.016113
1188.000000	0.015916
1187.000000	0.015748
1186.000000	0.015594
1185.000000	0.015442
1184.000000	0.015293
1183.000000	0.015161
1182.000000	0.015054
1181.000000	0.014972
1180.000000	0.014911
1179.000000	0.014868
1178.000000	0.014846
1177.000000	0.014840
1176.000000	0.014840
1175.000000	0.014828
1174.000000	0.014802
1173.000000	0.014778
1172.000000	0.014782
1171.000000	0.014826
1170.000000	0.014904
1169.000000	0.015001
1168.000000	0.015106
1167.000000	0.015214
1166.000000	0.015320
1165.000000	0.015422
1164.000000	0.015515
1163.000000	0.015590
1162.000000	0.015639
1161.000000	0.015652
1160.000000	0.015622
1159.000000	0.015550
1158.000000	0.015444
1157.000000	0.015312
1156.000000	0.015157
1155.000000	0.014983
1154.000000	0.014799
1153.000000	0.014617
1152.000000	0.014441
1151.000000	0.014260
1150.000000	0.014065
1149.000000	0.013861
1148.000000	0.013664
1147.000000	0.013480
1146.000000	0.013299
1145.000000	0.013105
1144.000000	0.012895
1143.000000	0.012683
1142.000000	0.012490
1141.000000	0.012333
1140.000000	0.012216
1139.000000	0.012125
1138.000000	0.012043
1137.000000	0.011960
1136.000000	0.011878
1135.000000	0.011801
1134.000000	0.011732
1133.000000	0.011673
1132.000000	0.011629
1131.000000	0.011597
1130.000000	0.011575
1129.000000	0.011566
1128.000000	0.011579
1127.000000	0.011618
1126.000000	0.011668
1125.000000	0.011716
1124.000000	0.011753
1123.000000	0.011772
1122.000000	0.011771
1121.000000	0.011758
1120.000000	0.011755
1119.000000	0.011781
1118.000000	0.011836
1117.000000	0.011913
1116.000000	0.012004
1115.000000	0.012104
1114.000000	0.012203
1113.000000	0.012292
1112.000000	0.012375
1111.000000	0.012461
1110.000000	0.012548
1109.000000	0.012625
1108.000000	0.012691
1107.000000	0.012755
1106.000000	0.012822
1105.000000	0.012886
1104.000000	0.012942
1103.000000	0.012992
1102.000000	0.013041
1101.000000	0.013088
1100.000000	0.013136
1099.000000	0.013198
1098.000000	0.013284
1097.000000	0.013392
1096.000000	0.013510
1095.000000	0.013629
1094.000000	0.013754
1093.000000	0.013894
1092.000000	0.014052
1091.000000	0.014226
1090.000000	0.014419
1089.000000	0.014642
1088.000000	0.014902
1087.000000	0.015189
1086.000000	0.015474
1085.000000	0.015732
1084.000000	0.015951
1083.000000	0.016126
1082.000000	0.016250
1081.000000	0.016317
1080.000000	0.016325
1079.000000	0.016280
1078.000000	0.016183
1077.000000	0.016041
1076.000000	0.015863
1075.000000	0.015660
1074.000000	0.015444
1073.000000	0.015221
1072.000000	0.015011
1071.000000	0.014839
1070.000000	0.014727
1069.000000	0.014678
1068.000000	0.014673
1067.000000	0.014687
1066.000000	0.014700
1065.000000	0.014706
1064.000000	0.014717
1063.000000	0.014755
1062.000000	0.014830
1061.000000	0.014926
1060.000000	0.015008
1059.000000	0.015035
1058.000000	0.014993
1057.000000	0.014902
1056.000000	0.014811
1055.000000	0.014762
1054.000000	0.014764
1053.000000	0.014793
1052.000000	0.014821
1051.000000	0.014835
1050.000000	0.014842
1049.000000	0.014850
1048.000000	0.014860
1047.000000	0.014872
1046.000000	0.014885
1045.000000	0.014894
1044.000000	0.014894
1043.000000	0.014888
1042.000000	0.014887
1041.000000	0.014908
1040.000000	0.014971
1039.000000	0.015092
1038.000000	0.015279
1037.000000	0.015519
1036.000000	0.015780
1035.000000	0.016037
1034.000000	0.016283
1033.000000	0.016526
1032.000000	0.016760
1031.000000	0.016969
1030.000000	0.017127
1029.000000	0.017221
1028.000000	0.017251
1027.000000	0.017230
1026.000000	0.017181
1025.000000	0.017130
1024.000000	0.017110
1023.000000	0.017143
1022.000000	0.017229
1021.000000	0.017341
1020.000000	0.017444
1019.000000	0.017517
1018.000000	0.017554
1017.000000	0.017544
1016.000000	0.017462
1015.000000	0.017290
1014.000000	0.017039
1013.000000	0.016741
1012.000000	0.016429
1011.000000	0.016119
1010.000000	0.015801
1009.000000	0.015458
1008.000000	0.015085
1007.000000	0.014710
1006.000000	0.014366
1005.000000	0.014063
1004.000000	0.013786
1003.000000	0.013525
1002.000000	0.013289
1001.000000	0.013078
1000.000000	0.012867
999.000000	0.012630
998.000000	0.012377
997.000000	0.012150
996.000000	0.011965
995.000000	0.011801
994.000000	0.011624
993.000000	0.011424
992.000000	0.011218
991.000000	0.011023
990.000000	0.010847
989.000000	0.010690
988.000000	0.010548
987.000000	0.010418
986.000000	0.010298
985.000000	0.010190
984.000000	0.010097
983.000000	0.010024
982.000000	0.009968
981.000000	0.009918
980.000000	0.009866
979.000000	0.009811
978.000000	0.009768
977.000000	0.009742
976.000000	0.009721
975.000000	0.009682
974.000000	0.009622
973.000000	0.009554
972.000000	0.009487
971.000000	0.009411
970.000000	0.009318
969.000000	0.009218
968.000000	0.009122
967.000000	0.009031
966.000000	0.008932
965.000000	0.008820
964.000000	0.008698
963.000000	0.008576
962.000000	0.008459
961.000000	0.008359
960.000000	0.008277
959.000000	0.008202
958.000000	0.008117
957.000000	0.008014
956.000000	0.007904
955.000000	0.007806
954.000000	0.007726
953.000000	0.007657
952.000000	0.007591
951.000000	0.007521
950.000000	0.007449
949.000000	0.007379
948.000000	0.007312
947.000000	0.007251
946.000000	0.007206
945.000000	0.007194
944.000000	0.007227
943.000000	0.007295
942.000000	0.007363
941.000000	0.007392
940.000000	0.007374
939.000000	0.007329
938.000000	0.007285
937.000000	0.007242
936.000000	0.007183
935.000000	0.007101
934.000000	0.007017
933.000000	0.006960
932.000000	0.006924
931.000000	0.006877
930.000000	0.006796
929.000000	0.006703
928.000000	0.006641
927.000000	0.006636
926.000000	0.006677
925.000000	0.006728
924.000000	0.006757
923.000000	0.006755
922.000000	0.006734
921.000000	0.006713
920.000000	0.006690
919.000000	0.006638
918.000000	0.006538
917.000000	0.006405
916.000000	0.006278
915.000000	0.006181
914.000000	0.006103
913.000000	0.006019
912.000000	0.005918
911.000000	0.005804
910.000000	0.005695
909.000000	0.005608
908.000000	0.005562
907.000000	0.005555
906.000000	0.005566
905.000000	0.005561
904.000000	0.005524
903.000000	0.005461
902.000000	0.005394
901.000000	0.005341
900.000000	0.005306
899.000000	0.005277
898.000000	0.005238
897.000000	0.005179
896.000000	0.005111
895.000000	0.005056
894.000000	0.005029
893.000000	0.005019
892.000000	0.005008
891.000000	0.004988
890.000000	0.004972
889.000000	0.004977
888.000000	0.005017
887.000000	0.005104
886.000000	0.005248
885.000000	0.005458
884.000000	0.005735
883.000000	0.006083
882.000000	0.006517
881.000000	0.007056
880.000000	0.007696
879.000000	0.008385
878.000000	0.009028
877.000000	0.009523
876.000000	0.009792
875.000000	0.009804
874.000000	0.009583
873.000000	0.009182
872.000000	0.008667
871.000000	0.008105
870.000000	0.007568
869.000000	0.007119
868.000000	0.006792
867.000000	0.006576
866.000000	0.006427
865.000000	0.006299
864.000000	0.006163
863.000000	0.006021
862.000000	0.005896
861.000000	0.005810
860.000000	0.005768
859.000000	0.005759
858.000000	0.005766
857.000000	0.005773
856.000000	0.005762
855.000000	0.005732
854.000000	0.005701
853.000000	0.005694
852.000000	0.005711
851.000000	0.005731
850.000000	0.005733
849.000000	0.005713
848.000000	0.005666
847.000000	0.005578
846.000000	0.005456
845.000000	0.005335
844.000000	0.005254
843.000000	0.005218
842.000000	0.005201
841.000000	0.005184
840.000000	0.005165
839.000000	0.005143
838.000000	0.005116
837.000000	0.005091
836.000000	0.005077
835.000000	0.005069
834.000000	0.005055
833.000000	0.005035
832.000000	0.005027
831.000000	0.005044
830.000000	0.005071
829.000000	0.005082
828.000000	0.005058
827.000000	0.005004
826.000000	0.004951
825.000000	0.004932
824.000000	0.004958
823.000000	0.005014
822.000000	0.005081
821.000000	0.005152
820.000000	0.005220
819.000000	0.005271
818.000000	0.005285
817.000000	0.005264
816.000000	0.005228
815.000000	0.005201
814.000000	0.005188
813.000000	0.005191
812.000000	0.005207
811.000000	0.005229
810.000000	0.005242
809.000000	0.005230
808.000000	0.005190
807.000000	0.005136
806.000000	0.005088
805.000000	0.005052
804.000000	0.005016
803.000000	0.004974
802.000000	0.004945
801.000000	0.004961
800.000000	0.005021
799.000000	0.005092
798.000000	0.005153
797.000000	0.005221
796.000000	0.005311
795.000000	0.005389
794.000000	0.005412
793.000000	0.005388
792.000000	0.005375
791.000000	0.005411
790.000000	0.005477
789.000000	0.005535
788.000000	0.005572
787.000000	0.005593
786.000000	0.005592
785.000000	0.005557
784.000000	0.005500
783.000000	0.005458
782.000000	0.005455
781.000000	0.005484
780.000000	0.005516
779.000000	0.005526
778.000000	0.005518
777.000000	0.005510
776.000000	0.005514
775.000000	0.005528
774.000000	0.005553
773.000000	0.005587
772.000000	0.005619
771.000000	0.005631
770.000000	0.005633
769.000000	0.005652
768.000000	0.005690
767.000000	0.005706
766.000000	0.005669
765.000000	0.005611
764.000000	0.005591
763.000000	0.005626
762.000000	0.005684
761.000000	0.005740
760.000000	0.005802
759.000000	0.005874
758.000000	0.005942
757.000000	0.005995
756.000000	0.006045
755.000000	0.006097
754.000000	0.006124
753.000000	0.006105
752.000000	0.006060
751.000000	0.006028
750.000000	0.006032
749.000000	0.006055
748.000000	0.006069
747.000000	0.006065
746.000000	0.006058
745.000000	0.006079
744.000000	0.006150
743.000000	0.006264
742.000000	0.006392
741.000000	0.006504
740.000000	0.006583
739.000000	0.006624
738.000000	0.006645
737.000000	0.006678
736.000000	0.006746
735.000000	0.006835
734.000000	0.006909
733.000000	0.006950
732.000000	0.006980
731.000000	0.007024
730.000000	0.007084
729.000000	0.007152
728.000000	0.007228
727.000000	0.007317
726.000000	0.007427
725.000000	0.007571
724.000000	0.007748
723.000000	0.007932
722.000000	0.008084
721.000000	0.008193
720.000000	0.008275
719.000000	0.008349
718.000000	0.008420
717.000000	0.008515
716.000000	0.008681
715.000000	0.008935
714.000000	0.009212
713.000000	0.009412
712.000000	0.009481
711.000000	0.009447
710.000000	0.009384
709.000000	0.009361
708.000000	0.009410
707.000000	0.009506
706.000000	0.009602
705.000000	0.009671
704.000000	0.009726
703.000000	0.009782
702.000000	0.009828
701.000000	0.009850
700.000000	0.009859
699.000000	0.009880
698.000000	0.009913
697.000000	0.009933
696.000000	0.009928
695.000000	0.009921
694.000000	0.009932
693.000000	0.009960
692.000000	0.010003
691.000000	0.010061
690.000000	0.010133
689.000000	0.010209
688.000000	0.010294
687.000000	0.010407
686.000000	0.010550
685.000000	0.010686
684.000000	0.010773
683.000000	0.010802
682.000000	0.010790
681.000000	0.010766
680.000000	0.010763
679.000000	0.010789
678.000000	0.010816
677.000000	0.010840
676.000000	0.010913
675.000000	0.011079
674.000000	0.011302
673.000000	0.011495
672.000000	0.011591
671.000000	0.011576
670.000000	0.011473
669.000000	0.011344
668.000000	0.011373
667.000000	0.011668
666.000000	0.011896
665.000000	0.012009
664.000000	0.012093
663.000000	0.012136
662.000000	0.012100
661.000000	0.011995
660.000000	0.011880
659.000000	0.011800
658.000000	0.011760
657.000000	0.011750
656.000000	0.011751
655.000000	0.011733
654.000000	0.011701
653.000000	0.011692
652.000000	0.011713
651.000000	0.011745
650.000000	0.011798
649.000000	0.011898
648.000000	0.011997
647.000000	0.011995
646.000000	0.011881
645.000000	0.011752
644.000000	0.011692
643.000000	0.011701
642.000000	0.011747
641.000000	0.011821
640.000000	0.011903
639.000000	0.011945
638.000000	0.011931
637.000000	0.011899
636.000000	0.011876
635.000000	0.011828
634.000000	0.011726
633.000000	0.011603
632.000000	0.011519
631.000000	0.011493
630.000000	0.011509
629.000000	0.011547
628.000000	0.011585
627.000000	0.011600
626.000000	0.011609
625.000000	0.011657
624.000000	0.011765
623.000000	0.011895
622.000000	0.011996
621.000000	0.012045
620.000000	0.012044
619.000000	0.012020
618.000000	0.012010
617.000000	0.012029
616.000000	0.012039
615.000000	0.011992
614.000000	0.011908
613.000000	0.011851
612.000000	0.011852
611.000000	0.011889
610.000000	0.011946
609.000000	0.012027
608.000000	0.012105
607.000000	0.012125
606.000000	0.012089
605.000000	0.012058
604.000000	0.012060
603.000000	0.012058
602.000000	0.012014
601.000000	0.011948
600.000000	0.011896
599.000000	0.011854
598.000000	0.011808
597.000000	0.011755
596.000000	0.011684
595.000000	0.011584
594.000000	0.011489
593.000000	0.011463
592.000000	0.011505
591.000000	0.011528
590.000000	0.011470
589.000000	0.011382
588.000000	0.011350
587.000000	0.011386
586.000000	0.011445
585.000000	0.011508
584.000000	0.011595
583.000000	0.011696
582.000000	0.011767
581.000000	0.011780
580.000000	0.011746
579.000000	0.011700
578.000000	0.011660
577.000000	0.011627
576.000000	0.011595
575.000000	0.011592
574.000000	0.011675
573.000000	0.011856
572.000000	0.012052
571.000000	0.012155
570.000000	0.012161
569.000000	0.012176
568.000000	0.012272
567.000000	0.012414
566.000000	0.012541
565.000000	0.012644
564.000000	0.012728
563.000000	0.012765
562.000000	0.012748
561.000000	0.012715
560.000000	0.012704
559.000000	0.012714
558.000000	0.012747
557.000000	0.012828
556.000000	0.012935
555.000000	0.012990
554.000000	0.012941
553.000000	0.012814
552.000000	0.012640
551.000000	0.012430
550.000000	0.012226
549.000000	0.012115
548.000000	0.012126
547.000000	0.012178
546.000000	0.012179
545.000000	0.012109
544.000000	0.011979
543.000000	0.011797
542.000000	0.011614
541.000000	0.011522
540.000000	0.011539
539.000000	0.011578
538.000000	0.011584
537.000000	0.011625
536.000000	0.011789
535.000000	0.012042
534.000000	0.012268
533.000000	0.012395
532.000000	0.012425
531.000000	0.012393
530.000000	0.012355
529.000000	0.012365
528.000000	0.012422
527.000000	0.012466
526.000000	0.012455
525.000000	0.012374
524.000000	0.012190
523.000000	0.011879
522.000000	0.011527
521.000000	0.011267
520.000000	0.011083
519.000000	0.010813
518.000000	0.010417
517.000000	0.010087
516.000000	0.009985
515.000000	0.010022
514.000000	0.010010
513.000000	0.009900
512.000000	0.009758
511.000000	0.009630
510.000000	0.009535
509.000000	0.009518
508.000000	0.009591
507.000000	0.009678
506.000000	0.009705
505.000000	0.009684
504.000000	0.009622
503.000000	0.009455
502.000000	0.009181
501.000000	0.008936
500.000000	0.008823
499.000000	0.008763
498.000000	0.008631
497.000000	0.008428
496.000000	0.008223
495.000000	0.008048
494.000000	0.007946
493.000000	0.008036
492.000000	0.008340
491.000000	0.008625
490.000000	0.008590
489.000000	0.008196
488.000000	0.007666
487.000000	0.007223
486.000000	0.006958
485.000000	0.006885
484.000000	0.006958
483.000000	0.007045
482.000000	0.007027
481.000000	0.006922
480.000000	0.006815
479.000000	0.006717
478.000000	0.006599
477.000000	0.006510
476.000000	0.006527
475.000000	0.006651
474.000000	0.006851
473.000000	0.007152
472.000000	0.007541
471.000000	0.007861
470.000000	0.007980
469.000000	0.007976
468.000000	0.007994
467.000000	0.008015
466.000000	0.007916
465.000000	0.007672
464.000000	0.007353
463.000000	0.006976
462.000000	0.006538
461.000000	0.006115
460.000000	0.005790
459.000000	0.005546
458.000000	0.005371
457.000000	0.005360
456.000000	0.005511
455.000000	0.005605
454.000000	0.005495
453.000000	0.005324
452.000000	0.005295
451.000000	0.005302
450.000000	0.005038
