PE IR       SUBTECH     SPECTRUM    ASCII       PEDS        4.00        
   -1
3G-N10-C026_1.ASC
22/02/24
10:01:07.00
22/02/24
10:18:11.00
uco
Sample 026 By uco Date Thursday, February 24 2022
450.000000
#HDR
-1
-1
#GR
cm-1
A
1.0
0.0
4000.000000
-1.000000
3551
8
0.031297
0.003050
#DATA
4000.000000	0.003284
3999.000000	0.003298
3998.000000	0.003302
3997.000000	0.003285
3996.000000	0.003266
3995.000000	0.003248
3994.000000	0.003239
3993.000000	0.003243
3992.000000	0.003257
3991.000000	0.003273
3990.000000	0.003287
3989.000000	0.003291
3988.000000	0.003285
3987.000000	0.003271
3986.000000	0.003260
3985.000000	0.003260
3984.000000	0.003273
3983.000000	0.003298
3982.000000	0.003326
3981.000000	0.003355
3980.000000	0.003380
3979.000000	0.003400
3978.000000	0.003413
3977.000000	0.003416
3976.000000	0.003413
3975.000000	0.003409
3974.000000	0.003405
3973.000000	0.003400
3972.000000	0.003389
3971.000000	0.003373
3970.000000	0.003360
3969.000000	0.003361
3968.000000	0.003378
3967.000000	0.003403
3966.000000	0.003429
3965.000000	0.003448
3964.000000	0.003461
3963.000000	0.003467
3962.000000	0.003462
3961.000000	0.003444
3960.000000	0.003416
3959.000000	0.003390
3958.000000	0.003379
3957.000000	0.003391
3956.000000	0.003422
3955.000000	0.003457
3954.000000	0.003476
3953.000000	0.003469
3952.000000	0.003444
3951.000000	0.003423
3950.000000	0.003418
3949.000000	0.003425
3948.000000	0.003427
3947.000000	0.003414
3946.000000	0.003390
3945.000000	0.003369
3944.000000	0.003363
3943.000000	0.003381
3942.000000	0.003420
3941.000000	0.003473
3940.000000	0.003522
3939.000000	0.003547
3938.000000	0.003540
3937.000000	0.003509
3936.000000	0.003471
3935.000000	0.003444
3934.000000	0.003432
3933.000000	0.003434
3932.000000	0.003440
3931.000000	0.003444
3930.000000	0.003443
3929.000000	0.003438
3928.000000	0.003437
3927.000000	0.003445
3926.000000	0.003459
3925.000000	0.003468
3924.000000	0.003463
3923.000000	0.003447
3922.000000	0.003427
3921.000000	0.003407
3920.000000	0.003390
3919.000000	0.003380
3918.000000	0.003379
3917.000000	0.003385
3916.000000	0.003397
3915.000000	0.003414
3914.000000	0.003434
3913.000000	0.003449
3912.000000	0.003451
3911.000000	0.003440
3910.000000	0.003421
3909.000000	0.003405
3908.000000	0.003398
3907.000000	0.003398
3906.000000	0.003398
3905.000000	0.003389
3904.000000	0.003374
3903.000000	0.003367
3902.000000	0.003380
3901.000000	0.003404
3900.000000	0.003421
3899.000000	0.003425
3898.000000	0.003421
3897.000000	0.003420
3896.000000	0.003420
3895.000000	0.003421
3894.000000	0.003427
3893.000000	0.003440
3892.000000	0.003450
3891.000000	0.003442
3890.000000	0.003420
3889.000000	0.003403
3888.000000	0.003403
3887.000000	0.003408
3886.000000	0.003400
3885.000000	0.003376
3884.000000	0.003360
3883.000000	0.003369
3882.000000	0.003396
3881.000000	0.003419
3880.000000	0.003426
3879.000000	0.003425
3878.000000	0.003432
3877.000000	0.003446
3876.000000	0.003456
3875.000000	0.003447
3874.000000	0.003425
3873.000000	0.003412
3872.000000	0.003423
3871.000000	0.003441
3870.000000	0.003442
3869.000000	0.003432
3868.000000	0.003441
3867.000000	0.003478
3866.000000	0.003519
3865.000000	0.003536
3864.000000	0.003528
3863.000000	0.003508
3862.000000	0.003491
3861.000000	0.003482
3860.000000	0.003477
3859.000000	0.003468
3858.000000	0.003440
3857.000000	0.003391
3856.000000	0.003331
3855.000000	0.003273
3854.000000	0.003224
3853.000000	0.003199
3852.000000	0.003225
3851.000000	0.003301
3850.000000	0.003394
3849.000000	0.003468
3848.000000	0.003509
3847.000000	0.003518
3846.000000	0.003504
3845.000000	0.003484
3844.000000	0.003466
3843.000000	0.003453
3842.000000	0.003441
3841.000000	0.003426
3840.000000	0.003403
3839.000000	0.003369
3838.000000	0.003333
3837.000000	0.003307
3836.000000	0.003305
3835.000000	0.003330
3834.000000	0.003373
3833.000000	0.003420
3832.000000	0.003460
3831.000000	0.003487
3830.000000	0.003508
3829.000000	0.003530
3828.000000	0.003548
3827.000000	0.003550
3826.000000	0.003533
3825.000000	0.003509
3824.000000	0.003496
3823.000000	0.003496
3822.000000	0.003491
3821.000000	0.003467
3820.000000	0.003446
3819.000000	0.003453
3818.000000	0.003483
3817.000000	0.003503
3816.000000	0.003486
3815.000000	0.003450
3814.000000	0.003432
3813.000000	0.003445
3812.000000	0.003470
3811.000000	0.003490
3810.000000	0.003501
3809.000000	0.003508
3808.000000	0.003508
3807.000000	0.003497
3806.000000	0.003483
3805.000000	0.003483
3804.000000	0.003492
3803.000000	0.003488
3802.000000	0.003451
3801.000000	0.003400
3800.000000	0.003381
3799.000000	0.003412
3798.000000	0.003461
3797.000000	0.003487
3796.000000	0.003472
3795.000000	0.003436
3794.000000	0.003407
3793.000000	0.003399
3792.000000	0.003406
3791.000000	0.003422
3790.000000	0.003440
3789.000000	0.003453
3788.000000	0.003464
3787.000000	0.003474
3786.000000	0.003486
3785.000000	0.003493
3784.000000	0.003494
3783.000000	0.003492
3782.000000	0.003494
3781.000000	0.003497
3780.000000	0.003494
3779.000000	0.003486
3778.000000	0.003480
3777.000000	0.003480
3776.000000	0.003477
3775.000000	0.003460
3774.000000	0.003433
3773.000000	0.003414
3772.000000	0.003415
3771.000000	0.003426
3770.000000	0.003430
3769.000000	0.003423
3768.000000	0.003416
3767.000000	0.003414
3766.000000	0.003411
3765.000000	0.003400
3764.000000	0.003382
3763.000000	0.003363
3762.000000	0.003341
3761.000000	0.003313
3760.000000	0.003289
3759.000000	0.003287
3758.000000	0.003308
3757.000000	0.003331
3756.000000	0.003336
3755.000000	0.003319
3754.000000	0.003288
3753.000000	0.003263
3752.000000	0.003260
3751.000000	0.003277
3750.000000	0.003289
3749.000000	0.003280
3748.000000	0.003263
3747.000000	0.003263
3746.000000	0.003287
3745.000000	0.003308
3744.000000	0.003300
3743.000000	0.003285
3742.000000	0.003284
3741.000000	0.003287
3740.000000	0.003279
3739.000000	0.003266
3738.000000	0.003262
3737.000000	0.003269
3736.000000	0.003274
3735.000000	0.003270
3734.000000	0.003268
3733.000000	0.003271
3732.000000	0.003279
3731.000000	0.003287
3730.000000	0.003298
3729.000000	0.003308
3728.000000	0.003314
3727.000000	0.003316
3726.000000	0.003324
3725.000000	0.003345
3724.000000	0.003371
3723.000000	0.003380
3722.000000	0.003367
3721.000000	0.003343
3720.000000	0.003327
3719.000000	0.003322
3718.000000	0.003320
3717.000000	0.003310
3716.000000	0.003295
3715.000000	0.003289
3714.000000	0.003306
3713.000000	0.003350
3712.000000	0.003412
3711.000000	0.003466
3710.000000	0.003488
3709.000000	0.003473
3708.000000	0.003433
3707.000000	0.003384
3706.000000	0.003343
3705.000000	0.003314
3704.000000	0.003293
3703.000000	0.003272
3702.000000	0.003245
3701.000000	0.003223
3700.000000	0.003222
3699.000000	0.003250
3698.000000	0.003293
3697.000000	0.003328
3696.000000	0.003338
3695.000000	0.003333
3694.000000	0.003326
3693.000000	0.003327
3692.000000	0.003337
3691.000000	0.003350
3690.000000	0.003355
3689.000000	0.003347
3688.000000	0.003333
3687.000000	0.003331
3686.000000	0.003349
3685.000000	0.003372
3684.000000	0.003387
3683.000000	0.003395
3682.000000	0.003404
3681.000000	0.003417
3680.000000	0.003429
3679.000000	0.003444
3678.000000	0.003472
3677.000000	0.003502
3676.000000	0.003505
3675.000000	0.003471
3674.000000	0.003437
3673.000000	0.003430
3672.000000	0.003445
3671.000000	0.003462
3670.000000	0.003465
3669.000000	0.003460
3668.000000	0.003456
3667.000000	0.003454
3666.000000	0.003450
3665.000000	0.003445
3664.000000	0.003440
3663.000000	0.003434
3662.000000	0.003424
3661.000000	0.003413
3660.000000	0.003406
3659.000000	0.003409
3658.000000	0.003419
3657.000000	0.003425
3656.000000	0.003426
3655.000000	0.003435
3654.000000	0.003464
3653.000000	0.003509
3652.000000	0.003547
3651.000000	0.003554
3650.000000	0.003535
3649.000000	0.003518
3648.000000	0.003523
3647.000000	0.003547
3646.000000	0.003574
3645.000000	0.003597
3644.000000	0.003620
3643.000000	0.003645
3642.000000	0.003673
3641.000000	0.003704
3640.000000	0.003734
3639.000000	0.003759
3638.000000	0.003773
3637.000000	0.003776
3636.000000	0.003773
3635.000000	0.003764
3634.000000	0.003752
3633.000000	0.003745
3632.000000	0.003753
3631.000000	0.003779
3630.000000	0.003809
3629.000000	0.003820
3628.000000	0.003813
3627.000000	0.003809
3626.000000	0.003815
3625.000000	0.003821
3624.000000	0.003820
3623.000000	0.003817
3622.000000	0.003822
3621.000000	0.003837
3620.000000	0.003856
3619.000000	0.003871
3618.000000	0.003878
3617.000000	0.003888
3616.000000	0.003915
3615.000000	0.003962
3614.000000	0.004017
3613.000000	0.004067
3612.000000	0.004107
3611.000000	0.004148
3610.000000	0.004196
3609.000000	0.004241
3608.000000	0.004268
3607.000000	0.004271
3606.000000	0.004260
3605.000000	0.004244
3604.000000	0.004228
3603.000000	0.004217
3602.000000	0.004220
3601.000000	0.004240
3600.000000	0.004273
3599.000000	0.004311
3598.000000	0.004347
3597.000000	0.004376
3596.000000	0.004392
3595.000000	0.004396
3594.000000	0.004393
3593.000000	0.004395
3592.000000	0.004414
3591.000000	0.004450
3590.000000	0.004492
3589.000000	0.004527
3588.000000	0.004552
3587.000000	0.004572
3586.000000	0.004598
3585.000000	0.004626
3584.000000	0.004651
3583.000000	0.004670
3582.000000	0.004694
3581.000000	0.004729
3580.000000	0.004773
3579.000000	0.004818
3578.000000	0.004860
3577.000000	0.004899
3576.000000	0.004937
3575.000000	0.004976
3574.000000	0.005014
3573.000000	0.005049
3572.000000	0.005079
3571.000000	0.005106
3570.000000	0.005132
3569.000000	0.005154
3568.000000	0.005170
3567.000000	0.005180
3566.000000	0.005195
3565.000000	0.005222
3564.000000	0.005253
3563.000000	0.005278
3562.000000	0.005295
3561.000000	0.005307
3560.000000	0.005323
3559.000000	0.005351
3558.000000	0.005398
3557.000000	0.005462
3556.000000	0.005531
3555.000000	0.005593
3554.000000	0.005643
3553.000000	0.005685
3552.000000	0.005718
3551.000000	0.005738
3550.000000	0.005741
3549.000000	0.005735
3548.000000	0.005736
3547.000000	0.005759
3546.000000	0.005806
3545.000000	0.005861
3544.000000	0.005905
3543.000000	0.005926
3542.000000	0.005928
3541.000000	0.005924
3540.000000	0.005925
3539.000000	0.005938
3538.000000	0.005972
3537.000000	0.006030
3536.000000	0.006103
3535.000000	0.006166
3534.000000	0.006198
3533.000000	0.006195
3532.000000	0.006171
3531.000000	0.006150
3530.000000	0.006149
3529.000000	0.006176
3528.000000	0.006226
3527.000000	0.006289
3526.000000	0.006351
3525.000000	0.006402
3524.000000	0.006433
3523.000000	0.006444
3522.000000	0.006446
3521.000000	0.006457
3520.000000	0.006491
3519.000000	0.006551
3518.000000	0.006622
3517.000000	0.006682
3516.000000	0.006717
3515.000000	0.006723
3514.000000	0.006716
3513.000000	0.006715
3512.000000	0.006729
3511.000000	0.006755
3510.000000	0.006784
3509.000000	0.006805
3508.000000	0.006822
3507.000000	0.006849
3506.000000	0.006895
3505.000000	0.006959
3504.000000	0.007023
3503.000000	0.007068
3502.000000	0.007087
3501.000000	0.007085
3500.000000	0.007075
3499.000000	0.007070
3498.000000	0.007082
3497.000000	0.007109
3496.000000	0.007143
3495.000000	0.007174
3494.000000	0.007197
3493.000000	0.007218
3492.000000	0.007239
3491.000000	0.007265
3490.000000	0.007293
3489.000000	0.007320
3488.000000	0.007337
3487.000000	0.007343
3486.000000	0.007349
3485.000000	0.007367
3484.000000	0.007399
3483.000000	0.007437
3482.000000	0.007469
3481.000000	0.007496
3480.000000	0.007518
3479.000000	0.007535
3478.000000	0.007545
3477.000000	0.007552
3476.000000	0.007563
3475.000000	0.007581
3474.000000	0.007598
3473.000000	0.007609
3472.000000	0.007616
3471.000000	0.007626
3470.000000	0.007644
3469.000000	0.007671
3468.000000	0.007700
3467.000000	0.007722
3466.000000	0.007736
3465.000000	0.007752
3464.000000	0.007781
3463.000000	0.007820
3462.000000	0.007853
3461.000000	0.007868
3460.000000	0.007861
3459.000000	0.007849
3458.000000	0.007856
3457.000000	0.007898
3456.000000	0.007974
3455.000000	0.008056
3454.000000	0.008113
3453.000000	0.008124
3452.000000	0.008100
3451.000000	0.008071
3450.000000	0.008065
3449.000000	0.008092
3448.000000	0.008136
3447.000000	0.008182
3446.000000	0.008223
3445.000000	0.008267
3444.000000	0.008313
3443.000000	0.008349
3442.000000	0.008364
3441.000000	0.008360
3440.000000	0.008349
3439.000000	0.008346
3438.000000	0.008354
3437.000000	0.008372
3436.000000	0.008394
3435.000000	0.008421
3434.000000	0.008455
3433.000000	0.008494
3432.000000	0.008532
3431.000000	0.008565
3430.000000	0.008595
3429.000000	0.008627
3428.000000	0.008660
3427.000000	0.008688
3426.000000	0.008706
3425.000000	0.008718
3424.000000	0.008727
3423.000000	0.008729
3422.000000	0.008722
3421.000000	0.008714
3420.000000	0.008718
3419.000000	0.008743
3418.000000	0.008780
3417.000000	0.008816
3416.000000	0.008843
3415.000000	0.008865
3414.000000	0.008889
3413.000000	0.008916
3412.000000	0.008944
3411.000000	0.008973
3410.000000	0.009005
3409.000000	0.009039
3408.000000	0.009069
3407.000000	0.009089
3406.000000	0.009097
3405.000000	0.009100
3404.000000	0.009109
3403.000000	0.009124
3402.000000	0.009140
3401.000000	0.009151
3400.000000	0.009160
3399.000000	0.009176
3398.000000	0.009205
3397.000000	0.009245
3396.000000	0.009288
3395.000000	0.009321
3394.000000	0.009342
3393.000000	0.009360
3392.000000	0.009388
3391.000000	0.009430
3390.000000	0.009472
3389.000000	0.009498
3388.000000	0.009507
3387.000000	0.009517
3386.000000	0.009543
3385.000000	0.009586
3384.000000	0.009636
3383.000000	0.009680
3382.000000	0.009708
3381.000000	0.009719
3380.000000	0.009719
3379.000000	0.009721
3378.000000	0.009735
3377.000000	0.009764
3376.000000	0.009801
3375.000000	0.009840
3374.000000	0.009880
3373.000000	0.009921
3372.000000	0.009961
3371.000000	0.009997
3370.000000	0.010028
3369.000000	0.010057
3368.000000	0.010090
3367.000000	0.010131
3366.000000	0.010177
3365.000000	0.010220
3364.000000	0.010255
3363.000000	0.010288
3362.000000	0.010327
3361.000000	0.010377
3360.000000	0.010430
3359.000000	0.010477
3358.000000	0.010514
3357.000000	0.010546
3356.000000	0.010581
3355.000000	0.010622
3354.000000	0.010665
3353.000000	0.010710
3352.000000	0.010759
3351.000000	0.010813
3350.000000	0.010871
3349.000000	0.010929
3348.000000	0.010982
3347.000000	0.011028
3346.000000	0.011064
3345.000000	0.011091
3344.000000	0.011123
3343.000000	0.011174
3342.000000	0.011244
3341.000000	0.011312
3340.000000	0.011360
3339.000000	0.011385
3338.000000	0.011401
3337.000000	0.011420
3336.000000	0.011440
3335.000000	0.011461
3334.000000	0.011490
3333.000000	0.011533
3332.000000	0.011588
3331.000000	0.011641
3330.000000	0.011680
3329.000000	0.011706
3328.000000	0.011728
3327.000000	0.011761
3326.000000	0.011812
3325.000000	0.011880
3324.000000	0.011951
3323.000000	0.012011
3322.000000	0.012054
3321.000000	0.012085
3320.000000	0.012114
3319.000000	0.012147
3318.000000	0.012184
3317.000000	0.012223
3316.000000	0.012259
3315.000000	0.012286
3314.000000	0.012302
3313.000000	0.012310
3312.000000	0.012315
3311.000000	0.012323
3310.000000	0.012334
3309.000000	0.012341
3308.000000	0.012341
3307.000000	0.012342
3306.000000	0.012356
3305.000000	0.012384
3304.000000	0.012422
3303.000000	0.012462
3302.000000	0.012500
3301.000000	0.012534
3300.000000	0.012556
3299.000000	0.012560
3298.000000	0.012550
3297.000000	0.012542
3296.000000	0.012548
3295.000000	0.012566
3294.000000	0.012582
3293.000000	0.012589
3292.000000	0.012589
3291.000000	0.012592
3290.000000	0.012601
3289.000000	0.012614
3288.000000	0.012626
3287.000000	0.012635
3286.000000	0.012636
3285.000000	0.012628
3284.000000	0.012610
3283.000000	0.012588
3282.000000	0.012565
3281.000000	0.012547
3280.000000	0.012536
3279.000000	0.012531
3278.000000	0.012525
3277.000000	0.012511
3276.000000	0.012489
3275.000000	0.012465
3274.000000	0.012447
3273.000000	0.012434
3272.000000	0.012419
3271.000000	0.012396
3270.000000	0.012370
3269.000000	0.012351
3268.000000	0.012345
3267.000000	0.012349
3266.000000	0.012354
3265.000000	0.012353
3264.000000	0.012344
3263.000000	0.012333
3262.000000	0.012324
3261.000000	0.012315
3260.000000	0.012300
3259.000000	0.012277
3258.000000	0.012249
3257.000000	0.012231
3256.000000	0.012226
3255.000000	0.012228
3254.000000	0.012219
3253.000000	0.012189
3252.000000	0.012140
3251.000000	0.012086
3250.000000	0.012037
3249.000000	0.012000
3248.000000	0.011972
3247.000000	0.011945
3246.000000	0.011914
3245.000000	0.011882
3244.000000	0.011856
3243.000000	0.011836
3242.000000	0.011816
3241.000000	0.011789
3240.000000	0.011757
3239.000000	0.011729
3238.000000	0.011713
3237.000000	0.011708
3236.000000	0.011703
3235.000000	0.011691
3234.000000	0.011668
3233.000000	0.011633
3232.000000	0.011589
3231.000000	0.011544
3230.000000	0.011507
3229.000000	0.011482
3228.000000	0.011468
3227.000000	0.011460
3226.000000	0.011459
3225.000000	0.011462
3224.000000	0.011465
3223.000000	0.011463
3222.000000	0.011455
3221.000000	0.011444
3220.000000	0.011432
3219.000000	0.011419
3218.000000	0.011405
3217.000000	0.011391
3216.000000	0.011377
3215.000000	0.011356
3214.000000	0.011323
3213.000000	0.011279
3212.000000	0.011234
3211.000000	0.011198
3210.000000	0.011173
3209.000000	0.011156
3208.000000	0.011145
3207.000000	0.011138
3206.000000	0.011136
3205.000000	0.011134
3204.000000	0.011126
3203.000000	0.011106
3202.000000	0.011077
3201.000000	0.011047
3200.000000	0.011023
3199.000000	0.011004
3198.000000	0.010984
3197.000000	0.010959
3196.000000	0.010934
3195.000000	0.010914
3194.000000	0.010902
3193.000000	0.010891
3192.000000	0.010868
3191.000000	0.010827
3190.000000	0.010775
3189.000000	0.010733
3188.000000	0.010714
3187.000000	0.010714
3186.000000	0.010714
3185.000000	0.010694
3184.000000	0.010656
3183.000000	0.010608
3182.000000	0.010561
3181.000000	0.010515
3180.000000	0.010472
3179.000000	0.010436
3178.000000	0.010410
3177.000000	0.010391
3176.000000	0.010371
3175.000000	0.010347
3174.000000	0.010323
3173.000000	0.010302
3172.000000	0.010284
3171.000000	0.010266
3170.000000	0.010244
3169.000000	0.010213
3168.000000	0.010167
3167.000000	0.010108
3166.000000	0.010045
3165.000000	0.009989
3164.000000	0.009948
3163.000000	0.009926
3162.000000	0.009917
3161.000000	0.009914
3160.000000	0.009908
3159.000000	0.009892
3158.000000	0.009861
3157.000000	0.009815
3156.000000	0.009756
3155.000000	0.009694
3154.000000	0.009644
3153.000000	0.009618
3152.000000	0.009619
3151.000000	0.009633
3150.000000	0.009641
3149.000000	0.009628
3148.000000	0.009592
3147.000000	0.009545
3146.000000	0.009502
3145.000000	0.009475
3144.000000	0.009466
3143.000000	0.009464
3142.000000	0.009457
3141.000000	0.009439
3140.000000	0.009416
3139.000000	0.009394
3138.000000	0.009373
3137.000000	0.009349
3136.000000	0.009318
3135.000000	0.009283
3134.000000	0.009248
3133.000000	0.009216
3132.000000	0.009192
3131.000000	0.009176
3130.000000	0.009169
3129.000000	0.009172
3128.000000	0.009181
3127.000000	0.009192
3126.000000	0.009199
3125.000000	0.009202
3124.000000	0.009199
3123.000000	0.009186
3122.000000	0.009158
3121.000000	0.009117
3120.000000	0.009074
3119.000000	0.009048
3118.000000	0.009046
3117.000000	0.009065
3116.000000	0.009090
3115.000000	0.009110
3114.000000	0.009118
3113.000000	0.009112
3112.000000	0.009101
3111.000000	0.009095
3110.000000	0.009102
3109.000000	0.009122
3108.000000	0.009148
3107.000000	0.009175
3106.000000	0.009198
3105.000000	0.009216
3104.000000	0.009228
3103.000000	0.009233
3102.000000	0.009224
3101.000000	0.009202
3100.000000	0.009178
3099.000000	0.009171
3098.000000	0.009193
3097.000000	0.009239
3096.000000	0.009292
3095.000000	0.009337
3094.000000	0.009369
3093.000000	0.009388
3092.000000	0.009394
3091.000000	0.009393
3090.000000	0.009398
3089.000000	0.009414
3088.000000	0.009433
3087.000000	0.009443
3086.000000	0.009440
3085.000000	0.009431
3084.000000	0.009430
3083.000000	0.009439
3082.000000	0.009449
3081.000000	0.009455
3080.000000	0.009463
3079.000000	0.009478
3078.000000	0.009502
3077.000000	0.009523
3076.000000	0.009529
3075.000000	0.009518
3074.000000	0.009499
3073.000000	0.009491
3072.000000	0.009505
3071.000000	0.009533
3070.000000	0.009554
3069.000000	0.009553
3068.000000	0.009531
3067.000000	0.009507
3066.000000	0.009495
3065.000000	0.009494
3064.000000	0.009493
3063.000000	0.009487
3062.000000	0.009479
3061.000000	0.009474
3060.000000	0.009468
3059.000000	0.009451
3058.000000	0.009421
3057.000000	0.009382
3056.000000	0.009345
3055.000000	0.009318
3054.000000	0.009300
3053.000000	0.009278
3052.000000	0.009246
3051.000000	0.009211
3050.000000	0.009184
3049.000000	0.009169
3048.000000	0.009157
3047.000000	0.009137
3046.000000	0.009105
3045.000000	0.009068
3044.000000	0.009033
3043.000000	0.009004
3042.000000	0.008979
3041.000000	0.008954
3040.000000	0.008922
3039.000000	0.008882
3038.000000	0.008843
3037.000000	0.008817
3036.000000	0.008808
3035.000000	0.008805
3034.000000	0.008795
3033.000000	0.008769
3032.000000	0.008731
3031.000000	0.008689
3030.000000	0.008647
3029.000000	0.008606
3028.000000	0.008568
3027.000000	0.008535
3026.000000	0.008510
3025.000000	0.008487
3024.000000	0.008461
3023.000000	0.008435
3022.000000	0.008417
3021.000000	0.008411
3020.000000	0.008411
3019.000000	0.008403
3018.000000	0.008375
3017.000000	0.008331
3016.000000	0.008283
3015.000000	0.008245
3014.000000	0.008225
3013.000000	0.008218
3012.000000	0.008211
3011.000000	0.008196
3010.000000	0.008175
3009.000000	0.008159
3008.000000	0.008157
3007.000000	0.008166
3006.000000	0.008179
3005.000000	0.008187
3004.000000	0.008183
3003.000000	0.008169
3002.000000	0.008154
3001.000000	0.008144
3000.000000	0.008144
2999.000000	0.008155
2998.000000	0.008174
2997.000000	0.008200
2996.000000	0.008232
2995.000000	0.008268
2994.000000	0.008304
2993.000000	0.008337
2992.000000	0.008359
2991.000000	0.008373
2990.000000	0.008387
2989.000000	0.008411
2988.000000	0.008448
2987.000000	0.008488
2986.000000	0.008523
2985.000000	0.008553
2984.000000	0.008588
2983.000000	0.008628
2982.000000	0.008664
2981.000000	0.008689
2980.000000	0.008703
2979.000000	0.008717
2978.000000	0.008737
2977.000000	0.008762
2976.000000	0.008782
2975.000000	0.008793
2974.000000	0.008799
2973.000000	0.008808
2972.000000	0.008828
2971.000000	0.008861
2970.000000	0.008897
2969.000000	0.008929
2968.000000	0.008955
2967.000000	0.008976
2966.000000	0.008994
2965.000000	0.009013
2964.000000	0.009043
2963.000000	0.009087
2962.000000	0.009137
2961.000000	0.009176
2960.000000	0.009194
2959.000000	0.009193
2958.000000	0.009192
2957.000000	0.009208
2956.000000	0.009241
2955.000000	0.009276
2954.000000	0.009298
2953.000000	0.009302
2952.000000	0.009297
2951.000000	0.009291
2950.000000	0.009284
2949.000000	0.009274
2948.000000	0.009265
2947.000000	0.009262
2946.000000	0.009261
2945.000000	0.009254
2944.000000	0.009241
2943.000000	0.009234
2942.000000	0.009240
2941.000000	0.009263
2940.000000	0.009301
2939.000000	0.009350
2938.000000	0.009403
2937.000000	0.009448
2936.000000	0.009478
2935.000000	0.009493
2934.000000	0.009502
2933.000000	0.009519
2932.000000	0.009552
2931.000000	0.009594
2930.000000	0.009624
2929.000000	0.009619
2928.000000	0.009583
2927.000000	0.009543
2926.000000	0.009534
2925.000000	0.009565
2924.000000	0.009613
2923.000000	0.009650
2922.000000	0.009660
2921.000000	0.009647
2920.000000	0.009626
2919.000000	0.009610
2918.000000	0.009595
2917.000000	0.009569
2916.000000	0.009525
2915.000000	0.009467
2914.000000	0.009401
2913.000000	0.009327
2912.000000	0.009240
2911.000000	0.009148
2910.000000	0.009065
2909.000000	0.008998
2908.000000	0.008943
2907.000000	0.008886
2906.000000	0.008824
2905.000000	0.008764
2904.000000	0.008718
2903.000000	0.008688
2902.000000	0.008666
2901.000000	0.008638
2900.000000	0.008606
2899.000000	0.008578
2898.000000	0.008564
2897.000000	0.008562
2896.000000	0.008560
2895.000000	0.008554
2894.000000	0.008547
2893.000000	0.008540
2892.000000	0.008528
2891.000000	0.008504
2890.000000	0.008474
2889.000000	0.008449
2888.000000	0.008437
2887.000000	0.008440
2886.000000	0.008453
2885.000000	0.008471
2884.000000	0.008488
2883.000000	0.008500
2882.000000	0.008511
2881.000000	0.008526
2880.000000	0.008551
2879.000000	0.008579
2878.000000	0.008600
2877.000000	0.008602
2876.000000	0.008584
2875.000000	0.008557
2874.000000	0.008527
2873.000000	0.008501
2872.000000	0.008475
2871.000000	0.008447
2870.000000	0.008418
2869.000000	0.008395
2868.000000	0.008377
2867.000000	0.008359
2866.000000	0.008332
2865.000000	0.008293
2864.000000	0.008251
2863.000000	0.008216
2862.000000	0.008193
2861.000000	0.008176
2860.000000	0.008159
2859.000000	0.008140
2858.000000	0.008122
2857.000000	0.008113
2856.000000	0.008117
2855.000000	0.008137
2854.000000	0.008169
2853.000000	0.008205
2852.000000	0.008233
2851.000000	0.008242
2850.000000	0.008223
2849.000000	0.008181
2848.000000	0.008124
2847.000000	0.008060
2846.000000	0.007992
2845.000000	0.007921
2844.000000	0.007851
2843.000000	0.007784
2842.000000	0.007723
2841.000000	0.007673
2840.000000	0.007644
2839.000000	0.007635
2838.000000	0.007638
2837.000000	0.007635
2836.000000	0.007617
2835.000000	0.007589
2834.000000	0.007561
2833.000000	0.007543
2832.000000	0.007538
2831.000000	0.007540
2830.000000	0.007540
2829.000000	0.007530
2828.000000	0.007509
2827.000000	0.007484
2826.000000	0.007462
2825.000000	0.007449
2824.000000	0.007447
2823.000000	0.007456
2822.000000	0.007468
2821.000000	0.007469
2820.000000	0.007455
2819.000000	0.007430
2818.000000	0.007405
2817.000000	0.007391
2816.000000	0.007386
2815.000000	0.007384
2814.000000	0.007372
2813.000000	0.007345
2812.000000	0.007309
2811.000000	0.007276
2810.000000	0.007255
2809.000000	0.007247
2808.000000	0.007247
2807.000000	0.007253
2806.000000	0.007258
2805.000000	0.007257
2804.000000	0.007246
2803.000000	0.007230
2802.000000	0.007210
2801.000000	0.007189
2800.000000	0.007171
2799.000000	0.007168
2798.000000	0.007181
2797.000000	0.007199
2796.000000	0.007208
2795.000000	0.007203
2794.000000	0.007190
2793.000000	0.007173
2792.000000	0.007154
2791.000000	0.007139
2790.000000	0.007135
2789.000000	0.007139
2788.000000	0.007140
2787.000000	0.007130
2786.000000	0.007114
2785.000000	0.007101
2784.000000	0.007093
2783.000000	0.007091
2782.000000	0.007092
2781.000000	0.007092
2780.000000	0.007085
2779.000000	0.007069
2778.000000	0.007048
2777.000000	0.007029
2776.000000	0.007016
2775.000000	0.007009
2774.000000	0.007002
2773.000000	0.006990
2772.000000	0.006969
2771.000000	0.006945
2770.000000	0.006927
2769.000000	0.006923
2768.000000	0.006930
2767.000000	0.006942
2766.000000	0.006946
2765.000000	0.006938
2764.000000	0.006918
2763.000000	0.006896
2762.000000	0.006883
2761.000000	0.006873
2760.000000	0.006857
2759.000000	0.006833
2758.000000	0.006816
2757.000000	0.006818
2756.000000	0.006833
2755.000000	0.006839
2754.000000	0.006826
2753.000000	0.006801
2752.000000	0.006783
2751.000000	0.006781
2750.000000	0.006788
2749.000000	0.006796
2748.000000	0.006796
2747.000000	0.006784
2746.000000	0.006759
2745.000000	0.006726
2744.000000	0.006698
2743.000000	0.006686
2742.000000	0.006696
2741.000000	0.006724
2740.000000	0.006758
2739.000000	0.006783
2738.000000	0.006784
2737.000000	0.006761
2736.000000	0.006727
2735.000000	0.006697
2734.000000	0.006675
2733.000000	0.006658
2732.000000	0.006643
2731.000000	0.006631
2730.000000	0.006628
2729.000000	0.006629
2728.000000	0.006631
2727.000000	0.006629
2726.000000	0.006618
2725.000000	0.006600
2724.000000	0.006580
2723.000000	0.006565
2722.000000	0.006559
2721.000000	0.006554
2720.000000	0.006541
2719.000000	0.006523
2718.000000	0.006509
2717.000000	0.006504
2716.000000	0.006503
2715.000000	0.006499
2714.000000	0.006491
2713.000000	0.006483
2712.000000	0.006480
2711.000000	0.006485
2710.000000	0.006498
2709.000000	0.006509
2708.000000	0.006509
2707.000000	0.006493
2706.000000	0.006470
2705.000000	0.006454
2704.000000	0.006454
2703.000000	0.006467
2702.000000	0.006483
2701.000000	0.006495
2700.000000	0.006495
2699.000000	0.006484
2698.000000	0.006466
2697.000000	0.006446
2696.000000	0.006427
2695.000000	0.006414
2694.000000	0.006405
2693.000000	0.006395
2692.000000	0.006379
2691.000000	0.006359
2690.000000	0.006342
2689.000000	0.006335
2688.000000	0.006335
2687.000000	0.006338
2686.000000	0.006345
2685.000000	0.006360
2684.000000	0.006381
2683.000000	0.006401
2682.000000	0.006409
2681.000000	0.006404
2680.000000	0.006389
2679.000000	0.006376
2678.000000	0.006368
2677.000000	0.006364
2676.000000	0.006358
2675.000000	0.006348
2674.000000	0.006337
2673.000000	0.006325
2672.000000	0.006312
2671.000000	0.006298
2670.000000	0.006287
2669.000000	0.006283
2668.000000	0.006288
2667.000000	0.006302
2666.000000	0.006318
2665.000000	0.006329
2664.000000	0.006333
2663.000000	0.006332
2662.000000	0.006334
2661.000000	0.006334
2660.000000	0.006328
2659.000000	0.006312
2658.000000	0.006293
2657.000000	0.006275
2656.000000	0.006260
2655.000000	0.006248
2654.000000	0.006238
2653.000000	0.006229
2652.000000	0.006212
2651.000000	0.006182
2650.000000	0.006146
2649.000000	0.006116
2648.000000	0.006097
2647.000000	0.006078
2646.000000	0.006050
2645.000000	0.006014
2644.000000	0.005978
2643.000000	0.005955
2642.000000	0.005948
2641.000000	0.005954
2640.000000	0.005961
2639.000000	0.005962
2638.000000	0.005947
2637.000000	0.005914
2636.000000	0.005865
2635.000000	0.005812
2634.000000	0.005774
2633.000000	0.005759
2632.000000	0.005759
2631.000000	0.005761
2630.000000	0.005762
2629.000000	0.005768
2628.000000	0.005782
2627.000000	0.005792
2626.000000	0.005786
2625.000000	0.005766
2624.000000	0.005745
2623.000000	0.005730
2622.000000	0.005717
2621.000000	0.005698
2620.000000	0.005674
2619.000000	0.005658
2618.000000	0.005656
2617.000000	0.005657
2616.000000	0.005648
2615.000000	0.005627
2614.000000	0.005607
2613.000000	0.005595
2612.000000	0.005591
2611.000000	0.005586
2610.000000	0.005572
2609.000000	0.005542
2608.000000	0.005499
2607.000000	0.005457
2606.000000	0.005431
2605.000000	0.005422
2604.000000	0.005421
2603.000000	0.005422
2602.000000	0.005426
2601.000000	0.005434
2600.000000	0.005445
2599.000000	0.005448
2598.000000	0.005439
2597.000000	0.005417
2596.000000	0.005385
2595.000000	0.005353
2594.000000	0.005330
2593.000000	0.005320
2592.000000	0.005323
2591.000000	0.005340
2590.000000	0.005376
2589.000000	0.005420
2588.000000	0.005448
2587.000000	0.005436
2586.000000	0.005391
2585.000000	0.005338
2584.000000	0.005300
2583.000000	0.005283
2582.000000	0.005278
2581.000000	0.005266
2580.000000	0.005239
2579.000000	0.005208
2578.000000	0.005194
2577.000000	0.005205
2576.000000	0.005224
2575.000000	0.005226
2574.000000	0.005202
2573.000000	0.005170
2572.000000	0.005149
2571.000000	0.005148
2570.000000	0.005163
2569.000000	0.005183
2568.000000	0.005201
2567.000000	0.005215
2566.000000	0.005224
2565.000000	0.005222
2564.000000	0.005203
2563.000000	0.005171
2562.000000	0.005135
2561.000000	0.005103
2560.000000	0.005078
2559.000000	0.005072
2558.000000	0.005095
2557.000000	0.005144
2556.000000	0.005192
2555.000000	0.005213
2554.000000	0.005208
2553.000000	0.005193
2552.000000	0.005176
2551.000000	0.005156
2550.000000	0.005138
2549.000000	0.005132
2548.000000	0.005141
2547.000000	0.005153
2546.000000	0.005156
2545.000000	0.005145
2544.000000	0.005125
2543.000000	0.005102
2542.000000	0.005083
2541.000000	0.005070
2540.000000	0.005059
2539.000000	0.005048
2538.000000	0.005038
2537.000000	0.005031
2536.000000	0.005021
2535.000000	0.005009
2534.000000	0.005008
2533.000000	0.005028
2532.000000	0.005056
2531.000000	0.005070
2530.000000	0.005064
2529.000000	0.005052
2528.000000	0.005046
2527.000000	0.005047
2526.000000	0.005052
2525.000000	0.005066
2524.000000	0.005090
2523.000000	0.005113
2522.000000	0.005120
2521.000000	0.005102
2520.000000	0.005063
2519.000000	0.005012
2518.000000	0.004960
2517.000000	0.004923
2516.000000	0.004912
2515.000000	0.004927
2514.000000	0.004958
2513.000000	0.004988
2512.000000	0.005003
2511.000000	0.005007
2510.000000	0.005014
2509.000000	0.005037
2508.000000	0.005070
2507.000000	0.005095
2506.000000	0.005103
2505.000000	0.005096
2504.000000	0.005082
2503.000000	0.005065
2502.000000	0.005048
2501.000000	0.005036
2500.000000	0.005036
2499.000000	0.005051
2498.000000	0.005069
2497.000000	0.005071
2496.000000	0.005038
2495.000000	0.004974
2494.000000	0.004906
2493.000000	0.004857
2492.000000	0.004832
2491.000000	0.004823
2490.000000	0.004833
2489.000000	0.004864
2488.000000	0.004901
2487.000000	0.004919
2486.000000	0.004910
2485.000000	0.004889
2484.000000	0.004879
2483.000000	0.004887
2482.000000	0.004909
2481.000000	0.004937
2480.000000	0.004962
2479.000000	0.004976
2478.000000	0.004972
2477.000000	0.004962
2476.000000	0.004959
2475.000000	0.004972
2474.000000	0.004995
2473.000000	0.005014
2472.000000	0.005021
2471.000000	0.005018
2470.000000	0.005005
2469.000000	0.004977
2468.000000	0.004932
2467.000000	0.004882
2466.000000	0.004850
2465.000000	0.004843
2464.000000	0.004848
2463.000000	0.004849
2462.000000	0.004844
2461.000000	0.004843
2460.000000	0.004856
2459.000000	0.004888
2458.000000	0.004937
2457.000000	0.004989
2456.000000	0.005020
2455.000000	0.005018
2454.000000	0.004992
2453.000000	0.004967
2452.000000	0.004959
2451.000000	0.004964
2450.000000	0.004968
2449.000000	0.004964
2448.000000	0.004948
2447.000000	0.004921
2446.000000	0.004891
2445.000000	0.004869
2444.000000	0.004861
2443.000000	0.004871
2442.000000	0.004898
2441.000000	0.004932
2440.000000	0.004947
2439.000000	0.004930
2438.000000	0.004898
2437.000000	0.004880
2436.000000	0.004887
2435.000000	0.004898
2434.000000	0.004895
2433.000000	0.004883
2432.000000	0.004881
2431.000000	0.004899
2430.000000	0.004923
2429.000000	0.004934
2428.000000	0.004914
2427.000000	0.004865
2426.000000	0.004805
2425.000000	0.004757
2424.000000	0.004733
2423.000000	0.004726
2422.000000	0.004727
2421.000000	0.004729
2420.000000	0.004733
2419.000000	0.004742
2418.000000	0.004757
2417.000000	0.004775
2416.000000	0.004784
2415.000000	0.004774
2414.000000	0.004757
2413.000000	0.004756
2412.000000	0.004787
2411.000000	0.004836
2410.000000	0.004875
2409.000000	0.004886
2408.000000	0.004875
2407.000000	0.004852
2406.000000	0.004821
2405.000000	0.004784
2404.000000	0.004747
2403.000000	0.004726
2402.000000	0.004731
2401.000000	0.004759
2400.000000	0.004790
2399.000000	0.004800
2398.000000	0.004780
2397.000000	0.004749
2396.000000	0.004736
2395.000000	0.004764
2394.000000	0.004829
2393.000000	0.004899
2392.000000	0.004938
2391.000000	0.004930
2390.000000	0.004887
2389.000000	0.004841
2388.000000	0.004821
2387.000000	0.004831
2386.000000	0.004858
2385.000000	0.004874
2384.000000	0.004868
2383.000000	0.004848
2382.000000	0.004835
2381.000000	0.004836
2380.000000	0.004840
2379.000000	0.004841
2378.000000	0.004846
2377.000000	0.004857
2376.000000	0.004867
2375.000000	0.004868
2374.000000	0.004860
2373.000000	0.004845
2372.000000	0.004817
2371.000000	0.004781
2370.000000	0.004759
2369.000000	0.004762
2368.000000	0.004781
2367.000000	0.004798
2366.000000	0.004815
2365.000000	0.004842
2364.000000	0.004878
2363.000000	0.004922
2362.000000	0.004972
2361.000000	0.005008
2360.000000	0.005016
2359.000000	0.005001
2358.000000	0.004981
2357.000000	0.004967
2356.000000	0.004955
2355.000000	0.004955
2354.000000	0.004962
2353.000000	0.004957
2352.000000	0.004940
2351.000000	0.004928
2350.000000	0.004937
2349.000000	0.004965
2348.000000	0.004995
2347.000000	0.005003
2346.000000	0.005000
2345.000000	0.005030
2344.000000	0.005111
2343.000000	0.005198
2342.000000	0.005226
2341.000000	0.005183
2340.000000	0.005123
2339.000000	0.005104
2338.000000	0.005124
2337.000000	0.005140
2336.000000	0.005115
2335.000000	0.005046
2334.000000	0.004954
2333.000000	0.004877
2332.000000	0.004854
2331.000000	0.004900
2330.000000	0.004987
2329.000000	0.005070
2328.000000	0.005131
2327.000000	0.005177
2326.000000	0.005211
2325.000000	0.005225
2324.000000	0.005205
2323.000000	0.005157
2322.000000	0.005109
2321.000000	0.005094
2320.000000	0.005121
2319.000000	0.005172
2318.000000	0.005219
2317.000000	0.005247
2316.000000	0.005249
2315.000000	0.005215
2314.000000	0.005140
2313.000000	0.005040
2312.000000	0.004947
2311.000000	0.004885
2310.000000	0.004862
2309.000000	0.004872
2308.000000	0.004894
2307.000000	0.004905
2306.000000	0.004898
2305.000000	0.004886
2304.000000	0.004878
2303.000000	0.004863
2302.000000	0.004828
2301.000000	0.004784
2300.000000	0.004758
2299.000000	0.004760
2298.000000	0.004775
2297.000000	0.004781
2296.000000	0.004778
2295.000000	0.004771
2294.000000	0.004767
2293.000000	0.004763
2292.000000	0.004759
2291.000000	0.004749
2290.000000	0.004731
2289.000000	0.004711
2288.000000	0.004708
2287.000000	0.004739
2286.000000	0.004796
2285.000000	0.004856
2284.000000	0.004900
2283.000000	0.004927
2282.000000	0.004935
2281.000000	0.004922
2280.000000	0.004890
2279.000000	0.004852
2278.000000	0.004818
2277.000000	0.004783
2276.000000	0.004745
2275.000000	0.004710
2274.000000	0.004688
2273.000000	0.004671
2272.000000	0.004654
2271.000000	0.004647
2270.000000	0.004669
2269.000000	0.004714
2268.000000	0.004751
2267.000000	0.004768
2266.000000	0.004774
2265.000000	0.004777
2264.000000	0.004760
2263.000000	0.004712
2262.000000	0.004646
2261.000000	0.004592
2260.000000	0.004556
2259.000000	0.004529
2258.000000	0.004517
2257.000000	0.004523
2256.000000	0.004526
2255.000000	0.004489
2254.000000	0.004412
2253.000000	0.004341
2252.000000	0.004325
2251.000000	0.004361
2250.000000	0.004401
2249.000000	0.004398
2248.000000	0.004346
2247.000000	0.004290
2246.000000	0.004293
2245.000000	0.004371
2244.000000	0.004475
2243.000000	0.004529
2242.000000	0.004508
2241.000000	0.004449
2240.000000	0.004411
2239.000000	0.004425
2238.000000	0.004488
2237.000000	0.004570
2236.000000	0.004614
2235.000000	0.004569
2234.000000	0.004441
2233.000000	0.004304
2232.000000	0.004244
2231.000000	0.004281
2230.000000	0.004367
2229.000000	0.004438
2228.000000	0.004468
2227.000000	0.004465
2226.000000	0.004449
2225.000000	0.004433
2224.000000	0.004436
2223.000000	0.004479
2222.000000	0.004557
2221.000000	0.004609
2220.000000	0.004562
2219.000000	0.004402
2218.000000	0.004209
2217.000000	0.004097
2216.000000	0.004135
2215.000000	0.004301
2214.000000	0.004504
2213.000000	0.004629
2212.000000	0.004598
2211.000000	0.004431
2210.000000	0.004228
2209.000000	0.004091
2208.000000	0.004052
2207.000000	0.004091
2206.000000	0.004182
2205.000000	0.004291
2204.000000	0.004359
2203.000000	0.004334
2202.000000	0.004225
2201.000000	0.004099
2200.000000	0.004014
2199.000000	0.003974
2198.000000	0.003943
2197.000000	0.003901
2196.000000	0.003870
2195.000000	0.003908
2194.000000	0.004048
2193.000000	0.004236
2192.000000	0.004363
2191.000000	0.004377
2190.000000	0.004329
2189.000000	0.004288
2188.000000	0.004254
2187.000000	0.004210
2186.000000	0.004188
2185.000000	0.004232
2184.000000	0.004300
2183.000000	0.004303
2182.000000	0.004230
2181.000000	0.004160
2180.000000	0.004151
2179.000000	0.004169
2178.000000	0.004148
2177.000000	0.004068
2176.000000	0.003950
2175.000000	0.003847
2174.000000	0.003815
2173.000000	0.003863
2172.000000	0.003922
2171.000000	0.003935
2170.000000	0.003942
2169.000000	0.004029
2168.000000	0.004186
2167.000000	0.004308
2166.000000	0.004345
2165.000000	0.004369
2164.000000	0.004442
2163.000000	0.004500
2162.000000	0.004425
2161.000000	0.004180
2160.000000	0.003830
2159.000000	0.003484
2158.000000	0.003253
2157.000000	0.003186
2156.000000	0.003206
2155.000000	0.003182
2154.000000	0.003093
2153.000000	0.003050
2152.000000	0.003158
2151.000000	0.003396
2150.000000	0.003672
2149.000000	0.003925
2148.000000	0.004125
2147.000000	0.004230
2146.000000	0.004194
2145.000000	0.004048
2144.000000	0.003893
2143.000000	0.003819
2142.000000	0.003836
2141.000000	0.003883
2140.000000	0.003898
2139.000000	0.003867
2138.000000	0.003811
2137.000000	0.003753
2136.000000	0.003697
2135.000000	0.003668
2134.000000	0.003714
2133.000000	0.003853
2132.000000	0.004029
2131.000000	0.004154
2130.000000	0.004195
2129.000000	0.004187
2128.000000	0.004175
2127.000000	0.004172
2126.000000	0.004174
2125.000000	0.004192
2124.000000	0.004240
2123.000000	0.004310
2122.000000	0.004382
2121.000000	0.004436
2120.000000	0.004460
2119.000000	0.004448
2118.000000	0.004412
2117.000000	0.004380
2116.000000	0.004371
2115.000000	0.004382
2114.000000	0.004407
2113.000000	0.004444
2112.000000	0.004483
2111.000000	0.004491
2110.000000	0.004440
2109.000000	0.004337
2108.000000	0.004219
2107.000000	0.004128
2106.000000	0.004096
2105.000000	0.004132
2104.000000	0.004219
2103.000000	0.004321
2102.000000	0.004406
2101.000000	0.004472
2100.000000	0.004527
2099.000000	0.004566
2098.000000	0.004568
2097.000000	0.004512
2096.000000	0.004396
2095.000000	0.004251
2094.000000	0.004142
2093.000000	0.004128
2092.000000	0.004202
2091.000000	0.004286
2090.000000	0.004307
2089.000000	0.004258
2088.000000	0.004193
2087.000000	0.004148
2086.000000	0.004117
2085.000000	0.004081
2084.000000	0.004047
2083.000000	0.004041
2082.000000	0.004088
2081.000000	0.004190
2080.000000	0.004324
2079.000000	0.004443
2078.000000	0.004489
2077.000000	0.004436
2076.000000	0.004324
2075.000000	0.004235
2074.000000	0.004223
2073.000000	0.004259
2072.000000	0.004268
2071.000000	0.004209
2070.000000	0.004118
2069.000000	0.004065
2068.000000	0.004074
2067.000000	0.004109
2066.000000	0.004124
2065.000000	0.004115
2064.000000	0.004107
2063.000000	0.004116
2062.000000	0.004133
2061.000000	0.004144
2060.000000	0.004146
2059.000000	0.004147
2058.000000	0.004146
2057.000000	0.004133
2056.000000	0.004115
2055.000000	0.004109
2054.000000	0.004114
2053.000000	0.004093
2052.000000	0.004031
2051.000000	0.003981
2050.000000	0.004025
2049.000000	0.004163
2048.000000	0.004285
2047.000000	0.004297
2046.000000	0.004228
2045.000000	0.004162
2044.000000	0.004126
2043.000000	0.004091
2042.000000	0.004040
2041.000000	0.003976
2040.000000	0.003891
2039.000000	0.003782
2038.000000	0.003689
2037.000000	0.003660
2036.000000	0.003682
2035.000000	0.003702
2034.000000	0.003697
2033.000000	0.003669
2032.000000	0.003599
2031.000000	0.003483
2030.000000	0.003379
2029.000000	0.003349
2028.000000	0.003377
2027.000000	0.003412
2026.000000	0.003472
2025.000000	0.003596
2024.000000	0.003725
2023.000000	0.003738
2022.000000	0.003610
2021.000000	0.003454
2020.000000	0.003377
2019.000000	0.003381
2018.000000	0.003422
2017.000000	0.003494
2016.000000	0.003594
2015.000000	0.003675
2014.000000	0.003684
2013.000000	0.003632
2012.000000	0.003580
2011.000000	0.003569
2010.000000	0.003577
2009.000000	0.003536
2008.000000	0.003402
2007.000000	0.003219
2006.000000	0.003101
2005.000000	0.003113
2004.000000	0.003203
2003.000000	0.003274
2002.000000	0.003305
2001.000000	0.003346
2000.000000	0.003425
1999.000000	0.003515
1998.000000	0.003578
1997.000000	0.003612
1996.000000	0.003641
1995.000000	0.003703
1994.000000	0.003822
1993.000000	0.003970
1992.000000	0.004047
1991.000000	0.003964
1990.000000	0.003737
1989.000000	0.003487
1988.000000	0.003355
1987.000000	0.003417
1986.000000	0.003659
1985.000000	0.003984
1984.000000	0.004269
1983.000000	0.004460
1982.000000	0.004600
1981.000000	0.004730
1980.000000	0.004786
1979.000000	0.004666
1978.000000	0.004373
1977.000000	0.004050
1976.000000	0.003821
1975.000000	0.003688
1974.000000	0.003595
1973.000000	0.003512
1972.000000	0.003426
1971.000000	0.003336
1970.000000	0.003261
1969.000000	0.003229
1968.000000	0.003237
1967.000000	0.003268
1966.000000	0.003332
1965.000000	0.003442
1964.000000	0.003562
1963.000000	0.003629
1962.000000	0.003611
1961.000000	0.003519
1960.000000	0.003392
1959.000000	0.003296
1958.000000	0.003300
1957.000000	0.003410
1956.000000	0.003539
1955.000000	0.003595
1954.000000	0.003581
1953.000000	0.003559
1952.000000	0.003558
1951.000000	0.003553
1950.000000	0.003531
1949.000000	0.003501
1948.000000	0.003469
1947.000000	0.003442
1946.000000	0.003452
1945.000000	0.003524
1944.000000	0.003624
1943.000000	0.003694
1942.000000	0.003716
1941.000000	0.003716
1940.000000	0.003706
1939.000000	0.003682
1938.000000	0.003665
1937.000000	0.003688
1936.000000	0.003736
1935.000000	0.003764
1934.000000	0.003757
1933.000000	0.003731
1932.000000	0.003685
1931.000000	0.003607
1930.000000	0.003538
1929.000000	0.003556
1928.000000	0.003672
1927.000000	0.003801
1926.000000	0.003854
1925.000000	0.003821
1924.000000	0.003752
1923.000000	0.003707
1922.000000	0.003715
1921.000000	0.003764
1920.000000	0.003797
1919.000000	0.003751
1918.000000	0.003632
1917.000000	0.003518
1916.000000	0.003476
1915.000000	0.003496
1914.000000	0.003543
1913.000000	0.003607
1912.000000	0.003689
1911.000000	0.003771
1910.000000	0.003831
1909.000000	0.003858
1908.000000	0.003853
1907.000000	0.003815
1906.000000	0.003757
1905.000000	0.003708
1904.000000	0.003685
1903.000000	0.003669
1902.000000	0.003638
1901.000000	0.003595
1900.000000	0.003560
1899.000000	0.003553
1898.000000	0.003583
1897.000000	0.003646
1896.000000	0.003700
1895.000000	0.003696
1894.000000	0.003631
1893.000000	0.003559
1892.000000	0.003526
1891.000000	0.003530
1890.000000	0.003544
1889.000000	0.003564
1888.000000	0.003595
1887.000000	0.003627
1886.000000	0.003638
1885.000000	0.003632
1884.000000	0.003630
1883.000000	0.003643
1882.000000	0.003659
1881.000000	0.003668
1880.000000	0.003671
1879.000000	0.003673
1878.000000	0.003666
1877.000000	0.003644
1876.000000	0.003617
1875.000000	0.003600
1874.000000	0.003596
1873.000000	0.003587
1872.000000	0.003541
1871.000000	0.003446
1870.000000	0.003341
1869.000000	0.003301
1868.000000	0.003369
1867.000000	0.003506
1866.000000	0.003638
1865.000000	0.003717
1864.000000	0.003732
1863.000000	0.003703
1862.000000	0.003663
1861.000000	0.003637
1860.000000	0.003627
1859.000000	0.003621
1858.000000	0.003603
1857.000000	0.003573
1856.000000	0.003541
1855.000000	0.003522
1854.000000	0.003527
1853.000000	0.003551
1852.000000	0.003572
1851.000000	0.003576
1850.000000	0.003562
1849.000000	0.003534
1848.000000	0.003501
1847.000000	0.003478
1846.000000	0.003488
1845.000000	0.003539
1844.000000	0.003598
1843.000000	0.003617
1842.000000	0.003599
1841.000000	0.003582
1840.000000	0.003580
1839.000000	0.003577
1838.000000	0.003561
1837.000000	0.003539
1836.000000	0.003521
1835.000000	0.003500
1834.000000	0.003473
1833.000000	0.003443
1832.000000	0.003413
1831.000000	0.003383
1830.000000	0.003369
1829.000000	0.003388
1828.000000	0.003428
1827.000000	0.003465
1826.000000	0.003482
1825.000000	0.003481
1824.000000	0.003474
1823.000000	0.003467
1822.000000	0.003462
1821.000000	0.003462
1820.000000	0.003463
1819.000000	0.003459
1818.000000	0.003454
1817.000000	0.003459
1816.000000	0.003476
1815.000000	0.003495
1814.000000	0.003506
1813.000000	0.003506
1812.000000	0.003493
1811.000000	0.003473
1810.000000	0.003459
1809.000000	0.003462
1808.000000	0.003479
1807.000000	0.003493
1806.000000	0.003496
1805.000000	0.003490
1804.000000	0.003474
1803.000000	0.003448
1802.000000	0.003426
1801.000000	0.003429
1800.000000	0.003463
1799.000000	0.003507
1798.000000	0.003535
1797.000000	0.003536
1796.000000	0.003517
1795.000000	0.003494
1794.000000	0.003480
1793.000000	0.003481
1792.000000	0.003485
1791.000000	0.003474
1790.000000	0.003453
1789.000000	0.003444
1788.000000	0.003455
1787.000000	0.003472
1786.000000	0.003477
1785.000000	0.003460
1784.000000	0.003424
1783.000000	0.003383
1782.000000	0.003357
1781.000000	0.003355
1780.000000	0.003374
1779.000000	0.003393
1778.000000	0.003399
1777.000000	0.003392
1776.000000	0.003373
1775.000000	0.003344
1774.000000	0.003311
1773.000000	0.003282
1772.000000	0.003258
1771.000000	0.003240
1770.000000	0.003234
1769.000000	0.003253
1768.000000	0.003280
1767.000000	0.003289
1766.000000	0.003280
1765.000000	0.003277
1764.000000	0.003286
1763.000000	0.003289
1762.000000	0.003276
1761.000000	0.003259
1760.000000	0.003251
1759.000000	0.003257
1758.000000	0.003281
1757.000000	0.003327
1756.000000	0.003383
1755.000000	0.003437
1754.000000	0.003497
1753.000000	0.003566
1752.000000	0.003623
1751.000000	0.003640
1750.000000	0.003629
1749.000000	0.003637
1748.000000	0.003676
1747.000000	0.003722
1746.000000	0.003759
1745.000000	0.003790
1744.000000	0.003813
1743.000000	0.003815
1742.000000	0.003799
1741.000000	0.003788
1740.000000	0.003786
1739.000000	0.003774
1738.000000	0.003751
1737.000000	0.003739
1736.000000	0.003733
1735.000000	0.003694
1734.000000	0.003623
1733.000000	0.003560
1732.000000	0.003508
1731.000000	0.003455
1730.000000	0.003406
1729.000000	0.003372
1728.000000	0.003354
1727.000000	0.003334
1726.000000	0.003309
1725.000000	0.003293
1724.000000	0.003290
1723.000000	0.003278
1722.000000	0.003256
1721.000000	0.003245
1720.000000	0.003251
1719.000000	0.003242
1718.000000	0.003219
1717.000000	0.003228
1716.000000	0.003289
1715.000000	0.003367
1714.000000	0.003448
1713.000000	0.003548
1712.000000	0.003679
1711.000000	0.003831
1710.000000	0.003989
1709.000000	0.004155
1708.000000	0.004336
1707.000000	0.004542
1706.000000	0.004792
1705.000000	0.005081
1704.000000	0.005368
1703.000000	0.005646
1702.000000	0.005955
1701.000000	0.006351
1700.000000	0.006790
1699.000000	0.007147
1698.000000	0.007445
1697.000000	0.007817
1696.000000	0.008301
1695.000000	0.008782
1694.000000	0.009167
1693.000000	0.009501
1692.000000	0.009844
1691.000000	0.010188
1690.000000	0.010514
1689.000000	0.010820
1688.000000	0.011117
1687.000000	0.011419
1686.000000	0.011759
1685.000000	0.012209
1684.000000	0.012773
1683.000000	0.013298
1682.000000	0.013731
1681.000000	0.014170
1680.000000	0.014646
1679.000000	0.015116
1678.000000	0.015570
1677.000000	0.016063
1676.000000	0.016639
1675.000000	0.017243
1674.000000	0.017785
1673.000000	0.018272
1672.000000	0.018779
1671.000000	0.019351
1670.000000	0.019998
1669.000000	0.020688
1668.000000	0.021330
1667.000000	0.021868
1666.000000	0.022332
1665.000000	0.022802
1664.000000	0.023326
1663.000000	0.023885
1662.000000	0.024426
1661.000000	0.024923
1660.000000	0.025384
1659.000000	0.025801
1658.000000	0.026165
1657.000000	0.026494
1656.000000	0.026818
1655.000000	0.027139
1654.000000	0.027485
1653.000000	0.027912
1652.000000	0.028282
1651.000000	0.028479
1650.000000	0.028614
1649.000000	0.028791
1648.000000	0.029041
1647.000000	0.029333
1646.000000	0.029606
1645.000000	0.029831
1644.000000	0.030026
1643.000000	0.030204
1642.000000	0.030362
1641.000000	0.030494
1640.000000	0.030599
1639.000000	0.030683
1638.000000	0.030757
1637.000000	0.030851
1636.000000	0.030987
1635.000000	0.031130
1634.000000	0.031221
1633.000000	0.031270
1632.000000	0.031297
1631.000000	0.031277
1630.000000	0.031183
1629.000000	0.031014
1628.000000	0.030796
1627.000000	0.030544
1626.000000	0.030258
1625.000000	0.029924
1624.000000	0.029520
1623.000000	0.029039
1622.000000	0.028525
1621.000000	0.028041
1620.000000	0.027600
1619.000000	0.027143
1618.000000	0.026579
1617.000000	0.025888
1616.000000	0.025186
1615.000000	0.024580
1614.000000	0.024060
1613.000000	0.023560
1612.000000	0.023033
1611.000000	0.022481
1610.000000	0.021929
1609.000000	0.021395
1608.000000	0.020886
1607.000000	0.020416
1606.000000	0.019985
1605.000000	0.019574
1604.000000	0.019165
1603.000000	0.018765
1602.000000	0.018396
1601.000000	0.018066
1600.000000	0.017778
1599.000000	0.017529
1598.000000	0.017309
1597.000000	0.017099
1596.000000	0.016902
1595.000000	0.016744
1594.000000	0.016638
1593.000000	0.016564
1592.000000	0.016500
1591.000000	0.016451
1590.000000	0.016426
1589.000000	0.016420
1588.000000	0.016422
1587.000000	0.016441
1586.000000	0.016491
1585.000000	0.016569
1584.000000	0.016665
1583.000000	0.016788
1582.000000	0.016935
1581.000000	0.017085
1580.000000	0.017227
1579.000000	0.017383
1578.000000	0.017581
1577.000000	0.017829
1576.000000	0.018100
1575.000000	0.018346
1574.000000	0.018549
1573.000000	0.018738
1572.000000	0.018945
1571.000000	0.019196
1570.000000	0.019513
1569.000000	0.019868
1568.000000	0.020205
1567.000000	0.020527
1566.000000	0.020872
1565.000000	0.021244
1564.000000	0.021605
1563.000000	0.021930
1562.000000	0.022231
1561.000000	0.022517
1560.000000	0.022825
1559.000000	0.023264
1558.000000	0.023751
1557.000000	0.024118
1556.000000	0.024406
1555.000000	0.024679
1554.000000	0.024945
1553.000000	0.025195
1552.000000	0.025437
1551.000000	0.025684
1550.000000	0.025926
1549.000000	0.026139
1548.000000	0.026316
1547.000000	0.026466
1546.000000	0.026588
1545.000000	0.026664
1544.000000	0.026691
1543.000000	0.026692
1542.000000	0.026692
1541.000000	0.026712
1540.000000	0.026762
1539.000000	0.026799
1538.000000	0.026779
1537.000000	0.026729
1536.000000	0.026677
1535.000000	0.026606
1534.000000	0.026492
1533.000000	0.026349
1532.000000	0.026208
1531.000000	0.026076
1530.000000	0.025947
1529.000000	0.025819
1528.000000	0.025689
1527.000000	0.025544
1526.000000	0.025376
1525.000000	0.025190
1524.000000	0.024996
1523.000000	0.024779
1522.000000	0.024521
1521.000000	0.024249
1520.000000	0.024014
1519.000000	0.023824
1518.000000	0.023657
1517.000000	0.023494
1516.000000	0.023330
1515.000000	0.023164
1514.000000	0.022983
1513.000000	0.022756
1512.000000	0.022468
1511.000000	0.022138
1510.000000	0.021804
1509.000000	0.021468
1508.000000	0.021085
1507.000000	0.020657
1506.000000	0.020258
1505.000000	0.019927
1504.000000	0.019651
1503.000000	0.019403
1502.000000	0.019147
1501.000000	0.018862
1500.000000	0.018545
1499.000000	0.018207
1498.000000	0.017858
1497.000000	0.017518
1496.000000	0.017209
1495.000000	0.016934
1494.000000	0.016680
1493.000000	0.016437
1492.000000	0.016178
1491.000000	0.015878
1490.000000	0.015568
1489.000000	0.015321
1488.000000	0.015161
1487.000000	0.015050
1486.000000	0.014957
1485.000000	0.014884
1484.000000	0.014838
1483.000000	0.014808
1482.000000	0.014788
1481.000000	0.014792
1480.000000	0.014839
1479.000000	0.014925
1478.000000	0.015033
1477.000000	0.015159
1476.000000	0.015300
1475.000000	0.015451
1474.000000	0.015618
1473.000000	0.015827
1472.000000	0.016078
1471.000000	0.016321
1470.000000	0.016531
1469.000000	0.016723
1468.000000	0.016912
1467.000000	0.017105
1466.000000	0.017317
1465.000000	0.017559
1464.000000	0.017811
1463.000000	0.018039
1462.000000	0.018238
1461.000000	0.018424
1460.000000	0.018615
1459.000000	0.018833
1458.000000	0.019131
1457.000000	0.019531
1456.000000	0.019910
1455.000000	0.020173
1454.000000	0.020378
1453.000000	0.020580
1452.000000	0.020769
1451.000000	0.020908
1450.000000	0.020989
1449.000000	0.021029
1448.000000	0.021033
1447.000000	0.021012
1446.000000	0.020984
1445.000000	0.020956
1444.000000	0.020919
1443.000000	0.020859
1442.000000	0.020779
1441.000000	0.020683
1440.000000	0.020579
1439.000000	0.020463
1438.000000	0.020315
1437.000000	0.020115
1436.000000	0.019878
1435.000000	0.019654
1434.000000	0.019480
1433.000000	0.019351
1432.000000	0.019233
1431.000000	0.019105
1430.000000	0.018979
1429.000000	0.018869
1428.000000	0.018776
1427.000000	0.018695
1426.000000	0.018628
1425.000000	0.018571
1424.000000	0.018519
1423.000000	0.018473
1422.000000	0.018446
1421.000000	0.018435
1420.000000	0.018419
1419.000000	0.018380
1418.000000	0.018325
1417.000000	0.018271
1416.000000	0.018229
1415.000000	0.018206
1414.000000	0.018206
1413.000000	0.018224
1412.000000	0.018253
1411.000000	0.018283
1410.000000	0.018318
1409.000000	0.018366
1408.000000	0.018425
1407.000000	0.018485
1406.000000	0.018544
1405.000000	0.018605
1404.000000	0.018662
1403.000000	0.018703
1402.000000	0.018729
1401.000000	0.018746
1400.000000	0.018744
1399.000000	0.018708
1398.000000	0.018641
1397.000000	0.018561
1396.000000	0.018480
1395.000000	0.018400
1394.000000	0.018321
1393.000000	0.018245
1392.000000	0.018167
1391.000000	0.018089
1390.000000	0.018015
1389.000000	0.017939
1388.000000	0.017841
1387.000000	0.017707
1386.000000	0.017549
1385.000000	0.017386
1384.000000	0.017225
1383.000000	0.017058
1382.000000	0.016882
1381.000000	0.016708
1380.000000	0.016545
1379.000000	0.016393
1378.000000	0.016244
1377.000000	0.016090
1376.000000	0.015920
1375.000000	0.015736
1374.000000	0.015554
1373.000000	0.015386
1372.000000	0.015223
1371.000000	0.015049
1370.000000	0.014858
1369.000000	0.014652
1368.000000	0.014436
1367.000000	0.014215
1366.000000	0.013995
1365.000000	0.013782
1364.000000	0.013584
1363.000000	0.013412
1362.000000	0.013270
1361.000000	0.013150
1360.000000	0.013043
1359.000000	0.012954
1358.000000	0.012888
1357.000000	0.012845
1356.000000	0.012821
1355.000000	0.012823
1354.000000	0.012863
1353.000000	0.012943
1352.000000	0.013052
1351.000000	0.013176
1350.000000	0.013310
1349.000000	0.013452
1348.000000	0.013594
1347.000000	0.013731
1346.000000	0.013870
1345.000000	0.014023
1344.000000	0.014195
1343.000000	0.014374
1342.000000	0.014543
1341.000000	0.014688
1340.000000	0.014807
1339.000000	0.014903
1338.000000	0.014979
1337.000000	0.015038
1336.000000	0.015072
1335.000000	0.015066
1334.000000	0.015019
1333.000000	0.014939
1332.000000	0.014841
1331.000000	0.014737
1330.000000	0.014634
1329.000000	0.014536
1328.000000	0.014437
1327.000000	0.014330
1326.000000	0.014219
1325.000000	0.014119
1324.000000	0.014043
1323.000000	0.013991
1322.000000	0.013957
1321.000000	0.013933
1320.000000	0.013915
1319.000000	0.013892
1318.000000	0.013856
1317.000000	0.013807
1316.000000	0.013753
1315.000000	0.013694
1314.000000	0.013625
1313.000000	0.013540
1312.000000	0.013443
1311.000000	0.013345
1310.000000	0.013252
1309.000000	0.013161
1308.000000	0.013069
1307.000000	0.012979
1306.000000	0.012892
1305.000000	0.012804
1304.000000	0.012715
1303.000000	0.012627
1302.000000	0.012548
1301.000000	0.012480
1300.000000	0.012419
1299.000000	0.012361
1298.000000	0.012308
1297.000000	0.012268
1296.000000	0.012244
1295.000000	0.012239
1294.000000	0.012253
1293.000000	0.012286
1292.000000	0.012334
1291.000000	0.012392
1290.000000	0.012462
1289.000000	0.012544
1288.000000	0.012632
1287.000000	0.012720
1286.000000	0.012803
1285.000000	0.012887
1284.000000	0.012970
1283.000000	0.013046
1282.000000	0.013108
1281.000000	0.013149
1280.000000	0.013168
1279.000000	0.013169
1278.000000	0.013165
1277.000000	0.013172
1276.000000	0.013189
1275.000000	0.013208
1274.000000	0.013217
1273.000000	0.013216
1272.000000	0.013210
1271.000000	0.013203
1270.000000	0.013201
1269.000000	0.013218
1268.000000	0.013259
1267.000000	0.013319
1266.000000	0.013389
1265.000000	0.013466
1264.000000	0.013554
1263.000000	0.013649
1262.000000	0.013741
1261.000000	0.013826
1260.000000	0.013910
1259.000000	0.014005
1258.000000	0.014116
1257.000000	0.014242
1256.000000	0.014375
1255.000000	0.014509
1254.000000	0.014645
1253.000000	0.014792
1252.000000	0.014951
1251.000000	0.015115
1250.000000	0.015271
1249.000000	0.015423
1248.000000	0.015585
1247.000000	0.015770
1246.000000	0.015971
1245.000000	0.016167
1244.000000	0.016339
1243.000000	0.016484
1242.000000	0.016609
1241.000000	0.016723
1240.000000	0.016824
1239.000000	0.016906
1238.000000	0.016970
1237.000000	0.017022
1236.000000	0.017055
1235.000000	0.017052
1234.000000	0.017001
1233.000000	0.016900
1232.000000	0.016762
1231.000000	0.016597
1230.000000	0.016416
1229.000000	0.016221
1228.000000	0.016000
1227.000000	0.015743
1226.000000	0.015454
1225.000000	0.015153
1224.000000	0.014859
1223.000000	0.014572
1222.000000	0.014286
1221.000000	0.014000
1220.000000	0.013720
1219.000000	0.013460
1218.000000	0.013235
1217.000000	0.013057
1216.000000	0.012928
1215.000000	0.012838
1214.000000	0.012772
1213.000000	0.012718
1212.000000	0.012677
1211.000000	0.012656
1210.000000	0.012669
1209.000000	0.012720
1208.000000	0.012802
1207.000000	0.012893
1206.000000	0.012976
1205.000000	0.013042
1204.000000	0.013089
1203.000000	0.013105
1202.000000	0.013077
1201.000000	0.013000
1200.000000	0.012880
1199.000000	0.012735
1198.000000	0.012585
1197.000000	0.012445
1196.000000	0.012309
1195.000000	0.012160
1194.000000	0.011988
1193.000000	0.011797
1192.000000	0.011602
1191.000000	0.011415
1190.000000	0.011247
1189.000000	0.011102
1188.000000	0.010976
1187.000000	0.010854
1186.000000	0.010721
1185.000000	0.010584
1184.000000	0.010466
1183.000000	0.010380
1182.000000	0.010317
1181.000000	0.010253
1180.000000	0.010183
1179.000000	0.010124
1178.000000	0.010091
1177.000000	0.010082
1176.000000	0.010078
1175.000000	0.010062
1174.000000	0.010036
1173.000000	0.010020
1172.000000	0.010033
1171.000000	0.010075
1170.000000	0.010126
1169.000000	0.010167
1168.000000	0.010198
1167.000000	0.010233
1166.000000	0.010283
1165.000000	0.010350
1164.000000	0.010425
1163.000000	0.010502
1162.000000	0.010567
1161.000000	0.010604
1160.000000	0.010596
1159.000000	0.010537
1158.000000	0.010432
1157.000000	0.010300
1156.000000	0.010162
1155.000000	0.010034
1154.000000	0.009922
1153.000000	0.009811
1152.000000	0.009685
1151.000000	0.009538
1150.000000	0.009379
1149.000000	0.009224
1148.000000	0.009078
1147.000000	0.008937
1146.000000	0.008795
1145.000000	0.008651
1144.000000	0.008511
1143.000000	0.008384
1142.000000	0.008279
1141.000000	0.008197
1140.000000	0.008130
1139.000000	0.008067
1138.000000	0.008004
1137.000000	0.007950
1136.000000	0.007913
1135.000000	0.007887
1134.000000	0.007852
1133.000000	0.007801
1132.000000	0.007740
1131.000000	0.007686
1130.000000	0.007651
1129.000000	0.007637
1128.000000	0.007644
1127.000000	0.007664
1126.000000	0.007688
1125.000000	0.007706
1124.000000	0.007715
1123.000000	0.007712
1122.000000	0.007697
1121.000000	0.007682
1120.000000	0.007681
1119.000000	0.007701
1118.000000	0.007727
1117.000000	0.007753
1116.000000	0.007791
1115.000000	0.007863
1114.000000	0.007963
1113.000000	0.008061
1112.000000	0.008137
1111.000000	0.008192
1110.000000	0.008237
1109.000000	0.008275
1108.000000	0.008305
1107.000000	0.008334
1106.000000	0.008365
1105.000000	0.008397
1104.000000	0.008423
1103.000000	0.008450
1102.000000	0.008493
1101.000000	0.008555
1100.000000	0.008630
1099.000000	0.008708
1098.000000	0.008788
1097.000000	0.008869
1096.000000	0.008949
1095.000000	0.009025
1094.000000	0.009097
1093.000000	0.009171
1092.000000	0.009252
1091.000000	0.009353
1090.000000	0.009492
1089.000000	0.009681
1088.000000	0.009909
1087.000000	0.010145
1086.000000	0.010357
1085.000000	0.010532
1084.000000	0.010673
1083.000000	0.010785
1082.000000	0.010871
1081.000000	0.010930
1080.000000	0.010951
1079.000000	0.010923
1078.000000	0.010843
1077.000000	0.010726
1076.000000	0.010592
1075.000000	0.010450
1074.000000	0.010292
1073.000000	0.010118
1072.000000	0.009946
1071.000000	0.009809
1070.000000	0.009729
1069.000000	0.009705
1068.000000	0.009714
1067.000000	0.009728
1066.000000	0.009725
1065.000000	0.009702
1064.000000	0.009682
1063.000000	0.009697
1062.000000	0.009763
1061.000000	0.009855
1060.000000	0.009921
1059.000000	0.009920
1058.000000	0.009855
1057.000000	0.009766
1056.000000	0.009704
1055.000000	0.009693
1054.000000	0.009716
1053.000000	0.009733
1052.000000	0.009716
1051.000000	0.009679
1050.000000	0.009657
1049.000000	0.009667
1048.000000	0.009691
1047.000000	0.009702
1046.000000	0.009695
1045.000000	0.009688
1044.000000	0.009692
1043.000000	0.009706
1042.000000	0.009722
1041.000000	0.009744
1040.000000	0.009787
1039.000000	0.009865
1038.000000	0.009993
1037.000000	0.010172
1036.000000	0.010385
1035.000000	0.010597
1034.000000	0.010777
1033.000000	0.010918
1032.000000	0.011030
1031.000000	0.011123
1030.000000	0.011193
1029.000000	0.011230
1028.000000	0.011228
1027.000000	0.011189
1026.000000	0.011128
1025.000000	0.011075
1024.000000	0.011052
1023.000000	0.011061
1022.000000	0.011084
1021.000000	0.011109
1020.000000	0.011138
1019.000000	0.011175
1018.000000	0.011203
1017.000000	0.011194
1016.000000	0.011134
1015.000000	0.011026
1014.000000	0.010880
1013.000000	0.010692
1012.000000	0.010463
1011.000000	0.010209
1010.000000	0.009957
1009.000000	0.009725
1008.000000	0.009517
1007.000000	0.009323
1006.000000	0.009131
1005.000000	0.008932
1004.000000	0.008730
1003.000000	0.008539
1002.000000	0.008373
1001.000000	0.008231
1000.000000	0.008098
999.000000	0.007967
998.000000	0.007841
997.000000	0.007724
996.000000	0.007611
995.000000	0.007493
994.000000	0.007365
993.000000	0.007230
992.000000	0.007095
991.000000	0.006961
990.000000	0.006829
989.000000	0.006704
988.000000	0.006598
987.000000	0.006522
986.000000	0.006468
985.000000	0.006418
984.000000	0.006365
983.000000	0.006319
982.000000	0.006291
981.000000	0.006276
980.000000	0.006260
979.000000	0.006236
978.000000	0.006210
977.000000	0.006191
976.000000	0.006179
975.000000	0.006171
974.000000	0.006164
973.000000	0.006155
972.000000	0.006137
971.000000	0.006103
970.000000	0.006049
969.000000	0.005970
968.000000	0.005870
967.000000	0.005771
966.000000	0.005696
965.000000	0.005639
964.000000	0.005576
963.000000	0.005492
962.000000	0.005404
961.000000	0.005332
960.000000	0.005282
959.000000	0.005235
958.000000	0.005176
957.000000	0.005104
956.000000	0.005031
955.000000	0.004969
954.000000	0.004930
953.000000	0.004903
952.000000	0.004867
951.000000	0.004809
950.000000	0.004740
949.000000	0.004683
948.000000	0.004648
947.000000	0.004636
946.000000	0.004643
945.000000	0.004669
944.000000	0.004705
943.000000	0.004739
942.000000	0.004758
941.000000	0.004759
940.000000	0.004742
939.000000	0.004710
938.000000	0.004675
937.000000	0.004647
936.000000	0.004625
935.000000	0.004598
934.000000	0.004567
933.000000	0.004549
932.000000	0.004544
931.000000	0.004531
930.000000	0.004489
929.000000	0.004433
928.000000	0.004399
927.000000	0.004403
926.000000	0.004429
925.000000	0.004450
924.000000	0.004459
923.000000	0.004458
922.000000	0.004441
921.000000	0.004398
920.000000	0.004324
919.000000	0.004227
918.000000	0.004121
917.000000	0.004027
916.000000	0.003959
915.000000	0.003919
914.000000	0.003893
913.000000	0.003863
912.000000	0.003825
911.000000	0.003783
910.000000	0.003744
909.000000	0.003712
908.000000	0.003695
907.000000	0.003694
906.000000	0.003697
905.000000	0.003685
904.000000	0.003654
903.000000	0.003617
902.000000	0.003587
901.000000	0.003565
900.000000	0.003542
899.000000	0.003519
898.000000	0.003496
897.000000	0.003463
896.000000	0.003407
895.000000	0.003331
894.000000	0.003261
893.000000	0.003216
892.000000	0.003194
891.000000	0.003184
890.000000	0.003183
889.000000	0.003202
888.000000	0.003248
887.000000	0.003321
886.000000	0.003427
885.000000	0.003576
884.000000	0.003763
883.000000	0.003973
882.000000	0.004198
881.000000	0.004461
880.000000	0.004790
879.000000	0.005174
878.000000	0.005548
877.000000	0.005831
876.000000	0.005966
875.000000	0.005942
874.000000	0.005784
873.000000	0.005533
872.000000	0.005230
871.000000	0.004914
870.000000	0.004625
869.000000	0.004393
868.000000	0.004234
867.000000	0.004135
866.000000	0.004065
865.000000	0.003998
864.000000	0.003925
863.000000	0.003855
862.000000	0.003797
861.000000	0.003756
860.000000	0.003733
859.000000	0.003729
858.000000	0.003742
857.000000	0.003764
856.000000	0.003779
855.000000	0.003777
854.000000	0.003763
853.000000	0.003750
852.000000	0.003750
851.000000	0.003760
850.000000	0.003765
849.000000	0.003752
848.000000	0.003714
847.000000	0.003663
846.000000	0.003615
845.000000	0.003582
844.000000	0.003563
843.000000	0.003548
842.000000	0.003530
841.000000	0.003502
840.000000	0.003463
839.000000	0.003422
838.000000	0.003395
837.000000	0.003393
836.000000	0.003407
835.000000	0.003409
834.000000	0.003378
833.000000	0.003319
832.000000	0.003253
831.000000	0.003200
830.000000	0.003176
829.000000	0.003182
828.000000	0.003208
827.000000	0.003231
826.000000	0.003241
825.000000	0.003252
824.000000	0.003281
823.000000	0.003321
822.000000	0.003343
821.000000	0.003330
820.000000	0.003303
819.000000	0.003289
818.000000	0.003298
817.000000	0.003316
816.000000	0.003329
815.000000	0.003342
814.000000	0.003365
813.000000	0.003400
812.000000	0.003436
811.000000	0.003458
810.000000	0.003456
809.000000	0.003422
808.000000	0.003366
807.000000	0.003308
806.000000	0.003273
805.000000	0.003263
804.000000	0.003253
803.000000	0.003218
802.000000	0.003173
801.000000	0.003161
800.000000	0.003212
799.000000	0.003309
798.000000	0.003417
797.000000	0.003512
796.000000	0.003582
795.000000	0.003609
794.000000	0.003581
793.000000	0.003519
792.000000	0.003467
791.000000	0.003460
790.000000	0.003495
789.000000	0.003543
788.000000	0.003590
787.000000	0.003641
786.000000	0.003695
785.000000	0.003729
784.000000	0.003718
783.000000	0.003662
782.000000	0.003596
781.000000	0.003560
780.000000	0.003567
779.000000	0.003596
778.000000	0.003618
777.000000	0.003621
776.000000	0.003605
775.000000	0.003581
774.000000	0.003562
773.000000	0.003560
772.000000	0.003573
771.000000	0.003594
770.000000	0.003629
769.000000	0.003693
768.000000	0.003789
767.000000	0.003886
766.000000	0.003941
765.000000	0.003939
764.000000	0.003904
763.000000	0.003877
762.000000	0.003887
761.000000	0.003933
760.000000	0.003990
759.000000	0.004024
758.000000	0.004021
757.000000	0.003997
756.000000	0.003981
755.000000	0.003982
754.000000	0.003997
753.000000	0.004029
752.000000	0.004076
751.000000	0.004114
750.000000	0.004115
749.000000	0.004085
748.000000	0.004067
747.000000	0.004091
746.000000	0.004144
745.000000	0.004196
744.000000	0.004241
743.000000	0.004297
742.000000	0.004367
741.000000	0.004434
740.000000	0.004481
739.000000	0.004505
738.000000	0.004518
737.000000	0.004535
736.000000	0.004578
735.000000	0.004660
734.000000	0.004767
733.000000	0.004860
732.000000	0.004903
731.000000	0.004898
730.000000	0.004879
729.000000	0.004885
728.000000	0.004931
727.000000	0.005007
726.000000	0.005100
725.000000	0.005212
724.000000	0.005340
723.000000	0.005461
722.000000	0.005546
721.000000	0.005592
720.000000	0.005626
719.000000	0.005678
718.000000	0.005759
717.000000	0.005871
716.000000	0.006015
715.000000	0.006178
714.000000	0.006320
713.000000	0.006401
712.000000	0.006418
711.000000	0.006410
710.000000	0.006424
709.000000	0.006483
708.000000	0.006572
707.000000	0.006649
706.000000	0.006680
705.000000	0.006672
704.000000	0.006667
703.000000	0.006693
702.000000	0.006733
701.000000	0.006756
700.000000	0.006763
699.000000	0.006784
698.000000	0.006830
697.000000	0.006880
696.000000	0.006910
695.000000	0.006926
694.000000	0.006936
693.000000	0.006925
692.000000	0.006896
691.000000	0.006891
690.000000	0.006955
689.000000	0.007078
688.000000	0.007207
687.000000	0.007311
686.000000	0.007395
685.000000	0.007458
684.000000	0.007480
683.000000	0.007458
682.000000	0.007431
681.000000	0.007453
680.000000	0.007544
679.000000	0.007661
678.000000	0.007724
677.000000	0.007706
676.000000	0.007671
675.000000	0.007701
674.000000	0.007813
673.000000	0.007940
672.000000	0.007994
671.000000	0.007931
670.000000	0.007769
669.000000	0.007592
668.000000	0.007615
667.000000	0.007878
666.000000	0.008058
665.000000	0.008176
664.000000	0.008329
663.000000	0.008485
662.000000	0.008579
661.000000	0.008608
660.000000	0.008611
659.000000	0.008590
658.000000	0.008526
657.000000	0.008444
656.000000	0.008392
655.000000	0.008382
654.000000	0.008409
653.000000	0.008468
652.000000	0.008531
651.000000	0.008558
650.000000	0.008556
649.000000	0.008573
648.000000	0.008601
647.000000	0.008581
646.000000	0.008507
645.000000	0.008456
644.000000	0.008478
643.000000	0.008541
642.000000	0.008591
641.000000	0.008613
640.000000	0.008615
639.000000	0.008586
638.000000	0.008524
637.000000	0.008458
636.000000	0.008419
635.000000	0.008414
634.000000	0.008448
633.000000	0.008521
632.000000	0.008598
631.000000	0.008625
630.000000	0.008593
629.000000	0.008555
628.000000	0.008553
627.000000	0.008582
626.000000	0.008621
625.000000	0.008662
624.000000	0.008701
623.000000	0.008725
622.000000	0.008731
621.000000	0.008716
620.000000	0.008661
619.000000	0.008564
618.000000	0.008478
617.000000	0.008460
616.000000	0.008495
615.000000	0.008518
614.000000	0.008522
613.000000	0.008558
612.000000	0.008639
611.000000	0.008712
610.000000	0.008741
609.000000	0.008738
608.000000	0.008711
607.000000	0.008643
606.000000	0.008556
605.000000	0.008518
604.000000	0.008558
603.000000	0.008632
602.000000	0.008690
601.000000	0.008708
600.000000	0.008658
599.000000	0.008522
598.000000	0.008357
597.000000	0.008275
596.000000	0.008305
595.000000	0.008363
594.000000	0.008385
593.000000	0.008411
592.000000	0.008491
591.000000	0.008575
590.000000	0.008585
589.000000	0.008516
588.000000	0.008419
587.000000	0.008327
586.000000	0.008260
585.000000	0.008261
584.000000	0.008338
583.000000	0.008419
582.000000	0.008431
581.000000	0.008396
580.000000	0.008402
579.000000	0.008469
578.000000	0.008531
577.000000	0.008517
576.000000	0.008417
575.000000	0.008296
574.000000	0.008269
573.000000	0.008415
572.000000	0.008685
571.000000	0.008918
570.000000	0.008988
569.000000	0.008927
568.000000	0.008845
567.000000	0.008800
566.000000	0.008805
565.000000	0.008897
564.000000	0.009101
563.000000	0.009342
562.000000	0.009490
561.000000	0.009499
560.000000	0.009456
559.000000	0.009468
558.000000	0.009562
557.000000	0.009693
556.000000	0.009787
555.000000	0.009787
554.000000	0.009687
553.000000	0.009531
552.000000	0.009384
551.000000	0.009287
550.000000	0.009249
549.000000	0.009240
548.000000	0.009197
547.000000	0.009077
546.000000	0.008898
545.000000	0.008727
544.000000	0.008606
543.000000	0.008540
542.000000	0.008547
541.000000	0.008627
540.000000	0.008706
539.000000	0.008695
538.000000	0.008631
537.000000	0.008665
536.000000	0.008891
535.000000	0.009229
534.000000	0.009540
533.000000	0.009751
532.000000	0.009846
531.000000	0.009827
530.000000	0.009747
529.000000	0.009700
528.000000	0.009710
527.000000	0.009689
526.000000	0.009560
525.000000	0.009358
524.000000	0.009157
523.000000	0.008970
522.000000	0.008785
521.000000	0.008612
520.000000	0.008425
519.000000	0.008162
518.000000	0.007842
517.000000	0.007596
516.000000	0.007505
515.000000	0.007509
514.000000	0.007526
513.000000	0.007545
512.000000	0.007535
511.000000	0.007391
510.000000	0.007100
509.000000	0.006857
508.000000	0.006878
507.000000	0.007136
506.000000	0.007397
505.000000	0.007488
504.000000	0.007402
503.000000	0.007209
502.000000	0.006995
501.000000	0.006854
500.000000	0.006812
499.000000	0.006789
498.000000	0.006692
497.000000	0.006523
496.000000	0.006338
495.000000	0.006168
494.000000	0.006064
493.000000	0.006120
492.000000	0.006336
491.000000	0.006507
490.000000	0.006406
489.000000	0.006059
488.000000	0.005715
487.000000	0.005570
486.000000	0.005613
485.000000	0.005709
484.000000	0.005755
483.000000	0.005730
482.000000	0.005690
481.000000	0.005711
480.000000	0.005781
479.000000	0.005787
478.000000	0.005652
477.000000	0.005437
476.000000	0.005241
475.000000	0.005082
474.000000	0.004965
473.000000	0.004960
472.000000	0.005072
471.000000	0.005132
470.000000	0.005027
469.000000	0.004903
468.000000	0.004958
467.000000	0.005135
466.000000	0.005214
465.000000	0.005157
464.000000	0.005127
463.000000	0.005177
462.000000	0.005159
461.000000	0.004962
460.000000	0.004645
459.000000	0.004295
458.000000	0.003927
457.000000	0.003589
456.000000	0.003377
455.000000	0.003324
454.000000	0.003406
453.000000	0.003581
452.000000	0.003741
451.000000	0.003644
450.000000	0.003173
