PE IR       SUBTECH     SPECTRUM    ASCII       PEDS        4.00        
   -1
3G-N10-F001_1.ASC
22/02/24
10:28:10.00
22/02/24
11:04:21.00
uco
Sample 042 By uco Date Thursday, February 24 2022
450.000000
#HDR
-1
-1
#GR
cm-1
A
1.0
0.0
4000.000000
-1.000000
3551
8
0.029624
0.003057
#DATA
4000.000000	0.003556
3999.000000	0.003570
3998.000000	0.003572
3997.000000	0.003561
3996.000000	0.003540
3995.000000	0.003518
3994.000000	0.003507
3993.000000	0.003512
3992.000000	0.003531
3991.000000	0.003555
3990.000000	0.003574
3989.000000	0.003580
3988.000000	0.003575
3987.000000	0.003563
3986.000000	0.003553
3985.000000	0.003555
3984.000000	0.003571
3983.000000	0.003599
3982.000000	0.003632
3981.000000	0.003661
3980.000000	0.003680
3979.000000	0.003690
3978.000000	0.003694
3977.000000	0.003694
3976.000000	0.003689
3975.000000	0.003677
3974.000000	0.003656
3973.000000	0.003626
3972.000000	0.003593
3971.000000	0.003562
3970.000000	0.003542
3969.000000	0.003543
3968.000000	0.003567
3967.000000	0.003607
3966.000000	0.003648
3965.000000	0.003676
3964.000000	0.003690
3963.000000	0.003696
3962.000000	0.003700
3961.000000	0.003700
3960.000000	0.003692
3959.000000	0.003673
3958.000000	0.003654
3957.000000	0.003647
3956.000000	0.003656
3955.000000	0.003674
3954.000000	0.003687
3953.000000	0.003687
3952.000000	0.003682
3951.000000	0.003681
3950.000000	0.003686
3949.000000	0.003692
3948.000000	0.003688
3947.000000	0.003670
3946.000000	0.003643
3945.000000	0.003620
3944.000000	0.003615
3943.000000	0.003638
3942.000000	0.003686
3941.000000	0.003741
3940.000000	0.003779
3939.000000	0.003783
3938.000000	0.003754
3937.000000	0.003708
3936.000000	0.003664
3935.000000	0.003635
3934.000000	0.003629
3933.000000	0.003643
3932.000000	0.003669
3931.000000	0.003697
3930.000000	0.003717
3929.000000	0.003723
3928.000000	0.003716
3927.000000	0.003704
3926.000000	0.003694
3925.000000	0.003687
3924.000000	0.003684
3923.000000	0.003684
3922.000000	0.003685
3921.000000	0.003682
3920.000000	0.003675
3919.000000	0.003665
3918.000000	0.003654
3917.000000	0.003645
3916.000000	0.003640
3915.000000	0.003640
3914.000000	0.003649
3913.000000	0.003665
3912.000000	0.003679
3911.000000	0.003684
3910.000000	0.003675
3909.000000	0.003658
3908.000000	0.003641
3907.000000	0.003628
3906.000000	0.003622
3905.000000	0.003627
3904.000000	0.003650
3903.000000	0.003693
3902.000000	0.003744
3901.000000	0.003781
3900.000000	0.003789
3899.000000	0.003775
3898.000000	0.003756
3897.000000	0.003747
3896.000000	0.003744
3895.000000	0.003741
3894.000000	0.003733
3893.000000	0.003723
3892.000000	0.003719
3891.000000	0.003722
3890.000000	0.003727
3889.000000	0.003725
3888.000000	0.003715
3887.000000	0.003699
3886.000000	0.003683
3885.000000	0.003673
3884.000000	0.003671
3883.000000	0.003674
3882.000000	0.003676
3881.000000	0.003674
3880.000000	0.003667
3879.000000	0.003661
3878.000000	0.003656
3877.000000	0.003650
3876.000000	0.003644
3875.000000	0.003639
3874.000000	0.003637
3873.000000	0.003642
3872.000000	0.003657
3871.000000	0.003681
3870.000000	0.003708
3869.000000	0.003737
3868.000000	0.003768
3867.000000	0.003801
3866.000000	0.003826
3865.000000	0.003829
3864.000000	0.003806
3863.000000	0.003773
3862.000000	0.003748
3861.000000	0.003740
3860.000000	0.003741
3859.000000	0.003738
3858.000000	0.003727
3857.000000	0.003713
3856.000000	0.003707
3855.000000	0.003709
3854.000000	0.003723
3853.000000	0.003752
3852.000000	0.003784
3851.000000	0.003800
3850.000000	0.003796
3849.000000	0.003779
3848.000000	0.003757
3847.000000	0.003734
3846.000000	0.003710
3845.000000	0.003683
3844.000000	0.003658
3843.000000	0.003638
3842.000000	0.003631
3841.000000	0.003639
3840.000000	0.003659
3839.000000	0.003676
3838.000000	0.003685
3837.000000	0.003682
3836.000000	0.003671
3835.000000	0.003657
3834.000000	0.003646
3833.000000	0.003647
3832.000000	0.003662
3831.000000	0.003685
3830.000000	0.003709
3829.000000	0.003727
3828.000000	0.003736
3827.000000	0.003743
3826.000000	0.003747
3825.000000	0.003752
3824.000000	0.003758
3823.000000	0.003763
3822.000000	0.003763
3821.000000	0.003753
3820.000000	0.003740
3819.000000	0.003734
3818.000000	0.003741
3817.000000	0.003756
3816.000000	0.003765
3815.000000	0.003761
3814.000000	0.003745
3813.000000	0.003727
3812.000000	0.003715
3811.000000	0.003707
3810.000000	0.003697
3809.000000	0.003685
3808.000000	0.003677
3807.000000	0.003676
3806.000000	0.003677
3805.000000	0.003676
3804.000000	0.003677
3803.000000	0.003681
3802.000000	0.003684
3801.000000	0.003680
3800.000000	0.003670
3799.000000	0.003652
3798.000000	0.003630
3797.000000	0.003606
3796.000000	0.003583
3795.000000	0.003566
3794.000000	0.003563
3793.000000	0.003579
3792.000000	0.003607
3791.000000	0.003635
3790.000000	0.003649
3789.000000	0.003650
3788.000000	0.003646
3787.000000	0.003650
3786.000000	0.003662
3785.000000	0.003674
3784.000000	0.003679
3783.000000	0.003681
3782.000000	0.003684
3781.000000	0.003688
3780.000000	0.003687
3779.000000	0.003681
3778.000000	0.003675
3777.000000	0.003671
3776.000000	0.003668
3775.000000	0.003663
3774.000000	0.003659
3773.000000	0.003658
3772.000000	0.003660
3771.000000	0.003658
3770.000000	0.003648
3769.000000	0.003635
3768.000000	0.003624
3767.000000	0.003615
3766.000000	0.003606
3765.000000	0.003596
3764.000000	0.003591
3763.000000	0.003591
3762.000000	0.003594
3761.000000	0.003596
3760.000000	0.003598
3759.000000	0.003611
3758.000000	0.003635
3757.000000	0.003660
3756.000000	0.003671
3755.000000	0.003668
3754.000000	0.003656
3753.000000	0.003644
3752.000000	0.003641
3751.000000	0.003657
3750.000000	0.003690
3749.000000	0.003719
3748.000000	0.003726
3747.000000	0.003716
3746.000000	0.003700
3745.000000	0.003683
3744.000000	0.003664
3743.000000	0.003641
3742.000000	0.003612
3741.000000	0.003586
3740.000000	0.003576
3739.000000	0.003585
3738.000000	0.003607
3737.000000	0.003625
3736.000000	0.003619
3735.000000	0.003585
3734.000000	0.003550
3733.000000	0.003544
3732.000000	0.003571
3731.000000	0.003607
3730.000000	0.003630
3729.000000	0.003636
3728.000000	0.003633
3727.000000	0.003629
3726.000000	0.003630
3725.000000	0.003639
3724.000000	0.003650
3723.000000	0.003654
3722.000000	0.003643
3721.000000	0.003621
3720.000000	0.003596
3719.000000	0.003574
3718.000000	0.003555
3717.000000	0.003536
3716.000000	0.003518
3715.000000	0.003508
3714.000000	0.003516
3713.000000	0.003541
3712.000000	0.003571
3711.000000	0.003588
3710.000000	0.003591
3709.000000	0.003595
3708.000000	0.003607
3707.000000	0.003623
3706.000000	0.003630
3705.000000	0.003618
3704.000000	0.003588
3703.000000	0.003549
3702.000000	0.003518
3701.000000	0.003510
3700.000000	0.003526
3699.000000	0.003560
3698.000000	0.003595
3697.000000	0.003619
3696.000000	0.003622
3695.000000	0.003606
3694.000000	0.003577
3693.000000	0.003542
3692.000000	0.003511
3691.000000	0.003496
3690.000000	0.003504
3689.000000	0.003531
3688.000000	0.003568
3687.000000	0.003600
3686.000000	0.003618
3685.000000	0.003623
3684.000000	0.003622
3683.000000	0.003621
3682.000000	0.003628
3681.000000	0.003648
3680.000000	0.003683
3679.000000	0.003736
3678.000000	0.003808
3677.000000	0.003885
3676.000000	0.003933
3675.000000	0.003932
3674.000000	0.003897
3673.000000	0.003860
3672.000000	0.003838
3671.000000	0.003831
3670.000000	0.003825
3669.000000	0.003813
3668.000000	0.003798
3667.000000	0.003785
3666.000000	0.003774
3665.000000	0.003764
3664.000000	0.003750
3663.000000	0.003730
3662.000000	0.003708
3661.000000	0.003690
3660.000000	0.003677
3659.000000	0.003667
3658.000000	0.003662
3657.000000	0.003669
3656.000000	0.003701
3655.000000	0.003758
3654.000000	0.003832
3653.000000	0.003908
3652.000000	0.003972
3651.000000	0.004000
3650.000000	0.003978
3649.000000	0.003921
3648.000000	0.003866
3647.000000	0.003835
3646.000000	0.003833
3645.000000	0.003852
3644.000000	0.003883
3643.000000	0.003916
3642.000000	0.003944
3641.000000	0.003970
3640.000000	0.003997
3639.000000	0.004029
3638.000000	0.004058
3637.000000	0.004079
3636.000000	0.004088
3635.000000	0.004091
3634.000000	0.004094
3633.000000	0.004106
3632.000000	0.004132
3631.000000	0.004172
3630.000000	0.004216
3629.000000	0.004248
3628.000000	0.004264
3627.000000	0.004269
3626.000000	0.004262
3625.000000	0.004247
3624.000000	0.004229
3623.000000	0.004211
3622.000000	0.004199
3621.000000	0.004199
3620.000000	0.004215
3619.000000	0.004244
3618.000000	0.004279
3617.000000	0.004317
3616.000000	0.004358
3615.000000	0.004404
3614.000000	0.004450
3613.000000	0.004490
3612.000000	0.004525
3611.000000	0.004558
3610.000000	0.004587
3609.000000	0.004602
3608.000000	0.004598
3607.000000	0.004587
3606.000000	0.004583
3605.000000	0.004589
3604.000000	0.004602
3603.000000	0.004617
3602.000000	0.004636
3601.000000	0.004658
3600.000000	0.004682
3599.000000	0.004702
3598.000000	0.004721
3597.000000	0.004741
3596.000000	0.004762
3595.000000	0.004781
3594.000000	0.004796
3593.000000	0.004815
3592.000000	0.004845
3591.000000	0.004885
3590.000000	0.004925
3589.000000	0.004948
3588.000000	0.004948
3587.000000	0.004941
3586.000000	0.004944
3585.000000	0.004964
3584.000000	0.004996
3583.000000	0.005034
3582.000000	0.005074
3581.000000	0.005116
3580.000000	0.005157
3579.000000	0.005197
3578.000000	0.005239
3577.000000	0.005284
3576.000000	0.005330
3575.000000	0.005376
3574.000000	0.005418
3573.000000	0.005450
3572.000000	0.005467
3571.000000	0.005475
3570.000000	0.005491
3569.000000	0.005528
3568.000000	0.005578
3567.000000	0.005619
3566.000000	0.005637
3565.000000	0.005642
3564.000000	0.005650
3563.000000	0.005672
3562.000000	0.005703
3561.000000	0.005735
3560.000000	0.005757
3559.000000	0.005773
3558.000000	0.005798
3557.000000	0.005841
3556.000000	0.005899
3555.000000	0.005954
3554.000000	0.005992
3553.000000	0.006010
3552.000000	0.006015
3551.000000	0.006016
3550.000000	0.006023
3549.000000	0.006046
3548.000000	0.006089
3547.000000	0.006149
3546.000000	0.006209
3545.000000	0.006257
3544.000000	0.006288
3543.000000	0.006308
3542.000000	0.006325
3541.000000	0.006347
3540.000000	0.006373
3539.000000	0.006400
3538.000000	0.006425
3537.000000	0.006448
3536.000000	0.006471
3535.000000	0.006492
3534.000000	0.006511
3533.000000	0.006525
3532.000000	0.006540
3531.000000	0.006565
3530.000000	0.006603
3529.000000	0.006653
3528.000000	0.006703
3527.000000	0.006745
3526.000000	0.006781
3525.000000	0.006816
3524.000000	0.006847
3523.000000	0.006866
3522.000000	0.006878
3521.000000	0.006899
3520.000000	0.006947
3519.000000	0.007020
3518.000000	0.007097
3517.000000	0.007149
3516.000000	0.007167
3515.000000	0.007160
3514.000000	0.007148
3513.000000	0.007152
3512.000000	0.007183
3511.000000	0.007233
3510.000000	0.007286
3509.000000	0.007324
3508.000000	0.007343
3507.000000	0.007354
3506.000000	0.007367
3505.000000	0.007385
3504.000000	0.007400
3503.000000	0.007408
3502.000000	0.007412
3501.000000	0.007420
3500.000000	0.007434
3499.000000	0.007457
3498.000000	0.007487
3497.000000	0.007526
3496.000000	0.007571
3495.000000	0.007614
3494.000000	0.007648
3493.000000	0.007670
3492.000000	0.007683
3491.000000	0.007696
3490.000000	0.007717
3489.000000	0.007744
3488.000000	0.007773
3487.000000	0.007798
3486.000000	0.007819
3485.000000	0.007839
3484.000000	0.007858
3483.000000	0.007876
3482.000000	0.007895
3481.000000	0.007919
3480.000000	0.007948
3479.000000	0.007973
3478.000000	0.007992
3477.000000	0.008006
3476.000000	0.008019
3475.000000	0.008035
3474.000000	0.008056
3473.000000	0.008082
3472.000000	0.008112
3471.000000	0.008143
3470.000000	0.008172
3469.000000	0.008199
3468.000000	0.008225
3467.000000	0.008250
3466.000000	0.008272
3465.000000	0.008296
3464.000000	0.008330
3463.000000	0.008375
3462.000000	0.008420
3461.000000	0.008448
3460.000000	0.008447
3459.000000	0.008429
3458.000000	0.008417
3457.000000	0.008433
3456.000000	0.008479
3455.000000	0.008538
3454.000000	0.008588
3453.000000	0.008613
3452.000000	0.008613
3451.000000	0.008604
3450.000000	0.008603
3449.000000	0.008622
3448.000000	0.008658
3447.000000	0.008704
3446.000000	0.008757
3445.000000	0.008819
3444.000000	0.008882
3443.000000	0.008927
3442.000000	0.008938
3441.000000	0.008922
3440.000000	0.008903
3439.000000	0.008901
3438.000000	0.008920
3437.000000	0.008951
3436.000000	0.008986
3435.000000	0.009023
3434.000000	0.009057
3433.000000	0.009086
3432.000000	0.009110
3431.000000	0.009139
3430.000000	0.009180
3429.000000	0.009229
3428.000000	0.009270
3427.000000	0.009288
3426.000000	0.009286
3425.000000	0.009282
3424.000000	0.009292
3423.000000	0.009318
3422.000000	0.009349
3421.000000	0.009379
3420.000000	0.009410
3419.000000	0.009445
3418.000000	0.009481
3417.000000	0.009513
3416.000000	0.009540
3415.000000	0.009569
3414.000000	0.009604
3413.000000	0.009642
3412.000000	0.009672
3411.000000	0.009691
3410.000000	0.009707
3409.000000	0.009732
3408.000000	0.009767
3407.000000	0.009803
3406.000000	0.009830
3405.000000	0.009850
3404.000000	0.009870
3403.000000	0.009895
3402.000000	0.009920
3401.000000	0.009940
3400.000000	0.009955
3399.000000	0.009967
3398.000000	0.009981
3397.000000	0.010001
3396.000000	0.010031
3395.000000	0.010067
3394.000000	0.010105
3393.000000	0.010142
3392.000000	0.010183
3391.000000	0.010227
3390.000000	0.010268
3389.000000	0.010294
3388.000000	0.010301
3387.000000	0.010298
3386.000000	0.010302
3385.000000	0.010322
3384.000000	0.010360
3383.000000	0.010408
3382.000000	0.010448
3381.000000	0.010465
3380.000000	0.010460
3379.000000	0.010452
3378.000000	0.010467
3377.000000	0.010509
3376.000000	0.010561
3375.000000	0.010602
3374.000000	0.010624
3373.000000	0.010638
3372.000000	0.010661
3371.000000	0.010703
3370.000000	0.010759
3369.000000	0.010820
3368.000000	0.010875
3367.000000	0.010918
3366.000000	0.010947
3365.000000	0.010962
3364.000000	0.010973
3363.000000	0.010989
3362.000000	0.011019
3361.000000	0.011060
3360.000000	0.011102
3359.000000	0.011138
3358.000000	0.011168
3357.000000	0.011194
3356.000000	0.011221
3355.000000	0.011258
3354.000000	0.011306
3353.000000	0.011361
3352.000000	0.011416
3351.000000	0.011466
3350.000000	0.011510
3349.000000	0.011554
3348.000000	0.011598
3347.000000	0.011643
3346.000000	0.011685
3345.000000	0.011723
3344.000000	0.011760
3343.000000	0.011800
3342.000000	0.011841
3341.000000	0.011880
3340.000000	0.011915
3339.000000	0.011949
3338.000000	0.011984
3337.000000	0.012018
3336.000000	0.012043
3335.000000	0.012059
3334.000000	0.012075
3333.000000	0.012102
3332.000000	0.012142
3331.000000	0.012189
3330.000000	0.012232
3329.000000	0.012266
3328.000000	0.012289
3327.000000	0.012307
3326.000000	0.012327
3325.000000	0.012354
3324.000000	0.012391
3323.000000	0.012432
3322.000000	0.012471
3321.000000	0.012506
3320.000000	0.012540
3319.000000	0.012577
3318.000000	0.012621
3317.000000	0.012671
3316.000000	0.012724
3315.000000	0.012776
3314.000000	0.012817
3313.000000	0.012841
3312.000000	0.012847
3311.000000	0.012839
3310.000000	0.012824
3309.000000	0.012803
3308.000000	0.012779
3307.000000	0.012763
3306.000000	0.012773
3305.000000	0.012814
3304.000000	0.012875
3303.000000	0.012935
3302.000000	0.012981
3301.000000	0.013011
3300.000000	0.013027
3299.000000	0.013028
3298.000000	0.013017
3297.000000	0.013002
3296.000000	0.012995
3295.000000	0.013004
3294.000000	0.013031
3293.000000	0.013069
3292.000000	0.013104
3291.000000	0.013129
3290.000000	0.013142
3289.000000	0.013147
3288.000000	0.013151
3287.000000	0.013156
3286.000000	0.013158
3285.000000	0.013149
3284.000000	0.013128
3283.000000	0.013099
3282.000000	0.013067
3281.000000	0.013041
3280.000000	0.013025
3279.000000	0.013019
3278.000000	0.013024
3277.000000	0.013034
3276.000000	0.013043
3275.000000	0.013047
3274.000000	0.013042
3273.000000	0.013024
3272.000000	0.012994
3271.000000	0.012959
3270.000000	0.012933
3269.000000	0.012927
3268.000000	0.012940
3267.000000	0.012955
3266.000000	0.012955
3265.000000	0.012934
3264.000000	0.012904
3263.000000	0.012876
3262.000000	0.012852
3261.000000	0.012827
3260.000000	0.012797
3259.000000	0.012767
3258.000000	0.012745
3257.000000	0.012733
3256.000000	0.012726
3255.000000	0.012717
3254.000000	0.012701
3253.000000	0.012675
3252.000000	0.012642
3251.000000	0.012604
3250.000000	0.012563
3249.000000	0.012522
3248.000000	0.012479
3247.000000	0.012439
3246.000000	0.012405
3245.000000	0.012381
3244.000000	0.012364
3243.000000	0.012346
3242.000000	0.012321
3241.000000	0.012288
3240.000000	0.012256
3239.000000	0.012235
3238.000000	0.012225
3237.000000	0.012216
3236.000000	0.012196
3235.000000	0.012164
3234.000000	0.012130
3233.000000	0.012101
3232.000000	0.012076
3231.000000	0.012045
3230.000000	0.012007
3229.000000	0.011970
3228.000000	0.011945
3227.000000	0.011932
3226.000000	0.011924
3225.000000	0.011909
3224.000000	0.011885
3223.000000	0.011861
3222.000000	0.011846
3221.000000	0.011839
3220.000000	0.011837
3219.000000	0.011834
3218.000000	0.011831
3217.000000	0.011829
3216.000000	0.011826
3215.000000	0.011818
3214.000000	0.011800
3213.000000	0.011769
3212.000000	0.011725
3211.000000	0.011674
3210.000000	0.011623
3209.000000	0.011578
3208.000000	0.011544
3207.000000	0.011527
3206.000000	0.011527
3205.000000	0.011538
3204.000000	0.011543
3203.000000	0.011527
3202.000000	0.011493
3201.000000	0.011457
3200.000000	0.011435
3199.000000	0.011423
3198.000000	0.011405
3197.000000	0.011368
3196.000000	0.011318
3195.000000	0.011271
3194.000000	0.011243
3193.000000	0.011235
3192.000000	0.011231
3191.000000	0.011213
3190.000000	0.011178
3189.000000	0.011139
3188.000000	0.011113
3187.000000	0.011098
3186.000000	0.011078
3185.000000	0.011045
3184.000000	0.011005
3183.000000	0.010972
3182.000000	0.010949
3181.000000	0.010930
3180.000000	0.010910
3179.000000	0.010888
3178.000000	0.010862
3177.000000	0.010826
3176.000000	0.010779
3175.000000	0.010731
3174.000000	0.010694
3173.000000	0.010666
3172.000000	0.010638
3171.000000	0.010601
3170.000000	0.010559
3169.000000	0.010522
3168.000000	0.010496
3167.000000	0.010475
3166.000000	0.010449
3165.000000	0.010410
3164.000000	0.010364
3163.000000	0.010325
3162.000000	0.010304
3161.000000	0.010301
3160.000000	0.010302
3159.000000	0.010287
3158.000000	0.010249
3157.000000	0.010194
3156.000000	0.010137
3155.000000	0.010087
3154.000000	0.010046
3153.000000	0.010014
3152.000000	0.009993
3151.000000	0.009983
3150.000000	0.009975
3149.000000	0.009957
3148.000000	0.009925
3147.000000	0.009888
3146.000000	0.009859
3145.000000	0.009843
3144.000000	0.009831
3143.000000	0.009813
3142.000000	0.009787
3141.000000	0.009761
3140.000000	0.009743
3139.000000	0.009734
3138.000000	0.009726
3137.000000	0.009711
3136.000000	0.009684
3135.000000	0.009648
3134.000000	0.009611
3133.000000	0.009580
3132.000000	0.009561
3131.000000	0.009556
3130.000000	0.009561
3129.000000	0.009567
3128.000000	0.009565
3127.000000	0.009550
3126.000000	0.009526
3125.000000	0.009502
3124.000000	0.009484
3123.000000	0.009468
3122.000000	0.009447
3121.000000	0.009422
3120.000000	0.009402
3119.000000	0.009398
3118.000000	0.009416
3117.000000	0.009442
3116.000000	0.009463
3115.000000	0.009466
3114.000000	0.009451
3113.000000	0.009426
3112.000000	0.009402
3111.000000	0.009392
3110.000000	0.009398
3109.000000	0.009413
3108.000000	0.009427
3107.000000	0.009431
3106.000000	0.009431
3105.000000	0.009435
3104.000000	0.009449
3103.000000	0.009467
3102.000000	0.009478
3101.000000	0.009478
3100.000000	0.009470
3099.000000	0.009464
3098.000000	0.009468
3097.000000	0.009484
3096.000000	0.009508
3095.000000	0.009534
3094.000000	0.009558
3093.000000	0.009578
3092.000000	0.009592
3091.000000	0.009603
3090.000000	0.009617
3089.000000	0.009637
3088.000000	0.009663
3087.000000	0.009687
3086.000000	0.009700
3085.000000	0.009696
3084.000000	0.009683
3083.000000	0.009674
3082.000000	0.009676
3081.000000	0.009688
3080.000000	0.009704
3079.000000	0.009717
3078.000000	0.009727
3077.000000	0.009731
3076.000000	0.009725
3075.000000	0.009711
3074.000000	0.009693
3073.000000	0.009680
3072.000000	0.009676
3071.000000	0.009681
3070.000000	0.009688
3069.000000	0.009689
3068.000000	0.009681
3067.000000	0.009667
3066.000000	0.009655
3065.000000	0.009649
3064.000000	0.009649
3063.000000	0.009656
3062.000000	0.009666
3061.000000	0.009671
3060.000000	0.009660
3059.000000	0.009630
3058.000000	0.009587
3057.000000	0.009543
3056.000000	0.009512
3055.000000	0.009503
3054.000000	0.009511
3053.000000	0.009521
3052.000000	0.009517
3051.000000	0.009494
3050.000000	0.009460
3049.000000	0.009425
3048.000000	0.009390
3047.000000	0.009353
3046.000000	0.009315
3045.000000	0.009283
3044.000000	0.009258
3043.000000	0.009234
3042.000000	0.009205
3041.000000	0.009172
3040.000000	0.009140
3039.000000	0.009114
3038.000000	0.009095
3037.000000	0.009080
3036.000000	0.009068
3035.000000	0.009056
3034.000000	0.009039
3033.000000	0.009008
3032.000000	0.008963
3031.000000	0.008918
3030.000000	0.008885
3029.000000	0.008867
3028.000000	0.008855
3027.000000	0.008840
3026.000000	0.008822
3025.000000	0.008802
3024.000000	0.008778
3023.000000	0.008748
3022.000000	0.008714
3021.000000	0.008685
3020.000000	0.008668
3019.000000	0.008663
3018.000000	0.008662
3017.000000	0.008655
3016.000000	0.008637
3015.000000	0.008612
3014.000000	0.008591
3013.000000	0.008581
3012.000000	0.008578
3011.000000	0.008570
3010.000000	0.008551
3009.000000	0.008530
3008.000000	0.008515
3007.000000	0.008514
3006.000000	0.008522
3005.000000	0.008534
3004.000000	0.008544
3003.000000	0.008554
3002.000000	0.008565
3001.000000	0.008577
3000.000000	0.008593
2999.000000	0.008618
2998.000000	0.008655
2997.000000	0.008700
2996.000000	0.008741
2995.000000	0.008770
2994.000000	0.008792
2993.000000	0.008815
2992.000000	0.008842
2991.000000	0.008872
2990.000000	0.008907
2989.000000	0.008950
2988.000000	0.009003
2987.000000	0.009060
2986.000000	0.009116
2985.000000	0.009172
2984.000000	0.009234
2983.000000	0.009306
2982.000000	0.009383
2981.000000	0.009460
2980.000000	0.009529
2979.000000	0.009588
2978.000000	0.009632
2977.000000	0.009668
2976.000000	0.009704
2975.000000	0.009755
2974.000000	0.009829
2973.000000	0.009922
2972.000000	0.010018
2971.000000	0.010106
2970.000000	0.010188
2969.000000	0.010278
2968.000000	0.010388
2967.000000	0.010517
2966.000000	0.010651
2965.000000	0.010771
2964.000000	0.010869
2963.000000	0.010948
2962.000000	0.011012
2961.000000	0.011065
2960.000000	0.011109
2959.000000	0.011151
2958.000000	0.011198
2957.000000	0.011250
2956.000000	0.011294
2955.000000	0.011313
2954.000000	0.011305
2953.000000	0.011281
2952.000000	0.011253
2951.000000	0.011229
2950.000000	0.011219
2949.000000	0.011231
2948.000000	0.011265
2947.000000	0.011313
2946.000000	0.011367
2945.000000	0.011425
2944.000000	0.011493
2943.000000	0.011572
2942.000000	0.011663
2941.000000	0.011769
2940.000000	0.011895
2939.000000	0.012040
2938.000000	0.012198
2937.000000	0.012361
2936.000000	0.012525
2935.000000	0.012684
2934.000000	0.012839
2933.000000	0.012995
2932.000000	0.013156
2931.000000	0.013318
2930.000000	0.013468
2929.000000	0.013599
2928.000000	0.013713
2927.000000	0.013819
2926.000000	0.013925
2925.000000	0.014030
2924.000000	0.014123
2923.000000	0.014188
2922.000000	0.014209
2921.000000	0.014185
2920.000000	0.014125
2919.000000	0.014042
2918.000000	0.013934
2917.000000	0.013792
2916.000000	0.013610
2915.000000	0.013395
2914.000000	0.013162
2913.000000	0.012922
2912.000000	0.012681
2911.000000	0.012448
2910.000000	0.012235
2909.000000	0.012051
2908.000000	0.011898
2907.000000	0.011769
2906.000000	0.011653
2905.000000	0.011539
2904.000000	0.011424
2903.000000	0.011308
2902.000000	0.011193
2901.000000	0.011083
2900.000000	0.010985
2899.000000	0.010907
2898.000000	0.010844
2897.000000	0.010787
2896.000000	0.010727
2895.000000	0.010667
2894.000000	0.010609
2893.000000	0.010553
2892.000000	0.010494
2891.000000	0.010431
2890.000000	0.010371
2889.000000	0.010320
2888.000000	0.010277
2887.000000	0.010242
2886.000000	0.010214
2885.000000	0.010193
2884.000000	0.010179
2883.000000	0.010173
2882.000000	0.010177
2881.000000	0.010194
2880.000000	0.010223
2879.000000	0.010257
2878.000000	0.010289
2877.000000	0.010312
2876.000000	0.010324
2875.000000	0.010330
2874.000000	0.010336
2873.000000	0.010346
2872.000000	0.010353
2871.000000	0.010345
2870.000000	0.010321
2869.000000	0.010291
2868.000000	0.010267
2867.000000	0.010250
2866.000000	0.010237
2865.000000	0.010231
2864.000000	0.010243
2863.000000	0.010282
2862.000000	0.010348
2861.000000	0.010433
2860.000000	0.010524
2859.000000	0.010615
2858.000000	0.010712
2857.000000	0.010822
2856.000000	0.010944
2855.000000	0.011072
2854.000000	0.011192
2853.000000	0.011288
2852.000000	0.011339
2851.000000	0.011321
2850.000000	0.011219
2849.000000	0.011041
2848.000000	0.010809
2847.000000	0.010552
2846.000000	0.010290
2845.000000	0.010039
2844.000000	0.009811
2843.000000	0.009609
2842.000000	0.009430
2841.000000	0.009274
2840.000000	0.009150
2839.000000	0.009063
2838.000000	0.009003
2837.000000	0.008953
2836.000000	0.008898
2835.000000	0.008839
2834.000000	0.008781
2833.000000	0.008729
2832.000000	0.008685
2831.000000	0.008645
2830.000000	0.008604
2829.000000	0.008558
2828.000000	0.008507
2827.000000	0.008455
2826.000000	0.008413
2825.000000	0.008388
2824.000000	0.008384
2823.000000	0.008390
2822.000000	0.008383
2821.000000	0.008349
2820.000000	0.008297
2819.000000	0.008247
2818.000000	0.008216
2817.000000	0.008205
2816.000000	0.008201
2815.000000	0.008188
2814.000000	0.008162
2813.000000	0.008126
2812.000000	0.008091
2811.000000	0.008070
2810.000000	0.008067
2809.000000	0.008076
2808.000000	0.008083
2807.000000	0.008079
2806.000000	0.008057
2805.000000	0.008018
2804.000000	0.007974
2803.000000	0.007938
2802.000000	0.007914
2801.000000	0.007896
2800.000000	0.007884
2799.000000	0.007884
2798.000000	0.007895
2797.000000	0.007908
2796.000000	0.007904
2795.000000	0.007879
2794.000000	0.007842
2793.000000	0.007810
2792.000000	0.007794
2791.000000	0.007795
2790.000000	0.007802
2789.000000	0.007802
2788.000000	0.007785
2787.000000	0.007761
2786.000000	0.007744
2785.000000	0.007738
2784.000000	0.007735
2783.000000	0.007725
2782.000000	0.007704
2781.000000	0.007681
2780.000000	0.007663
2779.000000	0.007654
2778.000000	0.007652
2777.000000	0.007653
2776.000000	0.007648
2775.000000	0.007635
2774.000000	0.007617
2773.000000	0.007600
2772.000000	0.007584
2771.000000	0.007571
2770.000000	0.007557
2769.000000	0.007541
2768.000000	0.007528
2767.000000	0.007521
2766.000000	0.007521
2765.000000	0.007521
2764.000000	0.007511
2763.000000	0.007493
2762.000000	0.007478
2761.000000	0.007471
2760.000000	0.007466
2759.000000	0.007456
2758.000000	0.007445
2757.000000	0.007439
2756.000000	0.007437
2755.000000	0.007427
2754.000000	0.007402
2753.000000	0.007371
2752.000000	0.007350
2751.000000	0.007345
2750.000000	0.007346
2749.000000	0.007341
2748.000000	0.007331
2747.000000	0.007322
2746.000000	0.007319
2745.000000	0.007316
2744.000000	0.007307
2743.000000	0.007292
2742.000000	0.007278
2741.000000	0.007270
2740.000000	0.007272
2739.000000	0.007280
2738.000000	0.007290
2737.000000	0.007294
2736.000000	0.007289
2735.000000	0.007274
2734.000000	0.007252
2733.000000	0.007222
2732.000000	0.007191
2731.000000	0.007170
2730.000000	0.007169
2729.000000	0.007183
2728.000000	0.007199
2727.000000	0.007200
2726.000000	0.007186
2725.000000	0.007169
2724.000000	0.007160
2723.000000	0.007159
2722.000000	0.007157
2721.000000	0.007143
2720.000000	0.007118
2719.000000	0.007091
2718.000000	0.007071
2717.000000	0.007062
2716.000000	0.007059
2715.000000	0.007056
2714.000000	0.007052
2713.000000	0.007052
2712.000000	0.007055
2711.000000	0.007058
2710.000000	0.007055
2709.000000	0.007043
2708.000000	0.007024
2707.000000	0.007002
2706.000000	0.006981
2705.000000	0.006965
2704.000000	0.006957
2703.000000	0.006963
2702.000000	0.006980
2701.000000	0.006998
2700.000000	0.007004
2699.000000	0.006996
2698.000000	0.006983
2697.000000	0.006969
2696.000000	0.006955
2695.000000	0.006938
2694.000000	0.006922
2693.000000	0.006912
2692.000000	0.006911
2691.000000	0.006916
2690.000000	0.006924
2689.000000	0.006932
2688.000000	0.006940
2687.000000	0.006948
2686.000000	0.006957
2685.000000	0.006967
2684.000000	0.006974
2683.000000	0.006974
2682.000000	0.006965
2681.000000	0.006953
2680.000000	0.006943
2679.000000	0.006939
2678.000000	0.006935
2677.000000	0.006926
2676.000000	0.006908
2675.000000	0.006886
2674.000000	0.006866
2673.000000	0.006853
2672.000000	0.006854
2671.000000	0.006870
2670.000000	0.006897
2669.000000	0.006923
2668.000000	0.006936
2667.000000	0.006939
2666.000000	0.006936
2665.000000	0.006927
2664.000000	0.006911
2663.000000	0.006889
2662.000000	0.006869
2661.000000	0.006852
2660.000000	0.006838
2659.000000	0.006822
2658.000000	0.006807
2657.000000	0.006794
2656.000000	0.006782
2655.000000	0.006771
2654.000000	0.006763
2653.000000	0.006756
2652.000000	0.006745
2651.000000	0.006724
2650.000000	0.006698
2649.000000	0.006677
2648.000000	0.006663
2647.000000	0.006647
2646.000000	0.006619
2645.000000	0.006579
2644.000000	0.006539
2643.000000	0.006508
2642.000000	0.006491
2641.000000	0.006483
2640.000000	0.006476
2639.000000	0.006468
2638.000000	0.006459
2637.000000	0.006446
2636.000000	0.006422
2635.000000	0.006392
2634.000000	0.006365
2633.000000	0.006348
2632.000000	0.006334
2631.000000	0.006313
2630.000000	0.006289
2629.000000	0.006278
2628.000000	0.006290
2627.000000	0.006315
2626.000000	0.006334
2625.000000	0.006334
2624.000000	0.006316
2623.000000	0.006287
2622.000000	0.006253
2621.000000	0.006219
2620.000000	0.006187
2619.000000	0.006159
2618.000000	0.006136
2617.000000	0.006119
2616.000000	0.006103
2615.000000	0.006092
2614.000000	0.006087
2613.000000	0.006085
2612.000000	0.006082
2611.000000	0.006074
2610.000000	0.006064
2609.000000	0.006057
2608.000000	0.006047
2607.000000	0.006030
2606.000000	0.006004
2605.000000	0.005973
2604.000000	0.005941
2603.000000	0.005911
2602.000000	0.005888
2601.000000	0.005884
2600.000000	0.005903
2599.000000	0.005932
2598.000000	0.005948
2597.000000	0.005936
2596.000000	0.005904
2595.000000	0.005870
2594.000000	0.005846
2593.000000	0.005833
2592.000000	0.005822
2591.000000	0.005809
2590.000000	0.005800
2589.000000	0.005806
2588.000000	0.005827
2587.000000	0.005853
2586.000000	0.005874
2585.000000	0.005884
2584.000000	0.005881
2583.000000	0.005869
2582.000000	0.005847
2581.000000	0.005820
2580.000000	0.005795
2579.000000	0.005782
2578.000000	0.005786
2577.000000	0.005795
2576.000000	0.005793
2575.000000	0.005773
2574.000000	0.005737
2573.000000	0.005696
2572.000000	0.005665
2571.000000	0.005659
2570.000000	0.005679
2569.000000	0.005706
2568.000000	0.005720
2567.000000	0.005718
2566.000000	0.005714
2565.000000	0.005717
2564.000000	0.005718
2563.000000	0.005706
2562.000000	0.005683
2561.000000	0.005657
2560.000000	0.005630
2559.000000	0.005603
2558.000000	0.005586
2557.000000	0.005593
2556.000000	0.005624
2555.000000	0.005663
2554.000000	0.005688
2553.000000	0.005687
2552.000000	0.005662
2551.000000	0.005624
2550.000000	0.005595
2549.000000	0.005589
2548.000000	0.005607
2547.000000	0.005638
2546.000000	0.005662
2545.000000	0.005673
2544.000000	0.005667
2543.000000	0.005651
2542.000000	0.005630
2541.000000	0.005610
2540.000000	0.005594
2539.000000	0.005581
2538.000000	0.005575
2537.000000	0.005578
2536.000000	0.005586
2535.000000	0.005594
2534.000000	0.005598
2533.000000	0.005596
2532.000000	0.005589
2531.000000	0.005575
2530.000000	0.005556
2529.000000	0.005539
2528.000000	0.005527
2527.000000	0.005527
2526.000000	0.005542
2525.000000	0.005569
2524.000000	0.005596
2523.000000	0.005608
2522.000000	0.005596
2521.000000	0.005566
2520.000000	0.005524
2519.000000	0.005478
2518.000000	0.005438
2517.000000	0.005414
2516.000000	0.005413
2515.000000	0.005438
2514.000000	0.005480
2513.000000	0.005520
2512.000000	0.005545
2511.000000	0.005549
2510.000000	0.005542
2509.000000	0.005534
2508.000000	0.005532
2507.000000	0.005538
2506.000000	0.005551
2505.000000	0.005567
2504.000000	0.005580
2503.000000	0.005581
2502.000000	0.005569
2501.000000	0.005547
2500.000000	0.005529
2499.000000	0.005524
2498.000000	0.005533
2497.000000	0.005537
2496.000000	0.005518
2495.000000	0.005479
2494.000000	0.005442
2493.000000	0.005425
2492.000000	0.005418
2491.000000	0.005402
2490.000000	0.005371
2489.000000	0.005344
2488.000000	0.005341
2487.000000	0.005363
2486.000000	0.005390
2485.000000	0.005403
2484.000000	0.005396
2483.000000	0.005376
2482.000000	0.005357
2481.000000	0.005346
2480.000000	0.005348
2479.000000	0.005364
2478.000000	0.005391
2477.000000	0.005418
2476.000000	0.005435
2475.000000	0.005441
2474.000000	0.005442
2473.000000	0.005439
2472.000000	0.005433
2471.000000	0.005428
2470.000000	0.005430
2469.000000	0.005428
2468.000000	0.005406
2467.000000	0.005356
2466.000000	0.005294
2465.000000	0.005245
2464.000000	0.005224
2463.000000	0.005232
2462.000000	0.005259
2461.000000	0.005296
2460.000000	0.005330
2459.000000	0.005360
2458.000000	0.005397
2457.000000	0.005441
2456.000000	0.005475
2455.000000	0.005476
2454.000000	0.005442
2453.000000	0.005401
2452.000000	0.005380
2451.000000	0.005385
2450.000000	0.005402
2449.000000	0.005411
2448.000000	0.005401
2447.000000	0.005384
2446.000000	0.005372
2445.000000	0.005372
2444.000000	0.005379
2443.000000	0.005389
2442.000000	0.005403
2441.000000	0.005416
2440.000000	0.005413
2439.000000	0.005385
2438.000000	0.005346
2437.000000	0.005318
2436.000000	0.005310
2435.000000	0.005321
2434.000000	0.005338
2433.000000	0.005350
2432.000000	0.005347
2431.000000	0.005329
2430.000000	0.005306
2429.000000	0.005284
2428.000000	0.005259
2427.000000	0.005226
2426.000000	0.005194
2425.000000	0.005176
2424.000000	0.005174
2423.000000	0.005182
2422.000000	0.005193
2421.000000	0.005207
2420.000000	0.005222
2419.000000	0.005226
2418.000000	0.005217
2417.000000	0.005201
2416.000000	0.005190
2415.000000	0.005191
2414.000000	0.005206
2413.000000	0.005235
2412.000000	0.005272
2411.000000	0.005306
2410.000000	0.005326
2409.000000	0.005328
2408.000000	0.005314
2407.000000	0.005291
2406.000000	0.005258
2405.000000	0.005213
2404.000000	0.005164
2403.000000	0.005132
2402.000000	0.005134
2401.000000	0.005168
2400.000000	0.005204
2399.000000	0.005218
2398.000000	0.005205
2397.000000	0.005181
2396.000000	0.005167
2395.000000	0.005183
2394.000000	0.005233
2393.000000	0.005296
2392.000000	0.005333
2391.000000	0.005320
2390.000000	0.005273
2389.000000	0.005231
2388.000000	0.005217
2387.000000	0.005228
2386.000000	0.005247
2385.000000	0.005263
2384.000000	0.005272
2383.000000	0.005272
2382.000000	0.005254
2381.000000	0.005213
2380.000000	0.005159
2379.000000	0.005128
2378.000000	0.005149
2377.000000	0.005211
2376.000000	0.005269
2375.000000	0.005295
2374.000000	0.005302
2373.000000	0.005314
2372.000000	0.005326
2371.000000	0.005314
2370.000000	0.005271
2369.000000	0.005218
2368.000000	0.005179
2367.000000	0.005173
2366.000000	0.005203
2365.000000	0.005255
2364.000000	0.005307
2363.000000	0.005364
2362.000000	0.005440
2361.000000	0.005517
2360.000000	0.005558
2359.000000	0.005540
2358.000000	0.005483
2357.000000	0.005422
2356.000000	0.005387
2355.000000	0.005395
2354.000000	0.005426
2353.000000	0.005448
2352.000000	0.005452
2351.000000	0.005451
2350.000000	0.005460
2349.000000	0.005478
2348.000000	0.005492
2347.000000	0.005485
2346.000000	0.005472
2345.000000	0.005486
2344.000000	0.005527
2343.000000	0.005569
2342.000000	0.005585
2341.000000	0.005582
2340.000000	0.005589
2339.000000	0.005623
2338.000000	0.005663
2337.000000	0.005673
2336.000000	0.005630
2335.000000	0.005539
2334.000000	0.005428
2333.000000	0.005339
2332.000000	0.005309
2331.000000	0.005343
2330.000000	0.005419
2329.000000	0.005503
2328.000000	0.005584
2327.000000	0.005657
2326.000000	0.005719
2325.000000	0.005757
2324.000000	0.005761
2323.000000	0.005728
2322.000000	0.005673
2321.000000	0.005634
2320.000000	0.005641
2319.000000	0.005685
2318.000000	0.005735
2317.000000	0.005764
2316.000000	0.005767
2315.000000	0.005745
2314.000000	0.005700
2313.000000	0.005634
2312.000000	0.005555
2311.000000	0.005467
2310.000000	0.005387
2309.000000	0.005329
2308.000000	0.005304
2307.000000	0.005298
2306.000000	0.005298
2305.000000	0.005306
2304.000000	0.005329
2303.000000	0.005354
2302.000000	0.005362
2301.000000	0.005345
2300.000000	0.005324
2299.000000	0.005318
2298.000000	0.005330
2297.000000	0.005354
2296.000000	0.005382
2295.000000	0.005404
2294.000000	0.005414
2293.000000	0.005410
2292.000000	0.005391
2291.000000	0.005358
2290.000000	0.005318
2289.000000	0.005293
2288.000000	0.005302
2287.000000	0.005345
2286.000000	0.005395
2285.000000	0.005427
2284.000000	0.005439
2283.000000	0.005447
2282.000000	0.005460
2281.000000	0.005470
2280.000000	0.005467
2279.000000	0.005443
2278.000000	0.005393
2277.000000	0.005317
2276.000000	0.005231
2275.000000	0.005169
2274.000000	0.005154
2273.000000	0.005178
2272.000000	0.005210
2271.000000	0.005222
2270.000000	0.005207
2269.000000	0.005172
2268.000000	0.005126
2267.000000	0.005082
2266.000000	0.005055
2265.000000	0.005043
2264.000000	0.005029
2263.000000	0.005003
2262.000000	0.004982
2261.000000	0.004984
2260.000000	0.004999
2259.000000	0.004992
2258.000000	0.004942
2257.000000	0.004864
2256.000000	0.004793
2255.000000	0.004754
2254.000000	0.004747
2253.000000	0.004761
2252.000000	0.004779
2251.000000	0.004789
2250.000000	0.004789
2249.000000	0.004769
2248.000000	0.004727
2247.000000	0.004683
2246.000000	0.004682
2245.000000	0.004758
2244.000000	0.004887
2243.000000	0.004996
2242.000000	0.005015
2241.000000	0.004933
2240.000000	0.004801
2239.000000	0.004704
2238.000000	0.004707
2237.000000	0.004811
2236.000000	0.004940
2235.000000	0.005003
2234.000000	0.004963
2233.000000	0.004864
2232.000000	0.004765
2231.000000	0.004693
2230.000000	0.004641
2229.000000	0.004602
2228.000000	0.004581
2227.000000	0.004590
2226.000000	0.004632
2225.000000	0.004703
2224.000000	0.004793
2223.000000	0.004885
2222.000000	0.004960
2221.000000	0.004992
2220.000000	0.004958
2219.000000	0.004857
2218.000000	0.004733
2217.000000	0.004661
2216.000000	0.004695
2215.000000	0.004812
2214.000000	0.004921
2213.000000	0.004936
2212.000000	0.004857
2211.000000	0.004765
2210.000000	0.004728
2209.000000	0.004715
2208.000000	0.004648
2207.000000	0.004520
2206.000000	0.004435
2205.000000	0.004492
2204.000000	0.004652
2203.000000	0.004767
2202.000000	0.004727
2201.000000	0.004570
2200.000000	0.004427
2199.000000	0.004390
2198.000000	0.004431
2197.000000	0.004456
2196.000000	0.004427
2195.000000	0.004415
2194.000000	0.004507
2193.000000	0.004666
2192.000000	0.004748
2191.000000	0.004664
2190.000000	0.004472
2189.000000	0.004302
2188.000000	0.004229
2187.000000	0.004264
2186.000000	0.004394
2185.000000	0.004568
2184.000000	0.004688
2183.000000	0.004692
2182.000000	0.004627
2181.000000	0.004585
2180.000000	0.004581
2179.000000	0.004562
2178.000000	0.004515
2177.000000	0.004485
2176.000000	0.004494
2175.000000	0.004503
2174.000000	0.004484
2173.000000	0.004457
2172.000000	0.004449
2171.000000	0.004470
2170.000000	0.004524
2169.000000	0.004600
2168.000000	0.004645
2167.000000	0.004608
2166.000000	0.004521
2165.000000	0.004495
2164.000000	0.004591
2163.000000	0.004741
2162.000000	0.004817
2161.000000	0.004710
2160.000000	0.004371
2159.000000	0.003849
2158.000000	0.003337
2157.000000	0.003057
2156.000000	0.003073
2155.000000	0.003279
2154.000000	0.003537
2153.000000	0.003754
2152.000000	0.003882
2151.000000	0.003928
2150.000000	0.003969
2149.000000	0.004092
2148.000000	0.004280
2147.000000	0.004407
2146.000000	0.004383
2145.000000	0.004258
2144.000000	0.004168
2143.000000	0.004201
2142.000000	0.004324
2141.000000	0.004433
2140.000000	0.004444
2139.000000	0.004353
2138.000000	0.004231
2137.000000	0.004150
2136.000000	0.004125
2135.000000	0.004138
2134.000000	0.004184
2133.000000	0.004276
2132.000000	0.004401
2131.000000	0.004517
2130.000000	0.004601
2129.000000	0.004660
2128.000000	0.004703
2127.000000	0.004724
2126.000000	0.004715
2125.000000	0.004681
2124.000000	0.004628
2123.000000	0.004570
2122.000000	0.004532
2121.000000	0.004543
2120.000000	0.004592
2119.000000	0.004639
2118.000000	0.004657
2117.000000	0.004661
2116.000000	0.004680
2115.000000	0.004719
2114.000000	0.004763
2113.000000	0.004799
2112.000000	0.004814
2111.000000	0.004797
2110.000000	0.004749
2109.000000	0.004698
2108.000000	0.004669
2107.000000	0.004666
2106.000000	0.004676
2105.000000	0.004691
2104.000000	0.004705
2103.000000	0.004708
2102.000000	0.004702
2101.000000	0.004716
2100.000000	0.004782
2099.000000	0.004889
2098.000000	0.004975
2097.000000	0.004982
2096.000000	0.004901
2095.000000	0.004775
2094.000000	0.004658
2093.000000	0.004575
2092.000000	0.004536
2091.000000	0.004549
2090.000000	0.004610
2089.000000	0.004677
2088.000000	0.004685
2087.000000	0.004604
2086.000000	0.004490
2085.000000	0.004430
2084.000000	0.004460
2083.000000	0.004541
2082.000000	0.004618
2081.000000	0.004674
2080.000000	0.004720
2079.000000	0.004751
2078.000000	0.004750
2077.000000	0.004710
2076.000000	0.004648
2075.000000	0.004592
2074.000000	0.004571
2073.000000	0.004595
2072.000000	0.004646
2071.000000	0.004690
2070.000000	0.004700
2069.000000	0.004678
2068.000000	0.004628
2067.000000	0.004558
2066.000000	0.004491
2065.000000	0.004465
2064.000000	0.004493
2063.000000	0.004529
2062.000000	0.004511
2061.000000	0.004434
2060.000000	0.004350
2059.000000	0.004301
2058.000000	0.004266
2057.000000	0.004196
2056.000000	0.004091
2055.000000	0.004008
2054.000000	0.003994
2053.000000	0.004047
2052.000000	0.004141
2051.000000	0.004261
2050.000000	0.004386
2049.000000	0.004435
2048.000000	0.004333
2047.000000	0.004118
2046.000000	0.003933
2045.000000	0.003889
2044.000000	0.003958
2043.000000	0.004037
2042.000000	0.004053
2041.000000	0.003970
2040.000000	0.003782
2039.000000	0.003552
2038.000000	0.003435
2037.000000	0.003544
2036.000000	0.003812
2035.000000	0.004034
2034.000000	0.004071
2033.000000	0.003948
2032.000000	0.003770
2031.000000	0.003633
2030.000000	0.003602
2029.000000	0.003694
2028.000000	0.003845
2027.000000	0.003949
2026.000000	0.003955
2025.000000	0.003895
2024.000000	0.003823
2023.000000	0.003773
2022.000000	0.003764
2021.000000	0.003795
2020.000000	0.003828
2019.000000	0.003823
2018.000000	0.003789
2017.000000	0.003774
2016.000000	0.003801
2015.000000	0.003848
2014.000000	0.003894
2013.000000	0.003930
2012.000000	0.003923
2011.000000	0.003838
2010.000000	0.003687
2009.000000	0.003531
2008.000000	0.003424
2007.000000	0.003379
2006.000000	0.003396
2005.000000	0.003471
2004.000000	0.003581
2003.000000	0.003687
2002.000000	0.003763
2001.000000	0.003810
2000.000000	0.003836
1999.000000	0.003859
1998.000000	0.003901
1997.000000	0.003966
1996.000000	0.004027
1995.000000	0.004065
1994.000000	0.004095
1993.000000	0.004131
1992.000000	0.004154
1991.000000	0.004132
1990.000000	0.004058
1989.000000	0.003960
1988.000000	0.003871
1987.000000	0.003837
1986.000000	0.003894
1985.000000	0.004024
1984.000000	0.004148
1983.000000	0.004222
1982.000000	0.004292
1981.000000	0.004412
1980.000000	0.004538
1979.000000	0.004566
1978.000000	0.004474
1977.000000	0.004341
1976.000000	0.004230
1975.000000	0.004138
1974.000000	0.004065
1973.000000	0.004030
1972.000000	0.004013
1971.000000	0.003959
1970.000000	0.003846
1969.000000	0.003709
1968.000000	0.003588
1967.000000	0.003526
1966.000000	0.003576
1965.000000	0.003754
1964.000000	0.003971
1963.000000	0.004086
1962.000000	0.004031
1961.000000	0.003861
1960.000000	0.003681
1959.000000	0.003569
1958.000000	0.003555
1957.000000	0.003618
1956.000000	0.003693
1955.000000	0.003724
1954.000000	0.003720
1953.000000	0.003728
1952.000000	0.003767
1951.000000	0.003806
1950.000000	0.003817
1949.000000	0.003805
1948.000000	0.003788
1947.000000	0.003778
1946.000000	0.003779
1945.000000	0.003774
1944.000000	0.003738
1943.000000	0.003687
1942.000000	0.003683
1941.000000	0.003754
1940.000000	0.003839
1939.000000	0.003871
1938.000000	0.003871
1937.000000	0.003915
1936.000000	0.004015
1935.000000	0.004100
1934.000000	0.004109
1933.000000	0.004057
1932.000000	0.003988
1931.000000	0.003929
1930.000000	0.003901
1929.000000	0.003929
1928.000000	0.004014
1927.000000	0.004110
1926.000000	0.004162
1925.000000	0.004158
1924.000000	0.004124
1923.000000	0.004093
1922.000000	0.004087
1921.000000	0.004094
1920.000000	0.004077
1919.000000	0.004010
1918.000000	0.003923
1917.000000	0.003881
1916.000000	0.003905
1915.000000	0.003957
1914.000000	0.004004
1913.000000	0.004046
1912.000000	0.004094
1911.000000	0.004137
1910.000000	0.004158
1909.000000	0.004157
1908.000000	0.004134
1907.000000	0.004084
1906.000000	0.004014
1905.000000	0.003964
1904.000000	0.003965
1903.000000	0.004001
1902.000000	0.004019
1901.000000	0.003985
1900.000000	0.003914
1899.000000	0.003850
1898.000000	0.003822
1897.000000	0.003831
1896.000000	0.003856
1895.000000	0.003876
1894.000000	0.003893
1893.000000	0.003916
1892.000000	0.003945
1891.000000	0.003965
1890.000000	0.003966
1889.000000	0.003962
1888.000000	0.003970
1887.000000	0.003982
1886.000000	0.003970
1885.000000	0.003929
1884.000000	0.003884
1883.000000	0.003870
1882.000000	0.003893
1881.000000	0.003930
1880.000000	0.003952
1879.000000	0.003948
1878.000000	0.003930
1877.000000	0.003910
1876.000000	0.003901
1875.000000	0.003908
1874.000000	0.003925
1873.000000	0.003919
1872.000000	0.003982
1871.000000	0.003981
1870.000000	0.003985
1869.000000	0.004001
1868.000000	0.004012
1867.000000	0.004007
1866.000000	0.004001
1865.000000	0.004007
1864.000000	0.003939
1863.000000	0.003957
1862.000000	0.003926
1861.000000	0.003882
1860.000000	0.003846
1859.000000	0.003821
1858.000000	0.003806
1857.000000	0.003800
1856.000000	0.003791
1855.000000	0.003772
1854.000000	0.003751
1853.000000	0.003743
1852.000000	0.003749
1851.000000	0.003764
1850.000000	0.003782
1849.000000	0.003794
1848.000000	0.003790
1847.000000	0.003788
1846.000000	0.003822
1845.000000	0.003898
1844.000000	0.003959
1843.000000	0.003955
1842.000000	0.003908
1841.000000	0.003878
1840.000000	0.003889
1839.000000	0.003912
1838.000000	0.003909
1837.000000	0.003883
1836.000000	0.003854
1835.000000	0.003822
1834.000000	0.003778
1833.000000	0.003718
1832.000000	0.003644
1831.000000	0.003570
1830.000000	0.003517
1829.000000	0.003511
1828.000000	0.003554
1827.000000	0.003624
1826.000000	0.003691
1825.000000	0.003728
1824.000000	0.003731
1823.000000	0.003720
1822.000000	0.003721
1821.000000	0.003740
1820.000000	0.003761
1819.000000	0.003769
1818.000000	0.003767
1817.000000	0.003768
1816.000000	0.003773
1815.000000	0.003781
1814.000000	0.003794
1813.000000	0.003803
1812.000000	0.003791
1811.000000	0.003757
1810.000000	0.003733
1809.000000	0.003750
1808.000000	0.003796
1807.000000	0.003831
1806.000000	0.003832
1805.000000	0.003812
1804.000000	0.003797
1803.000000	0.003796
1802.000000	0.003806
1801.000000	0.003811
1800.000000	0.003806
1799.000000	0.003804
1798.000000	0.003819
1797.000000	0.003844
1796.000000	0.003862
1795.000000	0.003864
1794.000000	0.003858
1793.000000	0.003840
1792.000000	0.003802
1791.000000	0.003754
1790.000000	0.003724
1789.000000	0.003729
1788.000000	0.003757
1787.000000	0.003781
1786.000000	0.003784
1785.000000	0.003771
1784.000000	0.003750
1783.000000	0.003727
1782.000000	0.003714
1781.000000	0.003706
1780.000000	0.003698
1779.000000	0.003691
1778.000000	0.003687
1777.000000	0.003677
1776.000000	0.003645
1775.000000	0.003599
1774.000000	0.003559
1773.000000	0.003523
1772.000000	0.003475
1771.000000	0.003434
1770.000000	0.003449
1769.000000	0.003532
1768.000000	0.003626
1767.000000	0.003665
1766.000000	0.003653
1765.000000	0.003641
1764.000000	0.003649
1763.000000	0.003643
1762.000000	0.003609
1761.000000	0.003584
1760.000000	0.003605
1759.000000	0.003662
1758.000000	0.003744
1757.000000	0.003841
1756.000000	0.003936
1755.000000	0.004033
1754.000000	0.004173
1753.000000	0.004380
1752.000000	0.004603
1751.000000	0.004748
1750.000000	0.004791
1749.000000	0.004808
1748.000000	0.004859
1747.000000	0.004946
1746.000000	0.005059
1745.000000	0.005187
1744.000000	0.005293
1743.000000	0.005332
1742.000000	0.005310
1741.000000	0.005293
1740.000000	0.005311
1739.000000	0.005320
1738.000000	0.005293
1737.000000	0.005278
1736.000000	0.005316
1735.000000	0.005350
1734.000000	0.005306
1733.000000	0.005201
1732.000000	0.005064
1731.000000	0.004905
1730.000000	0.004760
1729.000000	0.004653
1728.000000	0.004576
1727.000000	0.004509
1726.000000	0.004446
1725.000000	0.004391
1724.000000	0.004349
1723.000000	0.004298
1722.000000	0.004221
1721.000000	0.004141
1720.000000	0.004091
1719.000000	0.004067
1718.000000	0.004044
1717.000000	0.004028
1716.000000	0.004033
1715.000000	0.004058
1714.000000	0.004125
1713.000000	0.004260
1712.000000	0.004444
1711.000000	0.004633
1710.000000	0.004807
1709.000000	0.004969
1708.000000	0.005117
1707.000000	0.005267
1706.000000	0.005443
1705.000000	0.005654
1704.000000	0.005884
1703.000000	0.006149
1702.000000	0.006487
1701.000000	0.006890
1700.000000	0.007295
1699.000000	0.007663
1698.000000	0.008053
1697.000000	0.008561
1696.000000	0.009146
1695.000000	0.009637
1694.000000	0.009972
1693.000000	0.010247
1692.000000	0.010576
1691.000000	0.010961
1690.000000	0.011335
1689.000000	0.011670
1688.000000	0.011987
1687.000000	0.012338
1686.000000	0.012746
1685.000000	0.013205
1684.000000	0.013656
1683.000000	0.014037
1682.000000	0.014414
1681.000000	0.014867
1680.000000	0.015368
1679.000000	0.015820
1678.000000	0.016211
1677.000000	0.016625
1676.000000	0.017113
1675.000000	0.017615
1674.000000	0.018060
1673.000000	0.018466
1672.000000	0.018902
1671.000000	0.019406
1670.000000	0.019973
1669.000000	0.020580
1668.000000	0.021168
1667.000000	0.021674
1666.000000	0.022104
1665.000000	0.022533
1664.000000	0.023013
1663.000000	0.023512
1662.000000	0.023980
1661.000000	0.024414
1660.000000	0.024838
1659.000000	0.025241
1658.000000	0.025577
1657.000000	0.025846
1656.000000	0.026120
1655.000000	0.026468
1654.000000	0.026888
1653.000000	0.027357
1652.000000	0.027785
1651.000000	0.027993
1650.000000	0.028024
1649.000000	0.028116
1648.000000	0.028350
1647.000000	0.028627
1646.000000	0.028867
1645.000000	0.029082
1644.000000	0.029261
1643.000000	0.029392
1642.000000	0.029501
1641.000000	0.029588
1640.000000	0.029624
1639.000000	0.029612
1638.000000	0.029594
1637.000000	0.029596
1636.000000	0.029591
1635.000000	0.029565
1634.000000	0.029546
1633.000000	0.029538
1632.000000	0.029524
1631.000000	0.029466
1630.000000	0.029318
1629.000000	0.029073
1628.000000	0.028772
1627.000000	0.028455
1626.000000	0.028139
1625.000000	0.027810
1624.000000	0.027441
1623.000000	0.027023
1622.000000	0.026591
1621.000000	0.026187
1620.000000	0.025827
1619.000000	0.025483
1618.000000	0.025069
1617.000000	0.024513
1616.000000	0.023882
1615.000000	0.023298
1614.000000	0.022795
1613.000000	0.022347
1612.000000	0.021913
1611.000000	0.021458
1610.000000	0.020990
1609.000000	0.020529
1608.000000	0.020082
1607.000000	0.019654
1606.000000	0.019259
1605.000000	0.018902
1604.000000	0.018567
1603.000000	0.018244
1602.000000	0.017931
1601.000000	0.017639
1600.000000	0.017383
1599.000000	0.017169
1598.000000	0.016980
1597.000000	0.016795
1596.000000	0.016612
1595.000000	0.016459
1594.000000	0.016359
1593.000000	0.016302
1592.000000	0.016268
1591.000000	0.016247
1590.000000	0.016239
1589.000000	0.016240
1588.000000	0.016249
1587.000000	0.016272
1586.000000	0.016320
1585.000000	0.016398
1584.000000	0.016498
1583.000000	0.016623
1582.000000	0.016763
1581.000000	0.016893
1580.000000	0.017010
1579.000000	0.017165
1578.000000	0.017390
1577.000000	0.017642
1576.000000	0.017845
1575.000000	0.017965
1574.000000	0.018026
1573.000000	0.018084
1572.000000	0.018190
1571.000000	0.018341
1570.000000	0.018525
1569.000000	0.018744
1568.000000	0.018997
1567.000000	0.019275
1566.000000	0.019570
1565.000000	0.019871
1564.000000	0.020148
1563.000000	0.020404
1562.000000	0.020664
1561.000000	0.020910
1560.000000	0.021095
1559.000000	0.021273
1558.000000	0.021515
1557.000000	0.021857
1556.000000	0.022234
1555.000000	0.022625
1554.000000	0.023001
1553.000000	0.023311
1552.000000	0.023568
1551.000000	0.023821
1550.000000	0.024071
1549.000000	0.024294
1548.000000	0.024490
1547.000000	0.024686
1546.000000	0.024881
1545.000000	0.025026
1544.000000	0.025082
1543.000000	0.025081
1542.000000	0.025091
1541.000000	0.025166
1540.000000	0.025306
1539.000000	0.025477
1538.000000	0.025596
1537.000000	0.025598
1536.000000	0.025538
1535.000000	0.025467
1534.000000	0.025373
1533.000000	0.025261
1532.000000	0.025187
1531.000000	0.025160
1530.000000	0.025135
1529.000000	0.025081
1528.000000	0.025003
1527.000000	0.024902
1526.000000	0.024771
1525.000000	0.024611
1524.000000	0.024456
1523.000000	0.024334
1522.000000	0.024217
1521.000000	0.024059
1520.000000	0.023869
1519.000000	0.023685
1518.000000	0.023545
1517.000000	0.023449
1516.000000	0.023361
1515.000000	0.023264
1514.000000	0.023157
1513.000000	0.023016
1512.000000	0.022811
1511.000000	0.022543
1510.000000	0.022273
1509.000000	0.022033
1508.000000	0.021754
1507.000000	0.021318
1506.000000	0.020829
1505.000000	0.020509
1504.000000	0.020285
1503.000000	0.020056
1502.000000	0.019814
1501.000000	0.019534
1500.000000	0.019198
1499.000000	0.018843
1498.000000	0.018521
1497.000000	0.018248
1496.000000	0.018000
1495.000000	0.017742
1494.000000	0.017471
1493.000000	0.017207
1492.000000	0.016950
1491.000000	0.016669
1490.000000	0.016373
1489.000000	0.016125
1488.000000	0.015972
1487.000000	0.015897
1486.000000	0.015860
1485.000000	0.015844
1484.000000	0.015830
1483.000000	0.015815
1482.000000	0.015807
1481.000000	0.015830
1480.000000	0.015899
1479.000000	0.016009
1478.000000	0.016147
1477.000000	0.016298
1476.000000	0.016459
1475.000000	0.016643
1474.000000	0.016886
1473.000000	0.017203
1472.000000	0.017557
1471.000000	0.017898
1470.000000	0.018211
1469.000000	0.018500
1468.000000	0.018766
1467.000000	0.018997
1466.000000	0.019208
1465.000000	0.019415
1464.000000	0.019621
1463.000000	0.019822
1462.000000	0.020007
1461.000000	0.020178
1460.000000	0.020351
1459.000000	0.020563
1458.000000	0.020863
1457.000000	0.021254
1456.000000	0.021640
1455.000000	0.021914
1454.000000	0.022105
1453.000000	0.022294
1452.000000	0.022471
1451.000000	0.022580
1450.000000	0.022633
1449.000000	0.022685
1448.000000	0.022748
1447.000000	0.022796
1446.000000	0.022830
1445.000000	0.022855
1444.000000	0.022862
1443.000000	0.022847
1442.000000	0.022813
1441.000000	0.022758
1440.000000	0.022681
1439.000000	0.022592
1438.000000	0.022500
1437.000000	0.022404
1436.000000	0.022298
1435.000000	0.022189
1434.000000	0.022090
1433.000000	0.022008
1432.000000	0.021913
1431.000000	0.021781
1430.000000	0.021639
1429.000000	0.021534
1428.000000	0.021466
1427.000000	0.021407
1426.000000	0.021358
1425.000000	0.021322
1424.000000	0.021271
1423.000000	0.021185
1422.000000	0.021099
1421.000000	0.021057
1420.000000	0.021056
1419.000000	0.021057
1418.000000	0.021033
1417.000000	0.020997
1416.000000	0.020962
1415.000000	0.020928
1414.000000	0.020891
1413.000000	0.020850
1412.000000	0.020803
1411.000000	0.020741
1410.000000	0.020668
1409.000000	0.020602
1408.000000	0.020550
1407.000000	0.020510
1406.000000	0.020488
1405.000000	0.020487
1404.000000	0.020481
1403.000000	0.020438
1402.000000	0.020363
1401.000000	0.020286
1400.000000	0.020216
1399.000000	0.020130
1398.000000	0.020021
1397.000000	0.019914
1396.000000	0.019826
1395.000000	0.019739
1394.000000	0.019638
1393.000000	0.019526
1392.000000	0.019407
1391.000000	0.019287
1390.000000	0.019173
1389.000000	0.019065
1388.000000	0.018937
1387.000000	0.018767
1386.000000	0.018571
1385.000000	0.018386
1384.000000	0.018232
1383.000000	0.018094
1382.000000	0.017949
1381.000000	0.017790
1380.000000	0.017621
1379.000000	0.017440
1378.000000	0.017243
1377.000000	0.017031
1376.000000	0.016807
1375.000000	0.016574
1374.000000	0.016343
1373.000000	0.016133
1372.000000	0.015954
1371.000000	0.015792
1370.000000	0.015624
1369.000000	0.015437
1368.000000	0.015231
1367.000000	0.015009
1366.000000	0.014780
1365.000000	0.014558
1364.000000	0.014358
1363.000000	0.014190
1362.000000	0.014049
1361.000000	0.013928
1360.000000	0.013827
1359.000000	0.013745
1358.000000	0.013677
1357.000000	0.013618
1356.000000	0.013569
1355.000000	0.013543
1354.000000	0.013546
1353.000000	0.013576
1352.000000	0.013627
1351.000000	0.013696
1350.000000	0.013780
1349.000000	0.013871
1348.000000	0.013962
1347.000000	0.014052
1346.000000	0.014152
1345.000000	0.014269
1344.000000	0.014403
1343.000000	0.014548
1342.000000	0.014698
1341.000000	0.014847
1340.000000	0.014982
1339.000000	0.015087
1338.000000	0.015158
1337.000000	0.015204
1336.000000	0.015230
1335.000000	0.015225
1334.000000	0.015184
1333.000000	0.015119
1332.000000	0.015046
1331.000000	0.014977
1330.000000	0.014908
1329.000000	0.014834
1328.000000	0.014750
1327.000000	0.014655
1326.000000	0.014553
1325.000000	0.014455
1324.000000	0.014377
1323.000000	0.014325
1322.000000	0.014297
1321.000000	0.014285
1320.000000	0.014274
1319.000000	0.014249
1318.000000	0.014202
1317.000000	0.014141
1316.000000	0.014083
1315.000000	0.014034
1314.000000	0.013983
1313.000000	0.013919
1312.000000	0.013843
1311.000000	0.013760
1310.000000	0.013672
1309.000000	0.013573
1308.000000	0.013467
1307.000000	0.013363
1306.000000	0.013272
1305.000000	0.013187
1304.000000	0.013100
1303.000000	0.013002
1302.000000	0.012899
1301.000000	0.012802
1300.000000	0.012724
1299.000000	0.012665
1298.000000	0.012615
1297.000000	0.012565
1296.000000	0.012518
1295.000000	0.012484
1294.000000	0.012471
1293.000000	0.012480
1292.000000	0.012504
1291.000000	0.012536
1290.000000	0.012575
1289.000000	0.012624
1288.000000	0.012689
1287.000000	0.012769
1286.000000	0.012855
1285.000000	0.012942
1284.000000	0.013024
1283.000000	0.013097
1282.000000	0.013155
1281.000000	0.013191
1280.000000	0.013209
1279.000000	0.013219
1278.000000	0.013231
1277.000000	0.013252
1276.000000	0.013280
1275.000000	0.013309
1274.000000	0.013331
1273.000000	0.013346
1272.000000	0.013363
1271.000000	0.013391
1270.000000	0.013437
1269.000000	0.013506
1268.000000	0.013589
1267.000000	0.013676
1266.000000	0.013759
1265.000000	0.013850
1264.000000	0.013964
1263.000000	0.014101
1262.000000	0.014238
1261.000000	0.014353
1260.000000	0.014447
1259.000000	0.014539
1258.000000	0.014650
1257.000000	0.014777
1256.000000	0.014907
1255.000000	0.015022
1254.000000	0.015121
1253.000000	0.015217
1252.000000	0.015327
1251.000000	0.015452
1250.000000	0.015580
1249.000000	0.015703
1248.000000	0.015829
1247.000000	0.015973
1246.000000	0.016139
1245.000000	0.016308
1244.000000	0.016449
1243.000000	0.016548
1242.000000	0.016616
1241.000000	0.016678
1240.000000	0.016745
1239.000000	0.016808
1238.000000	0.016852
1237.000000	0.016867
1236.000000	0.016855
1235.000000	0.016818
1234.000000	0.016757
1233.000000	0.016675
1232.000000	0.016573
1231.000000	0.016454
1230.000000	0.016311
1229.000000	0.016135
1228.000000	0.015926
1227.000000	0.015697
1226.000000	0.015471
1225.000000	0.015255
1224.000000	0.015037
1223.000000	0.014798
1222.000000	0.014535
1221.000000	0.014258
1220.000000	0.013979
1219.000000	0.013712
1218.000000	0.013479
1217.000000	0.013296
1216.000000	0.013166
1215.000000	0.013070
1214.000000	0.012984
1213.000000	0.012900
1212.000000	0.012826
1211.000000	0.012779
1210.000000	0.012771
1209.000000	0.012797
1208.000000	0.012841
1207.000000	0.012888
1206.000000	0.012932
1205.000000	0.012972
1204.000000	0.013010
1203.000000	0.013041
1202.000000	0.013054
1201.000000	0.013037
1200.000000	0.012977
1199.000000	0.012875
1198.000000	0.012752
1197.000000	0.012630
1196.000000	0.012513
1195.000000	0.012392
1194.000000	0.012258
1193.000000	0.012120
1192.000000	0.011988
1191.000000	0.011863
1190.000000	0.011739
1189.000000	0.011617
1188.000000	0.011502
1187.000000	0.011399
1186.000000	0.011308
1185.000000	0.011228
1184.000000	0.011158
1183.000000	0.011095
1182.000000	0.011039
1181.000000	0.010995
1180.000000	0.010971
1179.000000	0.010967
1178.000000	0.010977
1177.000000	0.010996
1176.000000	0.011023
1175.000000	0.011054
1174.000000	0.011084
1173.000000	0.011116
1172.000000	0.011157
1171.000000	0.011209
1170.000000	0.011266
1169.000000	0.011320
1168.000000	0.011374
1167.000000	0.011437
1166.000000	0.011516
1165.000000	0.011612
1164.000000	0.011717
1163.000000	0.011813
1162.000000	0.011883
1161.000000	0.011917
1160.000000	0.011915
1159.000000	0.011879
1158.000000	0.011811
1157.000000	0.011716
1156.000000	0.011602
1155.000000	0.011480
1154.000000	0.011352
1153.000000	0.011224
1152.000000	0.011095
1151.000000	0.010962
1150.000000	0.010818
1149.000000	0.010659
1148.000000	0.010498
1147.000000	0.010345
1146.000000	0.010204
1145.000000	0.010061
1144.000000	0.009907
1143.000000	0.009742
1142.000000	0.009586
1141.000000	0.009456
1140.000000	0.009353
1139.000000	0.009264
1138.000000	0.009174
1137.000000	0.009088
1136.000000	0.009021
1135.000000	0.008980
1134.000000	0.008954
1133.000000	0.008928
1132.000000	0.008900
1131.000000	0.008880
1130.000000	0.008880
1129.000000	0.008900
1128.000000	0.008929
1127.000000	0.008955
1126.000000	0.008971
1125.000000	0.008986
1124.000000	0.009011
1123.000000	0.009041
1122.000000	0.009062
1121.000000	0.009079
1120.000000	0.009113
1119.000000	0.009177
1118.000000	0.009260
1117.000000	0.009340
1116.000000	0.009414
1115.000000	0.009496
1114.000000	0.009589
1113.000000	0.009687
1112.000000	0.009788
1111.000000	0.009892
1110.000000	0.009993
1109.000000	0.010074
1108.000000	0.010131
1107.000000	0.010173
1106.000000	0.010213
1105.000000	0.010251
1104.000000	0.010284
1103.000000	0.010311
1102.000000	0.010339
1101.000000	0.010371
1100.000000	0.010415
1099.000000	0.010478
1098.000000	0.010562
1097.000000	0.010650
1096.000000	0.010726
1095.000000	0.010792
1094.000000	0.010866
1093.000000	0.010968
1092.000000	0.011096
1091.000000	0.011236
1090.000000	0.011382
1089.000000	0.011537
1088.000000	0.011708
1087.000000	0.011890
1086.000000	0.012073
1085.000000	0.012252
1084.000000	0.012423
1083.000000	0.012576
1082.000000	0.012691
1081.000000	0.012755
1080.000000	0.012764
1079.000000	0.012722
1078.000000	0.012636
1077.000000	0.012516
1076.000000	0.012380
1075.000000	0.012239
1074.000000	0.012095
1073.000000	0.011944
1072.000000	0.011793
1071.000000	0.011661
1070.000000	0.011557
1069.000000	0.011485
1068.000000	0.011448
1067.000000	0.011454
1066.000000	0.011500
1065.000000	0.011567
1064.000000	0.011640
1063.000000	0.011720
1062.000000	0.011810
1061.000000	0.011898
1060.000000	0.011958
1059.000000	0.011972
1058.000000	0.011940
1057.000000	0.011887
1056.000000	0.011847
1055.000000	0.011842
1054.000000	0.011871
1053.000000	0.011908
1052.000000	0.011933
1051.000000	0.011949
1050.000000	0.011975
1049.000000	0.012015
1048.000000	0.012061
1047.000000	0.012100
1046.000000	0.012130
1045.000000	0.012151
1044.000000	0.012163
1043.000000	0.012172
1042.000000	0.012188
1041.000000	0.012216
1040.000000	0.012264
1039.000000	0.012351
1038.000000	0.012494
1037.000000	0.012685
1036.000000	0.012888
1035.000000	0.013070
1034.000000	0.013231
1033.000000	0.013394
1032.000000	0.013576
1031.000000	0.013769
1030.000000	0.013946
1029.000000	0.014080
1028.000000	0.014161
1027.000000	0.014208
1026.000000	0.014253
1025.000000	0.014324
1024.000000	0.014431
1023.000000	0.014575
1022.000000	0.014750
1021.000000	0.014939
1020.000000	0.015115
1019.000000	0.015251
1018.000000	0.015329
1017.000000	0.015328
1016.000000	0.015231
1015.000000	0.015037
1014.000000	0.014774
1013.000000	0.014472
1012.000000	0.014148
1011.000000	0.013816
1010.000000	0.013494
1009.000000	0.013195
1008.000000	0.012907
1007.000000	0.012608
1006.000000	0.012297
1005.000000	0.011987
1004.000000	0.011698
1003.000000	0.011436
1002.000000	0.011204
1001.000000	0.010996
1000.000000	0.010793
999.000000	0.010589
998.000000	0.010396
997.000000	0.010237
996.000000	0.010108
995.000000	0.009975
994.000000	0.009812
993.000000	0.009626
992.000000	0.009443
991.000000	0.009273
990.000000	0.009110
989.000000	0.008954
988.000000	0.008815
987.000000	0.008701
986.000000	0.008596
985.000000	0.008481
984.000000	0.008358
983.000000	0.008253
982.000000	0.008181
981.000000	0.008130
980.000000	0.008074
979.000000	0.008008
978.000000	0.007941
977.000000	0.007877
976.000000	0.007811
975.000000	0.007744
974.000000	0.007689
973.000000	0.007652
972.000000	0.007613
971.000000	0.007550
970.000000	0.007458
969.000000	0.007355
968.000000	0.007254
967.000000	0.007161
966.000000	0.007072
965.000000	0.006979
964.000000	0.006875
963.000000	0.006761
962.000000	0.006650
961.000000	0.006562
960.000000	0.006502
959.000000	0.006457
958.000000	0.006410
957.000000	0.006347
956.000000	0.006263
955.000000	0.006163
954.000000	0.006064
953.000000	0.005984
952.000000	0.005920
951.000000	0.005856
950.000000	0.005779
949.000000	0.005695
948.000000	0.005623
947.000000	0.005577
946.000000	0.005560
945.000000	0.005561
944.000000	0.005564
943.000000	0.005564
942.000000	0.005563
941.000000	0.005565
940.000000	0.005560
939.000000	0.005534
938.000000	0.005480
937.000000	0.005408
936.000000	0.005330
935.000000	0.005257
934.000000	0.005201
933.000000	0.005173
932.000000	0.005167
931.000000	0.005157
930.000000	0.005127
929.000000	0.005080
928.000000	0.005037
927.000000	0.005017
926.000000	0.005019
925.000000	0.005031
924.000000	0.005035
923.000000	0.005015
922.000000	0.004973
921.000000	0.004924
920.000000	0.004877
919.000000	0.004829
918.000000	0.004769
917.000000	0.004692
916.000000	0.004607
915.000000	0.004525
914.000000	0.004457
913.000000	0.004406
912.000000	0.004361
911.000000	0.004304
910.000000	0.004223
909.000000	0.004134
908.000000	0.004067
907.000000	0.004048
906.000000	0.004073
905.000000	0.004107
904.000000	0.004115
903.000000	0.004086
902.000000	0.004036
901.000000	0.003980
900.000000	0.003920
899.000000	0.003849
898.000000	0.003771
897.000000	0.003700
896.000000	0.003649
895.000000	0.003605
894.000000	0.003552
893.000000	0.003485
892.000000	0.003426
891.000000	0.003401
890.000000	0.003423
889.000000	0.003486
888.000000	0.003583
887.000000	0.003719
886.000000	0.003904
885.000000	0.004136
884.000000	0.004402
883.000000	0.004697
882.000000	0.005036
881.000000	0.005441
880.000000	0.005907
879.000000	0.006397
878.000000	0.006851
877.000000	0.007204
876.000000	0.007396
875.000000	0.007387
874.000000	0.007183
873.000000	0.006832
872.000000	0.006399
871.000000	0.005940
870.000000	0.005498
869.000000	0.005109
868.000000	0.004798
867.000000	0.004578
866.000000	0.004437
865.000000	0.004349
864.000000	0.004276
863.000000	0.004192
862.000000	0.004099
861.000000	0.004014
860.000000	0.003946
859.000000	0.003897
858.000000	0.003876
857.000000	0.003894
856.000000	0.003937
855.000000	0.003970
854.000000	0.003969
853.000000	0.003950
852.000000	0.003942
851.000000	0.003957
850.000000	0.003988
849.000000	0.004017
848.000000	0.004022
847.000000	0.003978
846.000000	0.003886
845.000000	0.003781
844.000000	0.003708
843.000000	0.003684
842.000000	0.003695
841.000000	0.003715
840.000000	0.003722
839.000000	0.003701
838.000000	0.003656
837.000000	0.003615
836.000000	0.003601
835.000000	0.003600
834.000000	0.003578
833.000000	0.003526
832.000000	0.003473
831.000000	0.003460
830.000000	0.003496
829.000000	0.003548
828.000000	0.003573
827.000000	0.003545
826.000000	0.003484
825.000000	0.003441
824.000000	0.003456
823.000000	0.003518
822.000000	0.003581
821.000000	0.003617
820.000000	0.003627
819.000000	0.003620
818.000000	0.003597
817.000000	0.003564
816.000000	0.003543
815.000000	0.003558
814.000000	0.003602
813.000000	0.003647
812.000000	0.003668
811.000000	0.003665
810.000000	0.003652
809.000000	0.003642
808.000000	0.003633
807.000000	0.003615
806.000000	0.003581
805.000000	0.003540
804.000000	0.003500
803.000000	0.003468
802.000000	0.003449
801.000000	0.003452
800.000000	0.003485
799.000000	0.003540
798.000000	0.003601
797.000000	0.003648
796.000000	0.003668
795.000000	0.003655
794.000000	0.003613
793.000000	0.003568
792.000000	0.003550
791.000000	0.003572
790.000000	0.003615
789.000000	0.003643
788.000000	0.003639
787.000000	0.003618
786.000000	0.003609
785.000000	0.003623
784.000000	0.003638
783.000000	0.003631
782.000000	0.003609
781.000000	0.003600
780.000000	0.003616
779.000000	0.003637
778.000000	0.003636
777.000000	0.003613
776.000000	0.003584
775.000000	0.003565
774.000000	0.003560
773.000000	0.003559
772.000000	0.003554
771.000000	0.003547
770.000000	0.003559
769.000000	0.003610
768.000000	0.003682
767.000000	0.003717
766.000000	0.003676
765.000000	0.003578
764.000000	0.003485
763.000000	0.003445
762.000000	0.003463
761.000000	0.003519
760.000000	0.003575
759.000000	0.003601
758.000000	0.003592
757.000000	0.003574
756.000000	0.003579
755.000000	0.003603
754.000000	0.003620
753.000000	0.003611
752.000000	0.003579
751.000000	0.003537
750.000000	0.003500
749.000000	0.003484
748.000000	0.003499
747.000000	0.003531
746.000000	0.003562
745.000000	0.003590
744.000000	0.003616
743.000000	0.003640
742.000000	0.003661
741.000000	0.003690
740.000000	0.003732
739.000000	0.003768
738.000000	0.003775
737.000000	0.003772
736.000000	0.003805
735.000000	0.003891
734.000000	0.003998
733.000000	0.004082
732.000000	0.004129
731.000000	0.004141
730.000000	0.004119
729.000000	0.004074
728.000000	0.004040
727.000000	0.004052
726.000000	0.004123
725.000000	0.004249
724.000000	0.004406
723.000000	0.004553
722.000000	0.004657
721.000000	0.004715
720.000000	0.004755
719.000000	0.004795
718.000000	0.004837
717.000000	0.004886
716.000000	0.004968
715.000000	0.005100
714.000000	0.005262
713.000000	0.005403
712.000000	0.005480
711.000000	0.005489
710.000000	0.005467
709.000000	0.005475
708.000000	0.005536
707.000000	0.005606
706.000000	0.005624
705.000000	0.005591
704.000000	0.005565
703.000000	0.005584
702.000000	0.005623
701.000000	0.005637
700.000000	0.005624
699.000000	0.005601
698.000000	0.005565
697.000000	0.005510
696.000000	0.005456
695.000000	0.005441
694.000000	0.005455
693.000000	0.005450
692.000000	0.005414
691.000000	0.005398
690.000000	0.005452
689.000000	0.005563
688.000000	0.005677
687.000000	0.005768
686.000000	0.005856
685.000000	0.005955
684.000000	0.006050
683.000000	0.006108
682.000000	0.006114
681.000000	0.006088
680.000000	0.006073
679.000000	0.006083
678.000000	0.006092
677.000000	0.006113
676.000000	0.006206
675.000000	0.006395
674.000000	0.006610
673.000000	0.006741
672.000000	0.006732
671.000000	0.006594
670.000000	0.006363
669.000000	0.006129
668.000000	0.006117
667.000000	0.006363
666.000000	0.006499
665.000000	0.006549
664.000000	0.006630
663.000000	0.006714
662.000000	0.006719
661.000000	0.006626
660.000000	0.006503
659.000000	0.006418
658.000000	0.006391
657.000000	0.006426
656.000000	0.006505
655.000000	0.006575
654.000000	0.006585
653.000000	0.006541
652.000000	0.006471
651.000000	0.006400
650.000000	0.006355
649.000000	0.006366
648.000000	0.006409
647.000000	0.006419
646.000000	0.006377
645.000000	0.006329
644.000000	0.006310
643.000000	0.006311
642.000000	0.006305
641.000000	0.006306
640.000000	0.006336
639.000000	0.006386
638.000000	0.006422
637.000000	0.006418
636.000000	0.006356
635.000000	0.006254
634.000000	0.006173
633.000000	0.006175
632.000000	0.006259
631.000000	0.006360
630.000000	0.006411
629.000000	0.006398
628.000000	0.006344
627.000000	0.006283
626.000000	0.006259
625.000000	0.006286
624.000000	0.006325
623.000000	0.006327
622.000000	0.006289
621.000000	0.006251
620.000000	0.006237
619.000000	0.006241
618.000000	0.006266
617.000000	0.006318
616.000000	0.006375
615.000000	0.006394
614.000000	0.006366
613.000000	0.006330
612.000000	0.006318
611.000000	0.006332
610.000000	0.006376
609.000000	0.006452
608.000000	0.006516
607.000000	0.006495
606.000000	0.006392
605.000000	0.006304
604.000000	0.006308
603.000000	0.006372
602.000000	0.006405
601.000000	0.006349
600.000000	0.006206
599.000000	0.006018
598.000000	0.005853
597.000000	0.005771
596.000000	0.005769
595.000000	0.005796
594.000000	0.005821
593.000000	0.005864
592.000000	0.005930
591.000000	0.005958
590.000000	0.005880
589.000000	0.005714
588.000000	0.005546
587.000000	0.005436
586.000000	0.005391
585.000000	0.005405
584.000000	0.005486
583.000000	0.005635
582.000000	0.005811
581.000000	0.005948
580.000000	0.006001
579.000000	0.005989
578.000000	0.005964
577.000000	0.005942
576.000000	0.005884
575.000000	0.005779
574.000000	0.005705
573.000000	0.005754
572.000000	0.005901
571.000000	0.006023
570.000000	0.006052
569.000000	0.006047
568.000000	0.006099
567.000000	0.006217
566.000000	0.006365
565.000000	0.006534
564.000000	0.006732
563.000000	0.006926
562.000000	0.007045
561.000000	0.007039
560.000000	0.006927
559.000000	0.006786
558.000000	0.006708
557.000000	0.006717
556.000000	0.006737
555.000000	0.006693
554.000000	0.006612
553.000000	0.006582
552.000000	0.006621
551.000000	0.006671
550.000000	0.006694
549.000000	0.006709
548.000000	0.006704
547.000000	0.006632
546.000000	0.006507
545.000000	0.006415
544.000000	0.006402
543.000000	0.006435
542.000000	0.006489
541.000000	0.006575
540.000000	0.006633
539.000000	0.006532
538.000000	0.006257
537.000000	0.005991
536.000000	0.005948
535.000000	0.006160
534.000000	0.006487
533.000000	0.006762
532.000000	0.006880
531.000000	0.006809
530.000000	0.006615
529.000000	0.006424
528.000000	0.006308
527.000000	0.006254
526.000000	0.006235
525.000000	0.006262
524.000000	0.006311
523.000000	0.006318
522.000000	0.006282
521.000000	0.006273
520.000000	0.006279
519.000000	0.006159
518.000000	0.005843
517.000000	0.005483
516.000000	0.005296
515.000000	0.005324
514.000000	0.005455
513.000000	0.005570
512.000000	0.005593
511.000000	0.005472
510.000000	0.005253
509.000000	0.005096
508.000000	0.005129
507.000000	0.005287
506.000000	0.005372
505.000000	0.005265
504.000000	0.005000
503.000000	0.004700
502.000000	0.004498
501.000000	0.004475
500.000000	0.004572
499.000000	0.004646
498.000000	0.004624
497.000000	0.004560
496.000000	0.004534
495.000000	0.004563
494.000000	0.004647
493.000000	0.004790
492.000000	0.004918
491.000000	0.004867
490.000000	0.004576
489.000000	0.004202
488.000000	0.003936
487.000000	0.003807
486.000000	0.003742
485.000000	0.003742
484.000000	0.003862
483.000000	0.004068
482.000000	0.004266
481.000000	0.004420
480.000000	0.004528
479.000000	0.004541
478.000000	0.004427
477.000000	0.004282
476.000000	0.004226
475.000000	0.004259
474.000000	0.004312
473.000000	0.004382
472.000000	0.004495
471.000000	0.004601
470.000000	0.004681
469.000000	0.004872
468.000000	0.005307
467.000000	0.005851
466.000000	0.006183
465.000000	0.006135
464.000000	0.005800
463.000000	0.005343
462.000000	0.004881
461.000000	0.004493
460.000000	0.004200
459.000000	0.003950
458.000000	0.003720
457.000000	0.003590
456.000000	0.003589
455.000000	0.003617
454.000000	0.003618
453.000000	0.003689
452.000000	0.003872
451.000000	0.003924
450.000000	0.003552
