PE UV       SUBTECH     SPECTRUM    ASCII       PEDS        4.00        
   -1
AAgneauUK 22.Sample.asc
18/03/06
10:25:07.00
18/03/06
10:25:07.00
Administrator

200.000000
1
Lambda 750
750N8071901
PerkinElmer UV WinLab 6.0.4.0738 / 1.61.00 Lambda 900

0
0
3350/servo 860.8/2
0
0
UV/VIS
1
1
1
CommonBeamDepol,150mm sphere / downward view
0
0
0
0
Program
Program
3350/servo 860.8/2
3350/0.2 860.8/0.2
3350/0.2 860.8/0.2
0
1
 
 
 
0
 
860.8
319.2
860.8
Front
100
on
 
 
0
0
0
 
0
 
 
 
0
 
 
0
0
0
0
0
 
 
 
 
0
0


0
0
#HDR
-1
-1
#GR
nm
A
1.0
0.0
2350.000000
-1.000000
2151
8
0.790601
-0.010946
#DATA
2350.000000	0.308843
2349.000000	0.309794
2348.000000	0.314840
2347.000000	0.305717
2346.000000	0.308294
2345.000000	0.308468
2344.000000	0.307120
2343.000000	0.307478
2342.000000	0.308290
2341.000000	0.303661
2340.000000	0.310778
2339.000000	0.305655
2338.000000	0.300394
2337.000000	0.303311
2336.000000	0.301816
2335.000000	0.301938
2334.000000	0.300721
2333.000000	0.298276
2332.000000	0.298420
2331.000000	0.298465
2330.000000	0.299624
2329.000000	0.299083
2328.000000	0.300447
2327.000000	0.302137
2326.000000	0.297634
2325.000000	0.301150
2324.000000	0.298786
2323.000000	0.301387
2322.000000	0.305769
2321.000000	0.303824
2320.000000	0.305966
2319.000000	0.304505
2318.000000	0.300962
2317.000000	0.303630
2316.000000	0.307176
2315.000000	0.307963
2314.000000	0.307002
2313.000000	0.308792
2312.000000	0.310038
2311.000000	0.307550
2310.000000	0.314741
2309.000000	0.318426
2308.000000	0.316065
2307.000000	0.315436
2306.000000	0.313008
2305.000000	0.316949
2304.000000	0.318296
2303.000000	0.321496
2302.000000	0.321221
2301.000000	0.322478
2300.000000	0.325284
2299.000000	0.326646
2298.000000	0.327432
2297.000000	0.331407
2296.000000	0.332445
2295.000000	0.333223
2294.000000	0.333772
2293.000000	0.334607
2292.000000	0.335791
2291.000000	0.334624
2290.000000	0.336083
2289.000000	0.338044
2288.000000	0.339755
2287.000000	0.339433
2286.000000	0.337069
2285.000000	0.339050
2284.000000	0.340984
2283.000000	0.342580
2282.000000	0.344777
2281.000000	0.345055
2280.000000	0.343586
2279.000000	0.341724
2278.000000	0.343854
2277.000000	0.344136
2276.000000	0.341011
2275.000000	0.340076
2274.000000	0.339245
2273.000000	0.338928
2272.000000	0.336929
2271.000000	0.339510
2270.000000	0.340269
2269.000000	0.337784
2268.000000	0.336754
2267.000000	0.335602
2266.000000	0.331836
2265.000000	0.330918
2264.000000	0.327992
2263.000000	0.327512
2262.000000	0.327971
2261.000000	0.324354
2260.000000	0.321296
2259.000000	0.319081
2258.000000	0.316914
2257.000000	0.312147
2256.000000	0.308482
2255.000000	0.306017
2254.000000	0.304367
2253.000000	0.302580
2252.000000	0.299206
2251.000000	0.296517
2250.000000	0.294524
2249.000000	0.291824
2248.000000	0.288471
2247.000000	0.285346
2246.000000	0.282946
2245.000000	0.281273
2244.000000	0.277733
2243.000000	0.274827
2242.000000	0.273716
2241.000000	0.272179
2240.000000	0.269861
2239.000000	0.267286
2238.000000	0.265121
2237.000000	0.263228
2236.000000	0.261907
2235.000000	0.260456
2234.000000	0.259692
2233.000000	0.260586
2232.000000	0.259952
2231.000000	0.259010
2230.000000	0.256448
2229.000000	0.256434
2228.000000	0.256204
2227.000000	0.256071
2226.000000	0.257102
2225.000000	0.256781
2224.000000	0.256137
2223.000000	0.256261
2222.000000	0.258355
2221.000000	0.259310
2220.000000	0.258008
2219.000000	0.257294
2218.000000	0.259591
2217.000000	0.260692
2216.000000	0.259600
2215.000000	0.259337
2214.000000	0.260007
2213.000000	0.260811
2212.000000	0.263030
2211.000000	0.265769
2210.000000	0.265154
2209.000000	0.265228
2208.000000	0.266324
2207.000000	0.267194
2206.000000	0.268483
2205.000000	0.267820
2204.000000	0.269261
2203.000000	0.271104
2202.000000	0.273252
2201.000000	0.272356
2200.000000	0.273787
2199.000000	0.274313
2198.000000	0.274456
2197.000000	0.277004
2196.000000	0.278758
2195.000000	0.278455
2194.000000	0.281256
2193.000000	0.283795
2192.000000	0.285151
2191.000000	0.283280
2190.000000	0.283274
2189.000000	0.285218
2188.000000	0.288937
2187.000000	0.287571
2186.000000	0.287895
2185.000000	0.287008
2184.000000	0.287943
2183.000000	0.291026
2182.000000	0.290128
2181.000000	0.292539
2180.000000	0.291571
2179.000000	0.291277
2178.000000	0.293085
2177.000000	0.291782
2176.000000	0.289749
2175.000000	0.291698
2174.000000	0.293338
2173.000000	0.294174
2172.000000	0.291787
2171.000000	0.290224
2170.000000	0.286940
2169.000000	0.286675
2168.000000	0.284542
2167.000000	0.287317
2166.000000	0.285514
2165.000000	0.284238
2164.000000	0.284093
2163.000000	0.282745
2162.000000	0.280522
2161.000000	0.277159
2160.000000	0.274973
2159.000000	0.273686
2158.000000	0.273145
2157.000000	0.270072
2156.000000	0.267859
2155.000000	0.266559
2154.000000	0.264226
2153.000000	0.262635
2152.000000	0.263066
2151.000000	0.259000
2150.000000	0.256812
2149.000000	0.255571
2148.000000	0.253697
2147.000000	0.253250
2146.000000	0.250457
2145.000000	0.248623
2144.000000	0.246660
2143.000000	0.244595
2142.000000	0.243581
2141.000000	0.241120
2140.000000	0.237094
2139.000000	0.236465
2138.000000	0.236519
2137.000000	0.236811
2136.000000	0.233081
2135.000000	0.232788
2134.000000	0.231828
2133.000000	0.230122
2132.000000	0.227888
2131.000000	0.226904
2130.000000	0.225486
2129.000000	0.226012
2128.000000	0.224626
2127.000000	0.223650
2126.000000	0.222298
2125.000000	0.222468
2124.000000	0.222167
2123.000000	0.223033
2122.000000	0.220843
2121.000000	0.220223
2120.000000	0.221378
2119.000000	0.220360
2118.000000	0.217097
2117.000000	0.216888
2116.000000	0.218313
2115.000000	0.217203
2114.000000	0.217678
2113.000000	0.217052
2112.000000	0.216116
2111.000000	0.216387
2110.000000	0.217709
2109.000000	0.216669
2108.000000	0.217229
2107.000000	0.216024
2106.000000	0.216679
2105.000000	0.217197
2104.000000	0.216476
2103.000000	0.215763
2102.000000	0.215144
2101.000000	0.214425
2100.000000	0.213751
2099.000000	0.214590
2098.000000	0.213546
2097.000000	0.213679
2096.000000	0.214571
2095.000000	0.214261
2094.000000	0.214740
2093.000000	0.215207
2092.000000	0.214524
2091.000000	0.215232
2090.000000	0.215637
2089.000000	0.215733
2088.000000	0.215221
2087.000000	0.215462
2086.000000	0.216727
2085.000000	0.216516
2084.000000	0.218880
2083.000000	0.219006
2082.000000	0.219672
2081.000000	0.221288
2080.000000	0.221980
2079.000000	0.223221
2078.000000	0.224414
2077.000000	0.224606
2076.000000	0.225188
2075.000000	0.227517
2074.000000	0.228762
2073.000000	0.229587
2072.000000	0.230520
2071.000000	0.232455
2070.000000	0.232982
2069.000000	0.234917
2068.000000	0.236796
2067.000000	0.239705
2066.000000	0.241753
2065.000000	0.243252
2064.000000	0.244998
2063.000000	0.246678
2062.000000	0.248311
2061.000000	0.250760
2060.000000	0.253152
2059.000000	0.254919
2058.000000	0.256752
2057.000000	0.259875
2056.000000	0.260757
2055.000000	0.262628
2054.000000	0.264428
2053.000000	0.266139
2052.000000	0.267858
2051.000000	0.269880
2050.000000	0.270767
2049.000000	0.271723
2048.000000	0.273479
2047.000000	0.274042
2046.000000	0.275755
2045.000000	0.276596
2044.000000	0.275918
2043.000000	0.276257
2042.000000	0.276928
2041.000000	0.276177
2040.000000	0.275471
2039.000000	0.276133
2038.000000	0.275442
2037.000000	0.274071
2036.000000	0.273654
2035.000000	0.272482
2034.000000	0.271454
2033.000000	0.270024
2032.000000	0.267364
2031.000000	0.265594
2030.000000	0.264477
2029.000000	0.262662
2028.000000	0.260941
2027.000000	0.259638
2026.000000	0.258239
2025.000000	0.257015
2024.000000	0.256032
2023.000000	0.254752
2022.000000	0.253259
2021.000000	0.252364
2020.000000	0.252388
2019.000000	0.251923
2018.000000	0.250928
2017.000000	0.250694
2016.000000	0.250887
2015.000000	0.250706
2014.000000	0.250510
2013.000000	0.250562
2012.000000	0.250810
2011.000000	0.251548
2010.000000	0.252443
2009.000000	0.253047
2008.000000	0.253516
2007.000000	0.254663
2006.000000	0.255518
2005.000000	0.255968
2004.000000	0.257579
2003.000000	0.258535
2002.000000	0.259295
2001.000000	0.260895
2000.000000	0.262536
1999.000000	0.263852
1998.000000	0.264788
1997.000000	0.266057
1996.000000	0.267289
1995.000000	0.269074
1994.000000	0.270119
1993.000000	0.271030
1992.000000	0.273128
1991.000000	0.274908
1990.000000	0.275731
1989.000000	0.277342
1988.000000	0.279190
1987.000000	0.280712
1986.000000	0.281842
1985.000000	0.283857
1984.000000	0.285113
1983.000000	0.286272
1982.000000	0.288163
1981.000000	0.289402
1980.000000	0.291159
1979.000000	0.293456
1978.000000	0.294749
1977.000000	0.296063
1976.000000	0.298001
1975.000000	0.299300
1974.000000	0.300785
1973.000000	0.301855
1972.000000	0.303863
1971.000000	0.304974
1970.000000	0.306527
1969.000000	0.308379
1968.000000	0.310725
1967.000000	0.311317
1966.000000	0.312818
1965.000000	0.314060
1964.000000	0.315878
1963.000000	0.317137
1962.000000	0.318813
1961.000000	0.320699
1960.000000	0.321766
1959.000000	0.324191
1958.000000	0.325297
1957.000000	0.326687
1956.000000	0.327114
1955.000000	0.328518
1954.000000	0.329479
1953.000000	0.330843
1952.000000	0.331299
1951.000000	0.332027
1950.000000	0.333600
1949.000000	0.334030
1948.000000	0.334163
1947.000000	0.335595
1946.000000	0.336060
1945.000000	0.335534
1944.000000	0.336393
1943.000000	0.336183
1942.000000	0.335937
1941.000000	0.335223
1940.000000	0.336021
1939.000000	0.333346
1938.000000	0.331036
1937.000000	0.331584
1936.000000	0.329232
1935.000000	0.328105
1934.000000	0.327038
1933.000000	0.324251
1932.000000	0.320893
1931.000000	0.319723
1930.000000	0.315906
1929.000000	0.312303
1928.000000	0.309098
1927.000000	0.308636
1926.000000	0.304356
1925.000000	0.300924
1924.000000	0.295488
1923.000000	0.292027
1922.000000	0.288277
1921.000000	0.283561
1920.000000	0.280043
1919.000000	0.276387
1918.000000	0.271848
1917.000000	0.266207
1916.000000	0.263094
1915.000000	0.256918
1914.000000	0.251013
1913.000000	0.246257
1912.000000	0.243196
1911.000000	0.237517
1910.000000	0.231069
1909.000000	0.226884
1908.000000	0.220709
1907.000000	0.215553
1906.000000	0.209873
1905.000000	0.203413
1904.000000	0.198446
1903.000000	0.192707
1902.000000	0.187330
1901.000000	0.181114
1900.000000	0.175504
1899.000000	0.170293
1898.000000	0.164707
1897.000000	0.159944
1896.000000	0.154793
1895.000000	0.149761
1894.000000	0.145509
1893.000000	0.140511
1892.000000	0.135471
1891.000000	0.131976
1890.000000	0.127373
1889.000000	0.123582
1888.000000	0.119757
1887.000000	0.116394
1886.000000	0.112512
1885.000000	0.109156
1884.000000	0.106000
1883.000000	0.102545
1882.000000	0.100082
1881.000000	0.097041
1880.000000	0.094378
1879.000000	0.092005
1878.000000	0.089489
1877.000000	0.087547
1876.000000	0.085545
1875.000000	0.083417
1874.000000	0.081397
1873.000000	0.079580
1872.000000	0.078086
1871.000000	0.076651
1870.000000	0.075169
1869.000000	0.074200
1868.000000	0.073088
1867.000000	0.072636
1866.000000	0.071682
1865.000000	0.070458
1864.000000	0.069776
1863.000000	0.069180
1862.000000	0.068738
1861.000000	0.068176
1860.000000	0.067518
1859.000000	0.067056
1858.000000	0.066796
1857.000000	0.066536
1856.000000	0.066200
1855.000000	0.065915
1854.000000	0.065843
1853.000000	0.065706
1852.000000	0.065791
1851.000000	0.065730
1850.000000	0.065526
1849.000000	0.065858
1848.000000	0.065695
1847.000000	0.065403
1846.000000	0.065443
1845.000000	0.065853
1844.000000	0.066189
1843.000000	0.066342
1842.000000	0.066256
1841.000000	0.066514
1840.000000	0.066594
1839.000000	0.066892
1838.000000	0.067262
1837.000000	0.067802
1836.000000	0.068093
1835.000000	0.068312
1834.000000	0.068599
1833.000000	0.068863
1832.000000	0.069090
1831.000000	0.069383
1830.000000	0.069753
1829.000000	0.070139
1828.000000	0.070465
1827.000000	0.070617
1826.000000	0.070900
1825.000000	0.071251
1824.000000	0.071475
1823.000000	0.071694
1822.000000	0.072166
1821.000000	0.072491
1820.000000	0.072683
1819.000000	0.073011
1818.000000	0.073446
1817.000000	0.073742
1816.000000	0.073919
1815.000000	0.074367
1814.000000	0.074750
1813.000000	0.075006
1812.000000	0.075326
1811.000000	0.075646
1810.000000	0.076027
1809.000000	0.076157
1808.000000	0.076495
1807.000000	0.077207
1806.000000	0.077431
1805.000000	0.077536
1804.000000	0.078011
1803.000000	0.078211
1802.000000	0.078349
1801.000000	0.078733
1800.000000	0.079013
1799.000000	0.079333
1798.000000	0.079628
1797.000000	0.079846
1796.000000	0.080130
1795.000000	0.080409
1794.000000	0.080633
1793.000000	0.081004
1792.000000	0.081234
1791.000000	0.081264
1790.000000	0.081692
1789.000000	0.081997
1788.000000	0.082081
1787.000000	0.082442
1786.000000	0.082628
1785.000000	0.082749
1784.000000	0.083195
1783.000000	0.083680
1782.000000	0.083811
1781.000000	0.084095
1780.000000	0.084664
1779.000000	0.084888
1778.000000	0.085320
1777.000000	0.085744
1776.000000	0.085947
1775.000000	0.086463
1774.000000	0.086990
1773.000000	0.087459
1772.000000	0.087904
1771.000000	0.088087
1770.000000	0.088481
1769.000000	0.088940
1768.000000	0.089235
1767.000000	0.089858
1766.000000	0.090297
1765.000000	0.090600
1764.000000	0.090893
1763.000000	0.091449
1762.000000	0.092068
1761.000000	0.092553
1760.000000	0.093166
1759.000000	0.093591
1758.000000	0.093677
1757.000000	0.094374
1756.000000	0.094818
1755.000000	0.095226
1754.000000	0.095795
1753.000000	0.096324
1752.000000	0.096602
1751.000000	0.097001
1750.000000	0.097513
1749.000000	0.098159
1748.000000	0.098608
1747.000000	0.098927
1746.000000	0.099579
1745.000000	0.100293
1744.000000	0.100700
1743.000000	0.101005
1742.000000	0.101426
1741.000000	0.102054
1740.000000	0.102461
1739.000000	0.103127
1738.000000	0.103376
1737.000000	0.103407
1736.000000	0.103595
1735.000000	0.103987
1734.000000	0.103748
1733.000000	0.104111
1732.000000	0.104101
1731.000000	0.103680
1730.000000	0.103448
1729.000000	0.103166
1728.000000	0.102747
1727.000000	0.102484
1726.000000	0.101712
1725.000000	0.101230
1724.000000	0.100026
1723.000000	0.099658
1722.000000	0.099017
1721.000000	0.098036
1720.000000	0.097361
1719.000000	0.096341
1718.000000	0.095683
1717.000000	0.094862
1716.000000	0.094114
1715.000000	0.093515
1714.000000	0.092913
1713.000000	0.092008
1712.000000	0.091347
1711.000000	0.090952
1710.000000	0.090292
1709.000000	0.089843
1708.000000	0.089511
1707.000000	0.089136
1706.000000	0.088711
1705.000000	0.088607
1704.000000	0.088252
1703.000000	0.088305
1702.000000	0.088130
1701.000000	0.087882
1700.000000	0.087845
1699.000000	0.087751
1698.000000	0.087514
1697.000000	0.087523
1696.000000	0.087218
1695.000000	0.086942
1694.000000	0.086838
1693.000000	0.086487
1692.000000	0.086110
1691.000000	0.085288
1690.000000	0.084875
1689.000000	0.083878
1688.000000	0.083049
1687.000000	0.082327
1686.000000	0.081270
1685.000000	0.080380
1684.000000	0.079372
1683.000000	0.077955
1682.000000	0.076785
1681.000000	0.075442
1680.000000	0.074232
1679.000000	0.072872
1678.000000	0.071420
1677.000000	0.070287
1676.000000	0.068876
1675.000000	0.067584
1674.000000	0.066360
1673.000000	0.065035
1672.000000	0.063831
1671.000000	0.062758
1670.000000	0.061761
1669.000000	0.060614
1668.000000	0.059460
1667.000000	0.058597
1666.000000	0.057863
1665.000000	0.057170
1664.000000	0.056577
1663.000000	0.055980
1662.000000	0.055358
1661.000000	0.054637
1660.000000	0.054343
1659.000000	0.054066
1658.000000	0.053748
1657.000000	0.053419
1656.000000	0.053407
1655.000000	0.053124
1654.000000	0.052796
1653.000000	0.052757
1652.000000	0.052649
1651.000000	0.052561
1650.000000	0.052503
1649.000000	0.052442
1648.000000	0.052715
1647.000000	0.052604
1646.000000	0.052636
1645.000000	0.052897
1644.000000	0.052954
1643.000000	0.053058
1642.000000	0.053335
1641.000000	0.053442
1640.000000	0.053507
1639.000000	0.053721
1638.000000	0.053986
1637.000000	0.054344
1636.000000	0.054530
1635.000000	0.054798
1634.000000	0.054979
1633.000000	0.055268
1632.000000	0.055606
1631.000000	0.055945
1630.000000	0.056181
1629.000000	0.056464
1628.000000	0.056786
1627.000000	0.057171
1626.000000	0.057522
1625.000000	0.057861
1624.000000	0.058113
1623.000000	0.058471
1622.000000	0.058890
1621.000000	0.059361
1620.000000	0.059716
1619.000000	0.059976
1618.000000	0.060463
1617.000000	0.060890
1616.000000	0.061274
1615.000000	0.061771
1614.000000	0.062208
1613.000000	0.062641
1612.000000	0.063110
1611.000000	0.063535
1610.000000	0.063956
1609.000000	0.064498
1608.000000	0.064922
1607.000000	0.065396
1606.000000	0.065997
1605.000000	0.066433
1604.000000	0.066896
1603.000000	0.067341
1602.000000	0.067834
1601.000000	0.068426
1600.000000	0.068852
1599.000000	0.069295
1598.000000	0.069670
1597.000000	0.070139
1596.000000	0.070681
1595.000000	0.071094
1594.000000	0.071584
1593.000000	0.072041
1592.000000	0.072486
1591.000000	0.072892
1590.000000	0.073236
1589.000000	0.073754
1588.000000	0.074267
1587.000000	0.074588
1586.000000	0.074962
1585.000000	0.075364
1584.000000	0.075805
1583.000000	0.076241
1582.000000	0.076638
1581.000000	0.076946
1580.000000	0.077310
1579.000000	0.077677
1578.000000	0.077974
1577.000000	0.078435
1576.000000	0.078861
1575.000000	0.079144
1574.000000	0.079702
1573.000000	0.080084
1572.000000	0.080303
1571.000000	0.080695
1570.000000	0.080972
1569.000000	0.081327
1568.000000	0.081749
1567.000000	0.082009
1566.000000	0.082275
1565.000000	0.082481
1564.000000	0.082730
1563.000000	0.082978
1562.000000	0.083163
1561.000000	0.083486
1560.000000	0.083567
1559.000000	0.083816
1558.000000	0.084030
1557.000000	0.084110
1556.000000	0.084077
1555.000000	0.084456
1554.000000	0.084699
1553.000000	0.084861
1552.000000	0.085116
1551.000000	0.085544
1550.000000	0.085741
1549.000000	0.085952
1548.000000	0.086241
1547.000000	0.086869
1546.000000	0.087375
1545.000000	0.087801
1544.000000	0.088366
1543.000000	0.088833
1542.000000	0.089410
1541.000000	0.090246
1540.000000	0.090875
1539.000000	0.091547
1538.000000	0.092214
1537.000000	0.092876
1536.000000	0.093413
1535.000000	0.094299
1534.000000	0.094967
1533.000000	0.095664
1532.000000	0.096575
1531.000000	0.097446
1530.000000	0.097883
1529.000000	0.098802
1528.000000	0.099361
1527.000000	0.099882
1526.000000	0.100441
1525.000000	0.101039
1524.000000	0.101651
1523.000000	0.102139
1522.000000	0.102698
1521.000000	0.103110
1520.000000	0.103454
1519.000000	0.103921
1518.000000	0.104214
1517.000000	0.104541
1516.000000	0.105052
1515.000000	0.105344
1514.000000	0.105652
1513.000000	0.105943
1512.000000	0.106155
1511.000000	0.106465
1510.000000	0.106686
1509.000000	0.107091
1508.000000	0.107236
1507.000000	0.107361
1506.000000	0.107626
1505.000000	0.107679
1504.000000	0.107681
1503.000000	0.107662
1502.000000	0.107904
1501.000000	0.108097
1500.000000	0.108014
1499.000000	0.108029
1498.000000	0.108023
1497.000000	0.107956
1496.000000	0.107832
1495.000000	0.107631
1494.000000	0.107502
1493.000000	0.107458
1492.000000	0.107012
1491.000000	0.106715
1490.000000	0.106340
1489.000000	0.106138
1488.000000	0.105603
1487.000000	0.105313
1486.000000	0.104867
1485.000000	0.104449
1484.000000	0.104125
1483.000000	0.103470
1482.000000	0.102954
1481.000000	0.102370
1480.000000	0.101893
1479.000000	0.101525
1478.000000	0.100810
1477.000000	0.100290
1476.000000	0.099952
1475.000000	0.099531
1474.000000	0.099001
1473.000000	0.098499
1472.000000	0.098080
1471.000000	0.097627
1470.000000	0.097170
1469.000000	0.096650
1468.000000	0.096152
1467.000000	0.095939
1466.000000	0.095335
1465.000000	0.094879
1464.000000	0.094527
1463.000000	0.094057
1462.000000	0.093679
1461.000000	0.093262
1460.000000	0.092926
1459.000000	0.092337
1458.000000	0.091822
1457.000000	0.091386
1456.000000	0.090905
1455.000000	0.090513
1454.000000	0.089889
1453.000000	0.089388
1452.000000	0.088704
1451.000000	0.088121
1450.000000	0.087560
1449.000000	0.086982
1448.000000	0.086415
1447.000000	0.085689
1446.000000	0.085140
1445.000000	0.084471
1444.000000	0.083686
1443.000000	0.083056
1442.000000	0.082328
1441.000000	0.081620
1440.000000	0.080948
1439.000000	0.080003
1438.000000	0.079249
1437.000000	0.078484
1436.000000	0.077630
1435.000000	0.076731
1434.000000	0.075699
1433.000000	0.074864
1432.000000	0.073947
1431.000000	0.073028
1430.000000	0.071981
1429.000000	0.070912
1428.000000	0.069903
1427.000000	0.068970
1426.000000	0.067843
1425.000000	0.066615
1424.000000	0.065463
1423.000000	0.064237
1422.000000	0.062990
1421.000000	0.061666
1420.000000	0.060297
1419.000000	0.059147
1418.000000	0.057901
1417.000000	0.056514
1416.000000	0.055342
1415.000000	0.054011
1414.000000	0.052693
1413.000000	0.051268
1412.000000	0.049885
1411.000000	0.048535
1410.000000	0.047303
1409.000000	0.046097
1408.000000	0.044774
1407.000000	0.043465
1406.000000	0.042202
1405.000000	0.040993
1404.000000	0.039808
1403.000000	0.038574
1402.000000	0.037379
1401.000000	0.036278
1400.000000	0.035175
1399.000000	0.034079
1398.000000	0.033051
1397.000000	0.031961
1396.000000	0.031036
1395.000000	0.030075
1394.000000	0.029119
1393.000000	0.028181
1392.000000	0.027293
1391.000000	0.026467
1390.000000	0.025641
1389.000000	0.024863
1388.000000	0.024008
1387.000000	0.023320
1386.000000	0.022729
1385.000000	0.022093
1384.000000	0.021495
1383.000000	0.020894
1382.000000	0.020330
1381.000000	0.019866
1380.000000	0.019403
1379.000000	0.018988
1378.000000	0.018588
1377.000000	0.018172
1376.000000	0.017672
1375.000000	0.017274
1374.000000	0.017008
1373.000000	0.016700
1372.000000	0.016387
1371.000000	0.016077
1370.000000	0.015767
1369.000000	0.015484
1368.000000	0.015289
1367.000000	0.014969
1366.000000	0.014616
1365.000000	0.014378
1364.000000	0.014143
1363.000000	0.013807
1362.000000	0.013506
1361.000000	0.013131
1360.000000	0.012822
1359.000000	0.012558
1358.000000	0.012279
1357.000000	0.012084
1356.000000	0.011758
1355.000000	0.011445
1354.000000	0.011168
1353.000000	0.010820
1352.000000	0.010560
1351.000000	0.010296
1350.000000	0.009932
1349.000000	0.009816
1348.000000	0.009657
1347.000000	0.009301
1346.000000	0.009014
1345.000000	0.008868
1344.000000	0.008551
1343.000000	0.008129
1342.000000	0.007792
1341.000000	0.007623
1340.000000	0.007402
1339.000000	0.007114
1338.000000	0.006970
1337.000000	0.006699
1336.000000	0.006427
1335.000000	0.006328
1334.000000	0.006220
1333.000000	0.005881
1332.000000	0.005677
1331.000000	0.005417
1330.000000	0.005414
1329.000000	0.005210
1328.000000	0.005037
1327.000000	0.004849
1326.000000	0.004762
1325.000000	0.004664
1324.000000	0.004570
1323.000000	0.004459
1322.000000	0.004323
1321.000000	0.004221
1320.000000	0.004235
1319.000000	0.004122
1318.000000	0.003863
1317.000000	0.003904
1316.000000	0.003907
1315.000000	0.003702
1314.000000	0.003594
1313.000000	0.003607
1312.000000	0.003533
1311.000000	0.003592
1310.000000	0.003478
1309.000000	0.003359
1308.000000	0.003319
1307.000000	0.003209
1306.000000	0.003125
1305.000000	0.003043
1304.000000	0.002926
1303.000000	0.002855
1302.000000	0.002890
1301.000000	0.002945
1300.000000	0.002890
1299.000000	0.002899
1298.000000	0.002852
1297.000000	0.002809
1296.000000	0.002773
1295.000000	0.002833
1294.000000	0.002931
1293.000000	0.002894
1292.000000	0.002891
1291.000000	0.003030
1290.000000	0.002861
1289.000000	0.002995
1288.000000	0.003009
1287.000000	0.002996
1286.000000	0.002935
1285.000000	0.002977
1284.000000	0.002953
1283.000000	0.003050
1282.000000	0.003045
1281.000000	0.003031
1280.000000	0.003082
1279.000000	0.002983
1278.000000	0.003195
1277.000000	0.003064
1276.000000	0.003038
1275.000000	0.003103
1274.000000	0.003076
1273.000000	0.003089
1272.000000	0.003038
1271.000000	0.003046
1270.000000	0.002900
1269.000000	0.002863
1268.000000	0.002847
1267.000000	0.002660
1266.000000	0.002668
1265.000000	0.002821
1264.000000	0.002829
1263.000000	0.002713
1262.000000	0.002576
1261.000000	0.002513
1260.000000	0.002407
1259.000000	0.002496
1258.000000	0.002591
1257.000000	0.002415
1256.000000	0.002497
1255.000000	0.002401
1254.000000	0.002347
1253.000000	0.002274
1252.000000	0.002242
1251.000000	0.002245
1250.000000	0.002276
1249.000000	0.002351
1248.000000	0.002413
1247.000000	0.002400
1246.000000	0.002320
1245.000000	0.002534
1244.000000	0.002594
1243.000000	0.002709
1242.000000	0.002769
1241.000000	0.002784
1240.000000	0.002951
1239.000000	0.002996
1238.000000	0.003108
1237.000000	0.003230
1236.000000	0.003299
1235.000000	0.003440
1234.000000	0.003543
1233.000000	0.003606
1232.000000	0.003599
1231.000000	0.003729
1230.000000	0.003877
1229.000000	0.003951
1228.000000	0.004070
1227.000000	0.004134
1226.000000	0.004316
1225.000000	0.004377
1224.000000	0.004342
1223.000000	0.004387
1222.000000	0.004629
1221.000000	0.004701
1220.000000	0.004805
1219.000000	0.004911
1218.000000	0.005049
1217.000000	0.005225
1216.000000	0.005200
1215.000000	0.005452
1214.000000	0.005718
1213.000000	0.005700
1212.000000	0.005736
1211.000000	0.006040
1210.000000	0.006237
1209.000000	0.006436
1208.000000	0.006488
1207.000000	0.006792
1206.000000	0.007019
1205.000000	0.007016
1204.000000	0.007278
1203.000000	0.007361
1202.000000	0.007663
1201.000000	0.007968
1200.000000	0.008138
1199.000000	0.008260
1198.000000	0.008450
1197.000000	0.008556
1196.000000	0.008687
1195.000000	0.008869
1194.000000	0.009003
1193.000000	0.009099
1192.000000	0.009131
1191.000000	0.009295
1190.000000	0.009383
1189.000000	0.009365
1188.000000	0.009452
1187.000000	0.009561
1186.000000	0.009521
1185.000000	0.009470
1184.000000	0.009546
1183.000000	0.009468
1182.000000	0.009313
1181.000000	0.009224
1180.000000	0.009107
1179.000000	0.008957
1178.000000	0.008791
1177.000000	0.008600
1176.000000	0.008400
1175.000000	0.008102
1174.000000	0.007850
1173.000000	0.007558
1172.000000	0.007186
1171.000000	0.006905
1170.000000	0.006577
1169.000000	0.006236
1168.000000	0.005860
1167.000000	0.005508
1166.000000	0.005138
1165.000000	0.004726
1164.000000	0.004396
1163.000000	0.004026
1162.000000	0.003692
1161.000000	0.003336
1160.000000	0.002877
1159.000000	0.002509
1158.000000	0.002162
1157.000000	0.001881
1156.000000	0.001620
1155.000000	0.001243
1154.000000	0.000936
1153.000000	0.000641
1152.000000	0.000386
1151.000000	0.000144
1150.000000	-0.000202
1149.000000	-0.000487
1148.000000	-0.000699
1147.000000	-0.000913
1146.000000	-0.001123
1145.000000	-0.001416
1144.000000	-0.001621
1143.000000	-0.001788
1142.000000	-0.001989
1141.000000	-0.002279
1140.000000	-0.002487
1139.000000	-0.002639
1138.000000	-0.002841
1137.000000	-0.002978
1136.000000	-0.003249
1135.000000	-0.003467
1134.000000	-0.003588
1133.000000	-0.003746
1132.000000	-0.003928
1131.000000	-0.004026
1130.000000	-0.004202
1129.000000	-0.004384
1128.000000	-0.004498
1127.000000	-0.004545
1126.000000	-0.004632
1125.000000	-0.004738
1124.000000	-0.004795
1123.000000	-0.004837
1122.000000	-0.004897
1121.000000	-0.004949
1120.000000	-0.004952
1119.000000	-0.005036
1118.000000	-0.005100
1117.000000	-0.005093
1116.000000	-0.005152
1115.000000	-0.005200
1114.000000	-0.005185
1113.000000	-0.005208
1112.000000	-0.005229
1111.000000	-0.005236
1110.000000	-0.005208
1109.000000	-0.005212
1108.000000	-0.005255
1107.000000	-0.005296
1106.000000	-0.005370
1105.000000	-0.005301
1104.000000	-0.005353
1103.000000	-0.005285
1102.000000	-0.005294
1101.000000	-0.005341
1100.000000	-0.005414
1099.000000	-0.005530
1098.000000	-0.005476
1097.000000	-0.005324
1096.000000	-0.005470
1095.000000	-0.005385
1094.000000	-0.005415
1093.000000	-0.005435
1092.000000	-0.005440
1091.000000	-0.005375
1090.000000	-0.005510
1089.000000	-0.005508
1088.000000	-0.005433
1087.000000	-0.005477
1086.000000	-0.005407
1085.000000	-0.005462
1084.000000	-0.005387
1083.000000	-0.005322
1082.000000	-0.005419
1081.000000	-0.005430
1080.000000	-0.005419
1079.000000	-0.005368
1078.000000	-0.005343
1077.000000	-0.005318
1076.000000	-0.005300
1075.000000	-0.005296
1074.000000	-0.005322
1073.000000	-0.005331
1072.000000	-0.005241
1071.000000	-0.005230
1070.000000	-0.005207
1069.000000	-0.005234
1068.000000	-0.005163
1067.000000	-0.005219
1066.000000	-0.004995
1065.000000	-0.005106
1064.000000	-0.005148
1063.000000	-0.004928
1062.000000	-0.004996
1061.000000	-0.004828
1060.000000	-0.004911
1059.000000	-0.004898
1058.000000	-0.004857
1057.000000	-0.004805
1056.000000	-0.004838
1055.000000	-0.004706
1054.000000	-0.004761
1053.000000	-0.004767
1052.000000	-0.004742
1051.000000	-0.004577
1050.000000	-0.004579
1049.000000	-0.004590
1048.000000	-0.004622
1047.000000	-0.004586
1046.000000	-0.004470
1045.000000	-0.004533
1044.000000	-0.004603
1043.000000	-0.004449
1042.000000	-0.004516
1041.000000	-0.004415
1040.000000	-0.004461
1039.000000	-0.004427
1038.000000	-0.004403
1037.000000	-0.004375
1036.000000	-0.004318
1035.000000	-0.004367
1034.000000	-0.004359
1033.000000	-0.004315
1032.000000	-0.004460
1031.000000	-0.004350
1030.000000	-0.004271
1029.000000	-0.004391
1028.000000	-0.004313
1027.000000	-0.004325
1026.000000	-0.004361
1025.000000	-0.004388
1024.000000	-0.004356
1023.000000	-0.004304
1022.000000	-0.004344
1021.000000	-0.004414
1020.000000	-0.004452
1019.000000	-0.004344
1018.000000	-0.004378
1017.000000	-0.004475
1016.000000	-0.004459
1015.000000	-0.004375
1014.000000	-0.004467
1013.000000	-0.004505
1012.000000	-0.004503
1011.000000	-0.004631
1010.000000	-0.004610
1009.000000	-0.004537
1008.000000	-0.004554
1007.000000	-0.004688
1006.000000	-0.004764
1005.000000	-0.004848
1004.000000	-0.004791
1003.000000	-0.004771
1002.000000	-0.004869
1001.000000	-0.004891
1000.000000	-0.004966
999.000000	-0.004967
998.000000	-0.005016
997.000000	-0.004914
996.000000	-0.005001
995.000000	-0.005056
994.000000	-0.005055
993.000000	-0.005098
992.000000	-0.005131
991.000000	-0.005095
990.000000	-0.005292
989.000000	-0.005294
988.000000	-0.005270
987.000000	-0.005264
986.000000	-0.005294
985.000000	-0.005345
984.000000	-0.005456
983.000000	-0.005399
982.000000	-0.005502
981.000000	-0.005494
980.000000	-0.005490
979.000000	-0.005647
978.000000	-0.005742
977.000000	-0.005768
976.000000	-0.005767
975.000000	-0.005831
974.000000	-0.005779
973.000000	-0.005828
972.000000	-0.006020
971.000000	-0.006039
970.000000	-0.006055
969.000000	-0.006155
968.000000	-0.006305
967.000000	-0.006289
966.000000	-0.006174
965.000000	-0.006288
964.000000	-0.006310
963.000000	-0.006382
962.000000	-0.006475
961.000000	-0.006460
960.000000	-0.006469
959.000000	-0.006500
958.000000	-0.006585
957.000000	-0.006688
956.000000	-0.006713
955.000000	-0.006685
954.000000	-0.006757
953.000000	-0.006828
952.000000	-0.006814
951.000000	-0.006801
950.000000	-0.006816
949.000000	-0.006920
948.000000	-0.007012
947.000000	-0.007059
946.000000	-0.007173
945.000000	-0.007168
944.000000	-0.007100
943.000000	-0.007244
942.000000	-0.007397
941.000000	-0.007251
940.000000	-0.007138
939.000000	-0.007244
938.000000	-0.007332
937.000000	-0.007209
936.000000	-0.007161
935.000000	-0.007117
934.000000	-0.007065
933.000000	-0.007110
932.000000	-0.007105
931.000000	-0.007204
930.000000	-0.007319
929.000000	-0.007248
928.000000	-0.007232
927.000000	-0.007294
926.000000	-0.007106
925.000000	-0.007110
924.000000	-0.007292
923.000000	-0.007178
922.000000	-0.007103
921.000000	-0.007082
920.000000	-0.007109
919.000000	-0.006939
918.000000	-0.006762
917.000000	-0.007033
916.000000	-0.007067
915.000000	-0.006966
914.000000	-0.006970
913.000000	-0.007045
912.000000	-0.007228
911.000000	-0.007133
910.000000	-0.007272
909.000000	-0.007378
908.000000	-0.007049
907.000000	-0.007246
906.000000	-0.007384
905.000000	-0.007302
904.000000	-0.007321
903.000000	-0.007657
902.000000	-0.007266
901.000000	-0.007277
900.000000	-0.007378
899.000000	-0.007371
898.000000	-0.007653
897.000000	-0.007634
896.000000	-0.007227
895.000000	-0.007423
894.000000	-0.007929
893.000000	-0.008068
892.000000	-0.007557
891.000000	-0.007654
890.000000	-0.007340
889.000000	-0.007452
888.000000	-0.007903
887.000000	-0.007906
886.000000	-0.008012
885.000000	-0.008096
884.000000	-0.007867
883.000000	-0.007909
882.000000	-0.007646
881.000000	-0.007498
880.000000	-0.008324
879.000000	-0.008396
878.000000	-0.008322
877.000000	-0.007665
876.000000	-0.008475
875.000000	-0.008245
874.000000	-0.008267
873.000000	-0.007933
872.000000	-0.008547
871.000000	-0.008021
870.000000	-0.008289
869.000000	-0.008389
868.000000	-0.009070
867.000000	-0.008807
866.000000	-0.008370
865.000000	-0.007859
864.000000	-0.008487
863.000000	-0.008959
862.000000	-0.008723
861.000000	-0.008827
860.000000	-0.007943
859.000000	-0.005571
858.000000	-0.009488
857.000000	-0.010946
856.000000	-0.010937
855.000000	-0.009053
854.000000	-0.007065
853.000000	-0.003966
852.000000	-0.009011
851.000000	-0.008614
850.000000	-0.007989
849.000000	-0.010318
848.000000	-0.009269
847.000000	-0.008188
846.000000	-0.009772
845.000000	-0.008725
844.000000	-0.009113
843.000000	-0.007968
842.000000	-0.008409
841.000000	-0.008325
840.000000	-0.008069
839.000000	-0.008718
838.000000	-0.010551
837.000000	-0.008776
836.000000	-0.009089
835.000000	-0.010178
834.000000	-0.009216
833.000000	-0.008452
832.000000	-0.008618
831.000000	-0.007918
830.000000	-0.007450
829.000000	-0.008045
828.000000	-0.009388
827.000000	-0.008301
826.000000	-0.009129
825.000000	-0.008252
824.000000	-0.008618
823.000000	-0.009198
822.000000	-0.008967
821.000000	-0.009097
820.000000	-0.009286
819.000000	-0.008816
818.000000	-0.007854
817.000000	-0.010018
816.000000	-0.009254
815.000000	-0.009926
814.000000	-0.009903
813.000000	-0.008181
812.000000	-0.009099
811.000000	-0.010314
810.000000	-0.008673
809.000000	-0.008016
808.000000	-0.008569
807.000000	-0.009585
806.000000	-0.008585
805.000000	-0.008866
804.000000	-0.010274
803.000000	-0.010340
802.000000	-0.008401
801.000000	-0.009670
800.000000	-0.009418
799.000000	-0.009240
798.000000	-0.009764
797.000000	-0.010052
796.000000	-0.009254
795.000000	-0.009711
794.000000	-0.009824
793.000000	-0.009932
792.000000	-0.009205
791.000000	-0.008695
790.000000	-0.009293
789.000000	-0.010104
788.000000	-0.010197
787.000000	-0.009333
786.000000	-0.008983
785.000000	-0.009191
784.000000	-0.009217
783.000000	-0.009198
782.000000	-0.009864
781.000000	-0.009669
780.000000	-0.008776
779.000000	-0.009591
778.000000	-0.008266
777.000000	-0.008827
776.000000	-0.009517
775.000000	-0.009391
774.000000	-0.009453
773.000000	-0.009699
772.000000	-0.009582
771.000000	-0.009121
770.000000	-0.009654
769.000000	-0.009655
768.000000	-0.009335
767.000000	-0.009557
766.000000	-0.009631
765.000000	-0.010002
764.000000	-0.009760
763.000000	-0.010374
762.000000	-0.010222
761.000000	-0.009554
760.000000	-0.009016
759.000000	-0.009156
758.000000	-0.009579
757.000000	-0.010186
756.000000	-0.009467
755.000000	-0.009165
754.000000	-0.009243
753.000000	-0.010208
752.000000	-0.010241
751.000000	-0.010010
750.000000	-0.009807
749.000000	-0.009323
748.000000	-0.009678
747.000000	-0.010040
746.000000	-0.009587
745.000000	-0.009562
744.000000	-0.010172
743.000000	-0.010007
742.000000	-0.009596
741.000000	-0.009738
740.000000	-0.010061
739.000000	-0.009626
738.000000	-0.009818
737.000000	-0.010291
736.000000	-0.010456
735.000000	-0.010023
734.000000	-0.009852
733.000000	-0.009896
732.000000	-0.010075
731.000000	-0.009760
730.000000	-0.009829
729.000000	-0.009963
728.000000	-0.009596
727.000000	-0.010399
726.000000	-0.010410
725.000000	-0.010122
724.000000	-0.010159
723.000000	-0.010173
722.000000	-0.010166
721.000000	-0.010178
720.000000	-0.009897
719.000000	-0.009887
718.000000	-0.009759
717.000000	-0.009835
716.000000	-0.010117
715.000000	-0.010431
714.000000	-0.010368
713.000000	-0.010251
712.000000	-0.009864
711.000000	-0.009661
710.000000	-0.009691
709.000000	-0.009950
708.000000	-0.010191
707.000000	-0.009826
706.000000	-0.009866
705.000000	-0.010166
704.000000	-0.010176
703.000000	-0.010183
702.000000	-0.010002
701.000000	-0.009934
700.000000	-0.010056
699.000000	-0.010341
698.000000	-0.010385
697.000000	-0.010280
696.000000	-0.010113
695.000000	-0.010220
694.000000	-0.010630
693.000000	-0.010707
692.000000	-0.010552
691.000000	-0.010470
690.000000	-0.009903
689.000000	-0.009780
688.000000	-0.009527
687.000000	-0.009435
686.000000	-0.009463
685.000000	-0.009919
684.000000	-0.009787
683.000000	-0.009284
682.000000	-0.009213
681.000000	-0.009239
680.000000	-0.009168
679.000000	-0.009549
678.000000	-0.009401
677.000000	-0.009320
676.000000	-0.009219
675.000000	-0.009308
674.000000	-0.009049
673.000000	-0.009105
672.000000	-0.009400
671.000000	-0.009370
670.000000	-0.009410
669.000000	-0.009605
668.000000	-0.009402
667.000000	-0.009158
666.000000	-0.009586
665.000000	-0.009406
664.000000	-0.009394
663.000000	-0.009260
662.000000	-0.009229
661.000000	-0.009278
660.000000	-0.009279
659.000000	-0.009424
658.000000	-0.009344
657.000000	-0.009377
656.000000	-0.009165
655.000000	-0.009555
654.000000	-0.009471
653.000000	-0.009647
652.000000	-0.009313
651.000000	-0.009224
650.000000	-0.009148
649.000000	-0.009360
648.000000	-0.009232
647.000000	-0.008983
646.000000	-0.008931
645.000000	-0.008932
644.000000	-0.008897
643.000000	-0.009234
642.000000	-0.009265
641.000000	-0.008755
640.000000	-0.008596
639.000000	-0.009138
638.000000	-0.009135
637.000000	-0.008884
636.000000	-0.008826
635.000000	-0.008911
634.000000	-0.008607
633.000000	-0.009160
632.000000	-0.008614
631.000000	-0.008780
630.000000	-0.008681
629.000000	-0.008923
628.000000	-0.008616
627.000000	-0.008113
626.000000	-0.008367
625.000000	-0.008285
624.000000	-0.008207
623.000000	-0.008345
622.000000	-0.008333
621.000000	-0.008428
620.000000	-0.008294
619.000000	-0.008301
618.000000	-0.008563
617.000000	-0.008357
616.000000	-0.008001
615.000000	-0.007980
614.000000	-0.007560
613.000000	-0.008371
612.000000	-0.008262
611.000000	-0.008055
610.000000	-0.007867
609.000000	-0.007401
608.000000	-0.007758
607.000000	-0.007483
606.000000	-0.007813
605.000000	-0.007378
604.000000	-0.007348
603.000000	-0.007723
602.000000	-0.007631
601.000000	-0.007603
600.000000	-0.007122
599.000000	-0.007122
598.000000	-0.006765
597.000000	-0.007239
596.000000	-0.007134
595.000000	-0.006566
594.000000	-0.006893
593.000000	-0.006527
592.000000	-0.006881
591.000000	-0.006766
590.000000	-0.006658
589.000000	-0.006457
588.000000	-0.006995
587.000000	-0.006308
586.000000	-0.005957
585.000000	-0.006384
584.000000	-0.006277
583.000000	-0.006063
582.000000	-0.005806
581.000000	-0.006013
580.000000	-0.005949
579.000000	-0.005631
578.000000	-0.005436
577.000000	-0.005480
576.000000	-0.005393
575.000000	-0.005278
574.000000	-0.005234
573.000000	-0.005245
572.000000	-0.005407
571.000000	-0.004615
570.000000	-0.004809
569.000000	-0.004845
568.000000	-0.004391
567.000000	-0.004808
566.000000	-0.004260
565.000000	-0.004504
564.000000	-0.004288
563.000000	-0.004202
562.000000	-0.003778
561.000000	-0.004200
560.000000	-0.004157
559.000000	-0.003967
558.000000	-0.003538
557.000000	-0.003551
556.000000	-0.003731
555.000000	-0.002894
554.000000	-0.003407
553.000000	-0.003795
552.000000	-0.002984
551.000000	-0.003007
550.000000	-0.002760
549.000000	-0.002704
548.000000	-0.002376
547.000000	-0.002287
546.000000	-0.001939
545.000000	-0.001885
544.000000	-0.001892
543.000000	-0.001482
542.000000	-0.001424
541.000000	-0.001092
540.000000	-0.001093
539.000000	-0.001170
538.000000	-0.000745
537.000000	-0.000493
536.000000	-0.000252
535.000000	-0.000243
534.000000	0.000067
533.000000	0.000417
532.000000	0.000607
531.000000	0.000571
530.000000	0.000637
529.000000	0.000567
528.000000	0.000803
527.000000	0.001210
526.000000	0.001358
525.000000	0.001636
524.000000	0.001697
523.000000	0.002147
522.000000	0.002462
521.000000	0.002519
520.000000	0.002700
519.000000	0.003028
518.000000	0.003265
517.000000	0.003473
516.000000	0.003737
515.000000	0.003956
514.000000	0.004158
513.000000	0.004268
512.000000	0.004640
511.000000	0.004822
510.000000	0.005044
509.000000	0.005365
508.000000	0.005700
507.000000	0.005915
506.000000	0.005880
505.000000	0.006193
504.000000	0.006501
503.000000	0.006757
502.000000	0.007024
501.000000	0.007518
500.000000	0.008031
499.000000	0.008380
498.000000	0.009289
497.000000	0.009215
496.000000	0.009194
495.000000	0.009697
494.000000	0.010027
493.000000	0.010265
492.000000	0.010602
491.000000	0.011035
490.000000	0.011490
489.000000	0.012014
488.000000	0.012260
487.000000	0.012413
486.000000	0.012816
485.000000	0.013073
484.000000	0.013279
483.000000	0.013290
482.000000	0.013901
481.000000	0.014364
480.000000	0.014853
479.000000	0.015235
478.000000	0.015737
477.000000	0.016258
476.000000	0.016544
475.000000	0.016710
474.000000	0.016984
473.000000	0.017472
472.000000	0.018192
471.000000	0.018610
470.000000	0.018773
469.000000	0.019128
468.000000	0.019577
467.000000	0.020167
466.000000	0.020754
465.000000	0.021157
464.000000	0.021668
463.000000	0.022452
462.000000	0.023255
461.000000	0.023164
460.000000	0.023419
459.000000	0.024353
458.000000	0.024874
457.000000	0.025579
456.000000	0.026187
455.000000	0.026658
454.000000	0.027215
453.000000	0.027864
452.000000	0.028556
451.000000	0.029071
450.000000	0.029719
449.000000	0.030407
448.000000	0.031559
447.000000	0.032439
446.000000	0.032621
445.000000	0.033280
444.000000	0.034365
443.000000	0.035002
442.000000	0.035287
441.000000	0.036180
440.000000	0.037145
439.000000	0.038300
438.000000	0.039054
437.000000	0.039651
436.000000	0.040671
435.000000	0.041373
434.000000	0.042427
433.000000	0.043641
432.000000	0.044228
431.000000	0.044905
430.000000	0.046262
429.000000	0.047158
428.000000	0.048203
427.000000	0.049093
426.000000	0.049958
425.000000	0.051333
424.000000	0.052252
423.000000	0.053576
422.000000	0.054878
421.000000	0.056203
420.000000	0.057560
419.000000	0.058181
418.000000	0.059216
417.000000	0.060175
416.000000	0.061497
415.000000	0.063319
414.000000	0.064579
413.000000	0.065850
412.000000	0.067071
411.000000	0.068648
410.000000	0.070348
409.000000	0.071629
408.000000	0.072734
407.000000	0.074290
406.000000	0.075251
405.000000	0.076995
404.000000	0.077783
403.000000	0.080243
402.000000	0.081220
401.000000	0.082691
400.000000	0.084847
399.000000	0.086739
398.000000	0.087751
397.000000	0.089409
396.000000	0.091448
395.000000	0.093231
394.000000	0.095297
393.000000	0.096355
392.000000	0.098286
391.000000	0.100095
390.000000	0.101813
389.000000	0.104101
388.000000	0.105898
387.000000	0.107953
386.000000	0.108979
385.000000	0.111430
384.000000	0.113211
383.000000	0.115390
382.000000	0.116971
381.000000	0.119392
380.000000	0.121977
379.000000	0.123863
378.000000	0.127093
377.000000	0.126580
376.000000	0.130365
375.000000	0.132861
374.000000	0.134815
373.000000	0.138321
372.000000	0.139508
371.000000	0.142232
370.000000	0.143341
369.000000	0.147068
368.000000	0.148240
367.000000	0.151227
366.000000	0.155113
365.000000	0.158279
364.000000	0.160445
363.000000	0.163132
362.000000	0.166399
361.000000	0.167485
360.000000	0.172228
359.000000	0.174666
358.000000	0.177020
357.000000	0.177609
356.000000	0.181185
355.000000	0.184710
354.000000	0.186221
353.000000	0.189552
352.000000	0.193480
351.000000	0.194239
350.000000	0.197715
349.000000	0.201479
348.000000	0.202625
347.000000	0.207116
346.000000	0.210889
345.000000	0.212752
344.000000	0.215968
343.000000	0.222078
342.000000	0.225302
341.000000	0.228786
340.000000	0.232214
339.000000	0.237279
338.000000	0.242635
337.000000	0.250084
336.000000	0.252379
335.000000	0.255669
334.000000	0.266055
333.000000	0.270347
332.000000	0.277197
331.000000	0.283984
330.000000	0.290797
329.000000	0.297127
328.000000	0.302611
327.000000	0.309820
326.000000	0.314721
325.000000	0.318806
324.000000	0.326774
323.000000	0.330713
322.000000	0.336086
321.000000	0.341319
320.000000	0.345470
319.000000	0.351120
318.000000	0.353613
317.000000	0.358630
316.000000	0.359701
315.000000	0.365094
314.000000	0.367030
313.000000	0.372393
312.000000	0.374797
311.000000	0.378601
310.000000	0.381078
309.000000	0.384746
308.000000	0.386975
307.000000	0.391647
306.000000	0.394057
305.000000	0.397675
304.000000	0.400669
303.000000	0.404805
302.000000	0.408085
301.000000	0.413922
300.000000	0.415555
299.000000	0.419291
298.000000	0.426004
297.000000	0.431395
296.000000	0.440027
295.000000	0.446634
294.000000	0.458341
293.000000	0.470363
292.000000	0.482355
291.000000	0.498851
290.000000	0.514058
289.000000	0.530245
288.000000	0.545018
287.000000	0.555739
286.000000	0.563583
285.000000	0.570324
284.000000	0.571011
283.000000	0.575472
282.000000	0.575779
281.000000	0.576176
280.000000	0.577227
279.000000	0.577175
278.000000	0.572655
277.000000	0.574397
276.000000	0.569442
275.000000	0.564296
274.000000	0.559526
273.000000	0.553859
272.000000	0.551297
271.000000	0.550218
270.000000	0.548052
269.000000	0.545596
268.000000	0.543314
267.000000	0.537484
266.000000	0.530799
265.000000	0.529010
264.000000	0.524733
263.000000	0.518584
262.000000	0.512757
261.000000	0.507939
260.000000	0.505094
259.000000	0.500030
258.000000	0.494207
257.000000	0.487818
256.000000	0.481750
255.000000	0.477970
254.000000	0.476972
253.000000	0.477581
252.000000	0.477790
251.000000	0.479152
250.000000	0.484403
249.000000	0.492019
248.000000	0.502057
247.000000	0.517047
246.000000	0.535058
245.000000	0.556098
244.000000	0.578109
243.000000	0.603195
242.000000	0.628962
241.000000	0.652698
240.000000	0.677185
239.000000	0.701494
238.000000	0.718822
237.000000	0.732423
236.000000	0.743837
235.000000	0.752783
234.000000	0.761416
233.000000	0.766972
232.000000	0.771104
231.000000	0.777314
230.000000	0.779914
229.000000	0.784523
228.000000	0.790391
227.000000	0.790601
226.000000	0.788080
225.000000	0.788077
224.000000	0.787553
223.000000	0.786004
222.000000	0.780719
221.000000	0.775516
220.000000	0.773950
219.000000	0.770260
218.000000	0.764916
217.000000	0.761004
216.000000	0.754237
215.000000	0.747913
214.000000	0.742124
213.000000	0.735152
212.000000	0.730684
211.000000	0.724380
210.000000	0.714218
209.000000	0.705269
208.000000	0.697797
207.000000	0.691715
206.000000	0.682777
205.000000	0.666142
204.000000	0.653854
203.000000	0.645053
202.000000	0.632907
201.000000	0.625080
200.000000	0.617597
