PE UV       SUBTECH     SPECTRUM    ASCII       PEDS        4.00        
   -1
AVeauUK 62.Sample.asc
18/03/06
10:01:26.00
18/03/06
10:01:26.00
Administrator

200.000000
1
Lambda 750
750N8071901
PerkinElmer UV WinLab 6.0.4.0738 / 1.61.00 Lambda 900

0
0
3350/servo 860.8/2
0
0
UV/VIS
1
1
1
CommonBeamDepol,150mm sphere / downward view
0
0
0
0
Program
Program
3350/servo 860.8/2
3350/0.2 860.8/0.2
3350/0.2 860.8/0.2
0
1
 
 
 
0
 
860.8
319.2
860.8
Front
100
on
 
 
0
0
0
 
0
 
 
 
0
 
 
0
0
0
0
0
 
 
 
 
0
0


0
0
#HDR
-1
-1
#GR
nm
A
1.0
0.0
2350.000000
-1.000000
2151
8
1.055704
0.000728
#DATA
2350.000000	0.624769
2349.000000	0.627949
2348.000000	0.642107
2347.000000	0.615821
2346.000000	0.632731
2345.000000	0.642698
2344.000000	0.636205
2343.000000	0.632905
2342.000000	0.635308
2341.000000	0.628150
2340.000000	0.625748
2339.000000	0.611274
2338.000000	0.609779
2337.000000	0.618366
2336.000000	0.599712
2335.000000	0.593043
2334.000000	0.602292
2333.000000	0.597883
2332.000000	0.593090
2331.000000	0.597651
2330.000000	0.599311
2329.000000	0.605205
2328.000000	0.599668
2327.000000	0.611502
2326.000000	0.614881
2325.000000	0.607374
2324.000000	0.612895
2323.000000	0.609263
2322.000000	0.602641
2321.000000	0.617703
2320.000000	0.613298
2319.000000	0.613974
2318.000000	0.615676
2317.000000	0.614195
2316.000000	0.618170
2315.000000	0.621689
2314.000000	0.625589
2313.000000	0.629941
2312.000000	0.629328
2311.000000	0.632914
2310.000000	0.630788
2309.000000	0.636024
2308.000000	0.638558
2307.000000	0.647394
2306.000000	0.641170
2305.000000	0.641921
2304.000000	0.637415
2303.000000	0.646209
2302.000000	0.645901
2301.000000	0.655972
2300.000000	0.658844
2299.000000	0.665641
2298.000000	0.666203
2297.000000	0.662327
2296.000000	0.666015
2295.000000	0.675677
2294.000000	0.673861
2293.000000	0.679796
2292.000000	0.679895
2291.000000	0.685155
2290.000000	0.684367
2289.000000	0.684777
2288.000000	0.675202
2287.000000	0.682535
2286.000000	0.686759
2285.000000	0.686624
2284.000000	0.684784
2283.000000	0.681365
2282.000000	0.684100
2281.000000	0.692930
2280.000000	0.693388
2279.000000	0.690543
2278.000000	0.691978
2277.000000	0.692582
2276.000000	0.685749
2275.000000	0.686076
2274.000000	0.687876
2273.000000	0.683021
2272.000000	0.680475
2271.000000	0.678381
2270.000000	0.681275
2269.000000	0.682631
2268.000000	0.678113
2267.000000	0.673044
2266.000000	0.670001
2265.000000	0.668751
2264.000000	0.661860
2263.000000	0.655713
2262.000000	0.649997
2261.000000	0.644893
2260.000000	0.642890
2259.000000	0.635038
2258.000000	0.626639
2257.000000	0.625005
2256.000000	0.622410
2255.000000	0.616436
2254.000000	0.611245
2253.000000	0.611286
2252.000000	0.602274
2251.000000	0.594047
2250.000000	0.590516
2249.000000	0.584593
2248.000000	0.579002
2247.000000	0.573220
2246.000000	0.562908
2245.000000	0.560632
2244.000000	0.557168
2243.000000	0.549269
2242.000000	0.547887
2241.000000	0.544809
2240.000000	0.541899
2239.000000	0.539794
2238.000000	0.538182
2237.000000	0.532428
2236.000000	0.527199
2235.000000	0.527527
2234.000000	0.524800
2233.000000	0.524417
2232.000000	0.521778
2231.000000	0.518243
2230.000000	0.516836
2229.000000	0.517574
2228.000000	0.516608
2227.000000	0.516681
2226.000000	0.517551
2225.000000	0.519471
2224.000000	0.520155
2223.000000	0.519234
2222.000000	0.520677
2221.000000	0.521879
2220.000000	0.520413
2219.000000	0.523452
2218.000000	0.525558
2217.000000	0.524984
2216.000000	0.527157
2215.000000	0.530445
2214.000000	0.524708
2213.000000	0.524801
2212.000000	0.527680
2211.000000	0.531158
2210.000000	0.532020
2209.000000	0.531833
2208.000000	0.538758
2207.000000	0.539520
2206.000000	0.541052
2205.000000	0.541892
2204.000000	0.540357
2203.000000	0.546105
2202.000000	0.549068
2201.000000	0.548353
2200.000000	0.552134
2199.000000	0.554242
2198.000000	0.560031
2197.000000	0.563016
2196.000000	0.561990
2195.000000	0.559757
2194.000000	0.564601
2193.000000	0.570501
2192.000000	0.569673
2191.000000	0.570378
2190.000000	0.574950
2189.000000	0.580242
2188.000000	0.580095
2187.000000	0.579379
2186.000000	0.584316
2185.000000	0.587302
2184.000000	0.584244
2183.000000	0.587195
2182.000000	0.588221
2181.000000	0.594625
2180.000000	0.592418
2179.000000	0.590870
2178.000000	0.594809
2177.000000	0.590270
2176.000000	0.590163
2175.000000	0.590233
2174.000000	0.589587
2173.000000	0.590251
2172.000000	0.590239
2171.000000	0.586757
2170.000000	0.585930
2169.000000	0.580351
2168.000000	0.580361
2167.000000	0.576979
2166.000000	0.572817
2165.000000	0.574000
2164.000000	0.572303
2163.000000	0.570885
2162.000000	0.566806
2161.000000	0.562391
2160.000000	0.558645
2159.000000	0.555026
2158.000000	0.558121
2157.000000	0.551866
2156.000000	0.546111
2155.000000	0.543809
2154.000000	0.541256
2153.000000	0.539447
2152.000000	0.535090
2151.000000	0.533030
2150.000000	0.529248
2149.000000	0.522744
2148.000000	0.519895
2147.000000	0.516980
2146.000000	0.510666
2145.000000	0.511323
2144.000000	0.505037
2143.000000	0.502399
2142.000000	0.501054
2141.000000	0.498401
2140.000000	0.492245
2139.000000	0.486545
2138.000000	0.485624
2137.000000	0.482894
2136.000000	0.480510
2135.000000	0.479017
2134.000000	0.473440
2133.000000	0.479583
2132.000000	0.469877
2131.000000	0.467058
2130.000000	0.465585
2129.000000	0.469276
2128.000000	0.465237
2127.000000	0.463027
2126.000000	0.463459
2125.000000	0.462539
2124.000000	0.458761
2123.000000	0.459290
2122.000000	0.460034
2121.000000	0.458202
2120.000000	0.458624
2119.000000	0.451463
2118.000000	0.452294
2117.000000	0.451733
2116.000000	0.452738
2115.000000	0.448775
2114.000000	0.452884
2113.000000	0.451519
2112.000000	0.450301
2111.000000	0.449831
2110.000000	0.450872
2109.000000	0.447674
2108.000000	0.446157
2107.000000	0.446872
2106.000000	0.447763
2105.000000	0.446554
2104.000000	0.446117
2103.000000	0.442489
2102.000000	0.443999
2101.000000	0.443078
2100.000000	0.444374
2099.000000	0.444546
2098.000000	0.446859
2097.000000	0.443915
2096.000000	0.445129
2095.000000	0.444232
2094.000000	0.445951
2093.000000	0.445617
2092.000000	0.442256
2091.000000	0.444838
2090.000000	0.446044
2089.000000	0.446423
2088.000000	0.447671
2087.000000	0.448688
2086.000000	0.447059
2085.000000	0.448730
2084.000000	0.450527
2083.000000	0.452168
2082.000000	0.453818
2081.000000	0.455577
2080.000000	0.458077
2079.000000	0.457318
2078.000000	0.459111
2077.000000	0.460696
2076.000000	0.464116
2075.000000	0.467610
2074.000000	0.470458
2073.000000	0.473511
2072.000000	0.474619
2071.000000	0.476304
2070.000000	0.478396
2069.000000	0.483188
2068.000000	0.487527
2067.000000	0.491409
2066.000000	0.494991
2065.000000	0.498871
2064.000000	0.502528
2063.000000	0.506768
2062.000000	0.509099
2061.000000	0.512461
2060.000000	0.516799
2059.000000	0.521415
2058.000000	0.524357
2057.000000	0.528230
2056.000000	0.531615
2055.000000	0.536702
2054.000000	0.540116
2053.000000	0.543268
2052.000000	0.545675
2051.000000	0.548726
2050.000000	0.552245
2049.000000	0.555316
2048.000000	0.558246
2047.000000	0.559147
2046.000000	0.561497
2045.000000	0.562731
2044.000000	0.563393
2043.000000	0.562407
2042.000000	0.562370
2041.000000	0.563898
2040.000000	0.562660
2039.000000	0.561414
2038.000000	0.559364
2037.000000	0.557197
2036.000000	0.555393
2035.000000	0.552946
2034.000000	0.551199
2033.000000	0.547625
2032.000000	0.544165
2031.000000	0.541211
2030.000000	0.537982
2029.000000	0.536338
2028.000000	0.533118
2027.000000	0.529810
2026.000000	0.527120
2025.000000	0.523428
2024.000000	0.521401
2023.000000	0.520523
2022.000000	0.518480
2021.000000	0.516482
2020.000000	0.515124
2019.000000	0.513140
2018.000000	0.511885
2017.000000	0.511133
2016.000000	0.511288
2015.000000	0.511685
2014.000000	0.510817
2013.000000	0.510690
2012.000000	0.511104
2011.000000	0.511885
2010.000000	0.513048
2009.000000	0.513986
2008.000000	0.516127
2007.000000	0.518698
2006.000000	0.520763
2005.000000	0.522133
2004.000000	0.525558
2003.000000	0.527620
2002.000000	0.529302
2001.000000	0.531350
2000.000000	0.533457
1999.000000	0.536085
1998.000000	0.538557
1997.000000	0.540861
1996.000000	0.543640
1995.000000	0.546312
1994.000000	0.549821
1993.000000	0.552429
1992.000000	0.554812
1991.000000	0.558088
1990.000000	0.560348
1989.000000	0.564510
1988.000000	0.567212
1987.000000	0.569227
1986.000000	0.573705
1985.000000	0.575212
1984.000000	0.577733
1983.000000	0.580232
1982.000000	0.582896
1981.000000	0.584503
1980.000000	0.588836
1979.000000	0.592909
1978.000000	0.595264
1977.000000	0.598183
1976.000000	0.602257
1975.000000	0.604855
1974.000000	0.607639
1973.000000	0.609526
1972.000000	0.612291
1971.000000	0.615696
1970.000000	0.618399
1969.000000	0.619219
1968.000000	0.623955
1967.000000	0.626049
1966.000000	0.627922
1965.000000	0.631989
1964.000000	0.635721
1963.000000	0.638594
1962.000000	0.641288
1961.000000	0.643906
1960.000000	0.646704
1959.000000	0.649422
1958.000000	0.649270
1957.000000	0.652132
1956.000000	0.655394
1955.000000	0.655373
1954.000000	0.656109
1953.000000	0.658977
1952.000000	0.661525
1951.000000	0.664448
1950.000000	0.663787
1949.000000	0.666413
1948.000000	0.666318
1947.000000	0.666679
1946.000000	0.667132
1945.000000	0.664599
1944.000000	0.665133
1943.000000	0.665158
1942.000000	0.663629
1941.000000	0.662292
1940.000000	0.659067
1939.000000	0.656436
1938.000000	0.652486
1937.000000	0.652016
1936.000000	0.647544
1935.000000	0.643379
1934.000000	0.638931
1933.000000	0.635178
1932.000000	0.632116
1931.000000	0.628054
1930.000000	0.622489
1929.000000	0.615451
1928.000000	0.604947
1927.000000	0.607265
1926.000000	0.598170
1925.000000	0.587800
1924.000000	0.580661
1923.000000	0.573906
1922.000000	0.566563
1921.000000	0.559667
1920.000000	0.547403
1919.000000	0.542904
1918.000000	0.534804
1917.000000	0.522794
1916.000000	0.516073
1915.000000	0.504549
1914.000000	0.496090
1913.000000	0.485179
1912.000000	0.475944
1911.000000	0.468427
1910.000000	0.456834
1909.000000	0.447383
1908.000000	0.436897
1907.000000	0.426173
1906.000000	0.418481
1905.000000	0.406549
1904.000000	0.396614
1903.000000	0.385698
1902.000000	0.376257
1901.000000	0.365620
1900.000000	0.355170
1899.000000	0.345643
1898.000000	0.335870
1897.000000	0.326651
1896.000000	0.318058
1895.000000	0.308827
1894.000000	0.300137
1893.000000	0.290964
1892.000000	0.283654
1891.000000	0.276483
1890.000000	0.268015
1889.000000	0.261751
1888.000000	0.255232
1887.000000	0.248341
1886.000000	0.240807
1885.000000	0.235074
1884.000000	0.229480
1883.000000	0.223881
1882.000000	0.218994
1881.000000	0.213409
1880.000000	0.208965
1879.000000	0.205120
1878.000000	0.200101
1877.000000	0.195914
1876.000000	0.192211
1875.000000	0.188215
1874.000000	0.184769
1873.000000	0.181729
1872.000000	0.179553
1871.000000	0.176412
1870.000000	0.173621
1869.000000	0.171021
1868.000000	0.169012
1867.000000	0.168161
1866.000000	0.166246
1865.000000	0.164683
1864.000000	0.163428
1863.000000	0.161929
1862.000000	0.161150
1861.000000	0.160322
1860.000000	0.159262
1859.000000	0.158811
1858.000000	0.158284
1857.000000	0.157477
1856.000000	0.157222
1855.000000	0.156782
1854.000000	0.156253
1853.000000	0.155972
1852.000000	0.156077
1851.000000	0.155942
1850.000000	0.155665
1849.000000	0.155841
1848.000000	0.155541
1847.000000	0.155479
1846.000000	0.155681
1845.000000	0.155973
1844.000000	0.156542
1843.000000	0.157241
1842.000000	0.157215
1841.000000	0.157914
1840.000000	0.158244
1839.000000	0.158821
1838.000000	0.159552
1837.000000	0.160291
1836.000000	0.161082
1835.000000	0.161540
1834.000000	0.161833
1833.000000	0.162504
1832.000000	0.163104
1831.000000	0.163470
1830.000000	0.164116
1829.000000	0.164907
1828.000000	0.165529
1827.000000	0.166193
1826.000000	0.166863
1825.000000	0.167423
1824.000000	0.167957
1823.000000	0.168355
1822.000000	0.169089
1821.000000	0.169667
1820.000000	0.170199
1819.000000	0.170901
1818.000000	0.171553
1817.000000	0.172092
1816.000000	0.172718
1815.000000	0.173356
1814.000000	0.174050
1813.000000	0.174807
1812.000000	0.175072
1811.000000	0.175577
1810.000000	0.176347
1809.000000	0.176649
1808.000000	0.177345
1807.000000	0.178336
1806.000000	0.178921
1805.000000	0.179317
1804.000000	0.179815
1803.000000	0.180512
1802.000000	0.181219
1801.000000	0.181677
1800.000000	0.182184
1799.000000	0.182948
1798.000000	0.183310
1797.000000	0.183637
1796.000000	0.184244
1795.000000	0.184753
1794.000000	0.185065
1793.000000	0.185510
1792.000000	0.186159
1791.000000	0.186329
1790.000000	0.186970
1789.000000	0.187314
1788.000000	0.187821
1787.000000	0.188308
1786.000000	0.188729
1785.000000	0.189243
1784.000000	0.189970
1783.000000	0.190460
1782.000000	0.190876
1781.000000	0.191469
1780.000000	0.192083
1779.000000	0.192878
1778.000000	0.193494
1777.000000	0.194433
1776.000000	0.194965
1775.000000	0.195738
1774.000000	0.196628
1773.000000	0.197565
1772.000000	0.198491
1771.000000	0.199366
1770.000000	0.200288
1769.000000	0.201188
1768.000000	0.202074
1767.000000	0.202873
1766.000000	0.203820
1765.000000	0.204487
1764.000000	0.205133
1763.000000	0.206185
1762.000000	0.207420
1761.000000	0.208009
1760.000000	0.209066
1759.000000	0.210103
1758.000000	0.210805
1757.000000	0.212029
1756.000000	0.213014
1755.000000	0.213610
1754.000000	0.214977
1753.000000	0.215731
1752.000000	0.216690
1751.000000	0.217579
1750.000000	0.218364
1749.000000	0.219467
1748.000000	0.220435
1747.000000	0.221415
1746.000000	0.223063
1745.000000	0.223741
1744.000000	0.224642
1743.000000	0.225224
1742.000000	0.226590
1741.000000	0.227540
1740.000000	0.228475
1739.000000	0.229303
1738.000000	0.230016
1737.000000	0.230672
1736.000000	0.230725
1735.000000	0.231566
1734.000000	0.231169
1733.000000	0.231930
1732.000000	0.231553
1731.000000	0.231510
1730.000000	0.231110
1729.000000	0.230418
1728.000000	0.229612
1727.000000	0.228843
1726.000000	0.227557
1725.000000	0.226625
1724.000000	0.225170
1723.000000	0.224391
1722.000000	0.222806
1721.000000	0.220906
1720.000000	0.219319
1719.000000	0.217838
1718.000000	0.216240
1717.000000	0.214902
1716.000000	0.213042
1715.000000	0.211864
1714.000000	0.210695
1713.000000	0.208976
1712.000000	0.207865
1711.000000	0.206775
1710.000000	0.206138
1709.000000	0.205116
1708.000000	0.204496
1707.000000	0.204104
1706.000000	0.203490
1705.000000	0.202956
1704.000000	0.202172
1703.000000	0.202543
1702.000000	0.201762
1701.000000	0.201795
1700.000000	0.201595
1699.000000	0.201151
1698.000000	0.200634
1697.000000	0.200456
1696.000000	0.199885
1695.000000	0.199509
1694.000000	0.198943
1693.000000	0.198082
1692.000000	0.197141
1691.000000	0.195961
1690.000000	0.194660
1689.000000	0.193089
1688.000000	0.191416
1687.000000	0.189632
1686.000000	0.187422
1685.000000	0.185459
1684.000000	0.183300
1683.000000	0.180606
1682.000000	0.178063
1681.000000	0.175293
1680.000000	0.172732
1679.000000	0.170007
1678.000000	0.167212
1677.000000	0.164730
1676.000000	0.161772
1675.000000	0.158995
1674.000000	0.156461
1673.000000	0.153713
1672.000000	0.151150
1671.000000	0.149082
1670.000000	0.146886
1669.000000	0.144321
1668.000000	0.142282
1667.000000	0.140549
1666.000000	0.138985
1665.000000	0.137657
1664.000000	0.136255
1663.000000	0.134896
1662.000000	0.134023
1661.000000	0.132922
1660.000000	0.131929
1659.000000	0.131176
1658.000000	0.130477
1657.000000	0.129934
1656.000000	0.129397
1655.000000	0.129079
1654.000000	0.128609
1653.000000	0.128505
1652.000000	0.128147
1651.000000	0.128213
1650.000000	0.128219
1649.000000	0.128142
1648.000000	0.128513
1647.000000	0.128726
1646.000000	0.128832
1645.000000	0.128998
1644.000000	0.129107
1643.000000	0.129400
1642.000000	0.129926
1641.000000	0.130366
1640.000000	0.130700
1639.000000	0.131091
1638.000000	0.131686
1637.000000	0.132236
1636.000000	0.132891
1635.000000	0.133296
1634.000000	0.133925
1633.000000	0.134572
1632.000000	0.135128
1631.000000	0.135859
1630.000000	0.136489
1629.000000	0.137151
1628.000000	0.137842
1627.000000	0.138501
1626.000000	0.139321
1625.000000	0.140123
1624.000000	0.140744
1623.000000	0.141350
1622.000000	0.142155
1621.000000	0.142998
1620.000000	0.143780
1619.000000	0.144655
1618.000000	0.145606
1617.000000	0.146435
1616.000000	0.147336
1615.000000	0.148288
1614.000000	0.149158
1613.000000	0.150178
1612.000000	0.151103
1611.000000	0.151958
1610.000000	0.152985
1609.000000	0.153999
1608.000000	0.154803
1607.000000	0.155802
1606.000000	0.156879
1605.000000	0.157890
1604.000000	0.158978
1603.000000	0.160120
1602.000000	0.161028
1601.000000	0.162039
1600.000000	0.163010
1599.000000	0.163924
1598.000000	0.164901
1597.000000	0.165888
1596.000000	0.166879
1595.000000	0.167855
1594.000000	0.168794
1593.000000	0.169749
1592.000000	0.170751
1591.000000	0.171616
1590.000000	0.172371
1589.000000	0.173285
1588.000000	0.174266
1587.000000	0.175104
1586.000000	0.175751
1585.000000	0.176552
1584.000000	0.177351
1583.000000	0.178139
1582.000000	0.179089
1581.000000	0.179879
1580.000000	0.180498
1579.000000	0.181185
1578.000000	0.181887
1577.000000	0.182763
1576.000000	0.183632
1575.000000	0.184300
1574.000000	0.185187
1573.000000	0.185985
1572.000000	0.186650
1571.000000	0.187471
1570.000000	0.188136
1569.000000	0.188901
1568.000000	0.189690
1567.000000	0.190135
1566.000000	0.190660
1565.000000	0.191198
1564.000000	0.191702
1563.000000	0.191977
1562.000000	0.192476
1561.000000	0.192980
1560.000000	0.193410
1559.000000	0.193919
1558.000000	0.194337
1557.000000	0.194583
1556.000000	0.194874
1555.000000	0.195279
1554.000000	0.195658
1553.000000	0.196088
1552.000000	0.196690
1551.000000	0.197251
1550.000000	0.197942
1549.000000	0.198609
1548.000000	0.199183
1547.000000	0.200144
1546.000000	0.200922
1545.000000	0.201910
1544.000000	0.203298
1543.000000	0.204267
1542.000000	0.205444
1541.000000	0.206665
1540.000000	0.207919
1539.000000	0.209118
1538.000000	0.210581
1537.000000	0.212131
1536.000000	0.213480
1535.000000	0.214880
1534.000000	0.216227
1533.000000	0.217638
1532.000000	0.219294
1531.000000	0.220889
1530.000000	0.222057
1529.000000	0.223542
1528.000000	0.224691
1527.000000	0.225860
1526.000000	0.227062
1525.000000	0.228378
1524.000000	0.229236
1523.000000	0.230211
1522.000000	0.231241
1521.000000	0.232023
1520.000000	0.232950
1519.000000	0.233748
1518.000000	0.234525
1517.000000	0.235251
1516.000000	0.235820
1515.000000	0.236600
1514.000000	0.237241
1513.000000	0.237654
1512.000000	0.238198
1511.000000	0.238785
1510.000000	0.239047
1509.000000	0.239664
1508.000000	0.239906
1507.000000	0.240435
1506.000000	0.240629
1505.000000	0.240701
1504.000000	0.240967
1503.000000	0.241348
1502.000000	0.241423
1501.000000	0.241558
1500.000000	0.241530
1499.000000	0.241599
1498.000000	0.241556
1497.000000	0.241697
1496.000000	0.241423
1495.000000	0.241143
1494.000000	0.240861
1493.000000	0.240540
1492.000000	0.240061
1491.000000	0.239339
1490.000000	0.238789
1489.000000	0.238295
1488.000000	0.237477
1487.000000	0.237079
1486.000000	0.236268
1485.000000	0.235252
1484.000000	0.234592
1483.000000	0.233755
1482.000000	0.233080
1481.000000	0.231687
1480.000000	0.231072
1479.000000	0.230349
1478.000000	0.229188
1477.000000	0.228140
1476.000000	0.227430
1475.000000	0.226600
1474.000000	0.225600
1473.000000	0.224831
1472.000000	0.224058
1471.000000	0.223029
1470.000000	0.222276
1469.000000	0.221580
1468.000000	0.220685
1467.000000	0.220083
1466.000000	0.218983
1465.000000	0.218047
1464.000000	0.217535
1463.000000	0.216575
1462.000000	0.216057
1461.000000	0.215249
1460.000000	0.214371
1459.000000	0.213234
1458.000000	0.212281
1457.000000	0.211374
1456.000000	0.210683
1455.000000	0.209533
1454.000000	0.208555
1453.000000	0.207366
1452.000000	0.206355
1451.000000	0.205265
1450.000000	0.204072
1449.000000	0.202973
1448.000000	0.201858
1447.000000	0.200666
1446.000000	0.199370
1445.000000	0.197918
1444.000000	0.196498
1443.000000	0.195391
1442.000000	0.193744
1441.000000	0.192334
1440.000000	0.190901
1439.000000	0.189288
1438.000000	0.187780
1437.000000	0.186220
1436.000000	0.184391
1435.000000	0.182684
1434.000000	0.180689
1433.000000	0.178994
1432.000000	0.177209
1431.000000	0.175286
1430.000000	0.173098
1429.000000	0.170937
1428.000000	0.168868
1427.000000	0.166744
1426.000000	0.164367
1425.000000	0.162087
1424.000000	0.159825
1423.000000	0.157291
1422.000000	0.154632
1421.000000	0.152056
1420.000000	0.149392
1419.000000	0.146756
1418.000000	0.144098
1417.000000	0.141300
1416.000000	0.138570
1415.000000	0.135819
1414.000000	0.133062
1413.000000	0.130291
1412.000000	0.127331
1411.000000	0.124548
1410.000000	0.121807
1409.000000	0.119038
1408.000000	0.116312
1407.000000	0.113534
1406.000000	0.110852
1405.000000	0.108334
1404.000000	0.105790
1403.000000	0.103093
1402.000000	0.100522
1401.000000	0.098248
1400.000000	0.095821
1399.000000	0.093537
1398.000000	0.091160
1397.000000	0.088811
1396.000000	0.086629
1395.000000	0.084580
1394.000000	0.082562
1393.000000	0.080446
1392.000000	0.078381
1391.000000	0.076530
1390.000000	0.074647
1389.000000	0.072874
1388.000000	0.071214
1387.000000	0.069759
1386.000000	0.068257
1385.000000	0.066693
1384.000000	0.065339
1383.000000	0.063955
1382.000000	0.062661
1381.000000	0.061557
1380.000000	0.060495
1379.000000	0.059523
1378.000000	0.058633
1377.000000	0.057703
1376.000000	0.056696
1375.000000	0.055817
1374.000000	0.055046
1373.000000	0.054248
1372.000000	0.053500
1371.000000	0.052723
1370.000000	0.051997
1369.000000	0.051337
1368.000000	0.050699
1367.000000	0.049924
1366.000000	0.049065
1365.000000	0.048409
1364.000000	0.047691
1363.000000	0.046896
1362.000000	0.046141
1361.000000	0.045244
1360.000000	0.044425
1359.000000	0.043666
1358.000000	0.042891
1357.000000	0.042195
1356.000000	0.041260
1355.000000	0.040422
1354.000000	0.039741
1353.000000	0.038826
1352.000000	0.038141
1351.000000	0.037386
1350.000000	0.036503
1349.000000	0.035773
1348.000000	0.034989
1347.000000	0.034139
1346.000000	0.033444
1345.000000	0.032837
1344.000000	0.032088
1343.000000	0.031309
1342.000000	0.030590
1341.000000	0.029951
1340.000000	0.029373
1339.000000	0.028730
1338.000000	0.028138
1337.000000	0.027486
1336.000000	0.026919
1335.000000	0.026424
1334.000000	0.025935
1333.000000	0.025490
1332.000000	0.025004
1331.000000	0.024484
1330.000000	0.024106
1329.000000	0.023713
1328.000000	0.023345
1327.000000	0.022793
1326.000000	0.022543
1325.000000	0.022319
1324.000000	0.021885
1323.000000	0.021746
1322.000000	0.021587
1321.000000	0.021169
1320.000000	0.020923
1319.000000	0.020755
1318.000000	0.020505
1317.000000	0.020495
1316.000000	0.020173
1315.000000	0.019973
1314.000000	0.019794
1313.000000	0.019568
1312.000000	0.019572
1311.000000	0.019285
1310.000000	0.019054
1309.000000	0.018933
1308.000000	0.018852
1307.000000	0.018682
1306.000000	0.018540
1305.000000	0.018338
1304.000000	0.018311
1303.000000	0.018182
1302.000000	0.018073
1301.000000	0.018052
1300.000000	0.018004
1299.000000	0.018028
1298.000000	0.017945
1297.000000	0.017987
1296.000000	0.017944
1295.000000	0.018105
1294.000000	0.018204
1293.000000	0.018176
1292.000000	0.018263
1291.000000	0.018337
1290.000000	0.018338
1289.000000	0.018438
1288.000000	0.018464
1287.000000	0.018648
1286.000000	0.018713
1285.000000	0.018749
1284.000000	0.018832
1283.000000	0.018828
1282.000000	0.018769
1281.000000	0.018812
1280.000000	0.018951
1279.000000	0.018883
1278.000000	0.019078
1277.000000	0.019000
1276.000000	0.018986
1275.000000	0.018990
1274.000000	0.018981
1273.000000	0.018932
1272.000000	0.018950
1271.000000	0.018909
1270.000000	0.018792
1269.000000	0.018750
1268.000000	0.018727
1267.000000	0.018449
1266.000000	0.018446
1265.000000	0.018613
1264.000000	0.018347
1263.000000	0.018255
1262.000000	0.018156
1261.000000	0.017953
1260.000000	0.018085
1259.000000	0.017934
1258.000000	0.017974
1257.000000	0.017857
1256.000000	0.017768
1255.000000	0.017685
1254.000000	0.017651
1253.000000	0.017704
1252.000000	0.017776
1251.000000	0.017815
1250.000000	0.017909
1249.000000	0.017955
1248.000000	0.018103
1247.000000	0.018061
1246.000000	0.018232
1245.000000	0.018365
1244.000000	0.018594
1243.000000	0.018824
1242.000000	0.019124
1241.000000	0.019384
1240.000000	0.019632
1239.000000	0.019920
1238.000000	0.020194
1237.000000	0.020526
1236.000000	0.020810
1235.000000	0.021054
1234.000000	0.021429
1233.000000	0.021614
1232.000000	0.021935
1231.000000	0.022143
1230.000000	0.022457
1229.000000	0.022735
1228.000000	0.023115
1227.000000	0.023375
1226.000000	0.023575
1225.000000	0.023807
1224.000000	0.024008
1223.000000	0.024285
1222.000000	0.024710
1221.000000	0.025042
1220.000000	0.025319
1219.000000	0.025676
1218.000000	0.026023
1217.000000	0.026385
1216.000000	0.026665
1215.000000	0.027121
1214.000000	0.027595
1213.000000	0.027927
1212.000000	0.028248
1211.000000	0.028803
1210.000000	0.029263
1209.000000	0.029710
1208.000000	0.030098
1207.000000	0.030787
1206.000000	0.031223
1205.000000	0.031711
1204.000000	0.032276
1203.000000	0.032678
1202.000000	0.033203
1201.000000	0.033670
1200.000000	0.034210
1199.000000	0.034678
1198.000000	0.035252
1197.000000	0.035641
1196.000000	0.035955
1195.000000	0.036337
1194.000000	0.036690
1193.000000	0.037010
1192.000000	0.037256
1191.000000	0.037562
1190.000000	0.037774
1189.000000	0.037821
1188.000000	0.037963
1187.000000	0.038133
1186.000000	0.038111
1185.000000	0.038012
1184.000000	0.037960
1183.000000	0.037778
1182.000000	0.037475
1181.000000	0.037194
1180.000000	0.036870
1179.000000	0.036434
1178.000000	0.035958
1177.000000	0.035453
1176.000000	0.034888
1175.000000	0.034255
1174.000000	0.033650
1173.000000	0.032955
1172.000000	0.032079
1171.000000	0.031320
1170.000000	0.030482
1169.000000	0.029549
1168.000000	0.028596
1167.000000	0.027713
1166.000000	0.026884
1165.000000	0.025868
1164.000000	0.024918
1163.000000	0.024044
1162.000000	0.023081
1161.000000	0.022163
1160.000000	0.021269
1159.000000	0.020340
1158.000000	0.019443
1157.000000	0.018580
1156.000000	0.017721
1155.000000	0.016978
1154.000000	0.016282
1153.000000	0.015487
1152.000000	0.014800
1151.000000	0.014182
1150.000000	0.013472
1149.000000	0.012827
1148.000000	0.012209
1147.000000	0.011595
1146.000000	0.011123
1145.000000	0.010541
1144.000000	0.009890
1143.000000	0.009342
1142.000000	0.008811
1141.000000	0.008271
1140.000000	0.007771
1139.000000	0.007224
1138.000000	0.006724
1137.000000	0.006284
1136.000000	0.005775
1135.000000	0.005364
1134.000000	0.004937
1133.000000	0.004524
1132.000000	0.004171
1131.000000	0.003845
1130.000000	0.003504
1129.000000	0.003094
1128.000000	0.002814
1127.000000	0.002593
1126.000000	0.002332
1125.000000	0.002133
1124.000000	0.001946
1123.000000	0.001784
1122.000000	0.001631
1121.000000	0.001432
1120.000000	0.001290
1119.000000	0.001196
1118.000000	0.001157
1117.000000	0.001038
1116.000000	0.000939
1115.000000	0.000887
1114.000000	0.000924
1113.000000	0.000921
1112.000000	0.000893
1111.000000	0.000830
1110.000000	0.000955
1109.000000	0.000835
1108.000000	0.000828
1107.000000	0.000772
1106.000000	0.000803
1105.000000	0.000850
1104.000000	0.000880
1103.000000	0.000852
1102.000000	0.000842
1101.000000	0.000837
1100.000000	0.000824
1099.000000	0.000728
1098.000000	0.000818
1097.000000	0.001015
1096.000000	0.000939
1095.000000	0.000984
1094.000000	0.000996
1093.000000	0.000918
1092.000000	0.001064
1091.000000	0.001135
1090.000000	0.001042
1089.000000	0.001086
1088.000000	0.001203
1087.000000	0.001227
1086.000000	0.001355
1085.000000	0.001420
1084.000000	0.001468
1083.000000	0.001685
1082.000000	0.001637
1081.000000	0.001640
1080.000000	0.001699
1079.000000	0.001856
1078.000000	0.001990
1077.000000	0.002078
1076.000000	0.002192
1075.000000	0.002401
1074.000000	0.002401
1073.000000	0.002543
1072.000000	0.002487
1071.000000	0.002737
1070.000000	0.002829
1069.000000	0.003108
1068.000000	0.003028
1067.000000	0.003131
1066.000000	0.003423
1065.000000	0.003495
1064.000000	0.003538
1063.000000	0.003782
1062.000000	0.003828
1061.000000	0.004038
1060.000000	0.004169
1059.000000	0.004279
1058.000000	0.004394
1057.000000	0.004557
1056.000000	0.004637
1055.000000	0.004842
1054.000000	0.004953
1053.000000	0.004971
1052.000000	0.005156
1051.000000	0.005321
1050.000000	0.005493
1049.000000	0.005618
1048.000000	0.005745
1047.000000	0.005814
1046.000000	0.006079
1045.000000	0.006094
1044.000000	0.006123
1043.000000	0.006328
1042.000000	0.006341
1041.000000	0.006508
1040.000000	0.006527
1039.000000	0.006768
1038.000000	0.006846
1037.000000	0.006831
1036.000000	0.007063
1035.000000	0.007063
1034.000000	0.007196
1033.000000	0.007321
1032.000000	0.007328
1031.000000	0.007495
1030.000000	0.007569
1029.000000	0.007660
1028.000000	0.007721
1027.000000	0.007845
1026.000000	0.007824
1025.000000	0.007930
1024.000000	0.008023
1023.000000	0.008063
1022.000000	0.008062
1021.000000	0.008061
1020.000000	0.008078
1019.000000	0.008219
1018.000000	0.008251
1017.000000	0.008206
1016.000000	0.008269
1015.000000	0.008325
1014.000000	0.008345
1013.000000	0.008314
1012.000000	0.008381
1011.000000	0.008274
1010.000000	0.008301
1009.000000	0.008348
1008.000000	0.008335
1007.000000	0.008233
1006.000000	0.008349
1005.000000	0.008211
1004.000000	0.008178
1003.000000	0.008146
1002.000000	0.008132
1001.000000	0.008128
1000.000000	0.008155
999.000000	0.008171
998.000000	0.008164
997.000000	0.008259
996.000000	0.008113
995.000000	0.008128
994.000000	0.008109
993.000000	0.008194
992.000000	0.008149
991.000000	0.008193
990.000000	0.008110
989.000000	0.008106
988.000000	0.008092
987.000000	0.008105
986.000000	0.008143
985.000000	0.008066
984.000000	0.008017
983.000000	0.008129
982.000000	0.008134
981.000000	0.008115
980.000000	0.008023
979.000000	0.007855
978.000000	0.007964
977.000000	0.007926
976.000000	0.007937
975.000000	0.007927
974.000000	0.008023
973.000000	0.007862
972.000000	0.007747
971.000000	0.007773
970.000000	0.007742
969.000000	0.007696
968.000000	0.007585
967.000000	0.007637
966.000000	0.007683
965.000000	0.007681
964.000000	0.007739
963.000000	0.007659
962.000000	0.007627
961.000000	0.007595
960.000000	0.007593
959.000000	0.007613
958.000000	0.007463
957.000000	0.007388
956.000000	0.007400
955.000000	0.007439
954.000000	0.007530
953.000000	0.007598
952.000000	0.007518
951.000000	0.007463
950.000000	0.007487
949.000000	0.007431
948.000000	0.007403
947.000000	0.007393
946.000000	0.007413
945.000000	0.007442
944.000000	0.007562
943.000000	0.007530
942.000000	0.007535
941.000000	0.007767
940.000000	0.007795
939.000000	0.007749
938.000000	0.007861
937.000000	0.008024
936.000000	0.008041
935.000000	0.008160
934.000000	0.008264
933.000000	0.008306
932.000000	0.008512
931.000000	0.008450
930.000000	0.008503
929.000000	0.008747
928.000000	0.008771
927.000000	0.008880
926.000000	0.009214
925.000000	0.009381
924.000000	0.009290
923.000000	0.009387
922.000000	0.009501
921.000000	0.009876
920.000000	0.009993
919.000000	0.010019
918.000000	0.010389
917.000000	0.010487
916.000000	0.010331
915.000000	0.010614
914.000000	0.010759
913.000000	0.010908
912.000000	0.010946
911.000000	0.010965
910.000000	0.010907
909.000000	0.011115
908.000000	0.011366
907.000000	0.011231
906.000000	0.011192
905.000000	0.011348
904.000000	0.011760
903.000000	0.011528
902.000000	0.011678
901.000000	0.011631
900.000000	0.011622
899.000000	0.011654
898.000000	0.011667
897.000000	0.011742
896.000000	0.011924
895.000000	0.011770
894.000000	0.011524
893.000000	0.011754
892.000000	0.012220
891.000000	0.012117
890.000000	0.011927
889.000000	0.012112
888.000000	0.012091
887.000000	0.012153
886.000000	0.011986
885.000000	0.011835
884.000000	0.011959
883.000000	0.011795
882.000000	0.012170
881.000000	0.012182
880.000000	0.012035
879.000000	0.012089
878.000000	0.011983
877.000000	0.012516
876.000000	0.012610
875.000000	0.012998
874.000000	0.013410
873.000000	0.013601
872.000000	0.013680
871.000000	0.013510
870.000000	0.013039
869.000000	0.013001
868.000000	0.012817
867.000000	0.012912
866.000000	0.013096
865.000000	0.012873
864.000000	0.013144
863.000000	0.013192
862.000000	0.013705
861.000000	0.014173
860.000000	0.014820
859.000000	0.016086
858.000000	0.014739
857.000000	0.012723
856.000000	0.014102
855.000000	0.014965
854.000000	0.014665
853.000000	0.018819
852.000000	0.017670
851.000000	0.016743
850.000000	0.015584
849.000000	0.014746
848.000000	0.015436
847.000000	0.015546
846.000000	0.014684
845.000000	0.015793
844.000000	0.016564
843.000000	0.016454
842.000000	0.017595
841.000000	0.015477
840.000000	0.016547
839.000000	0.017598
838.000000	0.016940
837.000000	0.017310
836.000000	0.017267
835.000000	0.016618
834.000000	0.016768
833.000000	0.018173
832.000000	0.018357
831.000000	0.019612
830.000000	0.019115
829.000000	0.019605
828.000000	0.017839
827.000000	0.018547
826.000000	0.018478
825.000000	0.018574
824.000000	0.019440
823.000000	0.019480
822.000000	0.018613
821.000000	0.020054
820.000000	0.018468
819.000000	0.020387
818.000000	0.020806
817.000000	0.019618
816.000000	0.020194
815.000000	0.019857
814.000000	0.020299
813.000000	0.019877
812.000000	0.021092
811.000000	0.020739
810.000000	0.021918
809.000000	0.021878
808.000000	0.021350
807.000000	0.021329
806.000000	0.021875
805.000000	0.021850
804.000000	0.021083
803.000000	0.021816
802.000000	0.022459
801.000000	0.022010
800.000000	0.022194
799.000000	0.023146
798.000000	0.022344
797.000000	0.022628
796.000000	0.022487
795.000000	0.023467
794.000000	0.023542
793.000000	0.023782
792.000000	0.023951
791.000000	0.023922
790.000000	0.024035
789.000000	0.023812
788.000000	0.023475
787.000000	0.024486
786.000000	0.024957
785.000000	0.025360
784.000000	0.025785
783.000000	0.025497
782.000000	0.024741
781.000000	0.026439
780.000000	0.027027
779.000000	0.026313
778.000000	0.027298
777.000000	0.026923
776.000000	0.026651
775.000000	0.027609
774.000000	0.027028
773.000000	0.026737
772.000000	0.027750
771.000000	0.028010
770.000000	0.028076
769.000000	0.028280
768.000000	0.028459
767.000000	0.028826
766.000000	0.028985
765.000000	0.029317
764.000000	0.029075
763.000000	0.028333
762.000000	0.029004
761.000000	0.029535
760.000000	0.030136
759.000000	0.030967
758.000000	0.030766
757.000000	0.030481
756.000000	0.031185
755.000000	0.031537
754.000000	0.031414
753.000000	0.031149
752.000000	0.031759
751.000000	0.032189
750.000000	0.032619
749.000000	0.033345
748.000000	0.033192
747.000000	0.033284
746.000000	0.033630
745.000000	0.033713
744.000000	0.033670
743.000000	0.034473
742.000000	0.034803
741.000000	0.035098
740.000000	0.035757
739.000000	0.035787
738.000000	0.035843
737.000000	0.035885
736.000000	0.036032
735.000000	0.036792
734.000000	0.037484
733.000000	0.037405
732.000000	0.037483
731.000000	0.037830
730.000000	0.038373
729.000000	0.038968
728.000000	0.039292
727.000000	0.038963
726.000000	0.038826
725.000000	0.039479
724.000000	0.040232
723.000000	0.040823
722.000000	0.040965
721.000000	0.041005
720.000000	0.041607
719.000000	0.042069
718.000000	0.042166
717.000000	0.042604
716.000000	0.042968
715.000000	0.043149
714.000000	0.043627
713.000000	0.043908
712.000000	0.044306
711.000000	0.044879
710.000000	0.045023
709.000000	0.044971
708.000000	0.045429
707.000000	0.046263
706.000000	0.047039
705.000000	0.047304
704.000000	0.047752
703.000000	0.047994
702.000000	0.048142
701.000000	0.048771
700.000000	0.049300
699.000000	0.049446
698.000000	0.050046
697.000000	0.050567
696.000000	0.051357
695.000000	0.051421
694.000000	0.051627
693.000000	0.052399
692.000000	0.053159
691.000000	0.053435
690.000000	0.054157
689.000000	0.054952
688.000000	0.055247
687.000000	0.055772
686.000000	0.056635
685.000000	0.056787
684.000000	0.057452
683.000000	0.058031
682.000000	0.058442
681.000000	0.059343
680.000000	0.059669
679.000000	0.060250
678.000000	0.061307
677.000000	0.061799
676.000000	0.062610
675.000000	0.063107
674.000000	0.063768
673.000000	0.064455
672.000000	0.065209
671.000000	0.065724
670.000000	0.066043
669.000000	0.066455
668.000000	0.067341
667.000000	0.068176
666.000000	0.068804
665.000000	0.069592
664.000000	0.069905
663.000000	0.070629
662.000000	0.071508
661.000000	0.072373
660.000000	0.073247
659.000000	0.074031
658.000000	0.074987
657.000000	0.075484
656.000000	0.075896
655.000000	0.076733
654.000000	0.077791
653.000000	0.078075
652.000000	0.079472
651.000000	0.080359
650.000000	0.081406
649.000000	0.082606
648.000000	0.083565
647.000000	0.084372
646.000000	0.085147
645.000000	0.086158
644.000000	0.086915
643.000000	0.087615
642.000000	0.088894
641.000000	0.090198
640.000000	0.090584
639.000000	0.091525
638.000000	0.092697
637.000000	0.093668
636.000000	0.094721
635.000000	0.095756
634.000000	0.096685
633.000000	0.097385
632.000000	0.098860
631.000000	0.099822
630.000000	0.100889
629.000000	0.101626
628.000000	0.102646
627.000000	0.103834
626.000000	0.104798
625.000000	0.105369
624.000000	0.106998
623.000000	0.107415
622.000000	0.108077
621.000000	0.108908
620.000000	0.110034
619.000000	0.110815
618.000000	0.111983
617.000000	0.112837
616.000000	0.114055
615.000000	0.114799
614.000000	0.115884
613.000000	0.115905
612.000000	0.117177
611.000000	0.118068
610.000000	0.119079
609.000000	0.119579
608.000000	0.120739
607.000000	0.121399
606.000000	0.122008
605.000000	0.122788
604.000000	0.123518
603.000000	0.124440
602.000000	0.125402
601.000000	0.126112
600.000000	0.126557
599.000000	0.127272
598.000000	0.128665
597.000000	0.128923
596.000000	0.130025
595.000000	0.130899
594.000000	0.131849
593.000000	0.132491
592.000000	0.133117
591.000000	0.134425
590.000000	0.134955
589.000000	0.135634
588.000000	0.135819
587.000000	0.137635
586.000000	0.137986
585.000000	0.138947
584.000000	0.139363
583.000000	0.140317
582.000000	0.141560
581.000000	0.142196
580.000000	0.143343
579.000000	0.144115
578.000000	0.145111
577.000000	0.145882
576.000000	0.147183
575.000000	0.147622
574.000000	0.148595
573.000000	0.149522
572.000000	0.150161
571.000000	0.150926
570.000000	0.151521
569.000000	0.152811
568.000000	0.153276
567.000000	0.154473
566.000000	0.155274
565.000000	0.155594
564.000000	0.156330
563.000000	0.157343
562.000000	0.158436
561.000000	0.158475
560.000000	0.159636
559.000000	0.159982
558.000000	0.161056
557.000000	0.161983
556.000000	0.162525
555.000000	0.163742
554.000000	0.164558
553.000000	0.164933
552.000000	0.166042
551.000000	0.166857
550.000000	0.167817
549.000000	0.168667
548.000000	0.169847
547.000000	0.170827
546.000000	0.171703
545.000000	0.172719
544.000000	0.173690
543.000000	0.175150
542.000000	0.175773
541.000000	0.176609
540.000000	0.177581
539.000000	0.178123
538.000000	0.179380
537.000000	0.180382
536.000000	0.181649
535.000000	0.182437
534.000000	0.183372
533.000000	0.184364
532.000000	0.185360
531.000000	0.185979
530.000000	0.186785
529.000000	0.187479
528.000000	0.188206
527.000000	0.189334
526.000000	0.190320
525.000000	0.191263
524.000000	0.191883
523.000000	0.192917
522.000000	0.193745
521.000000	0.194949
520.000000	0.196102
519.000000	0.196772
518.000000	0.197674
517.000000	0.198593
516.000000	0.199478
515.000000	0.200466
514.000000	0.201414
513.000000	0.202380
512.000000	0.203638
511.000000	0.204550
510.000000	0.205814
509.000000	0.207096
508.000000	0.208525
507.000000	0.209872
506.000000	0.211126
505.000000	0.212349
504.000000	0.213769
503.000000	0.215026
502.000000	0.216382
501.000000	0.217986
500.000000	0.219631
499.000000	0.221553
498.000000	0.223627
497.000000	0.224751
496.000000	0.226282
495.000000	0.227989
494.000000	0.230337
493.000000	0.232105
492.000000	0.233783
491.000000	0.235913
490.000000	0.237486
489.000000	0.239186
488.000000	0.241572
487.000000	0.243426
486.000000	0.245706
485.000000	0.247790
484.000000	0.249302
483.000000	0.251023
482.000000	0.253837
481.000000	0.256054
480.000000	0.258263
479.000000	0.260501
478.000000	0.263179
477.000000	0.265427
476.000000	0.267517
475.000000	0.269954
474.000000	0.272397
473.000000	0.275061
472.000000	0.277820
471.000000	0.280564
470.000000	0.283465
469.000000	0.286201
468.000000	0.289219
467.000000	0.292273
466.000000	0.295289
465.000000	0.298489
464.000000	0.301871
463.000000	0.305058
462.000000	0.308477
461.000000	0.311528
460.000000	0.314928
459.000000	0.319055
458.000000	0.322908
457.000000	0.326694
456.000000	0.330200
455.000000	0.334234
454.000000	0.338597
453.000000	0.342944
452.000000	0.347371
451.000000	0.351555
450.000000	0.355664
449.000000	0.360280
448.000000	0.365396
447.000000	0.369853
446.000000	0.374521
445.000000	0.379519
444.000000	0.384178
443.000000	0.389213
442.000000	0.394174
441.000000	0.399359
440.000000	0.405009
439.000000	0.410342
438.000000	0.416310
437.000000	0.422393
436.000000	0.428160
435.000000	0.433706
434.000000	0.439603
433.000000	0.445780
432.000000	0.452225
431.000000	0.458364
430.000000	0.465251
429.000000	0.472159
428.000000	0.478944
427.000000	0.486437
426.000000	0.493149
425.000000	0.500786
424.000000	0.507911
423.000000	0.515573
422.000000	0.522562
421.000000	0.530002
420.000000	0.537548
419.000000	0.544720
418.000000	0.551016
417.000000	0.558046
416.000000	0.564834
415.000000	0.570080
414.000000	0.575874
413.000000	0.580830
412.000000	0.584209
411.000000	0.587803
410.000000	0.590244
409.000000	0.592741
408.000000	0.594108
407.000000	0.595740
406.000000	0.595922
405.000000	0.596169
404.000000	0.595851
403.000000	0.596100
402.000000	0.595279
401.000000	0.595082
400.000000	0.594621
399.000000	0.594711
398.000000	0.593721
397.000000	0.592793
396.000000	0.593051
395.000000	0.593380
394.000000	0.593784
393.000000	0.592780
392.000000	0.593769
391.000000	0.594385
390.000000	0.594234
389.000000	0.596179
388.000000	0.596303
387.000000	0.596839
386.000000	0.597690
385.000000	0.600697
384.000000	0.602962
383.000000	0.605343
382.000000	0.605696
381.000000	0.609395
380.000000	0.612017
379.000000	0.614053
378.000000	0.618314
377.000000	0.621071
376.000000	0.624395
375.000000	0.628838
374.000000	0.630937
373.000000	0.634983
372.000000	0.638377
371.000000	0.642117
370.000000	0.647455
369.000000	0.652443
368.000000	0.653333
367.000000	0.659366
366.000000	0.663513
365.000000	0.668275
364.000000	0.672106
363.000000	0.676275
362.000000	0.682017
361.000000	0.688732
360.000000	0.692598
359.000000	0.694618
358.000000	0.700616
357.000000	0.702969
356.000000	0.707596
355.000000	0.713040
354.000000	0.718971
353.000000	0.724347
352.000000	0.728812
351.000000	0.732629
350.000000	0.735807
349.000000	0.741990
348.000000	0.743449
347.000000	0.748795
346.000000	0.750186
345.000000	0.756425
344.000000	0.760181
343.000000	0.767202
342.000000	0.769678
341.000000	0.776241
340.000000	0.775856
339.000000	0.780849
338.000000	0.787464
337.000000	0.789822
336.000000	0.795669
335.000000	0.799760
334.000000	0.801314
333.000000	0.806114
332.000000	0.809615
331.000000	0.812169
330.000000	0.817520
329.000000	0.822339
328.000000	0.821071
327.000000	0.824444
326.000000	0.830666
325.000000	0.833244
324.000000	0.839974
323.000000	0.840048
322.000000	0.847730
321.000000	0.847747
320.000000	0.846380
319.000000	0.851076
318.000000	0.856909
317.000000	0.859090
316.000000	0.861937
315.000000	0.867190
314.000000	0.871843
313.000000	0.876096
312.000000	0.880393
311.000000	0.885516
310.000000	0.891281
309.000000	0.894102
308.000000	0.899493
307.000000	0.905730
306.000000	0.908438
305.000000	0.913934
304.000000	0.921676
303.000000	0.926714
302.000000	0.930246
301.000000	0.935481
300.000000	0.945402
299.000000	0.951975
298.000000	0.962881
297.000000	0.971899
296.000000	0.984373
295.000000	0.992866
294.000000	1.003589
293.000000	1.019698
292.000000	1.030960
291.000000	1.040607
290.000000	1.042382
289.000000	1.051679
288.000000	1.055704
287.000000	1.053916
286.000000	1.052669
285.000000	1.048804
284.000000	1.044585
283.000000	1.044121
282.000000	1.039722
281.000000	1.039961
280.000000	1.035390
279.000000	1.032357
278.000000	1.028998
277.000000	1.027818
276.000000	1.025734
275.000000	1.018269
274.000000	1.014539
273.000000	1.011670
272.000000	1.007709
271.000000	1.004928
270.000000	1.001140
269.000000	1.000133
268.000000	0.998724
267.000000	0.992688
266.000000	0.989544
265.000000	0.987288
264.000000	0.982546
263.000000	0.977531
262.000000	0.974323
261.000000	0.970418
260.000000	0.964782
259.000000	0.960712
258.000000	0.957210
257.000000	0.952162
256.000000	0.945414
255.000000	0.940864
254.000000	0.939333
253.000000	0.936665
252.000000	0.935300
251.000000	0.932423
250.000000	0.929000
249.000000	0.926225
248.000000	0.929649
247.000000	0.931324
246.000000	0.929795
245.000000	0.930104
244.000000	0.932113
243.000000	0.932387
242.000000	0.931786
241.000000	0.929255
240.000000	0.926083
239.000000	0.923570
238.000000	0.917348
237.000000	0.912276
236.000000	0.908028
235.000000	0.900840
234.000000	0.896680
233.000000	0.892238
232.000000	0.887062
231.000000	0.883453
230.000000	0.880293
229.000000	0.876014
228.000000	0.872829
227.000000	0.870359
226.000000	0.866535
225.000000	0.862090
224.000000	0.859557
223.000000	0.856305
222.000000	0.847574
221.000000	0.841404
220.000000	0.837278
219.000000	0.834797
218.000000	0.828955
217.000000	0.820877
216.000000	0.817820
215.000000	0.812977
214.000000	0.803478
213.000000	0.793613
212.000000	0.784713
211.000000	0.778816
210.000000	0.775279
209.000000	0.765147
208.000000	0.755950
207.000000	0.745926
206.000000	0.732391
205.000000	0.725829
204.000000	0.716817
203.000000	0.702235
202.000000	0.689655
201.000000	0.684039
200.000000	0.673091
