PE UV       SUBTECH     SPECTRUM    ASCII       PEDS        4.00        
   -1
AVeauUK 12.Sample.asc
18/03/06
09:08:50.00
18/03/06
09:08:50.00
Administrator

200.000000
1
Lambda 750
750N8071901
PerkinElmer UV WinLab 6.0.4.0738 / 1.61.00 Lambda 900

0
0
3350/servo 860.8/2
0
0
UV/VIS
1
1
1
CommonBeamDepol,150mm sphere / downward view
0
0
0
0
Program
Program
3350/servo 860.8/2
3350/0.2 860.8/0.2
3350/0.2 860.8/0.2
0
1
 
 
 
0
 
860.8
319.2
860.8
Front
100
on
 
 
0
0
0
 
0
 
 
 
0
 
 
0
0
0
0
0
 
 
 
 
0
0


0
0
#HDR
-1
-1
#GR
nm
A
1.0
0.0
2350.000000
-1.000000
2151
8
0.976252
-0.008252
#DATA
2350.000000	0.699672
2349.000000	0.697328
2348.000000	0.705821
2347.000000	0.662039
2346.000000	0.689702
2345.000000	0.689819
2344.000000	0.689929
2343.000000	0.696628
2342.000000	0.687197
2341.000000	0.685370
2340.000000	0.686506
2339.000000	0.682081
2338.000000	0.665978
2337.000000	0.668359
2336.000000	0.656797
2335.000000	0.659076
2334.000000	0.653785
2333.000000	0.646718
2332.000000	0.653316
2331.000000	0.645413
2330.000000	0.658358
2329.000000	0.650787
2328.000000	0.658546
2327.000000	0.661190
2326.000000	0.658656
2325.000000	0.657853
2324.000000	0.655928
2323.000000	0.661008
2322.000000	0.670499
2321.000000	0.667643
2320.000000	0.664579
2319.000000	0.672019
2318.000000	0.673670
2317.000000	0.677540
2316.000000	0.674686
2315.000000	0.671956
2314.000000	0.672613
2313.000000	0.681586
2312.000000	0.686241
2311.000000	0.676246
2310.000000	0.684706
2309.000000	0.691932
2308.000000	0.686985
2307.000000	0.689145
2306.000000	0.682760
2305.000000	0.693393
2304.000000	0.695195
2303.000000	0.703031
2302.000000	0.700927
2301.000000	0.711524
2300.000000	0.718342
2299.000000	0.709245
2298.000000	0.723483
2297.000000	0.735688
2296.000000	0.727029
2295.000000	0.728324
2294.000000	0.726995
2293.000000	0.731889
2292.000000	0.732782
2291.000000	0.732911
2290.000000	0.740619
2289.000000	0.737159
2288.000000	0.735294
2287.000000	0.736230
2286.000000	0.741792
2285.000000	0.746663
2284.000000	0.743111
2283.000000	0.746578
2282.000000	0.743746
2281.000000	0.738105
2280.000000	0.740904
2279.000000	0.741588
2278.000000	0.741894
2277.000000	0.744877
2276.000000	0.740641
2275.000000	0.739368
2274.000000	0.736802
2273.000000	0.735403
2272.000000	0.736358
2271.000000	0.738921
2270.000000	0.743185
2269.000000	0.733359
2268.000000	0.730381
2267.000000	0.726422
2266.000000	0.720255
2265.000000	0.718963
2264.000000	0.720924
2263.000000	0.723148
2262.000000	0.714261
2261.000000	0.705848
2260.000000	0.702274
2259.000000	0.697144
2258.000000	0.686491
2257.000000	0.680469
2256.000000	0.674126
2255.000000	0.671067
2254.000000	0.667337
2253.000000	0.664638
2252.000000	0.655258
2251.000000	0.649524
2250.000000	0.649624
2249.000000	0.640327
2248.000000	0.634346
2247.000000	0.629000
2246.000000	0.622887
2245.000000	0.619015
2244.000000	0.609779
2243.000000	0.605830
2242.000000	0.604627
2241.000000	0.600698
2240.000000	0.595629
2239.000000	0.591572
2238.000000	0.589197
2237.000000	0.586410
2236.000000	0.584926
2235.000000	0.581642
2234.000000	0.578117
2233.000000	0.577807
2232.000000	0.577193
2231.000000	0.574095
2230.000000	0.568645
2229.000000	0.561257
2228.000000	0.563881
2227.000000	0.568260
2226.000000	0.571388
2225.000000	0.571093
2224.000000	0.572192
2223.000000	0.576596
2222.000000	0.574374
2221.000000	0.570608
2220.000000	0.568012
2219.000000	0.571045
2218.000000	0.577016
2217.000000	0.576032
2216.000000	0.576229
2215.000000	0.577855
2214.000000	0.580556
2213.000000	0.578797
2212.000000	0.579792
2211.000000	0.586406
2210.000000	0.586617
2209.000000	0.588162
2208.000000	0.593889
2207.000000	0.594909
2206.000000	0.598918
2205.000000	0.598221
2204.000000	0.598449
2203.000000	0.601028
2202.000000	0.600088
2201.000000	0.600541
2200.000000	0.604438
2199.000000	0.608237
2198.000000	0.608692
2197.000000	0.613172
2196.000000	0.618135
2195.000000	0.624092
2194.000000	0.623330
2193.000000	0.626256
2192.000000	0.624086
2191.000000	0.629083
2190.000000	0.632438
2189.000000	0.631678
2188.000000	0.635307
2187.000000	0.635281
2186.000000	0.635066
2185.000000	0.636916
2184.000000	0.635843
2183.000000	0.639001
2182.000000	0.645687
2181.000000	0.643860
2180.000000	0.639970
2179.000000	0.644352
2178.000000	0.650682
2177.000000	0.649899
2176.000000	0.652929
2175.000000	0.643449
2174.000000	0.649402
2173.000000	0.647498
2172.000000	0.647505
2171.000000	0.645813
2170.000000	0.641854
2169.000000	0.638774
2168.000000	0.633229
2167.000000	0.634179
2166.000000	0.636371
2165.000000	0.635090
2164.000000	0.632271
2163.000000	0.626966
2162.000000	0.617856
2161.000000	0.620282
2160.000000	0.614081
2159.000000	0.609377
2158.000000	0.608251
2157.000000	0.604957
2156.000000	0.601346
2155.000000	0.595538
2154.000000	0.591437
2153.000000	0.583856
2152.000000	0.590389
2151.000000	0.584035
2150.000000	0.575899
2149.000000	0.571534
2148.000000	0.571051
2147.000000	0.570572
2146.000000	0.570187
2145.000000	0.560666
2144.000000	0.559788
2143.000000	0.555109
2142.000000	0.548387
2141.000000	0.546434
2140.000000	0.542940
2139.000000	0.537982
2138.000000	0.534314
2137.000000	0.535512
2136.000000	0.537112
2135.000000	0.529664
2134.000000	0.527305
2133.000000	0.525734
2132.000000	0.519351
2131.000000	0.520035
2130.000000	0.516621
2129.000000	0.519126
2128.000000	0.515606
2127.000000	0.512648
2126.000000	0.511665
2125.000000	0.510479
2124.000000	0.507657
2123.000000	0.509574
2122.000000	0.508282
2121.000000	0.505963
2120.000000	0.504938
2119.000000	0.504170
2118.000000	0.503457
2117.000000	0.501393
2116.000000	0.500313
2115.000000	0.494691
2114.000000	0.500364
2113.000000	0.499081
2112.000000	0.497406
2111.000000	0.497841
2110.000000	0.498840
2109.000000	0.493913
2108.000000	0.496211
2107.000000	0.494579
2106.000000	0.494987
2105.000000	0.495201
2104.000000	0.495427
2103.000000	0.494928
2102.000000	0.494162
2101.000000	0.492799
2100.000000	0.490369
2099.000000	0.491674
2098.000000	0.493482
2097.000000	0.491414
2096.000000	0.491320
2095.000000	0.492419
2094.000000	0.492798
2093.000000	0.494761
2092.000000	0.492303
2091.000000	0.493945
2090.000000	0.496033
2089.000000	0.495496
2088.000000	0.495716
2087.000000	0.496005
2086.000000	0.497646
2085.000000	0.496998
2084.000000	0.498000
2083.000000	0.501276
2082.000000	0.501610
2081.000000	0.502334
2080.000000	0.505229
2079.000000	0.506954
2078.000000	0.507951
2077.000000	0.510248
2076.000000	0.513318
2075.000000	0.516508
2074.000000	0.519951
2073.000000	0.521116
2072.000000	0.522955
2071.000000	0.524510
2070.000000	0.527366
2069.000000	0.533145
2068.000000	0.537663
2067.000000	0.540601
2066.000000	0.544454
2065.000000	0.547578
2064.000000	0.549233
2063.000000	0.556348
2062.000000	0.560342
2061.000000	0.563648
2060.000000	0.567962
2059.000000	0.572190
2058.000000	0.574890
2057.000000	0.577805
2056.000000	0.581145
2055.000000	0.585178
2054.000000	0.588944
2053.000000	0.594436
2052.000000	0.599047
2051.000000	0.601332
2050.000000	0.604823
2049.000000	0.607369
2048.000000	0.609705
2047.000000	0.611470
2046.000000	0.614834
2045.000000	0.615032
2044.000000	0.614842
2043.000000	0.615676
2042.000000	0.614481
2041.000000	0.614803
2040.000000	0.615594
2039.000000	0.615327
2038.000000	0.613203
2037.000000	0.611399
2036.000000	0.611179
2035.000000	0.607784
2034.000000	0.603827
2033.000000	0.600851
2032.000000	0.596830
2031.000000	0.593879
2030.000000	0.592278
2029.000000	0.588189
2028.000000	0.583097
2027.000000	0.580244
2026.000000	0.577046
2025.000000	0.573875
2024.000000	0.572226
2023.000000	0.569798
2022.000000	0.568557
2021.000000	0.568139
2020.000000	0.565930
2019.000000	0.564417
2018.000000	0.564142
2017.000000	0.563647
2016.000000	0.564414
2015.000000	0.564531
2014.000000	0.563826
2013.000000	0.563040
2012.000000	0.563338
2011.000000	0.564291
2010.000000	0.564391
2009.000000	0.566343
2008.000000	0.568135
2007.000000	0.569537
2006.000000	0.572394
2005.000000	0.573741
2004.000000	0.575142
2003.000000	0.577550
2002.000000	0.579812
2001.000000	0.582741
2000.000000	0.584946
1999.000000	0.586437
1998.000000	0.589362
1997.000000	0.592790
1996.000000	0.595445
1995.000000	0.598213
1994.000000	0.600589
1993.000000	0.604125
1992.000000	0.607323
1991.000000	0.610323
1990.000000	0.611720
1989.000000	0.614387
1988.000000	0.617268
1987.000000	0.620852
1986.000000	0.624150
1985.000000	0.627633
1984.000000	0.631203
1983.000000	0.632720
1982.000000	0.635033
1981.000000	0.636576
1980.000000	0.642593
1979.000000	0.644453
1978.000000	0.649245
1977.000000	0.651195
1976.000000	0.653005
1975.000000	0.656511
1974.000000	0.660004
1973.000000	0.662284
1972.000000	0.665198
1971.000000	0.669449
1970.000000	0.671698
1969.000000	0.673546
1968.000000	0.675864
1967.000000	0.676515
1966.000000	0.678385
1965.000000	0.681903
1964.000000	0.684816
1963.000000	0.687914
1962.000000	0.691139
1961.000000	0.694261
1960.000000	0.697535
1959.000000	0.699984
1958.000000	0.700498
1957.000000	0.703203
1956.000000	0.708342
1955.000000	0.709508
1954.000000	0.709796
1953.000000	0.710755
1952.000000	0.713279
1951.000000	0.711671
1950.000000	0.713067
1949.000000	0.717573
1948.000000	0.717300
1947.000000	0.716355
1946.000000	0.715045
1945.000000	0.717279
1944.000000	0.718361
1943.000000	0.718304
1942.000000	0.714507
1941.000000	0.715988
1940.000000	0.708968
1939.000000	0.706777
1938.000000	0.705240
1937.000000	0.706599
1936.000000	0.696989
1935.000000	0.695121
1934.000000	0.689084
1933.000000	0.685087
1932.000000	0.679314
1931.000000	0.676665
1930.000000	0.670296
1929.000000	0.665722
1928.000000	0.654764
1927.000000	0.654555
1926.000000	0.648053
1925.000000	0.634674
1924.000000	0.628527
1923.000000	0.622202
1922.000000	0.614245
1921.000000	0.604842
1920.000000	0.597460
1919.000000	0.589691
1918.000000	0.582088
1917.000000	0.570756
1916.000000	0.564916
1915.000000	0.552968
1914.000000	0.542798
1913.000000	0.530476
1912.000000	0.523630
1911.000000	0.513100
1910.000000	0.502055
1909.000000	0.491117
1908.000000	0.481876
1907.000000	0.469290
1906.000000	0.458043
1905.000000	0.447785
1904.000000	0.435751
1903.000000	0.425001
1902.000000	0.412603
1901.000000	0.402730
1900.000000	0.391879
1899.000000	0.381719
1898.000000	0.369568
1897.000000	0.359175
1896.000000	0.349786
1895.000000	0.340577
1894.000000	0.330779
1893.000000	0.321913
1892.000000	0.312292
1891.000000	0.305176
1890.000000	0.296510
1889.000000	0.288639
1888.000000	0.281845
1887.000000	0.273564
1886.000000	0.267019
1885.000000	0.260307
1884.000000	0.253094
1883.000000	0.246619
1882.000000	0.240504
1881.000000	0.235087
1880.000000	0.230493
1879.000000	0.225849
1878.000000	0.221158
1877.000000	0.216390
1876.000000	0.212422
1875.000000	0.207519
1874.000000	0.203999
1873.000000	0.200432
1872.000000	0.197396
1871.000000	0.194458
1870.000000	0.191804
1869.000000	0.188637
1868.000000	0.186422
1867.000000	0.185376
1866.000000	0.183507
1865.000000	0.181636
1864.000000	0.180118
1863.000000	0.178730
1862.000000	0.177243
1861.000000	0.177030
1860.000000	0.175950
1859.000000	0.174609
1858.000000	0.173911
1857.000000	0.173443
1856.000000	0.172883
1855.000000	0.172642
1854.000000	0.172168
1853.000000	0.171920
1852.000000	0.172200
1851.000000	0.171580
1850.000000	0.171195
1849.000000	0.171505
1848.000000	0.171588
1847.000000	0.171808
1846.000000	0.172681
1845.000000	0.172827
1844.000000	0.172456
1843.000000	0.173336
1842.000000	0.173477
1841.000000	0.173955
1840.000000	0.174585
1839.000000	0.174941
1838.000000	0.175428
1837.000000	0.176734
1836.000000	0.177233
1835.000000	0.177582
1834.000000	0.178323
1833.000000	0.179089
1832.000000	0.179738
1831.000000	0.180359
1830.000000	0.181097
1829.000000	0.182020
1828.000000	0.182618
1827.000000	0.182916
1826.000000	0.183802
1825.000000	0.184577
1824.000000	0.184927
1823.000000	0.185660
1822.000000	0.186601
1821.000000	0.187152
1820.000000	0.187620
1819.000000	0.188424
1818.000000	0.189010
1817.000000	0.189571
1816.000000	0.190361
1815.000000	0.191161
1814.000000	0.191997
1813.000000	0.192674
1812.000000	0.192978
1811.000000	0.193691
1810.000000	0.194531
1809.000000	0.194860
1808.000000	0.195621
1807.000000	0.196774
1806.000000	0.197239
1805.000000	0.197889
1804.000000	0.198742
1803.000000	0.199179
1802.000000	0.199655
1801.000000	0.200337
1800.000000	0.201044
1799.000000	0.201727
1798.000000	0.202164
1797.000000	0.202716
1796.000000	0.203465
1795.000000	0.203905
1794.000000	0.204349
1793.000000	0.204762
1792.000000	0.205200
1791.000000	0.205765
1790.000000	0.206633
1789.000000	0.206973
1788.000000	0.207270
1787.000000	0.207924
1786.000000	0.208524
1785.000000	0.209267
1784.000000	0.209800
1783.000000	0.210330
1782.000000	0.210714
1781.000000	0.211174
1780.000000	0.211832
1779.000000	0.212848
1778.000000	0.213744
1777.000000	0.214649
1776.000000	0.215453
1775.000000	0.216502
1774.000000	0.217490
1773.000000	0.218378
1772.000000	0.219471
1771.000000	0.220196
1770.000000	0.221343
1769.000000	0.222119
1768.000000	0.223238
1767.000000	0.224488
1766.000000	0.225451
1765.000000	0.226285
1764.000000	0.227082
1763.000000	0.227969
1762.000000	0.229546
1761.000000	0.230514
1760.000000	0.231596
1759.000000	0.232711
1758.000000	0.233583
1757.000000	0.234890
1756.000000	0.235413
1755.000000	0.236608
1754.000000	0.238074
1753.000000	0.238964
1752.000000	0.239901
1751.000000	0.241254
1750.000000	0.241930
1749.000000	0.243098
1748.000000	0.244530
1747.000000	0.245327
1746.000000	0.246919
1745.000000	0.248105
1744.000000	0.249243
1743.000000	0.250366
1742.000000	0.251318
1741.000000	0.252236
1740.000000	0.253320
1739.000000	0.254364
1738.000000	0.254895
1737.000000	0.255776
1736.000000	0.256102
1735.000000	0.256485
1734.000000	0.256421
1733.000000	0.256699
1732.000000	0.256599
1731.000000	0.256296
1730.000000	0.256307
1729.000000	0.255608
1728.000000	0.254747
1727.000000	0.253514
1726.000000	0.252395
1725.000000	0.251151
1724.000000	0.249755
1723.000000	0.248235
1722.000000	0.246785
1721.000000	0.244676
1720.000000	0.243081
1719.000000	0.241134
1718.000000	0.239611
1717.000000	0.238107
1716.000000	0.236066
1715.000000	0.234516
1714.000000	0.232983
1713.000000	0.231365
1712.000000	0.230372
1711.000000	0.229208
1710.000000	0.228518
1709.000000	0.227400
1708.000000	0.226500
1707.000000	0.225443
1706.000000	0.224253
1705.000000	0.224303
1704.000000	0.223851
1703.000000	0.223668
1702.000000	0.223634
1701.000000	0.223407
1700.000000	0.223152
1699.000000	0.222815
1698.000000	0.222271
1697.000000	0.221859
1696.000000	0.221304
1695.000000	0.220746
1694.000000	0.220183
1693.000000	0.219064
1692.000000	0.218011
1691.000000	0.216572
1690.000000	0.215382
1689.000000	0.213399
1688.000000	0.211611
1687.000000	0.209296
1686.000000	0.207031
1685.000000	0.204675
1684.000000	0.202176
1683.000000	0.199096
1682.000000	0.196383
1681.000000	0.192914
1680.000000	0.190174
1679.000000	0.186864
1678.000000	0.183797
1677.000000	0.180880
1676.000000	0.177834
1675.000000	0.174364
1674.000000	0.171511
1673.000000	0.168760
1672.000000	0.166142
1671.000000	0.163247
1670.000000	0.160873
1669.000000	0.157952
1668.000000	0.155917
1667.000000	0.153692
1666.000000	0.152040
1665.000000	0.150419
1664.000000	0.149007
1663.000000	0.147546
1662.000000	0.146160
1661.000000	0.144958
1660.000000	0.144020
1659.000000	0.143072
1658.000000	0.142253
1657.000000	0.141687
1656.000000	0.141380
1655.000000	0.140932
1654.000000	0.140526
1653.000000	0.140241
1652.000000	0.139884
1651.000000	0.139835
1650.000000	0.139725
1649.000000	0.139909
1648.000000	0.140101
1647.000000	0.140061
1646.000000	0.140281
1645.000000	0.140687
1644.000000	0.140856
1643.000000	0.141095
1642.000000	0.141389
1641.000000	0.142195
1640.000000	0.142562
1639.000000	0.142963
1638.000000	0.143520
1637.000000	0.144069
1636.000000	0.144643
1635.000000	0.145449
1634.000000	0.146138
1633.000000	0.146687
1632.000000	0.147457
1631.000000	0.148191
1630.000000	0.148992
1629.000000	0.149641
1628.000000	0.150246
1627.000000	0.151270
1626.000000	0.152166
1625.000000	0.152934
1624.000000	0.153641
1623.000000	0.154519
1622.000000	0.155294
1621.000000	0.156308
1620.000000	0.157438
1619.000000	0.158243
1618.000000	0.159163
1617.000000	0.159998
1616.000000	0.160950
1615.000000	0.162007
1614.000000	0.163081
1613.000000	0.164228
1612.000000	0.165287
1611.000000	0.166240
1610.000000	0.167435
1609.000000	0.168625
1608.000000	0.169582
1607.000000	0.170608
1606.000000	0.171861
1605.000000	0.172948
1604.000000	0.174018
1603.000000	0.175262
1602.000000	0.176458
1601.000000	0.177653
1600.000000	0.178800
1599.000000	0.179863
1598.000000	0.180867
1597.000000	0.182015
1596.000000	0.183192
1595.000000	0.184285
1594.000000	0.185269
1593.000000	0.186225
1592.000000	0.187296
1591.000000	0.188308
1590.000000	0.189264
1589.000000	0.190297
1588.000000	0.191332
1587.000000	0.192200
1586.000000	0.193132
1585.000000	0.194140
1584.000000	0.195056
1583.000000	0.195864
1582.000000	0.196702
1581.000000	0.197748
1580.000000	0.198604
1579.000000	0.199221
1578.000000	0.200003
1577.000000	0.201065
1576.000000	0.202018
1575.000000	0.202600
1574.000000	0.203574
1573.000000	0.204525
1572.000000	0.205281
1571.000000	0.206257
1570.000000	0.206889
1569.000000	0.207853
1568.000000	0.208597
1567.000000	0.209192
1566.000000	0.210022
1565.000000	0.210615
1564.000000	0.211051
1563.000000	0.211461
1562.000000	0.212209
1561.000000	0.212634
1560.000000	0.213016
1559.000000	0.213533
1558.000000	0.213814
1557.000000	0.214118
1556.000000	0.214682
1555.000000	0.215062
1554.000000	0.215546
1553.000000	0.216116
1552.000000	0.216480
1551.000000	0.217078
1550.000000	0.217798
1549.000000	0.218397
1548.000000	0.218968
1547.000000	0.220130
1546.000000	0.221111
1545.000000	0.222156
1544.000000	0.223518
1543.000000	0.224787
1542.000000	0.225691
1541.000000	0.227483
1540.000000	0.228993
1539.000000	0.230392
1538.000000	0.231951
1537.000000	0.233665
1536.000000	0.235387
1535.000000	0.236845
1534.000000	0.238556
1533.000000	0.240051
1532.000000	0.241860
1531.000000	0.243615
1530.000000	0.244990
1529.000000	0.246678
1528.000000	0.248194
1527.000000	0.249267
1526.000000	0.250720
1525.000000	0.252073
1524.000000	0.253335
1523.000000	0.254475
1522.000000	0.255421
1521.000000	0.256496
1520.000000	0.257553
1519.000000	0.258325
1518.000000	0.259004
1517.000000	0.259974
1516.000000	0.260714
1515.000000	0.261430
1514.000000	0.262240
1513.000000	0.262754
1512.000000	0.263270
1511.000000	0.263958
1510.000000	0.263992
1509.000000	0.264779
1508.000000	0.265264
1507.000000	0.265393
1506.000000	0.265999
1505.000000	0.266222
1504.000000	0.266300
1503.000000	0.266481
1502.000000	0.266762
1501.000000	0.266881
1500.000000	0.267003
1499.000000	0.267254
1498.000000	0.267017
1497.000000	0.266798
1496.000000	0.266412
1495.000000	0.266135
1494.000000	0.265808
1493.000000	0.265535
1492.000000	0.264817
1491.000000	0.264302
1490.000000	0.263426
1489.000000	0.262930
1488.000000	0.261900
1487.000000	0.261156
1486.000000	0.260094
1485.000000	0.259264
1484.000000	0.258231
1483.000000	0.257125
1482.000000	0.256532
1481.000000	0.255141
1480.000000	0.253909
1479.000000	0.253154
1478.000000	0.251742
1477.000000	0.250731
1476.000000	0.249735
1475.000000	0.248874
1474.000000	0.247548
1473.000000	0.246729
1472.000000	0.245753
1471.000000	0.244621
1470.000000	0.243627
1469.000000	0.242694
1468.000000	0.241745
1467.000000	0.240760
1466.000000	0.239861
1465.000000	0.238890
1464.000000	0.238251
1463.000000	0.236892
1462.000000	0.236003
1461.000000	0.235263
1460.000000	0.234169
1459.000000	0.233011
1458.000000	0.232066
1457.000000	0.231017
1456.000000	0.230024
1455.000000	0.228769
1454.000000	0.227752
1453.000000	0.226530
1452.000000	0.225242
1451.000000	0.224062
1450.000000	0.222741
1449.000000	0.221288
1448.000000	0.219790
1447.000000	0.218601
1446.000000	0.217189
1445.000000	0.215691
1444.000000	0.214280
1443.000000	0.212796
1442.000000	0.211112
1441.000000	0.209492
1440.000000	0.207767
1439.000000	0.205876
1438.000000	0.203961
1437.000000	0.202258
1436.000000	0.200491
1435.000000	0.198496
1434.000000	0.196291
1433.000000	0.194199
1432.000000	0.192104
1431.000000	0.190015
1430.000000	0.187664
1429.000000	0.185266
1428.000000	0.182934
1427.000000	0.180448
1426.000000	0.177950
1425.000000	0.175200
1424.000000	0.172642
1423.000000	0.169929
1422.000000	0.167036
1421.000000	0.164135
1420.000000	0.161241
1419.000000	0.158347
1418.000000	0.155253
1417.000000	0.152193
1416.000000	0.149352
1415.000000	0.146185
1414.000000	0.143082
1413.000000	0.140041
1412.000000	0.136862
1411.000000	0.133779
1410.000000	0.130736
1409.000000	0.127760
1408.000000	0.124714
1407.000000	0.121592
1406.000000	0.118625
1405.000000	0.115859
1404.000000	0.113038
1403.000000	0.110144
1402.000000	0.107433
1401.000000	0.104849
1400.000000	0.102283
1399.000000	0.099790
1398.000000	0.097240
1397.000000	0.094712
1396.000000	0.092362
1395.000000	0.090051
1394.000000	0.087842
1393.000000	0.085629
1392.000000	0.083458
1391.000000	0.081331
1390.000000	0.079323
1389.000000	0.077405
1388.000000	0.075506
1387.000000	0.073879
1386.000000	0.072330
1385.000000	0.070704
1384.000000	0.069218
1383.000000	0.067780
1382.000000	0.066427
1381.000000	0.065252
1380.000000	0.064132
1379.000000	0.063005
1378.000000	0.061913
1377.000000	0.060941
1376.000000	0.059924
1375.000000	0.059049
1374.000000	0.058246
1373.000000	0.057314
1372.000000	0.056489
1371.000000	0.055708
1370.000000	0.054863
1369.000000	0.054133
1368.000000	0.053453
1367.000000	0.052609
1366.000000	0.051767
1365.000000	0.051055
1364.000000	0.050241
1363.000000	0.049375
1362.000000	0.048587
1361.000000	0.047605
1360.000000	0.046671
1359.000000	0.045773
1358.000000	0.044943
1357.000000	0.044222
1356.000000	0.043214
1355.000000	0.042256
1354.000000	0.041480
1353.000000	0.040507
1352.000000	0.039708
1351.000000	0.038856
1350.000000	0.037879
1349.000000	0.037069
1348.000000	0.036297
1347.000000	0.035426
1346.000000	0.034522
1345.000000	0.033803
1344.000000	0.033006
1343.000000	0.032203
1342.000000	0.031467
1341.000000	0.030785
1340.000000	0.030091
1339.000000	0.029357
1338.000000	0.028726
1337.000000	0.028040
1336.000000	0.027428
1335.000000	0.027041
1334.000000	0.026456
1333.000000	0.025883
1332.000000	0.025382
1331.000000	0.024780
1330.000000	0.024373
1329.000000	0.023977
1328.000000	0.023561
1327.000000	0.023005
1326.000000	0.022721
1325.000000	0.022555
1324.000000	0.022078
1323.000000	0.021916
1322.000000	0.021654
1321.000000	0.021266
1320.000000	0.021141
1319.000000	0.020882
1318.000000	0.020652
1317.000000	0.020436
1316.000000	0.020069
1315.000000	0.020039
1314.000000	0.019887
1313.000000	0.019488
1312.000000	0.019359
1311.000000	0.019224
1310.000000	0.019021
1309.000000	0.018982
1308.000000	0.018867
1307.000000	0.018587
1306.000000	0.018386
1305.000000	0.018203
1304.000000	0.018122
1303.000000	0.017930
1302.000000	0.017846
1301.000000	0.017784
1300.000000	0.017873
1299.000000	0.017803
1298.000000	0.017764
1297.000000	0.017787
1296.000000	0.017671
1295.000000	0.017774
1294.000000	0.017885
1293.000000	0.017850
1292.000000	0.017946
1291.000000	0.018151
1290.000000	0.018056
1289.000000	0.018130
1288.000000	0.018268
1287.000000	0.018374
1286.000000	0.018413
1285.000000	0.018501
1284.000000	0.018579
1283.000000	0.018559
1282.000000	0.018487
1281.000000	0.018598
1280.000000	0.018698
1279.000000	0.018670
1278.000000	0.018860
1277.000000	0.018820
1276.000000	0.018705
1275.000000	0.018740
1274.000000	0.018668
1273.000000	0.018539
1272.000000	0.018610
1271.000000	0.018578
1270.000000	0.018522
1269.000000	0.018466
1268.000000	0.018298
1267.000000	0.018075
1266.000000	0.018099
1265.000000	0.018052
1264.000000	0.017878
1263.000000	0.017894
1262.000000	0.017762
1261.000000	0.017479
1260.000000	0.017297
1259.000000	0.017339
1258.000000	0.017342
1257.000000	0.017383
1256.000000	0.017235
1255.000000	0.017120
1254.000000	0.017090
1253.000000	0.017041
1252.000000	0.016978
1251.000000	0.017019
1250.000000	0.017115
1249.000000	0.017219
1248.000000	0.017312
1247.000000	0.017401
1246.000000	0.017591
1245.000000	0.017773
1244.000000	0.017940
1243.000000	0.018195
1242.000000	0.018540
1241.000000	0.018685
1240.000000	0.018913
1239.000000	0.019284
1238.000000	0.019436
1237.000000	0.019838
1236.000000	0.020197
1235.000000	0.020588
1234.000000	0.020866
1233.000000	0.021122
1232.000000	0.021365
1231.000000	0.021654
1230.000000	0.022004
1229.000000	0.022207
1228.000000	0.022578
1227.000000	0.022811
1226.000000	0.023144
1225.000000	0.023389
1224.000000	0.023596
1223.000000	0.023836
1222.000000	0.024276
1221.000000	0.024684
1220.000000	0.024992
1219.000000	0.025226
1218.000000	0.025580
1217.000000	0.025953
1216.000000	0.026224
1215.000000	0.026728
1214.000000	0.027267
1213.000000	0.027535
1212.000000	0.027939
1211.000000	0.028509
1210.000000	0.028929
1209.000000	0.029347
1208.000000	0.029957
1207.000000	0.030535
1206.000000	0.031046
1205.000000	0.031535
1204.000000	0.032186
1203.000000	0.032698
1202.000000	0.033126
1201.000000	0.033633
1200.000000	0.034218
1199.000000	0.034665
1198.000000	0.035160
1197.000000	0.035597
1196.000000	0.035951
1195.000000	0.036373
1194.000000	0.036851
1193.000000	0.037206
1192.000000	0.037459
1191.000000	0.037712
1190.000000	0.037969
1189.000000	0.038033
1188.000000	0.038153
1187.000000	0.038278
1186.000000	0.038262
1185.000000	0.038171
1184.000000	0.038018
1183.000000	0.037854
1182.000000	0.037538
1181.000000	0.037247
1180.000000	0.036919
1179.000000	0.036424
1178.000000	0.035876
1177.000000	0.035304
1176.000000	0.034776
1175.000000	0.034047
1174.000000	0.033218
1173.000000	0.032399
1172.000000	0.031501
1171.000000	0.030679
1170.000000	0.029753
1169.000000	0.028747
1168.000000	0.027780
1167.000000	0.026746
1166.000000	0.025711
1165.000000	0.024628
1164.000000	0.023601
1163.000000	0.022627
1162.000000	0.021633
1161.000000	0.020597
1160.000000	0.019605
1159.000000	0.018614
1158.000000	0.017610
1157.000000	0.016682
1156.000000	0.015814
1155.000000	0.014931
1154.000000	0.014051
1153.000000	0.013268
1152.000000	0.012540
1151.000000	0.011824
1150.000000	0.011084
1149.000000	0.010393
1148.000000	0.009761
1147.000000	0.009091
1146.000000	0.008405
1145.000000	0.007745
1144.000000	0.007192
1143.000000	0.006612
1142.000000	0.005967
1141.000000	0.005358
1140.000000	0.004758
1139.000000	0.004174
1138.000000	0.003595
1137.000000	0.003102
1136.000000	0.002643
1135.000000	0.002123
1134.000000	0.001603
1133.000000	0.001101
1132.000000	0.000729
1131.000000	0.000356
1130.000000	-0.000025
1129.000000	-0.000399
1128.000000	-0.000777
1127.000000	-0.001101
1126.000000	-0.001390
1125.000000	-0.001670
1124.000000	-0.001901
1123.000000	-0.002109
1122.000000	-0.002315
1121.000000	-0.002475
1120.000000	-0.002665
1119.000000	-0.002810
1118.000000	-0.002897
1117.000000	-0.002968
1116.000000	-0.003079
1115.000000	-0.003186
1114.000000	-0.003189
1113.000000	-0.003314
1112.000000	-0.003339
1111.000000	-0.003422
1110.000000	-0.003408
1109.000000	-0.003510
1108.000000	-0.003558
1107.000000	-0.003601
1106.000000	-0.003594
1105.000000	-0.003565
1104.000000	-0.003621
1103.000000	-0.003608
1102.000000	-0.003595
1101.000000	-0.003634
1100.000000	-0.003750
1099.000000	-0.003841
1098.000000	-0.003844
1097.000000	-0.003738
1096.000000	-0.003779
1095.000000	-0.003758
1094.000000	-0.003755
1093.000000	-0.003802
1092.000000	-0.003807
1091.000000	-0.003743
1090.000000	-0.003911
1089.000000	-0.003811
1088.000000	-0.003666
1087.000000	-0.003712
1086.000000	-0.003678
1085.000000	-0.003633
1084.000000	-0.003561
1083.000000	-0.003487
1082.000000	-0.003425
1081.000000	-0.003458
1080.000000	-0.003439
1079.000000	-0.003300
1078.000000	-0.003244
1077.000000	-0.003218
1076.000000	-0.003056
1075.000000	-0.002976
1074.000000	-0.002862
1073.000000	-0.002895
1072.000000	-0.002895
1071.000000	-0.002771
1070.000000	-0.002628
1069.000000	-0.002449
1068.000000	-0.002401
1067.000000	-0.002424
1066.000000	-0.002208
1065.000000	-0.002184
1064.000000	-0.002136
1063.000000	-0.001850
1062.000000	-0.001777
1061.000000	-0.001717
1060.000000	-0.001622
1059.000000	-0.001567
1058.000000	-0.001414
1057.000000	-0.001407
1056.000000	-0.001321
1055.000000	-0.001141
1054.000000	-0.001084
1053.000000	-0.000986
1052.000000	-0.000876
1051.000000	-0.000693
1050.000000	-0.000682
1049.000000	-0.000540
1048.000000	-0.000429
1047.000000	-0.000428
1046.000000	-0.000189
1045.000000	-0.000189
1044.000000	-0.000215
1043.000000	0.000069
1042.000000	0.000012
1041.000000	0.000140
1040.000000	0.000089
1039.000000	0.000225
1038.000000	0.000309
1037.000000	0.000291
1036.000000	0.000401
1035.000000	0.000475
1034.000000	0.000549
1033.000000	0.000502
1032.000000	0.000512
1031.000000	0.000682
1030.000000	0.000679
1029.000000	0.000703
1028.000000	0.000670
1027.000000	0.000715
1026.000000	0.000756
1025.000000	0.000820
1024.000000	0.000801
1023.000000	0.000821
1022.000000	0.000845
1021.000000	0.000783
1020.000000	0.000740
1019.000000	0.000739
1018.000000	0.000669
1017.000000	0.000753
1016.000000	0.000677
1015.000000	0.000707
1014.000000	0.000598
1013.000000	0.000557
1012.000000	0.000543
1011.000000	0.000390
1010.000000	0.000242
1009.000000	0.000259
1008.000000	0.000239
1007.000000	0.000122
1006.000000	0.000102
1005.000000	-0.000129
1004.000000	-0.000128
1003.000000	-0.000180
1002.000000	-0.000274
1001.000000	-0.000297
1000.000000	-0.000368
999.000000	-0.000516
998.000000	-0.000475
997.000000	-0.000510
996.000000	-0.000692
995.000000	-0.000771
994.000000	-0.000831
993.000000	-0.000948
992.000000	-0.000953
991.000000	-0.000958
990.000000	-0.001060
989.000000	-0.001136
988.000000	-0.001218
987.000000	-0.001240
986.000000	-0.001297
985.000000	-0.001409
984.000000	-0.001530
983.000000	-0.001558
982.000000	-0.001605
981.000000	-0.001686
980.000000	-0.001759
979.000000	-0.002054
978.000000	-0.002035
977.000000	-0.002108
976.000000	-0.002214
975.000000	-0.002329
974.000000	-0.002366
973.000000	-0.002510
972.000000	-0.002672
971.000000	-0.002635
970.000000	-0.002710
969.000000	-0.002807
968.000000	-0.003004
967.000000	-0.003192
966.000000	-0.003213
965.000000	-0.003206
964.000000	-0.003310
963.000000	-0.003456
962.000000	-0.003561
961.000000	-0.003590
960.000000	-0.003642
959.000000	-0.003703
958.000000	-0.003864
957.000000	-0.004008
956.000000	-0.004057
955.000000	-0.004154
954.000000	-0.004246
953.000000	-0.004249
952.000000	-0.004336
951.000000	-0.004409
950.000000	-0.004429
949.000000	-0.004546
948.000000	-0.004625
947.000000	-0.004799
946.000000	-0.004891
945.000000	-0.004825
944.000000	-0.004799
943.000000	-0.004937
942.000000	-0.005039
941.000000	-0.004940
940.000000	-0.004848
939.000000	-0.004814
938.000000	-0.004915
937.000000	-0.004926
936.000000	-0.004884
935.000000	-0.004880
934.000000	-0.004909
933.000000	-0.004814
932.000000	-0.004717
931.000000	-0.004926
930.000000	-0.005015
929.000000	-0.004853
928.000000	-0.004866
927.000000	-0.004772
926.000000	-0.004580
925.000000	-0.004515
924.000000	-0.004563
923.000000	-0.004453
922.000000	-0.004421
921.000000	-0.004348
920.000000	-0.004137
919.000000	-0.004208
918.000000	-0.004045
917.000000	-0.003940
916.000000	-0.004026
915.000000	-0.003907
914.000000	-0.003801
913.000000	-0.003868
912.000000	-0.003912
911.000000	-0.003907
910.000000	-0.003910
909.000000	-0.003803
908.000000	-0.003778
907.000000	-0.003737
906.000000	-0.003792
905.000000	-0.003836
904.000000	-0.003778
903.000000	-0.004077
902.000000	-0.004188
901.000000	-0.004277
900.000000	-0.004104
899.000000	-0.003981
898.000000	-0.004277
897.000000	-0.004246
896.000000	-0.003893
895.000000	-0.004311
894.000000	-0.004644
893.000000	-0.004552
892.000000	-0.004230
891.000000	-0.004402
890.000000	-0.004478
889.000000	-0.004608
888.000000	-0.004803
887.000000	-0.004892
886.000000	-0.005187
885.000000	-0.005208
884.000000	-0.005311
883.000000	-0.005392
882.000000	-0.004763
881.000000	-0.004657
880.000000	-0.005453
879.000000	-0.005787
878.000000	-0.005382
877.000000	-0.004912
876.000000	-0.005068
875.000000	-0.004850
874.000000	-0.005205
873.000000	-0.005148
872.000000	-0.005578
871.000000	-0.005432
870.000000	-0.005390
869.000000	-0.005674
868.000000	-0.005809
867.000000	-0.005723
866.000000	-0.005474
865.000000	-0.005925
864.000000	-0.005988
863.000000	-0.005875
862.000000	-0.005494
861.000000	-0.005522
860.000000	-0.005385
859.000000	-0.005197
858.000000	-0.003932
857.000000	-0.008252
856.000000	-0.005947
855.000000	-0.006652
854.000000	-0.004689
853.000000	-0.002788
852.000000	-0.004233
851.000000	-0.003856
850.000000	-0.005552
849.000000	-0.005696
848.000000	-0.003757
847.000000	-0.003373
846.000000	-0.005962
845.000000	-0.006057
844.000000	-0.004337
843.000000	-0.005703
842.000000	-0.004627
841.000000	-0.005180
840.000000	-0.004668
839.000000	-0.003659
838.000000	-0.004642
837.000000	-0.004713
836.000000	-0.004003
835.000000	-0.005036
834.000000	-0.006498
833.000000	-0.005195
832.000000	-0.003907
831.000000	-0.003836
830.000000	-0.004135
829.000000	-0.004205
828.000000	-0.005423
827.000000	-0.003957
826.000000	-0.005194
825.000000	-0.004833
824.000000	-0.004581
823.000000	-0.004436
822.000000	-0.005042
821.000000	-0.003868
820.000000	-0.004727
819.000000	-0.004061
818.000000	-0.003145
817.000000	-0.004026
816.000000	-0.003602
815.000000	-0.004598
814.000000	-0.004180
813.000000	-0.003727
812.000000	-0.004153
811.000000	-0.004101
810.000000	-0.002778
809.000000	-0.002872
808.000000	-0.003422
807.000000	-0.002865
806.000000	-0.003215
805.000000	-0.002582
804.000000	-0.004088
803.000000	-0.003153
802.000000	-0.002525
801.000000	-0.003395
800.000000	-0.003110
799.000000	-0.002087
798.000000	-0.004032
797.000000	-0.002899
796.000000	-0.002668
795.000000	-0.002758
794.000000	-0.002355
793.000000	-0.001950
792.000000	-0.002075
791.000000	-0.001918
790.000000	-0.001887
789.000000	-0.002013
788.000000	-0.002713
787.000000	-0.002191
786.000000	-0.002087
785.000000	-0.001858
784.000000	-0.001718
783.000000	-0.001937
782.000000	-0.001394
781.000000	-0.000641
780.000000	-0.001008
779.000000	-0.001110
778.000000	-0.000261
777.000000	-0.000736
776.000000	-0.000411
775.000000	-0.000536
774.000000	-0.000831
773.000000	-0.001027
772.000000	-0.000173
771.000000	-0.000236
770.000000	-0.000136
769.000000	-0.000042
768.000000	-0.000035
767.000000	0.000205
766.000000	0.000270
765.000000	0.000754
764.000000	0.000498
763.000000	-0.000496
762.000000	-0.000361
761.000000	0.000005
760.000000	0.000907
759.000000	0.001439
758.000000	0.001019
757.000000	0.000540
756.000000	0.001481
755.000000	0.001995
754.000000	0.002431
753.000000	0.001683
752.000000	0.001929
751.000000	0.002465
750.000000	0.002339
749.000000	0.002479
748.000000	0.002356
747.000000	0.002283
746.000000	0.003105
745.000000	0.002875
744.000000	0.002821
743.000000	0.002976
742.000000	0.002880
741.000000	0.003384
740.000000	0.003364
739.000000	0.003413
738.000000	0.003435
737.000000	0.003724
736.000000	0.003369
735.000000	0.003886
734.000000	0.004688
733.000000	0.004818
732.000000	0.004552
731.000000	0.004648
730.000000	0.005182
729.000000	0.005100
728.000000	0.005397
727.000000	0.005369
726.000000	0.005789
725.000000	0.006076
724.000000	0.006263
723.000000	0.006706
722.000000	0.007010
721.000000	0.006547
720.000000	0.006865
719.000000	0.007490
718.000000	0.007485
717.000000	0.007909
716.000000	0.008123
715.000000	0.007816
714.000000	0.007979
713.000000	0.008507
712.000000	0.008568
711.000000	0.008703
710.000000	0.008931
709.000000	0.008847
708.000000	0.008854
707.000000	0.009417
706.000000	0.010164
705.000000	0.010421
704.000000	0.010477
703.000000	0.010480
702.000000	0.010938
701.000000	0.011424
700.000000	0.011495
699.000000	0.011671
698.000000	0.012419
697.000000	0.012646
696.000000	0.012687
695.000000	0.012496
694.000000	0.012342
693.000000	0.012960
692.000000	0.013583
691.000000	0.014079
690.000000	0.014781
689.000000	0.014881
688.000000	0.014792
687.000000	0.015451
686.000000	0.015543
685.000000	0.015163
684.000000	0.015945
683.000000	0.016826
682.000000	0.017227
681.000000	0.017664
680.000000	0.017796
679.000000	0.018050
678.000000	0.018799
677.000000	0.019243
676.000000	0.019416
675.000000	0.019542
674.000000	0.019805
673.000000	0.020215
672.000000	0.020769
671.000000	0.021076
670.000000	0.021478
669.000000	0.021671
668.000000	0.022018
667.000000	0.022755
666.000000	0.022925
665.000000	0.023288
664.000000	0.023699
663.000000	0.023897
662.000000	0.024804
661.000000	0.025184
660.000000	0.025627
659.000000	0.025932
658.000000	0.026460
657.000000	0.027022
656.000000	0.027235
655.000000	0.028060
654.000000	0.028575
653.000000	0.028523
652.000000	0.029596
651.000000	0.030190
650.000000	0.030440
649.000000	0.030466
648.000000	0.031286
647.000000	0.032358
646.000000	0.032809
645.000000	0.032998
644.000000	0.033313
643.000000	0.033575
642.000000	0.034449
641.000000	0.035309
640.000000	0.035709
639.000000	0.036084
638.000000	0.036541
637.000000	0.037458
636.000000	0.038152
635.000000	0.038537
634.000000	0.039265
633.000000	0.039723
632.000000	0.040564
631.000000	0.040942
630.000000	0.041258
629.000000	0.041910
628.000000	0.043016
627.000000	0.043382
626.000000	0.044350
625.000000	0.044112
624.000000	0.045521
623.000000	0.045769
622.000000	0.046253
621.000000	0.047198
620.000000	0.047432
619.000000	0.047991
618.000000	0.048606
617.000000	0.049206
616.000000	0.050191
615.000000	0.050495
614.000000	0.051415
613.000000	0.051091
612.000000	0.051803
611.000000	0.052303
610.000000	0.053477
609.000000	0.054037
608.000000	0.054429
607.000000	0.055046
606.000000	0.055269
605.000000	0.056197
604.000000	0.056700
603.000000	0.057386
602.000000	0.057629
601.000000	0.057986
600.000000	0.058961
599.000000	0.059405
598.000000	0.060349
597.000000	0.060804
596.000000	0.061264
595.000000	0.061748
594.000000	0.062494
593.000000	0.063438
592.000000	0.063213
591.000000	0.064312
590.000000	0.064563
589.000000	0.065445
588.000000	0.065489
587.000000	0.066878
586.000000	0.067476
585.000000	0.067587
584.000000	0.068260
583.000000	0.069309
582.000000	0.069876
581.000000	0.070100
580.000000	0.071110
579.000000	0.071822
578.000000	0.072239
577.000000	0.072543
576.000000	0.073509
575.000000	0.074128
574.000000	0.074807
573.000000	0.075658
572.000000	0.075823
571.000000	0.076994
570.000000	0.077264
569.000000	0.078050
568.000000	0.078942
567.000000	0.079110
566.000000	0.080096
565.000000	0.080552
564.000000	0.081014
563.000000	0.081739
562.000000	0.082491
561.000000	0.082999
560.000000	0.083366
559.000000	0.084116
558.000000	0.085074
557.000000	0.085689
556.000000	0.085949
555.000000	0.087357
554.000000	0.087775
553.000000	0.088223
552.000000	0.089246
551.000000	0.090013
550.000000	0.090774
549.000000	0.091117
548.000000	0.092362
547.000000	0.093353
546.000000	0.093671
545.000000	0.094963
544.000000	0.095327
543.000000	0.096304
542.000000	0.097001
541.000000	0.097965
540.000000	0.098741
539.000000	0.099669
538.000000	0.100522
537.000000	0.101755
536.000000	0.102411
535.000000	0.103343
534.000000	0.104062
533.000000	0.104943
532.000000	0.105758
531.000000	0.106315
530.000000	0.107178
529.000000	0.107887
528.000000	0.108847
527.000000	0.109814
526.000000	0.110781
525.000000	0.111592
524.000000	0.112226
523.000000	0.113564
522.000000	0.114442
521.000000	0.115286
520.000000	0.116254
519.000000	0.117189
518.000000	0.118296
517.000000	0.119080
516.000000	0.120204
515.000000	0.120967
514.000000	0.121904
513.000000	0.122964
512.000000	0.124037
511.000000	0.125351
510.000000	0.126451
509.000000	0.127611
508.000000	0.128631
507.000000	0.129923
506.000000	0.131183
505.000000	0.132342
504.000000	0.133603
503.000000	0.134760
502.000000	0.135939
501.000000	0.137616
500.000000	0.139456
499.000000	0.140612
498.000000	0.142332
497.000000	0.143834
496.000000	0.145157
495.000000	0.146769
494.000000	0.148542
493.000000	0.149796
492.000000	0.151074
491.000000	0.153013
490.000000	0.155160
489.000000	0.156902
488.000000	0.158488
487.000000	0.159734
486.000000	0.161983
485.000000	0.163920
484.000000	0.165644
483.000000	0.167307
482.000000	0.169336
481.000000	0.170872
480.000000	0.172768
479.000000	0.174882
478.000000	0.177163
477.000000	0.179145
476.000000	0.181498
475.000000	0.183476
474.000000	0.185214
473.000000	0.187537
472.000000	0.190083
471.000000	0.192475
470.000000	0.195027
469.000000	0.197096
468.000000	0.199382
467.000000	0.201752
466.000000	0.204207
465.000000	0.206897
464.000000	0.209357
463.000000	0.212317
462.000000	0.215242
461.000000	0.217376
460.000000	0.219960
459.000000	0.223042
458.000000	0.226231
457.000000	0.229330
456.000000	0.232104
455.000000	0.235496
454.000000	0.238873
453.000000	0.241922
452.000000	0.245303
451.000000	0.248151
450.000000	0.251221
449.000000	0.255007
448.000000	0.258308
447.000000	0.261883
446.000000	0.265571
445.000000	0.269117
444.000000	0.272733
443.000000	0.275863
442.000000	0.279292
441.000000	0.283036
440.000000	0.286996
439.000000	0.291611
438.000000	0.295430
437.000000	0.298914
436.000000	0.303103
435.000000	0.307362
434.000000	0.311628
433.000000	0.315871
432.000000	0.320115
431.000000	0.324527
430.000000	0.329475
429.000000	0.334118
428.000000	0.338727
427.000000	0.343220
426.000000	0.348513
425.000000	0.353903
424.000000	0.358936
423.000000	0.363844
422.000000	0.368820
421.000000	0.373401
420.000000	0.378999
419.000000	0.383812
418.000000	0.388317
417.000000	0.393188
416.000000	0.398487
415.000000	0.403006
414.000000	0.407568
413.000000	0.411688
412.000000	0.414986
411.000000	0.418360
410.000000	0.421333
409.000000	0.424609
408.000000	0.427143
407.000000	0.429414
406.000000	0.430833
405.000000	0.433022
404.000000	0.434865
403.000000	0.437158
402.000000	0.438838
401.000000	0.440027
400.000000	0.442156
399.000000	0.443877
398.000000	0.445105
397.000000	0.446820
396.000000	0.448216
395.000000	0.449809
394.000000	0.451489
393.000000	0.452694
392.000000	0.453975
391.000000	0.455443
390.000000	0.457436
389.000000	0.460248
388.000000	0.462427
387.000000	0.464288
386.000000	0.465928
385.000000	0.468352
384.000000	0.472076
383.000000	0.474734
382.000000	0.477169
381.000000	0.480950
380.000000	0.484162
379.000000	0.486748
378.000000	0.491602
377.000000	0.494285
376.000000	0.497756
375.000000	0.501776
374.000000	0.504246
373.000000	0.507027
372.000000	0.511137
371.000000	0.514762
370.000000	0.517862
369.000000	0.522995
368.000000	0.525301
367.000000	0.528576
366.000000	0.533457
365.000000	0.536588
364.000000	0.539510
363.000000	0.543460
362.000000	0.548092
361.000000	0.550768
360.000000	0.556466
359.000000	0.557788
358.000000	0.562137
357.000000	0.566995
356.000000	0.570190
355.000000	0.573085
354.000000	0.577097
353.000000	0.583415
352.000000	0.584189
351.000000	0.590253
350.000000	0.592065
349.000000	0.598505
348.000000	0.601221
347.000000	0.604668
346.000000	0.610111
345.000000	0.611444
344.000000	0.617510
343.000000	0.622829
342.000000	0.626261
341.000000	0.627498
340.000000	0.631162
339.000000	0.635535
338.000000	0.638826
337.000000	0.643935
336.000000	0.649597
335.000000	0.654680
334.000000	0.656342
333.000000	0.660371
332.000000	0.665204
331.000000	0.666939
330.000000	0.672221
329.000000	0.676865
328.000000	0.681097
327.000000	0.682028
326.000000	0.686183
325.000000	0.691895
324.000000	0.696132
323.000000	0.698143
322.000000	0.702917
321.000000	0.702815
320.000000	0.707625
319.000000	0.714988
318.000000	0.714074
317.000000	0.718501
316.000000	0.720991
315.000000	0.726879
314.000000	0.735228
313.000000	0.739105
312.000000	0.740727
311.000000	0.745773
310.000000	0.752298
309.000000	0.756258
308.000000	0.760329
307.000000	0.764751
306.000000	0.771847
305.000000	0.776044
304.000000	0.782968
303.000000	0.791990
302.000000	0.800619
301.000000	0.805961
300.000000	0.812067
299.000000	0.820836
298.000000	0.828229
297.000000	0.843819
296.000000	0.854400
295.000000	0.870860
294.000000	0.888103
293.000000	0.903181
292.000000	0.921464
291.000000	0.937224
290.000000	0.950964
289.000000	0.963544
288.000000	0.970359
287.000000	0.976252
286.000000	0.975207
285.000000	0.974547
284.000000	0.970272
283.000000	0.969981
282.000000	0.964609
281.000000	0.965908
280.000000	0.960655
279.000000	0.960189
278.000000	0.957668
277.000000	0.954275
276.000000	0.950040
275.000000	0.942712
274.000000	0.941036
273.000000	0.936133
272.000000	0.931399
271.000000	0.929423
270.000000	0.926042
269.000000	0.925473
268.000000	0.924643
267.000000	0.918714
266.000000	0.912243
265.000000	0.910284
264.000000	0.907592
263.000000	0.900742
262.000000	0.894387
261.000000	0.890661
260.000000	0.887517
259.000000	0.882073
258.000000	0.879213
257.000000	0.872177
256.000000	0.867247
255.000000	0.864662
254.000000	0.863751
253.000000	0.863389
252.000000	0.864125
251.000000	0.864643
250.000000	0.866215
249.000000	0.869954
248.000000	0.874799
247.000000	0.880097
246.000000	0.889092
245.000000	0.899428
244.000000	0.904774
243.000000	0.908714
242.000000	0.912560
241.000000	0.912329
240.000000	0.916695
239.000000	0.917067
238.000000	0.911695
237.000000	0.908674
236.000000	0.907738
235.000000	0.904993
234.000000	0.898122
233.000000	0.894674
232.000000	0.890362
231.000000	0.887397
230.000000	0.888514
229.000000	0.883983
228.000000	0.881076
227.000000	0.882120
226.000000	0.881255
225.000000	0.878594
224.000000	0.878655
223.000000	0.876864
222.000000	0.869705
221.000000	0.864090
220.000000	0.860275
219.000000	0.856832
218.000000	0.851579
217.000000	0.845895
216.000000	0.843655
215.000000	0.839659
214.000000	0.835625
213.000000	0.832310
212.000000	0.827926
211.000000	0.819444
210.000000	0.807094
209.000000	0.799597
208.000000	0.794562
207.000000	0.786798
206.000000	0.779439
205.000000	0.770042
204.000000	0.757705
203.000000	0.744385
202.000000	0.731048
201.000000	0.719689
200.000000	0.717722
