PE IR       SUBTECH     SPECTRUM    ASCII       PEDS        4.00        
   -1
P3-Bleu045_1.ASC
23/06/13
11:59:55.00
23/06/13
12:04:49.00
uco
Sample 045 By uco Date Tuesday, June 13 2023
450.000000
#HDR
-1
-1
#GR
cm-1
A
1.0
0.0
4000.000000
-1.000000
3551
8
0.006480
-0.001505
#DATA
4000.000000	-0.000880
3999.000000	-0.000862
3998.000000	-0.000842
3997.000000	-0.000829
3996.000000	-0.000820
3995.000000	-0.000806
3994.000000	-0.000788
3993.000000	-0.000774
3992.000000	-0.000775
3991.000000	-0.000788
3990.000000	-0.000801
3989.000000	-0.000802
3988.000000	-0.000796
3987.000000	-0.000793
3986.000000	-0.000803
3985.000000	-0.000821
3984.000000	-0.000836
3983.000000	-0.000840
3982.000000	-0.000831
3981.000000	-0.000814
3980.000000	-0.000796
3979.000000	-0.000780
3978.000000	-0.000770
3977.000000	-0.000767
3976.000000	-0.000770
3975.000000	-0.000779
3974.000000	-0.000791
3973.000000	-0.000802
3972.000000	-0.000807
3971.000000	-0.000805
3970.000000	-0.000796
3969.000000	-0.000784
3968.000000	-0.000769
3967.000000	-0.000748
3966.000000	-0.000724
3965.000000	-0.000706
3964.000000	-0.000701
3963.000000	-0.000712
3962.000000	-0.000734
3961.000000	-0.000760
3960.000000	-0.000785
3959.000000	-0.000804
3958.000000	-0.000814
3957.000000	-0.000815
3956.000000	-0.000808
3955.000000	-0.000799
3954.000000	-0.000786
3953.000000	-0.000767
3952.000000	-0.000743
3951.000000	-0.000724
3950.000000	-0.000728
3949.000000	-0.000762
3948.000000	-0.000811
3947.000000	-0.000848
3946.000000	-0.000854
3945.000000	-0.000826
3944.000000	-0.000778
3943.000000	-0.000730
3942.000000	-0.000702
3941.000000	-0.000702
3940.000000	-0.000723
3939.000000	-0.000752
3938.000000	-0.000777
3937.000000	-0.000795
3936.000000	-0.000806
3935.000000	-0.000811
3934.000000	-0.000802
3933.000000	-0.000774
3932.000000	-0.000735
3931.000000	-0.000704
3930.000000	-0.000696
3929.000000	-0.000705
3928.000000	-0.000710
3927.000000	-0.000697
3926.000000	-0.000674
3925.000000	-0.000663
3924.000000	-0.000677
3923.000000	-0.000711
3922.000000	-0.000750
3921.000000	-0.000784
3920.000000	-0.000811
3919.000000	-0.000830
3918.000000	-0.000835
3917.000000	-0.000817
3916.000000	-0.000778
3915.000000	-0.000731
3914.000000	-0.000686
3913.000000	-0.000650
3912.000000	-0.000626
3911.000000	-0.000613
3910.000000	-0.000605
3909.000000	-0.000600
3908.000000	-0.000604
3907.000000	-0.000625
3906.000000	-0.000678
3905.000000	-0.000765
3904.000000	-0.000861
3903.000000	-0.000920
3902.000000	-0.000912
3901.000000	-0.000854
3900.000000	-0.000786
3899.000000	-0.000740
3898.000000	-0.000724
3897.000000	-0.000724
3896.000000	-0.000730
3895.000000	-0.000736
3894.000000	-0.000736
3893.000000	-0.000729
3892.000000	-0.000722
3891.000000	-0.000725
3890.000000	-0.000741
3889.000000	-0.000763
3888.000000	-0.000779
3887.000000	-0.000780
3886.000000	-0.000768
3885.000000	-0.000764
3884.000000	-0.000780
3883.000000	-0.000800
3882.000000	-0.000803
3881.000000	-0.000787
3880.000000	-0.000766
3879.000000	-0.000752
3878.000000	-0.000740
3877.000000	-0.000718
3876.000000	-0.000678
3875.000000	-0.000632
3874.000000	-0.000610
3873.000000	-0.000630
3872.000000	-0.000682
3871.000000	-0.000738
3870.000000	-0.000776
3869.000000	-0.000792
3868.000000	-0.000792
3867.000000	-0.000785
3866.000000	-0.000772
3865.000000	-0.000756
3864.000000	-0.000745
3863.000000	-0.000740
3862.000000	-0.000732
3861.000000	-0.000719
3860.000000	-0.000707
3859.000000	-0.000707
3858.000000	-0.000719
3857.000000	-0.000736
3856.000000	-0.000748
3855.000000	-0.000744
3854.000000	-0.000749
3853.000000	-0.000775
3852.000000	-0.000785
3851.000000	-0.000770
3850.000000	-0.000755
3849.000000	-0.000742
3848.000000	-0.000730
3847.000000	-0.000713
3846.000000	-0.000688
3845.000000	-0.000657
3844.000000	-0.000629
3843.000000	-0.000617
3842.000000	-0.000623
3841.000000	-0.000638
3840.000000	-0.000647
3839.000000	-0.000654
3838.000000	-0.000671
3837.000000	-0.000696
3836.000000	-0.000718
3835.000000	-0.000722
3834.000000	-0.000703
3833.000000	-0.000672
3832.000000	-0.000646
3831.000000	-0.000643
3830.000000	-0.000661
3829.000000	-0.000684
3828.000000	-0.000694
3827.000000	-0.000690
3826.000000	-0.000690
3825.000000	-0.000711
3824.000000	-0.000744
3823.000000	-0.000759
3822.000000	-0.000734
3821.000000	-0.000696
3820.000000	-0.000676
3819.000000	-0.000678
3818.000000	-0.000681
3817.000000	-0.000673
3816.000000	-0.000647
3815.000000	-0.000613
3814.000000	-0.000585
3813.000000	-0.000574
3812.000000	-0.000585
3811.000000	-0.000616
3810.000000	-0.000660
3809.000000	-0.000698
3808.000000	-0.000714
3807.000000	-0.000707
3806.000000	-0.000693
3805.000000	-0.000685
3804.000000	-0.000676
3803.000000	-0.000653
3802.000000	-0.000614
3801.000000	-0.000573
3800.000000	-0.000548
3799.000000	-0.000541
3798.000000	-0.000550
3797.000000	-0.000569
3796.000000	-0.000591
3795.000000	-0.000607
3794.000000	-0.000612
3793.000000	-0.000613
3792.000000	-0.000609
3791.000000	-0.000596
3790.000000	-0.000567
3789.000000	-0.000524
3788.000000	-0.000477
3787.000000	-0.000441
3786.000000	-0.000425
3785.000000	-0.000427
3784.000000	-0.000441
3783.000000	-0.000460
3782.000000	-0.000478
3781.000000	-0.000496
3780.000000	-0.000515
3779.000000	-0.000538
3778.000000	-0.000561
3777.000000	-0.000578
3776.000000	-0.000589
3775.000000	-0.000593
3774.000000	-0.000593
3773.000000	-0.000599
3772.000000	-0.000622
3771.000000	-0.000666
3770.000000	-0.000720
3769.000000	-0.000761
3768.000000	-0.000771
3767.000000	-0.000746
3766.000000	-0.000699
3765.000000	-0.000644
3764.000000	-0.000601
3763.000000	-0.000579
3762.000000	-0.000576
3761.000000	-0.000582
3760.000000	-0.000594
3759.000000	-0.000616
3758.000000	-0.000644
3757.000000	-0.000671
3756.000000	-0.000695
3755.000000	-0.000717
3754.000000	-0.000746
3753.000000	-0.000793
3752.000000	-0.000862
3751.000000	-0.000926
3750.000000	-0.000942
3749.000000	-0.000906
3748.000000	-0.000865
3747.000000	-0.000849
3746.000000	-0.000846
3745.000000	-0.000826
3744.000000	-0.000781
3743.000000	-0.000741
3742.000000	-0.000746
3741.000000	-0.000797
3740.000000	-0.000865
3739.000000	-0.000921
3738.000000	-0.000942
3737.000000	-0.000922
3736.000000	-0.000874
3735.000000	-0.000831
3734.000000	-0.000817
3733.000000	-0.000821
3732.000000	-0.000815
3731.000000	-0.000792
3730.000000	-0.000765
3729.000000	-0.000744
3728.000000	-0.000729
3727.000000	-0.000714
3726.000000	-0.000702
3725.000000	-0.000698
3724.000000	-0.000693
3723.000000	-0.000673
3722.000000	-0.000642
3721.000000	-0.000615
3720.000000	-0.000603
3719.000000	-0.000608
3718.000000	-0.000625
3717.000000	-0.000647
3716.000000	-0.000671
3715.000000	-0.000694
3714.000000	-0.000707
3713.000000	-0.000701
3712.000000	-0.000677
3711.000000	-0.000651
3710.000000	-0.000631
3709.000000	-0.000613
3708.000000	-0.000591
3707.000000	-0.000562
3706.000000	-0.000540
3705.000000	-0.000538
3704.000000	-0.000559
3703.000000	-0.000592
3702.000000	-0.000617
3701.000000	-0.000617
3700.000000	-0.000588
3699.000000	-0.000546
3698.000000	-0.000514
3697.000000	-0.000504
3696.000000	-0.000518
3695.000000	-0.000550
3694.000000	-0.000589
3693.000000	-0.000625
3692.000000	-0.000650
3691.000000	-0.000666
3690.000000	-0.000680
3689.000000	-0.000688
3688.000000	-0.000676
3687.000000	-0.000656
3686.000000	-0.000651
3685.000000	-0.000656
3684.000000	-0.000655
3683.000000	-0.000636
3682.000000	-0.000599
3681.000000	-0.000562
3680.000000	-0.000547
3679.000000	-0.000562
3678.000000	-0.000596
3677.000000	-0.000622
3676.000000	-0.000634
3675.000000	-0.000658
3674.000000	-0.000705
3673.000000	-0.000757
3672.000000	-0.000790
3671.000000	-0.000780
3670.000000	-0.000734
3669.000000	-0.000684
3668.000000	-0.000648
3667.000000	-0.000623
3666.000000	-0.000604
3665.000000	-0.000584
3664.000000	-0.000557
3663.000000	-0.000521
3662.000000	-0.000485
3661.000000	-0.000463
3660.000000	-0.000465
3659.000000	-0.000484
3658.000000	-0.000511
3657.000000	-0.000536
3656.000000	-0.000564
3655.000000	-0.000604
3654.000000	-0.000661
3653.000000	-0.000727
3652.000000	-0.000791
3651.000000	-0.000846
3650.000000	-0.000897
3649.000000	-0.000931
3648.000000	-0.000911
3647.000000	-0.000833
3646.000000	-0.000734
3645.000000	-0.000643
3644.000000	-0.000571
3643.000000	-0.000518
3642.000000	-0.000478
3641.000000	-0.000450
3640.000000	-0.000426
3639.000000	-0.000404
3638.000000	-0.000386
3637.000000	-0.000384
3636.000000	-0.000405
3635.000000	-0.000444
3634.000000	-0.000493
3633.000000	-0.000548
3632.000000	-0.000600
3631.000000	-0.000632
3630.000000	-0.000629
3629.000000	-0.000606
3628.000000	-0.000588
3627.000000	-0.000587
3626.000000	-0.000597
3625.000000	-0.000609
3624.000000	-0.000609
3623.000000	-0.000590
3622.000000	-0.000553
3621.000000	-0.000506
3620.000000	-0.000465
3619.000000	-0.000449
3618.000000	-0.000462
3617.000000	-0.000487
3616.000000	-0.000512
3615.000000	-0.000527
3614.000000	-0.000536
3613.000000	-0.000550
3612.000000	-0.000573
3611.000000	-0.000590
3610.000000	-0.000571
3609.000000	-0.000502
3608.000000	-0.000406
3607.000000	-0.000334
3606.000000	-0.000312
3605.000000	-0.000330
3604.000000	-0.000357
3603.000000	-0.000373
3602.000000	-0.000372
3601.000000	-0.000361
3600.000000	-0.000347
3599.000000	-0.000334
3598.000000	-0.000316
3597.000000	-0.000288
3596.000000	-0.000249
3595.000000	-0.000211
3594.000000	-0.000189
3593.000000	-0.000189
3592.000000	-0.000207
3591.000000	-0.000230
3590.000000	-0.000248
3589.000000	-0.000255
3588.000000	-0.000253
3587.000000	-0.000242
3586.000000	-0.000218
3585.000000	-0.000180
3584.000000	-0.000134
3583.000000	-0.000091
3582.000000	-0.000060
3581.000000	-0.000041
3580.000000	-0.000031
3579.000000	-0.000021
3578.000000	-0.000009
3577.000000	-0.000001
3576.000000	-0.000004
3575.000000	-0.000014
3574.000000	-0.000021
3573.000000	-0.000017
3572.000000	-0.000007
3571.000000	-0.000006
3570.000000	-0.000018
3569.000000	-0.000029
3568.000000	-0.000012
3567.000000	0.000047
3566.000000	0.000131
3565.000000	0.000199
3564.000000	0.000227
3563.000000	0.000223
3562.000000	0.000207
3561.000000	0.000194
3560.000000	0.000185
3559.000000	0.000176
3558.000000	0.000166
3557.000000	0.000165
3556.000000	0.000180
3555.000000	0.000209
3554.000000	0.000245
3553.000000	0.000279
3552.000000	0.000303
3551.000000	0.000311
3550.000000	0.000302
3549.000000	0.000283
3548.000000	0.000266
3547.000000	0.000263
3546.000000	0.000281
3545.000000	0.000318
3544.000000	0.000366
3543.000000	0.000413
3542.000000	0.000450
3541.000000	0.000471
3540.000000	0.000478
3539.000000	0.000475
3538.000000	0.000476
3537.000000	0.000488
3536.000000	0.000515
3535.000000	0.000551
3534.000000	0.000585
3533.000000	0.000604
3532.000000	0.000603
3531.000000	0.000590
3530.000000	0.000575
3529.000000	0.000563
3528.000000	0.000550
3527.000000	0.000534
3526.000000	0.000519
3525.000000	0.000518
3524.000000	0.000541
3523.000000	0.000583
3522.000000	0.000624
3521.000000	0.000643
3520.000000	0.000639
3519.000000	0.000629
3518.000000	0.000633
3517.000000	0.000654
3516.000000	0.000680
3515.000000	0.000693
3514.000000	0.000688
3513.000000	0.000672
3512.000000	0.000658
3511.000000	0.000655
3510.000000	0.000664
3509.000000	0.000679
3508.000000	0.000694
3507.000000	0.000704
3506.000000	0.000710
3505.000000	0.000716
3504.000000	0.000730
3503.000000	0.000754
3502.000000	0.000786
3501.000000	0.000817
3500.000000	0.000841
3499.000000	0.000862
3498.000000	0.000883
3497.000000	0.000899
3496.000000	0.000907
3495.000000	0.000908
3494.000000	0.000909
3493.000000	0.000911
3492.000000	0.000909
3491.000000	0.000900
3490.000000	0.000890
3489.000000	0.000886
3488.000000	0.000892
3487.000000	0.000904
3486.000000	0.000917
3485.000000	0.000932
3484.000000	0.000954
3483.000000	0.000978
3482.000000	0.000993
3481.000000	0.000993
3480.000000	0.000979
3479.000000	0.000964
3478.000000	0.000956
3477.000000	0.000959
3476.000000	0.000975
3475.000000	0.001001
3474.000000	0.001031
3473.000000	0.001055
3472.000000	0.001065
3471.000000	0.001068
3470.000000	0.001068
3469.000000	0.001069
3468.000000	0.001069
3467.000000	0.001065
3466.000000	0.001061
3465.000000	0.001062
3464.000000	0.001072
3463.000000	0.001084
3462.000000	0.001088
3461.000000	0.001080
3460.000000	0.001068
3459.000000	0.001072
3458.000000	0.001105
3457.000000	0.001161
3456.000000	0.001218
3455.000000	0.001253
3454.000000	0.001260
3453.000000	0.001244
3452.000000	0.001221
3451.000000	0.001201
3450.000000	0.001190
3449.000000	0.001188
3448.000000	0.001192
3447.000000	0.001195
3446.000000	0.001197
3445.000000	0.001203
3444.000000	0.001219
3443.000000	0.001249
3442.000000	0.001289
3441.000000	0.001326
3440.000000	0.001353
3439.000000	0.001367
3438.000000	0.001372
3437.000000	0.001369
3436.000000	0.001364
3435.000000	0.001360
3434.000000	0.001364
3433.000000	0.001377
3432.000000	0.001395
3431.000000	0.001408
3430.000000	0.001413
3429.000000	0.001413
3428.000000	0.001411
3427.000000	0.001415
3426.000000	0.001426
3425.000000	0.001437
3424.000000	0.001441
3423.000000	0.001438
3422.000000	0.001440
3421.000000	0.001455
3420.000000	0.001480
3419.000000	0.001505
3418.000000	0.001523
3417.000000	0.001536
3416.000000	0.001547
3415.000000	0.001560
3414.000000	0.001570
3413.000000	0.001570
3412.000000	0.001554
3411.000000	0.001526
3410.000000	0.001500
3409.000000	0.001489
3408.000000	0.001497
3407.000000	0.001521
3406.000000	0.001552
3405.000000	0.001581
3404.000000	0.001603
3403.000000	0.001617
3402.000000	0.001626
3401.000000	0.001631
3400.000000	0.001632
3399.000000	0.001633
3398.000000	0.001635
3397.000000	0.001636
3396.000000	0.001636
3395.000000	0.001638
3394.000000	0.001646
3393.000000	0.001660
3392.000000	0.001669
3391.000000	0.001663
3390.000000	0.001643
3389.000000	0.001619
3388.000000	0.001603
3387.000000	0.001600
3386.000000	0.001612
3385.000000	0.001642
3384.000000	0.001687
3383.000000	0.001739
3382.000000	0.001780
3381.000000	0.001797
3380.000000	0.001790
3379.000000	0.001774
3378.000000	0.001770
3377.000000	0.001784
3376.000000	0.001806
3375.000000	0.001824
3374.000000	0.001835
3373.000000	0.001844
3372.000000	0.001852
3371.000000	0.001854
3370.000000	0.001847
3369.000000	0.001834
3368.000000	0.001819
3367.000000	0.001800
3366.000000	0.001778
3365.000000	0.001758
3364.000000	0.001745
3363.000000	0.001742
3362.000000	0.001746
3361.000000	0.001754
3360.000000	0.001768
3359.000000	0.001788
3358.000000	0.001810
3357.000000	0.001834
3356.000000	0.001859
3355.000000	0.001883
3354.000000	0.001899
3353.000000	0.001902
3352.000000	0.001895
3351.000000	0.001885
3350.000000	0.001880
3349.000000	0.001882
3348.000000	0.001891
3347.000000	0.001902
3346.000000	0.001911
3345.000000	0.001920
3344.000000	0.001936
3343.000000	0.001965
3342.000000	0.002001
3341.000000	0.002028
3340.000000	0.002032
3339.000000	0.002010
3338.000000	0.001977
3337.000000	0.001952
3336.000000	0.001949
3335.000000	0.001969
3334.000000	0.002000
3333.000000	0.002025
3332.000000	0.002039
3331.000000	0.002045
3330.000000	0.002050
3329.000000	0.002050
3328.000000	0.002041
3327.000000	0.002020
3326.000000	0.001998
3325.000000	0.001987
3324.000000	0.001992
3323.000000	0.002004
3322.000000	0.002014
3321.000000	0.002019
3320.000000	0.002025
3319.000000	0.002041
3318.000000	0.002067
3317.000000	0.002099
3316.000000	0.002132
3315.000000	0.002166
3314.000000	0.002195
3313.000000	0.002208
3312.000000	0.002200
3311.000000	0.002174
3310.000000	0.002145
3309.000000	0.002119
3308.000000	0.002097
3307.000000	0.002080
3306.000000	0.002074
3305.000000	0.002087
3304.000000	0.002113
3303.000000	0.002135
3302.000000	0.002139
3301.000000	0.002120
3300.000000	0.002089
3299.000000	0.002061
3298.000000	0.002050
3297.000000	0.002058
3296.000000	0.002077
3295.000000	0.002092
3294.000000	0.002095
3293.000000	0.002091
3292.000000	0.002096
3291.000000	0.002116
3290.000000	0.002145
3289.000000	0.002166
3288.000000	0.002170
3287.000000	0.002164
3286.000000	0.002161
3285.000000	0.002168
3284.000000	0.002180
3283.000000	0.002185
3282.000000	0.002177
3281.000000	0.002158
3280.000000	0.002138
3279.000000	0.002123
3278.000000	0.002112
3277.000000	0.002102
3276.000000	0.002093
3275.000000	0.002083
3274.000000	0.002067
3273.000000	0.002047
3272.000000	0.002029
3271.000000	0.002027
3270.000000	0.002045
3269.000000	0.002076
3268.000000	0.002104
3267.000000	0.002119
3266.000000	0.002120
3265.000000	0.002112
3264.000000	0.002105
3263.000000	0.002103
3262.000000	0.002104
3261.000000	0.002097
3260.000000	0.002079
3259.000000	0.002055
3258.000000	0.002038
3257.000000	0.002039
3256.000000	0.002054
3255.000000	0.002071
3254.000000	0.002080
3253.000000	0.002081
3252.000000	0.002077
3251.000000	0.002069
3250.000000	0.002051
3249.000000	0.002023
3248.000000	0.001998
3247.000000	0.001986
3246.000000	0.001990
3245.000000	0.002001
3244.000000	0.002011
3243.000000	0.002019
3242.000000	0.002024
3241.000000	0.002023
3240.000000	0.002017
3239.000000	0.002010
3238.000000	0.002007
3237.000000	0.002001
3236.000000	0.001984
3235.000000	0.001955
3234.000000	0.001928
3233.000000	0.001914
3232.000000	0.001917
3231.000000	0.001929
3230.000000	0.001938
3229.000000	0.001936
3228.000000	0.001922
3227.000000	0.001901
3226.000000	0.001885
3225.000000	0.001877
3224.000000	0.001880
3223.000000	0.001889
3222.000000	0.001904
3221.000000	0.001921
3220.000000	0.001938
3219.000000	0.001952
3218.000000	0.001960
3217.000000	0.001961
3216.000000	0.001952
3215.000000	0.001935
3214.000000	0.001917
3213.000000	0.001907
3212.000000	0.001909
3211.000000	0.001917
3210.000000	0.001926
3209.000000	0.001932
3208.000000	0.001932
3207.000000	0.001923
3206.000000	0.001902
3205.000000	0.001878
3204.000000	0.001863
3203.000000	0.001865
3202.000000	0.001875
3201.000000	0.001880
3200.000000	0.001874
3199.000000	0.001864
3198.000000	0.001856
3197.000000	0.001849
3196.000000	0.001840
3195.000000	0.001832
3194.000000	0.001831
3193.000000	0.001838
3192.000000	0.001846
3191.000000	0.001848
3190.000000	0.001846
3189.000000	0.001849
3188.000000	0.001857
3187.000000	0.001859
3186.000000	0.001847
3185.000000	0.001825
3184.000000	0.001812
3183.000000	0.001819
3182.000000	0.001837
3181.000000	0.001848
3180.000000	0.001845
3179.000000	0.001833
3178.000000	0.001822
3177.000000	0.001814
3176.000000	0.001806
3175.000000	0.001795
3174.000000	0.001784
3173.000000	0.001779
3172.000000	0.001782
3171.000000	0.001788
3170.000000	0.001784
3169.000000	0.001766
3168.000000	0.001741
3167.000000	0.001724
3166.000000	0.001723
3165.000000	0.001731
3164.000000	0.001735
3163.000000	0.001729
3162.000000	0.001723
3161.000000	0.001728
3160.000000	0.001741
3159.000000	0.001748
3158.000000	0.001737
3157.000000	0.001706
3156.000000	0.001669
3155.000000	0.001643
3154.000000	0.001641
3153.000000	0.001656
3152.000000	0.001670
3151.000000	0.001663
3150.000000	0.001635
3149.000000	0.001602
3148.000000	0.001586
3147.000000	0.001593
3146.000000	0.001611
3145.000000	0.001622
3144.000000	0.001616
3143.000000	0.001598
3142.000000	0.001584
3141.000000	0.001585
3140.000000	0.001599
3139.000000	0.001611
3138.000000	0.001610
3137.000000	0.001590
3136.000000	0.001554
3135.000000	0.001513
3134.000000	0.001479
3133.000000	0.001463
3132.000000	0.001470
3131.000000	0.001487
3130.000000	0.001496
3129.000000	0.001486
3128.000000	0.001466
3127.000000	0.001456
3126.000000	0.001464
3125.000000	0.001479
3124.000000	0.001478
3123.000000	0.001452
3122.000000	0.001412
3121.000000	0.001377
3120.000000	0.001363
3119.000000	0.001368
3118.000000	0.001383
3117.000000	0.001396
3116.000000	0.001404
3115.000000	0.001405
3114.000000	0.001406
3113.000000	0.001414
3112.000000	0.001427
3111.000000	0.001440
3110.000000	0.001451
3109.000000	0.001458
3108.000000	0.001455
3107.000000	0.001438
3106.000000	0.001412
3105.000000	0.001388
3104.000000	0.001375
3103.000000	0.001372
3102.000000	0.001371
3101.000000	0.001375
3100.000000	0.001387
3099.000000	0.001400
3098.000000	0.001402
3097.000000	0.001385
3096.000000	0.001360
3095.000000	0.001338
3094.000000	0.001323
3093.000000	0.001309
3092.000000	0.001288
3091.000000	0.001263
3090.000000	0.001240
3089.000000	0.001226
3088.000000	0.001225
3087.000000	0.001234
3086.000000	0.001247
3085.000000	0.001260
3084.000000	0.001271
3083.000000	0.001284
3082.000000	0.001295
3081.000000	0.001292
3080.000000	0.001268
3079.000000	0.001235
3078.000000	0.001218
3077.000000	0.001233
3076.000000	0.001270
3075.000000	0.001301
3074.000000	0.001301
3073.000000	0.001272
3072.000000	0.001239
3071.000000	0.001230
3070.000000	0.001248
3069.000000	0.001276
3068.000000	0.001295
3067.000000	0.001294
3066.000000	0.001278
3065.000000	0.001254
3064.000000	0.001229
3063.000000	0.001209
3062.000000	0.001199
3061.000000	0.001201
3060.000000	0.001212
3059.000000	0.001227
3058.000000	0.001236
3057.000000	0.001227
3056.000000	0.001202
3055.000000	0.001177
3054.000000	0.001168
3053.000000	0.001178
3052.000000	0.001191
3051.000000	0.001194
3050.000000	0.001188
3049.000000	0.001184
3048.000000	0.001184
3047.000000	0.001181
3046.000000	0.001172
3045.000000	0.001156
3044.000000	0.001135
3043.000000	0.001106
3042.000000	0.001070
3041.000000	0.001041
3040.000000	0.001037
3039.000000	0.001062
3038.000000	0.001099
3037.000000	0.001125
3036.000000	0.001130
3035.000000	0.001121
3034.000000	0.001111
3033.000000	0.001115
3032.000000	0.001137
3031.000000	0.001170
3030.000000	0.001197
3029.000000	0.001204
3028.000000	0.001191
3027.000000	0.001171
3026.000000	0.001159
3025.000000	0.001158
3024.000000	0.001167
3023.000000	0.001176
3022.000000	0.001175
3021.000000	0.001158
3020.000000	0.001130
3019.000000	0.001107
3018.000000	0.001106
3017.000000	0.001131
3016.000000	0.001172
3015.000000	0.001214
3014.000000	0.001244
3013.000000	0.001256
3012.000000	0.001253
3011.000000	0.001241
3010.000000	0.001230
3009.000000	0.001229
3008.000000	0.001241
3007.000000	0.001263
3006.000000	0.001289
3005.000000	0.001314
3004.000000	0.001330
3003.000000	0.001333
3002.000000	0.001319
3001.000000	0.001295
3000.000000	0.001273
2999.000000	0.001267
2998.000000	0.001282
2997.000000	0.001309
2996.000000	0.001340
2995.000000	0.001374
2994.000000	0.001413
2993.000000	0.001455
2992.000000	0.001494
2991.000000	0.001524
2990.000000	0.001547
2989.000000	0.001563
2988.000000	0.001574
2987.000000	0.001579
2986.000000	0.001583
2985.000000	0.001588
2984.000000	0.001596
2983.000000	0.001605
2982.000000	0.001612
2981.000000	0.001612
2980.000000	0.001610
2979.000000	0.001612
2978.000000	0.001629
2977.000000	0.001658
2976.000000	0.001695
2975.000000	0.001728
2974.000000	0.001755
2973.000000	0.001779
2972.000000	0.001808
2971.000000	0.001848
2970.000000	0.001895
2969.000000	0.001929
2968.000000	0.001935
2967.000000	0.001915
2966.000000	0.001892
2965.000000	0.001895
2964.000000	0.001937
2963.000000	0.002004
2962.000000	0.002068
2961.000000	0.002107
2960.000000	0.002117
2959.000000	0.002111
2958.000000	0.002103
2957.000000	0.002106
2956.000000	0.002120
2955.000000	0.002139
2954.000000	0.002157
2953.000000	0.002171
2952.000000	0.002176
2951.000000	0.002167
2950.000000	0.002143
2949.000000	0.002111
2948.000000	0.002087
2947.000000	0.002085
2946.000000	0.002112
2945.000000	0.002159
2944.000000	0.002217
2943.000000	0.002277
2942.000000	0.002333
2941.000000	0.002380
2940.000000	0.002416
2939.000000	0.002448
2938.000000	0.002484
2937.000000	0.002525
2936.000000	0.002561
2935.000000	0.002582
2934.000000	0.002590
2933.000000	0.002591
2932.000000	0.002596
2931.000000	0.002612
2930.000000	0.002644
2929.000000	0.002691
2928.000000	0.002745
2927.000000	0.002794
2926.000000	0.002827
2925.000000	0.002841
2924.000000	0.002840
2923.000000	0.002829
2922.000000	0.002810
2921.000000	0.002782
2920.000000	0.002742
2919.000000	0.002691
2918.000000	0.002638
2917.000000	0.002588
2916.000000	0.002547
2915.000000	0.002519
2914.000000	0.002504
2913.000000	0.002496
2912.000000	0.002488
2911.000000	0.002472
2910.000000	0.002447
2909.000000	0.002419
2908.000000	0.002394
2907.000000	0.002374
2906.000000	0.002356
2905.000000	0.002337
2904.000000	0.002314
2903.000000	0.002297
2902.000000	0.002290
2901.000000	0.002294
2900.000000	0.002293
2899.000000	0.002278
2898.000000	0.002246
2897.000000	0.002207
2896.000000	0.002170
2895.000000	0.002138
2894.000000	0.002110
2893.000000	0.002082
2892.000000	0.002053
2891.000000	0.002025
2890.000000	0.002005
2889.000000	0.001993
2888.000000	0.001982
2887.000000	0.001969
2886.000000	0.001956
2885.000000	0.001947
2884.000000	0.001942
2883.000000	0.001943
2882.000000	0.001953
2881.000000	0.001979
2880.000000	0.002013
2879.000000	0.002040
2878.000000	0.002050
2877.000000	0.002046
2876.000000	0.002038
2875.000000	0.002033
2874.000000	0.002030
2873.000000	0.002026
2872.000000	0.002017
2871.000000	0.002005
2870.000000	0.001993
2869.000000	0.001985
2868.000000	0.001984
2867.000000	0.001988
2866.000000	0.001993
2865.000000	0.001997
2864.000000	0.001999
2863.000000	0.002001
2862.000000	0.002003
2861.000000	0.002004
2860.000000	0.002010
2859.000000	0.002021
2858.000000	0.002035
2857.000000	0.002047
2856.000000	0.002058
2855.000000	0.002072
2854.000000	0.002087
2853.000000	0.002093
2852.000000	0.002079
2851.000000	0.002045
2850.000000	0.002005
2849.000000	0.001972
2848.000000	0.001945
2847.000000	0.001915
2846.000000	0.001866
2845.000000	0.001795
2844.000000	0.001717
2843.000000	0.001654
2842.000000	0.001615
2841.000000	0.001595
2840.000000	0.001584
2839.000000	0.001574
2838.000000	0.001564
2837.000000	0.001553
2836.000000	0.001539
2835.000000	0.001524
2834.000000	0.001513
2833.000000	0.001506
2832.000000	0.001499
2831.000000	0.001489
2830.000000	0.001477
2829.000000	0.001462
2828.000000	0.001441
2827.000000	0.001413
2826.000000	0.001386
2825.000000	0.001368
2824.000000	0.001357
2823.000000	0.001348
2822.000000	0.001338
2821.000000	0.001334
2820.000000	0.001335
2819.000000	0.001338
2818.000000	0.001337
2817.000000	0.001335
2816.000000	0.001340
2815.000000	0.001352
2814.000000	0.001363
2813.000000	0.001357
2812.000000	0.001331
2811.000000	0.001295
2810.000000	0.001269
2809.000000	0.001265
2808.000000	0.001279
2807.000000	0.001295
2806.000000	0.001298
2805.000000	0.001286
2804.000000	0.001268
2803.000000	0.001257
2802.000000	0.001254
2801.000000	0.001252
2800.000000	0.001245
2799.000000	0.001236
2798.000000	0.001237
2797.000000	0.001252
2796.000000	0.001275
2795.000000	0.001290
2794.000000	0.001289
2793.000000	0.001276
2792.000000	0.001259
2791.000000	0.001246
2790.000000	0.001236
2789.000000	0.001229
2788.000000	0.001223
2787.000000	0.001223
2786.000000	0.001228
2785.000000	0.001236
2784.000000	0.001242
2783.000000	0.001247
2782.000000	0.001247
2781.000000	0.001241
2780.000000	0.001230
2779.000000	0.001222
2778.000000	0.001220
2777.000000	0.001221
2776.000000	0.001219
2775.000000	0.001219
2774.000000	0.001225
2773.000000	0.001233
2772.000000	0.001231
2771.000000	0.001216
2770.000000	0.001197
2769.000000	0.001183
2768.000000	0.001175
2767.000000	0.001167
2766.000000	0.001158
2765.000000	0.001151
2764.000000	0.001149
2763.000000	0.001153
2762.000000	0.001167
2761.000000	0.001190
2760.000000	0.001212
2759.000000	0.001216
2758.000000	0.001195
2757.000000	0.001161
2756.000000	0.001136
2755.000000	0.001136
2754.000000	0.001162
2753.000000	0.001201
2752.000000	0.001240
2751.000000	0.001267
2750.000000	0.001280
2749.000000	0.001279
2748.000000	0.001263
2747.000000	0.001233
2746.000000	0.001198
2745.000000	0.001169
2744.000000	0.001157
2743.000000	0.001163
2742.000000	0.001176
2741.000000	0.001189
2740.000000	0.001195
2739.000000	0.001193
2738.000000	0.001185
2737.000000	0.001174
2736.000000	0.001164
2735.000000	0.001160
2734.000000	0.001165
2733.000000	0.001176
2732.000000	0.001189
2731.000000	0.001199
2730.000000	0.001202
2729.000000	0.001198
2728.000000	0.001189
2727.000000	0.001173
2726.000000	0.001153
2725.000000	0.001134
2724.000000	0.001125
2723.000000	0.001134
2722.000000	0.001158
2721.000000	0.001183
2720.000000	0.001194
2719.000000	0.001184
2718.000000	0.001162
2717.000000	0.001140
2716.000000	0.001128
2715.000000	0.001129
2714.000000	0.001135
2713.000000	0.001132
2712.000000	0.001117
2711.000000	0.001097
2710.000000	0.001087
2709.000000	0.001091
2708.000000	0.001104
2707.000000	0.001118
2706.000000	0.001130
2705.000000	0.001137
2704.000000	0.001138
2703.000000	0.001129
2702.000000	0.001118
2701.000000	0.001113
2700.000000	0.001118
2699.000000	0.001129
2698.000000	0.001140
2697.000000	0.001147
2696.000000	0.001147
2695.000000	0.001139
2694.000000	0.001128
2693.000000	0.001121
2692.000000	0.001121
2691.000000	0.001126
2690.000000	0.001127
2689.000000	0.001117
2688.000000	0.001098
2687.000000	0.001083
2686.000000	0.001086
2685.000000	0.001108
2684.000000	0.001136
2683.000000	0.001155
2682.000000	0.001161
2681.000000	0.001156
2680.000000	0.001147
2679.000000	0.001137
2678.000000	0.001133
2677.000000	0.001139
2676.000000	0.001148
2675.000000	0.001151
2674.000000	0.001141
2673.000000	0.001124
2672.000000	0.001110
2671.000000	0.001105
2670.000000	0.001110
2669.000000	0.001119
2668.000000	0.001126
2667.000000	0.001132
2666.000000	0.001143
2665.000000	0.001159
2664.000000	0.001176
2663.000000	0.001192
2662.000000	0.001207
2661.000000	0.001225
2660.000000	0.001243
2659.000000	0.001255
2658.000000	0.001256
2657.000000	0.001248
2656.000000	0.001237
2655.000000	0.001225
2654.000000	0.001211
2653.000000	0.001193
2652.000000	0.001168
2651.000000	0.001134
2650.000000	0.001100
2649.000000	0.001076
2648.000000	0.001074
2647.000000	0.001093
2646.000000	0.001118
2645.000000	0.001130
2644.000000	0.001122
2643.000000	0.001101
2642.000000	0.001077
2641.000000	0.001058
2640.000000	0.001048
2639.000000	0.001046
2638.000000	0.001050
2637.000000	0.001053
2636.000000	0.001045
2635.000000	0.001025
2634.000000	0.000998
2633.000000	0.000965
2632.000000	0.000927
2631.000000	0.000888
2630.000000	0.000864
2629.000000	0.000868
2628.000000	0.000896
2627.000000	0.000924
2626.000000	0.000931
2625.000000	0.000910
2624.000000	0.000879
2623.000000	0.000863
2622.000000	0.000873
2621.000000	0.000900
2620.000000	0.000925
2619.000000	0.000933
2618.000000	0.000920
2617.000000	0.000887
2616.000000	0.000842
2615.000000	0.000800
2614.000000	0.000774
2613.000000	0.000766
2612.000000	0.000769
2611.000000	0.000780
2610.000000	0.000801
2609.000000	0.000829
2608.000000	0.000845
2607.000000	0.000833
2606.000000	0.000799
2605.000000	0.000761
2604.000000	0.000731
2603.000000	0.000710
2602.000000	0.000692
2601.000000	0.000678
2600.000000	0.000672
2599.000000	0.000681
2598.000000	0.000704
2597.000000	0.000729
2596.000000	0.000737
2595.000000	0.000721
2594.000000	0.000700
2593.000000	0.000694
2592.000000	0.000701
2591.000000	0.000705
2590.000000	0.000694
2589.000000	0.000675
2588.000000	0.000659
2587.000000	0.000651
2586.000000	0.000644
2585.000000	0.000634
2584.000000	0.000624
2583.000000	0.000628
2582.000000	0.000661
2581.000000	0.000718
2580.000000	0.000773
2579.000000	0.000796
2578.000000	0.000780
2577.000000	0.000736
2576.000000	0.000678
2575.000000	0.000613
2574.000000	0.000557
2573.000000	0.000528
2572.000000	0.000537
2571.000000	0.000573
2570.000000	0.000618
2569.000000	0.000659
2568.000000	0.000683
2567.000000	0.000684
2566.000000	0.000662
2565.000000	0.000625
2564.000000	0.000581
2563.000000	0.000537
2562.000000	0.000505
2561.000000	0.000494
2560.000000	0.000499
2559.000000	0.000502
2558.000000	0.000501
2557.000000	0.000507
2556.000000	0.000529
2555.000000	0.000561
2554.000000	0.000594
2553.000000	0.000630
2552.000000	0.000670
2551.000000	0.000694
2550.000000	0.000680
2549.000000	0.000630
2548.000000	0.000570
2547.000000	0.000527
2546.000000	0.000510
2545.000000	0.000512
2544.000000	0.000525
2543.000000	0.000548
2542.000000	0.000582
2541.000000	0.000621
2540.000000	0.000640
2539.000000	0.000616
2538.000000	0.000549
2537.000000	0.000475
2536.000000	0.000438
2535.000000	0.000447
2534.000000	0.000475
2533.000000	0.000492
2532.000000	0.000493
2531.000000	0.000489
2530.000000	0.000492
2529.000000	0.000500
2528.000000	0.000511
2527.000000	0.000519
2526.000000	0.000511
2525.000000	0.000480
2524.000000	0.000433
2523.000000	0.000394
2522.000000	0.000384
2521.000000	0.000401
2520.000000	0.000429
2519.000000	0.000455
2518.000000	0.000478
2517.000000	0.000501
2516.000000	0.000523
2515.000000	0.000539
2514.000000	0.000547
2513.000000	0.000547
2512.000000	0.000539
2511.000000	0.000520
2510.000000	0.000493
2509.000000	0.000468
2508.000000	0.000453
2507.000000	0.000452
2506.000000	0.000469
2505.000000	0.000514
2504.000000	0.000586
2503.000000	0.000659
2502.000000	0.000686
2501.000000	0.000638
2500.000000	0.000531
2499.000000	0.000414
2498.000000	0.000329
2497.000000	0.000293
2496.000000	0.000304
2495.000000	0.000354
2494.000000	0.000424
2493.000000	0.000481
2492.000000	0.000512
2491.000000	0.000532
2490.000000	0.000564
2489.000000	0.000600
2488.000000	0.000610
2487.000000	0.000572
2486.000000	0.000496
2485.000000	0.000408
2484.000000	0.000334
2483.000000	0.000296
2482.000000	0.000309
2481.000000	0.000360
2480.000000	0.000414
2479.000000	0.000444
2478.000000	0.000457
2477.000000	0.000473
2476.000000	0.000500
2475.000000	0.000528
2474.000000	0.000547
2473.000000	0.000549
2472.000000	0.000530
2471.000000	0.000497
2470.000000	0.000466
2469.000000	0.000448
2468.000000	0.000438
2467.000000	0.000426
2466.000000	0.000420
2465.000000	0.000431
2464.000000	0.000456
2463.000000	0.000473
2462.000000	0.000469
2461.000000	0.000448
2460.000000	0.000426
2459.000000	0.000414
2458.000000	0.000425
2457.000000	0.000465
2456.000000	0.000522
2455.000000	0.000579
2454.000000	0.000621
2453.000000	0.000640
2452.000000	0.000630
2451.000000	0.000582
2450.000000	0.000505
2449.000000	0.000431
2448.000000	0.000397
2447.000000	0.000413
2446.000000	0.000460
2445.000000	0.000506
2444.000000	0.000529
2443.000000	0.000530
2442.000000	0.000518
2441.000000	0.000503
2440.000000	0.000485
2439.000000	0.000457
2438.000000	0.000413
2437.000000	0.000360
2436.000000	0.000320
2435.000000	0.000319
2434.000000	0.000364
2433.000000	0.000428
2432.000000	0.000468
2431.000000	0.000457
2430.000000	0.000416
2429.000000	0.000387
2428.000000	0.000398
2427.000000	0.000440
2426.000000	0.000479
2425.000000	0.000490
2424.000000	0.000472
2423.000000	0.000442
2422.000000	0.000413
2421.000000	0.000381
2420.000000	0.000338
2419.000000	0.000291
2418.000000	0.000255
2417.000000	0.000243
2416.000000	0.000254
2415.000000	0.000290
2414.000000	0.000344
2413.000000	0.000399
2412.000000	0.000423
2411.000000	0.000409
2410.000000	0.000381
2409.000000	0.000373
2408.000000	0.000388
2407.000000	0.000405
2406.000000	0.000405
2405.000000	0.000385
2404.000000	0.000349
2403.000000	0.000304
2402.000000	0.000264
2401.000000	0.000237
2400.000000	0.000216
2399.000000	0.000195
2398.000000	0.000188
2397.000000	0.000215
2396.000000	0.000275
2395.000000	0.000344
2394.000000	0.000392
2393.000000	0.000408
2392.000000	0.000400
2391.000000	0.000391
2390.000000	0.000394
2389.000000	0.000408
2388.000000	0.000413
2387.000000	0.000401
2386.000000	0.000385
2385.000000	0.000385
2384.000000	0.000392
2383.000000	0.000376
2382.000000	0.000319
2381.000000	0.000233
2380.000000	0.000141
2379.000000	0.000063
2378.000000	0.000011
2377.000000	0.000001
2376.000000	0.000041
2375.000000	0.000117
2374.000000	0.000202
2373.000000	0.000267
2372.000000	0.000301
2371.000000	0.000310
2370.000000	0.000309
2369.000000	0.000306
2368.000000	0.000299
2367.000000	0.000295
2366.000000	0.000303
2365.000000	0.000323
2364.000000	0.000334
2363.000000	0.000329
2362.000000	0.000326
2361.000000	0.000341
2360.000000	0.000371
2359.000000	0.000412
2358.000000	0.000457
2357.000000	0.000494
2356.000000	0.000502
2355.000000	0.000483
2354.000000	0.000434
2353.000000	0.000340
2352.000000	0.000231
2351.000000	0.000187
2350.000000	0.000255
2349.000000	0.000398
2348.000000	0.000536
2347.000000	0.000588
2346.000000	0.000542
2345.000000	0.000475
2344.000000	0.000460
2343.000000	0.000495
2342.000000	0.000517
2341.000000	0.000490
2340.000000	0.000443
2339.000000	0.000423
2338.000000	0.000443
2337.000000	0.000485
2336.000000	0.000535
2335.000000	0.000575
2334.000000	0.000579
2333.000000	0.000527
2332.000000	0.000449
2331.000000	0.000393
2330.000000	0.000392
2329.000000	0.000426
2328.000000	0.000483
2327.000000	0.000565
2326.000000	0.000673
2325.000000	0.000774
2324.000000	0.000824
2323.000000	0.000804
2322.000000	0.000737
2321.000000	0.000668
2320.000000	0.000633
2319.000000	0.000641
2318.000000	0.000689
2317.000000	0.000758
2316.000000	0.000818
2315.000000	0.000833
2314.000000	0.000801
2313.000000	0.000750
2312.000000	0.000713
2311.000000	0.000691
2310.000000	0.000674
2309.000000	0.000652
2308.000000	0.000634
2307.000000	0.000627
2306.000000	0.000638
2305.000000	0.000668
2304.000000	0.000709
2303.000000	0.000740
2302.000000	0.000745
2301.000000	0.000727
2300.000000	0.000707
2299.000000	0.000695
2298.000000	0.000693
2297.000000	0.000697
2296.000000	0.000709
2295.000000	0.000728
2294.000000	0.000759
2293.000000	0.000802
2292.000000	0.000849
2291.000000	0.000879
2290.000000	0.000875
2289.000000	0.000848
2288.000000	0.000819
2287.000000	0.000808
2286.000000	0.000815
2285.000000	0.000839
2284.000000	0.000875
2283.000000	0.000912
2282.000000	0.000929
2281.000000	0.000910
2280.000000	0.000857
2279.000000	0.000787
2278.000000	0.000719
2277.000000	0.000662
2276.000000	0.000611
2275.000000	0.000561
2274.000000	0.000523
2273.000000	0.000523
2272.000000	0.000576
2271.000000	0.000656
2270.000000	0.000712
2269.000000	0.000716
2268.000000	0.000677
2267.000000	0.000626
2266.000000	0.000578
2265.000000	0.000526
2264.000000	0.000465
2263.000000	0.000408
2262.000000	0.000381
2261.000000	0.000392
2260.000000	0.000420
2259.000000	0.000429
2258.000000	0.000409
2257.000000	0.000376
2256.000000	0.000344
2255.000000	0.000311
2254.000000	0.000280
2253.000000	0.000274
2252.000000	0.000309
2251.000000	0.000368
2250.000000	0.000407
2249.000000	0.000393
2248.000000	0.000331
2247.000000	0.000250
2246.000000	0.000186
2245.000000	0.000170
2244.000000	0.000206
2243.000000	0.000268
2242.000000	0.000308
2241.000000	0.000298
2240.000000	0.000258
2239.000000	0.000248
2238.000000	0.000301
2237.000000	0.000389
2236.000000	0.000453
2235.000000	0.000476
2234.000000	0.000507
2233.000000	0.000589
2232.000000	0.000674
2231.000000	0.000654
2230.000000	0.000478
2229.000000	0.000226
2228.000000	0.000046
2227.000000	0.000030
2226.000000	0.000150
2225.000000	0.000307
2224.000000	0.000411
2223.000000	0.000430
2222.000000	0.000387
2221.000000	0.000315
2220.000000	0.000231
2219.000000	0.000144
2218.000000	0.000067
2217.000000	0.000015
2216.000000	-0.000015
2215.000000	-0.000029
2214.000000	-0.000020
2213.000000	0.000027
2212.000000	0.000094
2211.000000	0.000127
2210.000000	0.000089
2209.000000	0.000001
2208.000000	-0.000080
2207.000000	-0.000104
2206.000000	-0.000064
2205.000000	0.000004
2204.000000	0.000054
2203.000000	0.000069
2202.000000	0.000088
2201.000000	0.000176
2200.000000	0.000353
2199.000000	0.000564
2198.000000	0.000719
2197.000000	0.000756
2196.000000	0.000683
2195.000000	0.000560
2194.000000	0.000454
2193.000000	0.000398
2192.000000	0.000382
2191.000000	0.000388
2190.000000	0.000413
2189.000000	0.000465
2188.000000	0.000525
2187.000000	0.000546
2186.000000	0.000495
2185.000000	0.000387
2184.000000	0.000277
2183.000000	0.000213
2182.000000	0.000198
2181.000000	0.000196
2180.000000	0.000183
2179.000000	0.000182
2178.000000	0.000241
2177.000000	0.000350
2176.000000	0.000429
2175.000000	0.000403
2174.000000	0.000289
2173.000000	0.000180
2172.000000	0.000152
2171.000000	0.000217
2170.000000	0.000333
2169.000000	0.000430
2168.000000	0.000439
2167.000000	0.000342
2166.000000	0.000202
2165.000000	0.000122
2164.000000	0.000155
2163.000000	0.000265
2162.000000	0.000354
2161.000000	0.000309
2160.000000	0.000058
2159.000000	-0.000381
2158.000000	-0.000886
2157.000000	-0.001298
2156.000000	-0.001505
2155.000000	-0.001460
2154.000000	-0.001204
2153.000000	-0.000891
2152.000000	-0.000717
2151.000000	-0.000734
2150.000000	-0.000812
2149.000000	-0.000804
2148.000000	-0.000722
2147.000000	-0.000672
2146.000000	-0.000688
2145.000000	-0.000701
2144.000000	-0.000652
2143.000000	-0.000565
2142.000000	-0.000489
2141.000000	-0.000448
2140.000000	-0.000437
2139.000000	-0.000443
2138.000000	-0.000451
2137.000000	-0.000449
2136.000000	-0.000440
2135.000000	-0.000424
2134.000000	-0.000395
2133.000000	-0.000367
2132.000000	-0.000378
2131.000000	-0.000440
2130.000000	-0.000510
2129.000000	-0.000537
2128.000000	-0.000516
2127.000000	-0.000467
2126.000000	-0.000394
2125.000000	-0.000299
2124.000000	-0.000210
2123.000000	-0.000152
2122.000000	-0.000107
2121.000000	-0.000038
2120.000000	0.000050
2119.000000	0.000133
2118.000000	0.000216
2117.000000	0.000313
2116.000000	0.000386
2115.000000	0.000372
2114.000000	0.000271
2113.000000	0.000166
2112.000000	0.000126
2111.000000	0.000139
2110.000000	0.000169
2109.000000	0.000213
2108.000000	0.000283
2107.000000	0.000357
2106.000000	0.000394
2105.000000	0.000377
2104.000000	0.000313
2103.000000	0.000220
2102.000000	0.000133
2101.000000	0.000093
2100.000000	0.000113
2099.000000	0.000161
2098.000000	0.000199
2097.000000	0.000217
2096.000000	0.000204
2095.000000	0.000142
2094.000000	0.000039
2093.000000	-0.000044
2092.000000	-0.000039
2091.000000	0.000065
2090.000000	0.000215
2089.000000	0.000336
2088.000000	0.000371
2087.000000	0.000313
2086.000000	0.000211
2085.000000	0.000136
2084.000000	0.000114
2083.000000	0.000121
2082.000000	0.000140
2081.000000	0.000192
2080.000000	0.000296
2079.000000	0.000427
2078.000000	0.000535
2077.000000	0.000583
2076.000000	0.000552
2075.000000	0.000441
2074.000000	0.000293
2073.000000	0.000187
2072.000000	0.000164
2071.000000	0.000184
2070.000000	0.000176
2069.000000	0.000126
2068.000000	0.000075
2067.000000	0.000051
2066.000000	0.000034
2065.000000	-0.000008
2064.000000	-0.000083
2063.000000	-0.000165
2062.000000	-0.000210
2061.000000	-0.000184
2060.000000	-0.000099
2059.000000	-0.000007
2058.000000	0.000051
2057.000000	0.000072
2056.000000	0.000065
2055.000000	0.000039
2054.000000	0.000028
2053.000000	0.000075
2052.000000	0.000177
2051.000000	0.000254
2050.000000	0.000222
2049.000000	0.000099
2048.000000	0.000008
2047.000000	0.000044
2046.000000	0.000180
2045.000000	0.000321
2044.000000	0.000406
2043.000000	0.000449
2042.000000	0.000484
2041.000000	0.000506
2040.000000	0.000477
2039.000000	0.000389
2038.000000	0.000289
2037.000000	0.000201
2036.000000	0.000064
2035.000000	-0.000200
2034.000000	-0.000539
2033.000000	-0.000768
2032.000000	-0.000770
2031.000000	-0.000614
2030.000000	-0.000453
2029.000000	-0.000366
2028.000000	-0.000352
2027.000000	-0.000388
2026.000000	-0.000451
2025.000000	-0.000489
2024.000000	-0.000454
2023.000000	-0.000332
2022.000000	-0.000157
2021.000000	0.000004
2020.000000	0.000059
2019.000000	-0.000049
2018.000000	-0.000270
2017.000000	-0.000473
2016.000000	-0.000569
2015.000000	-0.000582
2014.000000	-0.000558
2013.000000	-0.000494
2012.000000	-0.000368
2011.000000	-0.000228
2010.000000	-0.000168
2009.000000	-0.000255
2008.000000	-0.000461
2007.000000	-0.000686
2006.000000	-0.000844
2005.000000	-0.000954
2004.000000	-0.001111
2003.000000	-0.001326
2002.000000	-0.001442
2001.000000	-0.001270
2000.000000	-0.000820
1999.000000	-0.000321
1998.000000	-0.000015
1997.000000	0.000018
1996.000000	-0.000149
1995.000000	-0.000398
1994.000000	-0.000629
1993.000000	-0.000770
1992.000000	-0.000798
1991.000000	-0.000745
1990.000000	-0.000638
1989.000000	-0.000472
1988.000000	-0.000272
1987.000000	-0.000121
1986.000000	-0.000101
1985.000000	-0.000197
1984.000000	-0.000297
1983.000000	-0.000272
1982.000000	-0.000079
1981.000000	0.000183
1980.000000	0.000334
1979.000000	0.000263
1978.000000	0.000048
1977.000000	-0.000131
1976.000000	-0.000210
1975.000000	-0.000308
1974.000000	-0.000545
1973.000000	-0.000879
1972.000000	-0.001153
1971.000000	-0.001247
1970.000000	-0.001159
1969.000000	-0.000964
1968.000000	-0.000772
1967.000000	-0.000675
1966.000000	-0.000706
1965.000000	-0.000821
1964.000000	-0.000944
1963.000000	-0.001010
1962.000000	-0.000993
1961.000000	-0.000917
1960.000000	-0.000826
1959.000000	-0.000733
1958.000000	-0.000619
1957.000000	-0.000499
1956.000000	-0.000444
1955.000000	-0.000504
1954.000000	-0.000638
1953.000000	-0.000762
1952.000000	-0.000839
1951.000000	-0.000880
1950.000000	-0.000872
1949.000000	-0.000777
1948.000000	-0.000604
1947.000000	-0.000430
1946.000000	-0.000319
1945.000000	-0.000269
1944.000000	-0.000244
1943.000000	-0.000213
1942.000000	-0.000162
1941.000000	-0.000096
1940.000000	-0.000049
1939.000000	-0.000055
1938.000000	-0.000116
1937.000000	-0.000199
1936.000000	-0.000272
1935.000000	-0.000323
1934.000000	-0.000353
1933.000000	-0.000367
1932.000000	-0.000385
1931.000000	-0.000424
1930.000000	-0.000466
1929.000000	-0.000477
1928.000000	-0.000460
1927.000000	-0.000445
1926.000000	-0.000439
1925.000000	-0.000415
1924.000000	-0.000368
1923.000000	-0.000326
1922.000000	-0.000311
1921.000000	-0.000322
1920.000000	-0.000370
1919.000000	-0.000463
1918.000000	-0.000545
1917.000000	-0.000527
1916.000000	-0.000413
1915.000000	-0.000299
1914.000000	-0.000244
1913.000000	-0.000227
1912.000000	-0.000209
1911.000000	-0.000199
1910.000000	-0.000217
1909.000000	-0.000254
1908.000000	-0.000299
1907.000000	-0.000371
1906.000000	-0.000481
1905.000000	-0.000592
1904.000000	-0.000652
1903.000000	-0.000638
1902.000000	-0.000544
1901.000000	-0.000382
1900.000000	-0.000193
1899.000000	-0.000052
1898.000000	-0.000013
1897.000000	-0.000061
1896.000000	-0.000143
1895.000000	-0.000217
1894.000000	-0.000283
1893.000000	-0.000360
1892.000000	-0.000461
1891.000000	-0.000572
1890.000000	-0.000647
1889.000000	-0.000647
1888.000000	-0.000593
1887.000000	-0.000533
1886.000000	-0.000485
1885.000000	-0.000441
1884.000000	-0.000405
1883.000000	-0.000388
1882.000000	-0.000384
1881.000000	-0.000381
1880.000000	-0.000392
1879.000000	-0.000421
1878.000000	-0.000448
1877.000000	-0.000446
1876.000000	-0.000433
1875.000000	-0.000456
1874.000000	-0.000516
1873.000000	-0.000564
1872.000000	-0.000568
1871.000000	-0.000555
1870.000000	-0.000558
1869.000000	-0.000573
1868.000000	-0.000578
1867.000000	-0.000576
1866.000000	-0.000563
1865.000000	-0.000535
1864.000000	-0.000512
1863.000000	-0.000522
1862.000000	-0.000548
1861.000000	-0.000548
1860.000000	-0.000521
1859.000000	-0.000514
1858.000000	-0.000553
1857.000000	-0.000599
1856.000000	-0.000604
1855.000000	-0.000566
1854.000000	-0.000521
1853.000000	-0.000507
1852.000000	-0.000541
1851.000000	-0.000599
1850.000000	-0.000631
1849.000000	-0.000605
1848.000000	-0.000542
1847.000000	-0.000497
1846.000000	-0.000499
1845.000000	-0.000539
1844.000000	-0.000586
1843.000000	-0.000620
1842.000000	-0.000629
1841.000000	-0.000628
1840.000000	-0.000642
1839.000000	-0.000674
1838.000000	-0.000692
1837.000000	-0.000658
1836.000000	-0.000590
1835.000000	-0.000544
1834.000000	-0.000540
1833.000000	-0.000548
1832.000000	-0.000532
1831.000000	-0.000497
1830.000000	-0.000489
1829.000000	-0.000526
1828.000000	-0.000581
1827.000000	-0.000637
1826.000000	-0.000694
1825.000000	-0.000738
1824.000000	-0.000746
1823.000000	-0.000729
1822.000000	-0.000708
1821.000000	-0.000686
1820.000000	-0.000663
1819.000000	-0.000657
1818.000000	-0.000681
1817.000000	-0.000708
1816.000000	-0.000718
1815.000000	-0.000732
1814.000000	-0.000771
1813.000000	-0.000800
1812.000000	-0.000766
1811.000000	-0.000677
1810.000000	-0.000595
1809.000000	-0.000549
1808.000000	-0.000544
1807.000000	-0.000587
1806.000000	-0.000659
1805.000000	-0.000713
1804.000000	-0.000718
1803.000000	-0.000690
1802.000000	-0.000662
1801.000000	-0.000640
1800.000000	-0.000624
1799.000000	-0.000644
1798.000000	-0.000696
1797.000000	-0.000731
1796.000000	-0.000726
1795.000000	-0.000710
1794.000000	-0.000714
1793.000000	-0.000730
1792.000000	-0.000732
1791.000000	-0.000737
1790.000000	-0.000765
1789.000000	-0.000797
1788.000000	-0.000809
1787.000000	-0.000805
1786.000000	-0.000785
1785.000000	-0.000743
1784.000000	-0.000690
1783.000000	-0.000653
1782.000000	-0.000649
1781.000000	-0.000679
1780.000000	-0.000726
1779.000000	-0.000773
1778.000000	-0.000806
1777.000000	-0.000816
1776.000000	-0.000811
1775.000000	-0.000801
1774.000000	-0.000801
1773.000000	-0.000811
1772.000000	-0.000812
1771.000000	-0.000794
1770.000000	-0.000785
1769.000000	-0.000791
1768.000000	-0.000792
1767.000000	-0.000768
1766.000000	-0.000725
1765.000000	-0.000678
1764.000000	-0.000635
1763.000000	-0.000602
1762.000000	-0.000584
1761.000000	-0.000573
1760.000000	-0.000545
1759.000000	-0.000505
1758.000000	-0.000471
1757.000000	-0.000460
1756.000000	-0.000459
1755.000000	-0.000446
1754.000000	-0.000424
1753.000000	-0.000399
1752.000000	-0.000352
1751.000000	-0.000251
1750.000000	-0.000111
1749.000000	0.000022
1748.000000	0.000134
1747.000000	0.000242
1746.000000	0.000337
1745.000000	0.000396
1744.000000	0.000420
1743.000000	0.000417
1742.000000	0.000376
1741.000000	0.000296
1740.000000	0.000215
1739.000000	0.000166
1738.000000	0.000130
1737.000000	0.000069
1736.000000	-0.000033
1735.000000	-0.000164
1734.000000	-0.000254
1733.000000	-0.000266
1732.000000	-0.000246
1731.000000	-0.000235
1730.000000	-0.000240
1729.000000	-0.000259
1728.000000	-0.000285
1727.000000	-0.000299
1726.000000	-0.000308
1725.000000	-0.000334
1724.000000	-0.000383
1723.000000	-0.000430
1722.000000	-0.000450
1721.000000	-0.000433
1720.000000	-0.000386
1719.000000	-0.000342
1718.000000	-0.000354
1717.000000	-0.000399
1716.000000	-0.000431
1715.000000	-0.000467
1714.000000	-0.000488
1713.000000	-0.000461
1712.000000	-0.000410
1711.000000	-0.000379
1710.000000	-0.000374
1709.000000	-0.000371
1708.000000	-0.000344
1707.000000	-0.000293
1706.000000	-0.000232
1705.000000	-0.000161
1704.000000	-0.000107
1703.000000	-0.000105
1702.000000	-0.000158
1701.000000	-0.000213
1700.000000	-0.000207
1699.000000	-0.000201
1698.000000	-0.000201
1697.000000	-0.000130
1696.000000	0.000026
1695.000000	0.000144
1694.000000	0.000169
1693.000000	0.000178
1692.000000	0.000215
1691.000000	0.000268
1690.000000	0.000316
1689.000000	0.000362
1688.000000	0.000418
1687.000000	0.000482
1686.000000	0.000555
1685.000000	0.000657
1684.000000	0.000773
1683.000000	0.000822
1682.000000	0.000821
1681.000000	0.000819
1680.000000	0.000831
1679.000000	0.000852
1678.000000	0.000885
1677.000000	0.000943
1676.000000	0.001035
1675.000000	0.001136
1674.000000	0.001198
1673.000000	0.001204
1672.000000	0.001194
1671.000000	0.001213
1670.000000	0.001293
1669.000000	0.001412
1668.000000	0.001508
1667.000000	0.001567
1666.000000	0.001599
1665.000000	0.001621
1664.000000	0.001659
1663.000000	0.001730
1662.000000	0.001815
1661.000000	0.001868
1660.000000	0.001872
1659.000000	0.001859
1658.000000	0.001868
1657.000000	0.001910
1656.000000	0.001971
1655.000000	0.002062
1654.000000	0.002217
1653.000000	0.002404
1652.000000	0.002443
1651.000000	0.002381
1650.000000	0.002294
1649.000000	0.002230
1648.000000	0.002201
1647.000000	0.002201
1646.000000	0.002209
1645.000000	0.002215
1644.000000	0.002222
1643.000000	0.002232
1642.000000	0.002260
1641.000000	0.002305
1640.000000	0.002338
1639.000000	0.002325
1638.000000	0.002269
1637.000000	0.002204
1636.000000	0.002169
1635.000000	0.002176
1634.000000	0.002198
1633.000000	0.002210
1632.000000	0.002193
1631.000000	0.002154
1630.000000	0.002130
1629.000000	0.002147
1628.000000	0.002181
1627.000000	0.002196
1626.000000	0.002189
1625.000000	0.002167
1624.000000	0.002128
1623.000000	0.002082
1622.000000	0.002058
1621.000000	0.002055
1620.000000	0.002051
1619.000000	0.002042
1618.000000	0.002041
1617.000000	0.002044
1616.000000	0.002016
1615.000000	0.001969
1614.000000	0.001945
1613.000000	0.001946
1612.000000	0.001947
1611.000000	0.001944
1610.000000	0.001963
1609.000000	0.001997
1608.000000	0.002002
1607.000000	0.001970
1606.000000	0.001942
1605.000000	0.001937
1604.000000	0.001945
1603.000000	0.001959
1602.000000	0.001984
1601.000000	0.002007
1600.000000	0.002007
1599.000000	0.001985
1598.000000	0.001955
1597.000000	0.001919
1596.000000	0.001874
1595.000000	0.001839
1594.000000	0.001840
1593.000000	0.001872
1592.000000	0.001897
1591.000000	0.001892
1590.000000	0.001874
1589.000000	0.001856
1588.000000	0.001835
1587.000000	0.001817
1586.000000	0.001821
1585.000000	0.001835
1584.000000	0.001832
1583.000000	0.001818
1582.000000	0.001823
1581.000000	0.001842
1580.000000	0.001840
1579.000000	0.001821
1578.000000	0.001822
1577.000000	0.001854
1576.000000	0.001869
1575.000000	0.001846
1574.000000	0.001814
1573.000000	0.001778
1572.000000	0.001736
1571.000000	0.001693
1570.000000	0.001667
1569.000000	0.001641
1568.000000	0.001593
1567.000000	0.001557
1566.000000	0.001556
1565.000000	0.001576
1564.000000	0.001586
1563.000000	0.001585
1562.000000	0.001591
1561.000000	0.001594
1560.000000	0.001549
1559.000000	0.001470
1558.000000	0.001480
1557.000000	0.001523
1556.000000	0.001546
1555.000000	0.001548
1554.000000	0.001537
1553.000000	0.001524
1552.000000	0.001529
1551.000000	0.001552
1550.000000	0.001573
1549.000000	0.001573
1548.000000	0.001554
1547.000000	0.001538
1546.000000	0.001544
1545.000000	0.001581
1544.000000	0.001627
1543.000000	0.001630
1542.000000	0.001571
1541.000000	0.001524
1540.000000	0.001556
1539.000000	0.001603
1538.000000	0.001596
1537.000000	0.001549
1536.000000	0.001487
1535.000000	0.001423
1534.000000	0.001371
1533.000000	0.001353
1532.000000	0.001358
1531.000000	0.001346
1530.000000	0.001314
1529.000000	0.001291
1528.000000	0.001280
1527.000000	0.001248
1526.000000	0.001178
1525.000000	0.001112
1524.000000	0.001084
1523.000000	0.001063
1522.000000	0.001000
1521.000000	0.000924
1520.000000	0.000887
1519.000000	0.000875
1518.000000	0.000852
1517.000000	0.000814
1516.000000	0.000776
1515.000000	0.000744
1514.000000	0.000713
1513.000000	0.000694
1512.000000	0.000702
1511.000000	0.000717
1510.000000	0.000702
1509.000000	0.000646
1508.000000	0.000572
1507.000000	0.000499
1506.000000	0.000418
1505.000000	0.000364
1504.000000	0.000367
1503.000000	0.000377
1502.000000	0.000367
1501.000000	0.000350
1500.000000	0.000355
1499.000000	0.000377
1498.000000	0.000362
1497.000000	0.000309
1496.000000	0.000285
1495.000000	0.000296
1494.000000	0.000299
1493.000000	0.000291
1492.000000	0.000293
1491.000000	0.000310
1490.000000	0.000338
1489.000000	0.000396
1488.000000	0.000477
1487.000000	0.000517
1486.000000	0.000516
1485.000000	0.000529
1484.000000	0.000579
1483.000000	0.000653
1482.000000	0.000717
1481.000000	0.000756
1480.000000	0.000783
1479.000000	0.000813
1478.000000	0.000858
1477.000000	0.000929
1476.000000	0.001016
1475.000000	0.001075
1474.000000	0.001101
1473.000000	0.001147
1472.000000	0.001265
1471.000000	0.001394
1470.000000	0.001482
1469.000000	0.001548
1468.000000	0.001624
1467.000000	0.001706
1466.000000	0.001774
1465.000000	0.001823
1464.000000	0.001859
1463.000000	0.001886
1462.000000	0.001904
1461.000000	0.001934
1460.000000	0.001998
1459.000000	0.002096
1458.000000	0.002192
1457.000000	0.002252
1456.000000	0.002301
1455.000000	0.002356
1454.000000	0.002407
1453.000000	0.002455
1452.000000	0.002513
1451.000000	0.002581
1450.000000	0.002646
1449.000000	0.002717
1448.000000	0.002801
1447.000000	0.002877
1446.000000	0.002918
1445.000000	0.002935
1444.000000	0.002958
1443.000000	0.002992
1442.000000	0.003023
1441.000000	0.003041
1440.000000	0.003055
1439.000000	0.003081
1438.000000	0.003115
1437.000000	0.003150
1436.000000	0.003184
1435.000000	0.003216
1434.000000	0.003241
1433.000000	0.003278
1432.000000	0.003343
1431.000000	0.003428
1430.000000	0.003496
1429.000000	0.003530
1428.000000	0.003554
1427.000000	0.003593
1426.000000	0.003643
1425.000000	0.003676
1424.000000	0.003677
1423.000000	0.003666
1422.000000	0.003656
1421.000000	0.003656
1420.000000	0.003682
1419.000000	0.003739
1418.000000	0.003776
1417.000000	0.003773
1416.000000	0.003772
1415.000000	0.003792
1414.000000	0.003814
1413.000000	0.003819
1412.000000	0.003817
1411.000000	0.003823
1410.000000	0.003825
1409.000000	0.003817
1408.000000	0.003818
1407.000000	0.003839
1406.000000	0.003861
1405.000000	0.003855
1404.000000	0.003826
1403.000000	0.003801
1402.000000	0.003780
1401.000000	0.003752
1400.000000	0.003710
1399.000000	0.003662
1398.000000	0.003615
1397.000000	0.003583
1396.000000	0.003593
1395.000000	0.003651
1394.000000	0.003701
1393.000000	0.003684
1392.000000	0.003618
1391.000000	0.003552
1390.000000	0.003503
1389.000000	0.003465
1388.000000	0.003431
1387.000000	0.003402
1386.000000	0.003368
1385.000000	0.003311
1384.000000	0.003233
1383.000000	0.003150
1382.000000	0.003075
1381.000000	0.003015
1380.000000	0.002968
1379.000000	0.002932
1378.000000	0.002912
1377.000000	0.002902
1376.000000	0.002895
1375.000000	0.002884
1374.000000	0.002858
1373.000000	0.002807
1372.000000	0.002739
1371.000000	0.002682
1370.000000	0.002660
1369.000000	0.002652
1368.000000	0.002622
1367.000000	0.002563
1366.000000	0.002502
1365.000000	0.002465
1364.000000	0.002449
1363.000000	0.002428
1362.000000	0.002389
1361.000000	0.002333
1360.000000	0.002268
1359.000000	0.002204
1358.000000	0.002153
1357.000000	0.002117
1356.000000	0.002083
1355.000000	0.002035
1354.000000	0.001980
1353.000000	0.001936
1352.000000	0.001910
1351.000000	0.001890
1350.000000	0.001872
1349.000000	0.001853
1348.000000	0.001830
1347.000000	0.001802
1346.000000	0.001779
1345.000000	0.001767
1344.000000	0.001760
1343.000000	0.001749
1342.000000	0.001725
1341.000000	0.001681
1340.000000	0.001615
1339.000000	0.001549
1338.000000	0.001512
1337.000000	0.001506
1336.000000	0.001511
1335.000000	0.001509
1334.000000	0.001498
1333.000000	0.001487
1332.000000	0.001477
1331.000000	0.001465
1330.000000	0.001454
1329.000000	0.001452
1328.000000	0.001456
1327.000000	0.001457
1326.000000	0.001452
1325.000000	0.001431
1324.000000	0.001394
1323.000000	0.001356
1322.000000	0.001329
1321.000000	0.001315
1320.000000	0.001306
1319.000000	0.001296
1318.000000	0.001284
1317.000000	0.001270
1316.000000	0.001254
1315.000000	0.001239
1314.000000	0.001226
1313.000000	0.001208
1312.000000	0.001180
1311.000000	0.001146
1310.000000	0.001117
1309.000000	0.001097
1308.000000	0.001078
1307.000000	0.001053
1306.000000	0.001022
1305.000000	0.000984
1304.000000	0.000944
1303.000000	0.000908
1302.000000	0.000874
1301.000000	0.000838
1300.000000	0.000805
1299.000000	0.000785
1298.000000	0.000779
1297.000000	0.000771
1296.000000	0.000741
1295.000000	0.000697
1294.000000	0.000659
1293.000000	0.000632
1292.000000	0.000608
1291.000000	0.000577
1290.000000	0.000541
1289.000000	0.000508
1288.000000	0.000483
1287.000000	0.000467
1286.000000	0.000456
1285.000000	0.000442
1284.000000	0.000421
1283.000000	0.000403
1282.000000	0.000393
1281.000000	0.000382
1280.000000	0.000356
1279.000000	0.000318
1278.000000	0.000279
1277.000000	0.000249
1276.000000	0.000223
1275.000000	0.000200
1274.000000	0.000185
1273.000000	0.000179
1272.000000	0.000173
1271.000000	0.000164
1270.000000	0.000156
1269.000000	0.000157
1268.000000	0.000168
1267.000000	0.000180
1266.000000	0.000185
1265.000000	0.000182
1264.000000	0.000179
1263.000000	0.000188
1262.000000	0.000218
1261.000000	0.000256
1260.000000	0.000284
1259.000000	0.000288
1258.000000	0.000269
1257.000000	0.000239
1256.000000	0.000212
1255.000000	0.000197
1254.000000	0.000196
1253.000000	0.000207
1252.000000	0.000226
1251.000000	0.000244
1250.000000	0.000253
1249.000000	0.000247
1248.000000	0.000227
1247.000000	0.000201
1246.000000	0.000183
1245.000000	0.000177
1244.000000	0.000176
1243.000000	0.000173
1242.000000	0.000156
1241.000000	0.000121
1240.000000	0.000080
1239.000000	0.000051
1238.000000	0.000041
1237.000000	0.000038
1236.000000	0.000029
1235.000000	0.000016
1234.000000	0.000011
1233.000000	0.000019
1232.000000	0.000032
1231.000000	0.000033
1230.000000	0.000017
1229.000000	-0.000014
1228.000000	-0.000045
1227.000000	-0.000068
1226.000000	-0.000084
1225.000000	-0.000109
1224.000000	-0.000149
1223.000000	-0.000192
1222.000000	-0.000223
1221.000000	-0.000242
1220.000000	-0.000263
1219.000000	-0.000304
1218.000000	-0.000364
1217.000000	-0.000426
1216.000000	-0.000474
1215.000000	-0.000498
1214.000000	-0.000505
1213.000000	-0.000512
1212.000000	-0.000530
1211.000000	-0.000554
1210.000000	-0.000571
1209.000000	-0.000574
1208.000000	-0.000575
1207.000000	-0.000590
1206.000000	-0.000621
1205.000000	-0.000650
1204.000000	-0.000658
1203.000000	-0.000645
1202.000000	-0.000628
1201.000000	-0.000624
1200.000000	-0.000634
1199.000000	-0.000650
1198.000000	-0.000663
1197.000000	-0.000676
1196.000000	-0.000689
1195.000000	-0.000705
1194.000000	-0.000731
1193.000000	-0.000767
1192.000000	-0.000806
1191.000000	-0.000838
1190.000000	-0.000860
1189.000000	-0.000875
1188.000000	-0.000888
1187.000000	-0.000893
1186.000000	-0.000888
1185.000000	-0.000879
1184.000000	-0.000867
1183.000000	-0.000847
1182.000000	-0.000811
1181.000000	-0.000761
1180.000000	-0.000700
1179.000000	-0.000630
1178.000000	-0.000552
1177.000000	-0.000475
1176.000000	-0.000410
1175.000000	-0.000362
1174.000000	-0.000324
1173.000000	-0.000285
1172.000000	-0.000234
1171.000000	-0.000166
1170.000000	-0.000073
1169.000000	0.000046
1168.000000	0.000174
1167.000000	0.000287
1166.000000	0.000374
1165.000000	0.000451
1164.000000	0.000546
1163.000000	0.000671
1162.000000	0.000814
1161.000000	0.000953
1160.000000	0.001077
1159.000000	0.001178
1158.000000	0.001256
1157.000000	0.001318
1156.000000	0.001385
1155.000000	0.001476
1154.000000	0.001580
1153.000000	0.001658
1152.000000	0.001678
1151.000000	0.001651
1150.000000	0.001625
1149.000000	0.001636
1148.000000	0.001679
1147.000000	0.001720
1146.000000	0.001737
1145.000000	0.001732
1144.000000	0.001709
1143.000000	0.001672
1142.000000	0.001624
1141.000000	0.001578
1140.000000	0.001544
1139.000000	0.001522
1138.000000	0.001506
1137.000000	0.001499
1136.000000	0.001501
1135.000000	0.001506
1134.000000	0.001495
1133.000000	0.001464
1132.000000	0.001435
1131.000000	0.001439
1130.000000	0.001492
1129.000000	0.001578
1128.000000	0.001667
1127.000000	0.001743
1126.000000	0.001807
1125.000000	0.001870
1124.000000	0.001937
1123.000000	0.002000
1122.000000	0.002041
1121.000000	0.002052
1120.000000	0.002048
1119.000000	0.002057
1118.000000	0.002098
1117.000000	0.002163
1116.000000	0.002223
1115.000000	0.002255
1114.000000	0.002264
1113.000000	0.002279
1112.000000	0.002324
1111.000000	0.002401
1110.000000	0.002486
1109.000000	0.002549
1108.000000	0.002576
1107.000000	0.002572
1106.000000	0.002557
1105.000000	0.002552
1104.000000	0.002574
1103.000000	0.002628
1102.000000	0.002708
1101.000000	0.002794
1100.000000	0.002874
1099.000000	0.002939
1098.000000	0.002992
1097.000000	0.003042
1096.000000	0.003097
1095.000000	0.003165
1094.000000	0.003250
1093.000000	0.003343
1092.000000	0.003425
1091.000000	0.003484
1090.000000	0.003529
1089.000000	0.003578
1088.000000	0.003638
1087.000000	0.003695
1086.000000	0.003737
1085.000000	0.003768
1084.000000	0.003803
1083.000000	0.003850
1082.000000	0.003905
1081.000000	0.003968
1080.000000	0.004047
1079.000000	0.004145
1078.000000	0.004245
1077.000000	0.004313
1076.000000	0.004325
1075.000000	0.004299
1074.000000	0.004277
1073.000000	0.004281
1072.000000	0.004291
1071.000000	0.004281
1070.000000	0.004256
1069.000000	0.004253
1068.000000	0.004285
1067.000000	0.004329
1066.000000	0.004351
1065.000000	0.004347
1064.000000	0.004331
1063.000000	0.004316
1062.000000	0.004306
1061.000000	0.004305
1060.000000	0.004324
1059.000000	0.004358
1058.000000	0.004387
1057.000000	0.004395
1056.000000	0.004389
1055.000000	0.004396
1054.000000	0.004435
1053.000000	0.004503
1052.000000	0.004578
1051.000000	0.004653
1050.000000	0.004737
1049.000000	0.004833
1048.000000	0.004920
1047.000000	0.004975
1046.000000	0.005003
1045.000000	0.005034
1044.000000	0.005091
1043.000000	0.005178
1042.000000	0.005282
1041.000000	0.005389
1040.000000	0.005485
1039.000000	0.005564
1038.000000	0.005631
1037.000000	0.005692
1036.000000	0.005741
1035.000000	0.005768
1034.000000	0.005781
1033.000000	0.005804
1032.000000	0.005852
1031.000000	0.005917
1030.000000	0.005991
1029.000000	0.006068
1028.000000	0.006139
1027.000000	0.006184
1026.000000	0.006198
1025.000000	0.006198
1024.000000	0.006201
1023.000000	0.006201
1022.000000	0.006191
1021.000000	0.006185
1020.000000	0.006210
1019.000000	0.006270
1018.000000	0.006334
1017.000000	0.006366
1016.000000	0.006356
1015.000000	0.006335
1014.000000	0.006343
1013.000000	0.006394
1012.000000	0.006455
1011.000000	0.006480
1010.000000	0.006458
1009.000000	0.006411
1008.000000	0.006360
1007.000000	0.006307
1006.000000	0.006255
1005.000000	0.006220
1004.000000	0.006215
1003.000000	0.006229
1002.000000	0.006244
1001.000000	0.006258
1000.000000	0.006265
999.000000	0.006257
998.000000	0.006236
997.000000	0.006229
996.000000	0.006253
995.000000	0.006288
994.000000	0.006290
993.000000	0.006244
992.000000	0.006175
991.000000	0.006116
990.000000	0.006080
989.000000	0.006064
988.000000	0.006065
987.000000	0.006078
986.000000	0.006086
985.000000	0.006071
984.000000	0.006025
983.000000	0.005951
982.000000	0.005860
981.000000	0.005766
980.000000	0.005676
979.000000	0.005582
978.000000	0.005476
977.000000	0.005360
976.000000	0.005252
975.000000	0.005170
974.000000	0.005112
973.000000	0.005057
972.000000	0.004978
971.000000	0.004856
970.000000	0.004699
969.000000	0.004532
968.000000	0.004383
967.000000	0.004264
966.000000	0.004166
965.000000	0.004069
964.000000	0.003957
963.000000	0.003836
962.000000	0.003732
961.000000	0.003664
960.000000	0.003615
959.000000	0.003545
958.000000	0.003434
957.000000	0.003304
956.000000	0.003194
955.000000	0.003110
954.000000	0.003032
953.000000	0.002941
952.000000	0.002833
951.000000	0.002721
950.000000	0.002616
949.000000	0.002521
948.000000	0.002430
947.000000	0.002331
946.000000	0.002221
945.000000	0.002116
944.000000	0.002029
943.000000	0.001950
942.000000	0.001855
941.000000	0.001735
940.000000	0.001609
939.000000	0.001497
938.000000	0.001410
937.000000	0.001355
936.000000	0.001335
935.000000	0.001331
934.000000	0.001308
933.000000	0.001242
932.000000	0.001149
931.000000	0.001059
930.000000	0.000990
929.000000	0.000936
928.000000	0.000881
927.000000	0.000821
926.000000	0.000761
925.000000	0.000715
924.000000	0.000696
923.000000	0.000701
922.000000	0.000711
921.000000	0.000705
920.000000	0.000679
919.000000	0.000642
918.000000	0.000607
917.000000	0.000585
916.000000	0.000576
915.000000	0.000570
914.000000	0.000551
913.000000	0.000513
912.000000	0.000473
911.000000	0.000460
910.000000	0.000491
909.000000	0.000561
908.000000	0.000642
907.000000	0.000708
906.000000	0.000742
905.000000	0.000736
904.000000	0.000694
903.000000	0.000627
902.000000	0.000563
901.000000	0.000529
900.000000	0.000536
899.000000	0.000558
898.000000	0.000553
897.000000	0.000501
896.000000	0.000422
895.000000	0.000350
894.000000	0.000298
893.000000	0.000252
892.000000	0.000192
891.000000	0.000114
890.000000	0.000022
889.000000	-0.000072
888.000000	-0.000145
887.000000	-0.000168
886.000000	-0.000140
885.000000	-0.000093
884.000000	-0.000065
883.000000	-0.000060
882.000000	-0.000048
881.000000	-0.000001
880.000000	0.000083
879.000000	0.000182
878.000000	0.000272
877.000000	0.000336
876.000000	0.000364
875.000000	0.000354
874.000000	0.000310
873.000000	0.000236
872.000000	0.000128
871.000000	-0.000018
870.000000	-0.000191
869.000000	-0.000373
868.000000	-0.000538
867.000000	-0.000661
866.000000	-0.000725
865.000000	-0.000740
864.000000	-0.000742
863.000000	-0.000763
862.000000	-0.000800
861.000000	-0.000830
860.000000	-0.000843
859.000000	-0.000845
858.000000	-0.000840
857.000000	-0.000817
856.000000	-0.000777
855.000000	-0.000743
854.000000	-0.000738
853.000000	-0.000765
852.000000	-0.000806
851.000000	-0.000843
850.000000	-0.000865
849.000000	-0.000869
848.000000	-0.000868
847.000000	-0.000875
846.000000	-0.000889
845.000000	-0.000889
844.000000	-0.000862
843.000000	-0.000812
842.000000	-0.000745
841.000000	-0.000658
840.000000	-0.000553
839.000000	-0.000462
838.000000	-0.000420
837.000000	-0.000430
836.000000	-0.000457
835.000000	-0.000476
834.000000	-0.000489
833.000000	-0.000515
832.000000	-0.000560
831.000000	-0.000612
830.000000	-0.000655
829.000000	-0.000687
828.000000	-0.000712
827.000000	-0.000736
826.000000	-0.000765
825.000000	-0.000798
824.000000	-0.000837
823.000000	-0.000875
822.000000	-0.000899
821.000000	-0.000897
820.000000	-0.000882
819.000000	-0.000880
818.000000	-0.000895
817.000000	-0.000904
816.000000	-0.000892
815.000000	-0.000871
814.000000	-0.000860
813.000000	-0.000853
812.000000	-0.000830
811.000000	-0.000798
810.000000	-0.000788
809.000000	-0.000809
808.000000	-0.000838
807.000000	-0.000848
806.000000	-0.000830
805.000000	-0.000792
804.000000	-0.000752
803.000000	-0.000732
802.000000	-0.000740
801.000000	-0.000759
800.000000	-0.000761
799.000000	-0.000742
798.000000	-0.000728
797.000000	-0.000741
796.000000	-0.000766
795.000000	-0.000766
794.000000	-0.000720
793.000000	-0.000641
792.000000	-0.000557
791.000000	-0.000495
790.000000	-0.000471
789.000000	-0.000489
788.000000	-0.000544
787.000000	-0.000616
786.000000	-0.000667
785.000000	-0.000668
784.000000	-0.000625
783.000000	-0.000573
782.000000	-0.000525
781.000000	-0.000458
780.000000	-0.000360
779.000000	-0.000272
778.000000	-0.000253
777.000000	-0.000308
776.000000	-0.000384
775.000000	-0.000435
774.000000	-0.000462
773.000000	-0.000478
772.000000	-0.000483
771.000000	-0.000475
770.000000	-0.000471
769.000000	-0.000486
768.000000	-0.000516
767.000000	-0.000548
766.000000	-0.000594
765.000000	-0.000660
764.000000	-0.000731
763.000000	-0.000777
762.000000	-0.000795
761.000000	-0.000800
760.000000	-0.000797
759.000000	-0.000776
758.000000	-0.000732
757.000000	-0.000677
756.000000	-0.000622
755.000000	-0.000579
754.000000	-0.000566
753.000000	-0.000598
752.000000	-0.000668
751.000000	-0.000748
750.000000	-0.000813
749.000000	-0.000864
748.000000	-0.000907
747.000000	-0.000935
746.000000	-0.000936
745.000000	-0.000907
744.000000	-0.000862
743.000000	-0.000821
742.000000	-0.000802
741.000000	-0.000809
740.000000	-0.000832
739.000000	-0.000859
738.000000	-0.000879
737.000000	-0.000881
736.000000	-0.000861
735.000000	-0.000829
734.000000	-0.000816
733.000000	-0.000840
732.000000	-0.000884
731.000000	-0.000919
730.000000	-0.000925
729.000000	-0.000901
728.000000	-0.000844
727.000000	-0.000772
726.000000	-0.000725
725.000000	-0.000736
724.000000	-0.000790
723.000000	-0.000835
722.000000	-0.000841
721.000000	-0.000831
720.000000	-0.000848
719.000000	-0.000898
718.000000	-0.000946
717.000000	-0.000953
716.000000	-0.000904
715.000000	-0.000820
714.000000	-0.000749
713.000000	-0.000732
712.000000	-0.000759
711.000000	-0.000783
710.000000	-0.000788
709.000000	-0.000801
708.000000	-0.000840
707.000000	-0.000864
706.000000	-0.000823
705.000000	-0.000731
704.000000	-0.000659
703.000000	-0.000641
702.000000	-0.000645
701.000000	-0.000639
700.000000	-0.000645
699.000000	-0.000699
698.000000	-0.000783
697.000000	-0.000824
696.000000	-0.000776
695.000000	-0.000662
694.000000	-0.000534
693.000000	-0.000429
692.000000	-0.000355
691.000000	-0.000321
690.000000	-0.000341
689.000000	-0.000394
688.000000	-0.000418
687.000000	-0.000340
686.000000	-0.000141
685.000000	0.000143
684.000000	0.000455
683.000000	0.000744
682.000000	0.000956
681.000000	0.001047
680.000000	0.001028
679.000000	0.000966
678.000000	0.000912
677.000000	0.000865
676.000000	0.000793
675.000000	0.000674
674.000000	0.000511
673.000000	0.000320
672.000000	0.000097
671.000000	-0.000190
670.000000	-0.000565
669.000000	-0.000980
668.000000	-0.001194
667.000000	-0.000894
666.000000	-0.000431
665.000000	-0.000126
664.000000	0.000051
663.000000	0.000130
662.000000	0.000111
661.000000	0.000016
660.000000	-0.000096
659.000000	-0.000163
658.000000	-0.000161
657.000000	-0.000099
656.000000	-0.000031
655.000000	-0.000027
654.000000	-0.000097
653.000000	-0.000180
652.000000	-0.000247
651.000000	-0.000331
650.000000	-0.000447
649.000000	-0.000548
648.000000	-0.000590
647.000000	-0.000583
646.000000	-0.000540
645.000000	-0.000461
644.000000	-0.000383
643.000000	-0.000367
642.000000	-0.000429
641.000000	-0.000507
640.000000	-0.000550
639.000000	-0.000567
638.000000	-0.000575
637.000000	-0.000546
636.000000	-0.000464
635.000000	-0.000376
634.000000	-0.000332
633.000000	-0.000311
632.000000	-0.000262
631.000000	-0.000188
630.000000	-0.000149
629.000000	-0.000180
628.000000	-0.000262
627.000000	-0.000356
626.000000	-0.000420
625.000000	-0.000439
624.000000	-0.000442
623.000000	-0.000475
622.000000	-0.000535
621.000000	-0.000560
620.000000	-0.000512
619.000000	-0.000435
618.000000	-0.000402
617.000000	-0.000439
616.000000	-0.000508
615.000000	-0.000561
614.000000	-0.000564
613.000000	-0.000497
612.000000	-0.000379
611.000000	-0.000286
610.000000	-0.000274
609.000000	-0.000302
608.000000	-0.000290
607.000000	-0.000220
606.000000	-0.000141
605.000000	-0.000087
604.000000	-0.000047
603.000000	-0.000017
602.000000	-0.000020
601.000000	-0.000057
600.000000	-0.000102
599.000000	-0.000133
598.000000	-0.000154
597.000000	-0.000170
596.000000	-0.000159
595.000000	-0.000104
594.000000	-0.000018
593.000000	0.000081
592.000000	0.000180
591.000000	0.000248
590.000000	0.000224
589.000000	0.000088
588.000000	-0.000094
587.000000	-0.000213
586.000000	-0.000228
585.000000	-0.000194
584.000000	-0.000182
583.000000	-0.000208
582.000000	-0.000263
581.000000	-0.000355
580.000000	-0.000503
579.000000	-0.000675
578.000000	-0.000808
577.000000	-0.000860
576.000000	-0.000821
575.000000	-0.000701
574.000000	-0.000533
573.000000	-0.000387
572.000000	-0.000326
571.000000	-0.000349
570.000000	-0.000389
569.000000	-0.000386
568.000000	-0.000361
567.000000	-0.000374
566.000000	-0.000443
565.000000	-0.000516
564.000000	-0.000520
563.000000	-0.000438
562.000000	-0.000323
561.000000	-0.000244
560.000000	-0.000219
559.000000	-0.000210
558.000000	-0.000192
557.000000	-0.000190
556.000000	-0.000236
555.000000	-0.000299
554.000000	-0.000286
553.000000	-0.000134
552.000000	0.000110
551.000000	0.000314
550.000000	0.000369
549.000000	0.000269
548.000000	0.000108
547.000000	0.000013
546.000000	0.000063
545.000000	0.000231
544.000000	0.000401
543.000000	0.000453
542.000000	0.000355
541.000000	0.000192
540.000000	0.000111
539.000000	0.000200
538.000000	0.000391
537.000000	0.000506
536.000000	0.000426
535.000000	0.000228
534.000000	0.000104
533.000000	0.000142
532.000000	0.000228
531.000000	0.000216
530.000000	0.000112
529.000000	0.000035
528.000000	0.000027
527.000000	0.000020
526.000000	-0.000012
525.000000	-0.000003
524.000000	0.000089
523.000000	0.000198
522.000000	0.000232
521.000000	0.000166
520.000000	0.000028
519.000000	-0.000137
518.000000	-0.000252
517.000000	-0.000225
516.000000	-0.000056
515.000000	0.000120
514.000000	0.000179
513.000000	0.000123
512.000000	0.000034
511.000000	-0.000052
510.000000	-0.000153
509.000000	-0.000266
508.000000	-0.000358
507.000000	-0.000401
506.000000	-0.000385
505.000000	-0.000320
504.000000	-0.000246
503.000000	-0.000214
502.000000	-0.000238
501.000000	-0.000283
500.000000	-0.000337
499.000000	-0.000422
498.000000	-0.000537
497.000000	-0.000651
496.000000	-0.000762
495.000000	-0.000900
494.000000	-0.001026
493.000000	-0.001048
492.000000	-0.000967
491.000000	-0.000904
490.000000	-0.000931
489.000000	-0.000967
488.000000	-0.000936
487.000000	-0.000889
486.000000	-0.000892
485.000000	-0.000876
484.000000	-0.000717
483.000000	-0.000447
482.000000	-0.000238
481.000000	-0.000206
480.000000	-0.000321
479.000000	-0.000471
478.000000	-0.000581
477.000000	-0.000619
476.000000	-0.000568
475.000000	-0.000433
474.000000	-0.000278
473.000000	-0.000206
472.000000	-0.000287
471.000000	-0.000486
470.000000	-0.000721
469.000000	-0.000946
468.000000	-0.001121
467.000000	-0.001182
466.000000	-0.001097
465.000000	-0.000911
464.000000	-0.000725
463.000000	-0.000619
462.000000	-0.000591
461.000000	-0.000603
460.000000	-0.000673
459.000000	-0.000844
458.000000	-0.001068
457.000000	-0.001176
456.000000	-0.001109
455.000000	-0.001015
454.000000	-0.000994
453.000000	-0.000961
452.000000	-0.000820
451.000000	-0.000664
450.000000	-0.000716
