PE IR       SUBTECH     SPECTRUM    ASCII       PEDS        4.00        
   -1
P3-Bleu050_1.ASC
23/06/13
12:04:21.00
23/06/13
12:04:49.00
uco
Sample 050 By uco Date Tuesday, June 13 2023
450.000000
#HDR
-1
-1
#GR
cm-1
A
1.0
0.0
4000.000000
-1.000000
3551
8
0.014724
-0.001733
#DATA
4000.000000	-0.000749
3999.000000	-0.000754
3998.000000	-0.000763
3997.000000	-0.000777
3996.000000	-0.000786
3995.000000	-0.000776
3994.000000	-0.000746
3993.000000	-0.000708
3992.000000	-0.000680
3991.000000	-0.000671
3990.000000	-0.000678
3989.000000	-0.000689
3988.000000	-0.000695
3987.000000	-0.000694
3986.000000	-0.000691
3985.000000	-0.000691
3984.000000	-0.000699
3983.000000	-0.000709
3982.000000	-0.000718
3981.000000	-0.000721
3980.000000	-0.000722
3979.000000	-0.000730
3978.000000	-0.000748
3977.000000	-0.000774
3976.000000	-0.000794
3975.000000	-0.000798
3974.000000	-0.000783
3973.000000	-0.000756
3972.000000	-0.000726
3971.000000	-0.000701
3970.000000	-0.000685
3969.000000	-0.000673
3968.000000	-0.000663
3967.000000	-0.000650
3966.000000	-0.000635
3965.000000	-0.000623
3964.000000	-0.000625
3963.000000	-0.000646
3962.000000	-0.000683
3961.000000	-0.000723
3960.000000	-0.000757
3959.000000	-0.000780
3958.000000	-0.000789
3957.000000	-0.000782
3956.000000	-0.000760
3955.000000	-0.000728
3954.000000	-0.000698
3953.000000	-0.000677
3952.000000	-0.000671
3951.000000	-0.000676
3950.000000	-0.000691
3949.000000	-0.000713
3948.000000	-0.000733
3947.000000	-0.000742
3946.000000	-0.000735
3945.000000	-0.000715
3944.000000	-0.000687
3943.000000	-0.000658
3942.000000	-0.000636
3941.000000	-0.000630
3940.000000	-0.000638
3939.000000	-0.000652
3938.000000	-0.000661
3937.000000	-0.000664
3936.000000	-0.000671
3935.000000	-0.000688
3934.000000	-0.000707
3933.000000	-0.000711
3932.000000	-0.000697
3931.000000	-0.000674
3930.000000	-0.000659
3929.000000	-0.000652
3928.000000	-0.000645
3927.000000	-0.000632
3926.000000	-0.000616
3925.000000	-0.000604
3924.000000	-0.000608
3923.000000	-0.000631
3922.000000	-0.000668
3921.000000	-0.000708
3920.000000	-0.000744
3919.000000	-0.000771
3918.000000	-0.000778
3917.000000	-0.000752
3916.000000	-0.000696
3915.000000	-0.000634
3914.000000	-0.000590
3913.000000	-0.000568
3912.000000	-0.000559
3911.000000	-0.000550
3910.000000	-0.000537
3909.000000	-0.000523
3908.000000	-0.000512
3907.000000	-0.000514
3906.000000	-0.000542
3905.000000	-0.000602
3904.000000	-0.000683
3903.000000	-0.000757
3902.000000	-0.000795
3901.000000	-0.000789
3900.000000	-0.000746
3899.000000	-0.000690
3898.000000	-0.000649
3897.000000	-0.000636
3896.000000	-0.000646
3895.000000	-0.000667
3894.000000	-0.000685
3893.000000	-0.000690
3892.000000	-0.000679
3891.000000	-0.000652
3890.000000	-0.000623
3889.000000	-0.000619
3888.000000	-0.000652
3887.000000	-0.000703
3886.000000	-0.000727
3885.000000	-0.000708
3884.000000	-0.000679
3883.000000	-0.000671
3882.000000	-0.000678
3881.000000	-0.000679
3880.000000	-0.000670
3879.000000	-0.000655
3878.000000	-0.000641
3877.000000	-0.000630
3876.000000	-0.000613
3875.000000	-0.000579
3874.000000	-0.000535
3873.000000	-0.000517
3872.000000	-0.000554
3871.000000	-0.000625
3870.000000	-0.000674
3869.000000	-0.000676
3868.000000	-0.000661
3867.000000	-0.000669
3866.000000	-0.000696
3865.000000	-0.000709
3864.000000	-0.000708
3863.000000	-0.000712
3862.000000	-0.000725
3861.000000	-0.000732
3860.000000	-0.000719
3859.000000	-0.000683
3858.000000	-0.000624
3857.000000	-0.000560
3856.000000	-0.000527
3855.000000	-0.000540
3854.000000	-0.000577
3853.000000	-0.000603
3852.000000	-0.000612
3851.000000	-0.000623
3850.000000	-0.000649
3849.000000	-0.000671
3848.000000	-0.000673
3847.000000	-0.000659
3846.000000	-0.000642
3845.000000	-0.000631
3844.000000	-0.000632
3843.000000	-0.000642
3842.000000	-0.000654
3841.000000	-0.000658
3840.000000	-0.000645
3839.000000	-0.000618
3838.000000	-0.000593
3837.000000	-0.000585
3836.000000	-0.000597
3835.000000	-0.000624
3834.000000	-0.000653
3833.000000	-0.000674
3832.000000	-0.000676
3831.000000	-0.000669
3830.000000	-0.000670
3829.000000	-0.000689
3828.000000	-0.000714
3827.000000	-0.000722
3826.000000	-0.000705
3825.000000	-0.000684
3824.000000	-0.000692
3823.000000	-0.000723
3822.000000	-0.000725
3821.000000	-0.000672
3820.000000	-0.000605
3819.000000	-0.000579
3818.000000	-0.000608
3817.000000	-0.000658
3816.000000	-0.000670
3815.000000	-0.000634
3814.000000	-0.000593
3813.000000	-0.000582
3812.000000	-0.000591
3811.000000	-0.000603
3810.000000	-0.000621
3809.000000	-0.000653
3808.000000	-0.000683
3807.000000	-0.000680
3806.000000	-0.000649
3805.000000	-0.000631
3804.000000	-0.000654
3803.000000	-0.000689
3802.000000	-0.000678
3801.000000	-0.000608
3800.000000	-0.000539
3799.000000	-0.000523
3798.000000	-0.000551
3797.000000	-0.000584
3796.000000	-0.000594
3795.000000	-0.000587
3794.000000	-0.000581
3793.000000	-0.000582
3792.000000	-0.000579
3791.000000	-0.000564
3790.000000	-0.000536
3789.000000	-0.000503
3788.000000	-0.000469
3787.000000	-0.000443
3786.000000	-0.000436
3785.000000	-0.000447
3784.000000	-0.000468
3783.000000	-0.000493
3782.000000	-0.000523
3781.000000	-0.000555
3780.000000	-0.000578
3779.000000	-0.000587
3778.000000	-0.000589
3777.000000	-0.000597
3776.000000	-0.000614
3775.000000	-0.000628
3774.000000	-0.000631
3773.000000	-0.000632
3772.000000	-0.000643
3771.000000	-0.000658
3770.000000	-0.000656
3769.000000	-0.000638
3768.000000	-0.000623
3767.000000	-0.000621
3766.000000	-0.000620
3765.000000	-0.000603
3764.000000	-0.000578
3763.000000	-0.000569
3762.000000	-0.000582
3761.000000	-0.000593
3760.000000	-0.000578
3759.000000	-0.000555
3758.000000	-0.000548
3757.000000	-0.000551
3756.000000	-0.000546
3755.000000	-0.000535
3754.000000	-0.000533
3753.000000	-0.000557
3752.000000	-0.000611
3751.000000	-0.000682
3750.000000	-0.000728
3749.000000	-0.000712
3748.000000	-0.000659
3747.000000	-0.000634
3746.000000	-0.000662
3745.000000	-0.000689
3744.000000	-0.000660
3743.000000	-0.000615
3742.000000	-0.000627
3741.000000	-0.000696
3740.000000	-0.000768
3739.000000	-0.000811
3738.000000	-0.000830
3737.000000	-0.000823
3736.000000	-0.000778
3735.000000	-0.000717
3734.000000	-0.000692
3733.000000	-0.000708
3732.000000	-0.000716
3731.000000	-0.000690
3730.000000	-0.000653
3729.000000	-0.000643
3728.000000	-0.000667
3727.000000	-0.000697
3726.000000	-0.000709
3725.000000	-0.000707
3724.000000	-0.000694
3723.000000	-0.000662
3722.000000	-0.000611
3721.000000	-0.000560
3720.000000	-0.000533
3719.000000	-0.000537
3718.000000	-0.000558
3717.000000	-0.000574
3716.000000	-0.000579
3715.000000	-0.000586
3714.000000	-0.000600
3713.000000	-0.000604
3712.000000	-0.000579
3711.000000	-0.000539
3710.000000	-0.000515
3709.000000	-0.000516
3708.000000	-0.000526
3707.000000	-0.000527
3706.000000	-0.000516
3705.000000	-0.000509
3704.000000	-0.000520
3703.000000	-0.000549
3702.000000	-0.000580
3701.000000	-0.000596
3700.000000	-0.000594
3699.000000	-0.000582
3698.000000	-0.000570
3697.000000	-0.000552
3696.000000	-0.000521
3695.000000	-0.000485
3694.000000	-0.000451
3693.000000	-0.000416
3692.000000	-0.000385
3691.000000	-0.000382
3690.000000	-0.000430
3689.000000	-0.000505
3688.000000	-0.000545
3687.000000	-0.000534
3686.000000	-0.000511
3685.000000	-0.000502
3684.000000	-0.000497
3683.000000	-0.000481
3682.000000	-0.000452
3681.000000	-0.000417
3680.000000	-0.000378
3679.000000	-0.000348
3678.000000	-0.000356
3677.000000	-0.000404
3676.000000	-0.000442
3675.000000	-0.000435
3674.000000	-0.000410
3673.000000	-0.000403
3672.000000	-0.000425
3671.000000	-0.000441
3670.000000	-0.000414
3669.000000	-0.000374
3668.000000	-0.000360
3667.000000	-0.000371
3666.000000	-0.000389
3665.000000	-0.000396
3664.000000	-0.000380
3663.000000	-0.000342
3662.000000	-0.000291
3661.000000	-0.000249
3660.000000	-0.000236
3659.000000	-0.000260
3658.000000	-0.000310
3657.000000	-0.000349
3656.000000	-0.000351
3655.000000	-0.000324
3654.000000	-0.000306
3653.000000	-0.000318
3652.000000	-0.000351
3651.000000	-0.000377
3650.000000	-0.000377
3649.000000	-0.000356
3648.000000	-0.000316
3647.000000	-0.000256
3646.000000	-0.000193
3645.000000	-0.000145
3644.000000	-0.000112
3643.000000	-0.000088
3642.000000	-0.000059
3641.000000	-0.000027
3640.000000	0.000002
3639.000000	0.000028
3638.000000	0.000049
3637.000000	0.000059
3636.000000	0.000052
3635.000000	0.000036
3634.000000	0.000029
3633.000000	0.000027
3632.000000	0.000004
3631.000000	-0.000053
3630.000000	-0.000110
3629.000000	-0.000116
3628.000000	-0.000074
3627.000000	-0.000029
3626.000000	0.000005
3625.000000	0.000041
3624.000000	0.000098
3623.000000	0.000174
3622.000000	0.000245
3621.000000	0.000298
3620.000000	0.000338
3619.000000	0.000366
3618.000000	0.000379
3617.000000	0.000376
3616.000000	0.000361
3615.000000	0.000341
3614.000000	0.000327
3613.000000	0.000319
3612.000000	0.000308
3611.000000	0.000293
3610.000000	0.000288
3609.000000	0.000316
3608.000000	0.000380
3607.000000	0.000452
3606.000000	0.000507
3605.000000	0.000538
3604.000000	0.000553
3603.000000	0.000566
3602.000000	0.000584
3601.000000	0.000614
3600.000000	0.000657
3599.000000	0.000708
3598.000000	0.000763
3597.000000	0.000821
3596.000000	0.000876
3595.000000	0.000915
3594.000000	0.000923
3593.000000	0.000905
3592.000000	0.000880
3591.000000	0.000869
3590.000000	0.000884
3589.000000	0.000926
3588.000000	0.000980
3587.000000	0.001023
3586.000000	0.001048
3585.000000	0.001070
3584.000000	0.001105
3583.000000	0.001154
3582.000000	0.001205
3581.000000	0.001248
3580.000000	0.001281
3579.000000	0.001309
3578.000000	0.001338
3577.000000	0.001367
3576.000000	0.001393
3575.000000	0.001417
3574.000000	0.001453
3573.000000	0.001511
3572.000000	0.001586
3571.000000	0.001659
3570.000000	0.001710
3569.000000	0.001734
3568.000000	0.001751
3567.000000	0.001780
3566.000000	0.001816
3565.000000	0.001838
3564.000000	0.001841
3563.000000	0.001835
3562.000000	0.001838
3561.000000	0.001855
3560.000000	0.001881
3559.000000	0.001907
3558.000000	0.001930
3557.000000	0.001956
3556.000000	0.001986
3555.000000	0.002020
3554.000000	0.002059
3553.000000	0.002102
3552.000000	0.002147
3551.000000	0.002190
3550.000000	0.002227
3549.000000	0.002260
3548.000000	0.002293
3547.000000	0.002325
3546.000000	0.002357
3545.000000	0.002392
3544.000000	0.002431
3543.000000	0.002474
3542.000000	0.002514
3541.000000	0.002547
3540.000000	0.002575
3539.000000	0.002607
3538.000000	0.002654
3537.000000	0.002714
3536.000000	0.002780
3535.000000	0.002840
3534.000000	0.002888
3533.000000	0.002921
3532.000000	0.002940
3531.000000	0.002951
3530.000000	0.002957
3529.000000	0.002960
3528.000000	0.002959
3527.000000	0.002961
3526.000000	0.002971
3525.000000	0.002993
3524.000000	0.003030
3523.000000	0.003083
3522.000000	0.003142
3521.000000	0.003194
3520.000000	0.003230
3519.000000	0.003254
3518.000000	0.003278
3517.000000	0.003307
3516.000000	0.003335
3515.000000	0.003351
3514.000000	0.003359
3513.000000	0.003369
3512.000000	0.003392
3511.000000	0.003426
3510.000000	0.003458
3509.000000	0.003483
3508.000000	0.003503
3507.000000	0.003525
3506.000000	0.003547
3505.000000	0.003563
3504.000000	0.003574
3503.000000	0.003589
3502.000000	0.003618
3501.000000	0.003665
3500.000000	0.003720
3499.000000	0.003775
3498.000000	0.003824
3497.000000	0.003863
3496.000000	0.003889
3495.000000	0.003905
3494.000000	0.003917
3493.000000	0.003933
3492.000000	0.003959
3491.000000	0.003998
3490.000000	0.004046
3489.000000	0.004088
3488.000000	0.004112
3487.000000	0.004119
3486.000000	0.004122
3485.000000	0.004138
3484.000000	0.004171
3483.000000	0.004213
3482.000000	0.004251
3481.000000	0.004276
3480.000000	0.004291
3479.000000	0.004304
3478.000000	0.004322
3477.000000	0.004343
3476.000000	0.004370
3475.000000	0.004411
3474.000000	0.004469
3473.000000	0.004532
3472.000000	0.004580
3471.000000	0.004598
3470.000000	0.004591
3469.000000	0.004580
3468.000000	0.004582
3467.000000	0.004599
3466.000000	0.004624
3465.000000	0.004652
3464.000000	0.004682
3463.000000	0.004712
3462.000000	0.004738
3461.000000	0.004756
3460.000000	0.004772
3459.000000	0.004800
3458.000000	0.004849
3457.000000	0.004913
3456.000000	0.004970
3455.000000	0.005003
3454.000000	0.005009
3453.000000	0.005003
3452.000000	0.005005
3451.000000	0.005027
3450.000000	0.005067
3449.000000	0.005113
3448.000000	0.005147
3447.000000	0.005163
3446.000000	0.005165
3445.000000	0.005164
3444.000000	0.005171
3443.000000	0.005194
3442.000000	0.005232
3441.000000	0.005279
3440.000000	0.005318
3439.000000	0.005340
3438.000000	0.005348
3437.000000	0.005353
3436.000000	0.005363
3435.000000	0.005378
3434.000000	0.005398
3433.000000	0.005425
3432.000000	0.005462
3431.000000	0.005504
3430.000000	0.005546
3429.000000	0.005582
3428.000000	0.005611
3427.000000	0.005630
3426.000000	0.005639
3425.000000	0.005643
3424.000000	0.005648
3423.000000	0.005664
3422.000000	0.005701
3421.000000	0.005754
3420.000000	0.005807
3419.000000	0.005843
3418.000000	0.005859
3417.000000	0.005868
3416.000000	0.005882
3415.000000	0.005905
3414.000000	0.005932
3413.000000	0.005953
3412.000000	0.005965
3411.000000	0.005975
3410.000000	0.005987
3409.000000	0.006000
3408.000000	0.006015
3407.000000	0.006034
3406.000000	0.006062
3405.000000	0.006095
3404.000000	0.006120
3403.000000	0.006129
3402.000000	0.006128
3401.000000	0.006130
3400.000000	0.006146
3399.000000	0.006177
3398.000000	0.006220
3397.000000	0.006268
3396.000000	0.006309
3395.000000	0.006336
3394.000000	0.006345
3393.000000	0.006343
3392.000000	0.006335
3391.000000	0.006328
3390.000000	0.006328
3389.000000	0.006334
3388.000000	0.006346
3387.000000	0.006364
3386.000000	0.006390
3385.000000	0.006426
3384.000000	0.006469
3383.000000	0.006511
3382.000000	0.006539
3381.000000	0.006548
3380.000000	0.006537
3379.000000	0.006522
3378.000000	0.006522
3377.000000	0.006547
3376.000000	0.006586
3375.000000	0.006620
3374.000000	0.006640
3373.000000	0.006654
3372.000000	0.006669
3371.000000	0.006683
3370.000000	0.006686
3369.000000	0.006682
3368.000000	0.006680
3367.000000	0.006687
3366.000000	0.006698
3365.000000	0.006708
3364.000000	0.006714
3363.000000	0.006716
3362.000000	0.006717
3361.000000	0.006722
3360.000000	0.006739
3359.000000	0.006768
3358.000000	0.006799
3357.000000	0.006826
3356.000000	0.006848
3355.000000	0.006870
3354.000000	0.006896
3353.000000	0.006922
3352.000000	0.006949
3351.000000	0.006978
3350.000000	0.007009
3349.000000	0.007037
3348.000000	0.007057
3347.000000	0.007070
3346.000000	0.007078
3345.000000	0.007086
3344.000000	0.007099
3343.000000	0.007122
3342.000000	0.007150
3341.000000	0.007168
3340.000000	0.007166
3339.000000	0.007142
3338.000000	0.007114
3337.000000	0.007104
3336.000000	0.007124
3335.000000	0.007167
3334.000000	0.007214
3333.000000	0.007250
3332.000000	0.007270
3331.000000	0.007279
3330.000000	0.007285
3329.000000	0.007290
3328.000000	0.007293
3327.000000	0.007291
3326.000000	0.007286
3325.000000	0.007285
3324.000000	0.007295
3323.000000	0.007320
3322.000000	0.007359
3321.000000	0.007404
3320.000000	0.007447
3319.000000	0.007484
3318.000000	0.007509
3317.000000	0.007520
3316.000000	0.007522
3315.000000	0.007519
3314.000000	0.007519
3313.000000	0.007521
3312.000000	0.007524
3311.000000	0.007528
3310.000000	0.007533
3309.000000	0.007534
3308.000000	0.007527
3307.000000	0.007518
3306.000000	0.007519
3305.000000	0.007538
3304.000000	0.007568
3303.000000	0.007596
3302.000000	0.007613
3301.000000	0.007617
3300.000000	0.007609
3299.000000	0.007592
3298.000000	0.007570
3297.000000	0.007553
3296.000000	0.007549
3295.000000	0.007555
3294.000000	0.007564
3293.000000	0.007572
3292.000000	0.007586
3291.000000	0.007608
3290.000000	0.007628
3289.000000	0.007632
3288.000000	0.007615
3287.000000	0.007584
3286.000000	0.007557
3285.000000	0.007545
3284.000000	0.007554
3283.000000	0.007581
3282.000000	0.007615
3281.000000	0.007642
3280.000000	0.007650
3279.000000	0.007636
3278.000000	0.007604
3277.000000	0.007564
3276.000000	0.007526
3275.000000	0.007495
3274.000000	0.007472
3273.000000	0.007455
3272.000000	0.007445
3271.000000	0.007447
3270.000000	0.007461
3269.000000	0.007481
3268.000000	0.007499
3267.000000	0.007509
3266.000000	0.007513
3265.000000	0.007513
3264.000000	0.007512
3263.000000	0.007508
3262.000000	0.007497
3261.000000	0.007476
3260.000000	0.007444
3259.000000	0.007410
3258.000000	0.007383
3257.000000	0.007362
3256.000000	0.007344
3255.000000	0.007324
3254.000000	0.007306
3253.000000	0.007298
3252.000000	0.007299
3251.000000	0.007297
3250.000000	0.007280
3249.000000	0.007249
3248.000000	0.007217
3247.000000	0.007198
3246.000000	0.007199
3245.000000	0.007213
3244.000000	0.007234
3243.000000	0.007252
3242.000000	0.007257
3241.000000	0.007239
3240.000000	0.007194
3239.000000	0.007135
3238.000000	0.007079
3237.000000	0.007035
3236.000000	0.007002
3235.000000	0.006977
3234.000000	0.006963
3233.000000	0.006965
3232.000000	0.006978
3231.000000	0.006988
3230.000000	0.006983
3229.000000	0.006960
3228.000000	0.006930
3227.000000	0.006905
3226.000000	0.006892
3225.000000	0.006891
3224.000000	0.006895
3223.000000	0.006897
3222.000000	0.006894
3221.000000	0.006885
3220.000000	0.006874
3219.000000	0.006861
3218.000000	0.006849
3217.000000	0.006836
3216.000000	0.006817
3215.000000	0.006790
3214.000000	0.006758
3213.000000	0.006730
3212.000000	0.006716
3211.000000	0.006716
3210.000000	0.006728
3209.000000	0.006744
3208.000000	0.006760
3207.000000	0.006772
3206.000000	0.006773
3205.000000	0.006760
3204.000000	0.006736
3203.000000	0.006709
3202.000000	0.006686
3201.000000	0.006661
3200.000000	0.006629
3199.000000	0.006594
3198.000000	0.006566
3197.000000	0.006553
3196.000000	0.006556
3195.000000	0.006570
3194.000000	0.006584
3193.000000	0.006587
3192.000000	0.006572
3191.000000	0.006540
3190.000000	0.006502
3189.000000	0.006467
3188.000000	0.006439
3187.000000	0.006417
3186.000000	0.006402
3185.000000	0.006399
3184.000000	0.006413
3183.000000	0.006437
3182.000000	0.006455
3181.000000	0.006454
3180.000000	0.006431
3179.000000	0.006395
3178.000000	0.006351
3177.000000	0.006305
3176.000000	0.006260
3175.000000	0.006223
3174.000000	0.006197
3173.000000	0.006176
3172.000000	0.006155
3171.000000	0.006135
3170.000000	0.006125
3169.000000	0.006128
3168.000000	0.006134
3167.000000	0.006132
3166.000000	0.006119
3165.000000	0.006104
3164.000000	0.006093
3163.000000	0.006081
3162.000000	0.006062
3161.000000	0.006036
3160.000000	0.006006
3159.000000	0.005978
3158.000000	0.005953
3157.000000	0.005931
3156.000000	0.005914
3155.000000	0.005901
3154.000000	0.005889
3153.000000	0.005870
3152.000000	0.005843
3151.000000	0.005811
3150.000000	0.005781
3149.000000	0.005757
3148.000000	0.005736
3147.000000	0.005714
3146.000000	0.005684
3145.000000	0.005645
3144.000000	0.005599
3143.000000	0.005553
3142.000000	0.005517
3141.000000	0.005498
3140.000000	0.005494
3139.000000	0.005491
3138.000000	0.005476
3137.000000	0.005443
3136.000000	0.005401
3135.000000	0.005369
3134.000000	0.005353
3133.000000	0.005348
3132.000000	0.005341
3131.000000	0.005325
3130.000000	0.005299
3129.000000	0.005273
3128.000000	0.005250
3127.000000	0.005234
3126.000000	0.005223
3125.000000	0.005207
3124.000000	0.005179
3123.000000	0.005135
3122.000000	0.005081
3121.000000	0.005029
3120.000000	0.004992
3119.000000	0.004974
3118.000000	0.004974
3117.000000	0.004980
3116.000000	0.004981
3115.000000	0.004972
3114.000000	0.004961
3113.000000	0.004958
3112.000000	0.004965
3111.000000	0.004970
3110.000000	0.004966
3109.000000	0.004953
3108.000000	0.004932
3107.000000	0.004901
3106.000000	0.004860
3105.000000	0.004822
3104.000000	0.004803
3103.000000	0.004803
3102.000000	0.004804
3101.000000	0.004791
3100.000000	0.004764
3099.000000	0.004731
3098.000000	0.004699
3097.000000	0.004667
3096.000000	0.004636
3095.000000	0.004608
3094.000000	0.004586
3093.000000	0.004567
3092.000000	0.004550
3091.000000	0.004533
3090.000000	0.004519
3089.000000	0.004510
3088.000000	0.004507
3087.000000	0.004504
3086.000000	0.004500
3085.000000	0.004492
3084.000000	0.004486
3083.000000	0.004484
3082.000000	0.004486
3081.000000	0.004481
3080.000000	0.004461
3079.000000	0.004429
3078.000000	0.004401
3077.000000	0.004390
3076.000000	0.004393
3075.000000	0.004394
3074.000000	0.004377
3073.000000	0.004341
3072.000000	0.004299
3071.000000	0.004263
3070.000000	0.004244
3069.000000	0.004236
3068.000000	0.004232
3067.000000	0.004226
3066.000000	0.004217
3065.000000	0.004207
3064.000000	0.004195
3063.000000	0.004184
3062.000000	0.004175
3061.000000	0.004175
3060.000000	0.004183
3059.000000	0.004192
3058.000000	0.004194
3057.000000	0.004181
3056.000000	0.004155
3055.000000	0.004129
3054.000000	0.004116
3053.000000	0.004116
3052.000000	0.004112
3051.000000	0.004090
3050.000000	0.004058
3049.000000	0.004032
3048.000000	0.004020
3047.000000	0.004013
3046.000000	0.003998
3045.000000	0.003968
3044.000000	0.003926
3043.000000	0.003877
3042.000000	0.003835
3041.000000	0.003812
3040.000000	0.003818
3039.000000	0.003842
3038.000000	0.003862
3037.000000	0.003858
3036.000000	0.003829
3035.000000	0.003791
3034.000000	0.003766
3033.000000	0.003762
3032.000000	0.003778
3031.000000	0.003802
3030.000000	0.003820
3029.000000	0.003824
3028.000000	0.003810
3027.000000	0.003788
3026.000000	0.003769
3025.000000	0.003762
3024.000000	0.003763
3023.000000	0.003760
3022.000000	0.003737
3021.000000	0.003692
3020.000000	0.003637
3019.000000	0.003596
3018.000000	0.003586
3017.000000	0.003611
3016.000000	0.003654
3015.000000	0.003696
3014.000000	0.003724
3013.000000	0.003733
3012.000000	0.003727
3011.000000	0.003710
3010.000000	0.003690
3009.000000	0.003672
3008.000000	0.003662
3007.000000	0.003664
3006.000000	0.003675
3005.000000	0.003690
3004.000000	0.003698
3003.000000	0.003697
3002.000000	0.003688
3001.000000	0.003679
3000.000000	0.003678
2999.000000	0.003684
2998.000000	0.003694
2997.000000	0.003702
2996.000000	0.003708
2995.000000	0.003719
2994.000000	0.003738
2993.000000	0.003766
2992.000000	0.003797
2991.000000	0.003831
2990.000000	0.003868
2989.000000	0.003902
2988.000000	0.003921
2987.000000	0.003921
2986.000000	0.003910
2985.000000	0.003904
2984.000000	0.003917
2983.000000	0.003947
2982.000000	0.003984
2981.000000	0.004016
2980.000000	0.004037
2979.000000	0.004056
2978.000000	0.004086
2977.000000	0.004134
2976.000000	0.004194
2975.000000	0.004254
2974.000000	0.004308
2973.000000	0.004358
2972.000000	0.004410
2971.000000	0.004467
2970.000000	0.004527
2969.000000	0.004581
2968.000000	0.004618
2967.000000	0.004639
2966.000000	0.004659
2965.000000	0.004697
2964.000000	0.004755
2963.000000	0.004820
2962.000000	0.004874
2961.000000	0.004915
2960.000000	0.004950
2959.000000	0.004989
2958.000000	0.005034
2957.000000	0.005083
2956.000000	0.005133
2955.000000	0.005177
2954.000000	0.005206
2953.000000	0.005222
2952.000000	0.005226
2951.000000	0.005227
2950.000000	0.005228
2949.000000	0.005234
2948.000000	0.005251
2947.000000	0.005283
2946.000000	0.005332
2945.000000	0.005401
2944.000000	0.005487
2943.000000	0.005584
2942.000000	0.005678
2941.000000	0.005757
2940.000000	0.005821
2939.000000	0.005879
2938.000000	0.005940
2937.000000	0.006006
2936.000000	0.006074
2935.000000	0.006137
2934.000000	0.006193
2933.000000	0.006238
2932.000000	0.006276
2931.000000	0.006310
2930.000000	0.006346
2929.000000	0.006384
2928.000000	0.006422
2927.000000	0.006457
2926.000000	0.006489
2925.000000	0.006518
2924.000000	0.006546
2923.000000	0.006569
2922.000000	0.006580
2921.000000	0.006577
2920.000000	0.006560
2919.000000	0.006527
2918.000000	0.006477
2917.000000	0.006411
2916.000000	0.006335
2915.000000	0.006258
2914.000000	0.006189
2913.000000	0.006135
2912.000000	0.006094
2911.000000	0.006056
2910.000000	0.006012
2909.000000	0.005958
2908.000000	0.005899
2907.000000	0.005844
2906.000000	0.005794
2905.000000	0.005751
2904.000000	0.005716
2903.000000	0.005688
2902.000000	0.005664
2901.000000	0.005641
2900.000000	0.005619
2899.000000	0.005597
2898.000000	0.005573
2897.000000	0.005538
2896.000000	0.005494
2895.000000	0.005444
2894.000000	0.005396
2893.000000	0.005355
2892.000000	0.005325
2891.000000	0.005305
2890.000000	0.005284
2889.000000	0.005249
2888.000000	0.005199
2887.000000	0.005149
2886.000000	0.005117
2885.000000	0.005105
2884.000000	0.005104
2883.000000	0.005108
2882.000000	0.005114
2881.000000	0.005125
2880.000000	0.005140
2879.000000	0.005150
2878.000000	0.005149
2877.000000	0.005138
2876.000000	0.005122
2875.000000	0.005107
2874.000000	0.005095
2873.000000	0.005082
2872.000000	0.005067
2871.000000	0.005049
2870.000000	0.005030
2869.000000	0.005014
2868.000000	0.005002
2867.000000	0.004992
2866.000000	0.004980
2865.000000	0.004973
2864.000000	0.004977
2863.000000	0.004995
2862.000000	0.005016
2861.000000	0.005026
2860.000000	0.005024
2859.000000	0.005025
2858.000000	0.005044
2857.000000	0.005080
2856.000000	0.005122
2855.000000	0.005152
2854.000000	0.005165
2853.000000	0.005157
2852.000000	0.005131
2851.000000	0.005094
2850.000000	0.005052
2849.000000	0.005011
2848.000000	0.004969
2847.000000	0.004916
2846.000000	0.004846
2845.000000	0.004755
2844.000000	0.004653
2843.000000	0.004552
2842.000000	0.004458
2841.000000	0.004367
2840.000000	0.004275
2839.000000	0.004185
2838.000000	0.004106
2837.000000	0.004044
2836.000000	0.003998
2835.000000	0.003963
2834.000000	0.003934
2833.000000	0.003907
2832.000000	0.003881
2831.000000	0.003857
2830.000000	0.003836
2829.000000	0.003816
2828.000000	0.003795
2827.000000	0.003766
2826.000000	0.003735
2825.000000	0.003705
2824.000000	0.003679
2823.000000	0.003650
2822.000000	0.003613
2821.000000	0.003574
2820.000000	0.003539
2819.000000	0.003512
2818.000000	0.003492
2817.000000	0.003481
2816.000000	0.003479
2815.000000	0.003479
2814.000000	0.003470
2813.000000	0.003447
2812.000000	0.003413
2811.000000	0.003379
2810.000000	0.003353
2809.000000	0.003341
2808.000000	0.003343
2807.000000	0.003349
2806.000000	0.003346
2805.000000	0.003325
2804.000000	0.003295
2803.000000	0.003269
2802.000000	0.003254
2801.000000	0.003244
2800.000000	0.003237
2799.000000	0.003233
2798.000000	0.003234
2797.000000	0.003240
2796.000000	0.003249
2795.000000	0.003254
2794.000000	0.003246
2793.000000	0.003217
2792.000000	0.003176
2791.000000	0.003139
2790.000000	0.003116
2789.000000	0.003105
2788.000000	0.003100
2787.000000	0.003096
2786.000000	0.003096
2785.000000	0.003098
2784.000000	0.003102
2783.000000	0.003104
2782.000000	0.003101
2781.000000	0.003091
2780.000000	0.003075
2779.000000	0.003061
2778.000000	0.003054
2777.000000	0.003047
2776.000000	0.003038
2775.000000	0.003029
2774.000000	0.003029
2773.000000	0.003036
2772.000000	0.003038
2771.000000	0.003030
2770.000000	0.003012
2769.000000	0.002989
2768.000000	0.002963
2767.000000	0.002941
2766.000000	0.002928
2765.000000	0.002928
2764.000000	0.002938
2763.000000	0.002948
2762.000000	0.002954
2761.000000	0.002956
2760.000000	0.002953
2759.000000	0.002943
2758.000000	0.002927
2757.000000	0.002908
2756.000000	0.002895
2755.000000	0.002895
2754.000000	0.002913
2753.000000	0.002943
2752.000000	0.002974
2751.000000	0.002995
2750.000000	0.002999
2749.000000	0.002987
2748.000000	0.002962
2747.000000	0.002934
2746.000000	0.002912
2745.000000	0.002899
2744.000000	0.002892
2743.000000	0.002888
2742.000000	0.002886
2741.000000	0.002885
2740.000000	0.002882
2739.000000	0.002875
2738.000000	0.002867
2737.000000	0.002865
2736.000000	0.002874
2735.000000	0.002891
2734.000000	0.002908
2733.000000	0.002915
2732.000000	0.002914
2731.000000	0.002910
2730.000000	0.002909
2729.000000	0.002911
2728.000000	0.002906
2727.000000	0.002892
2726.000000	0.002871
2725.000000	0.002851
2724.000000	0.002836
2723.000000	0.002831
2722.000000	0.002836
2721.000000	0.002846
2720.000000	0.002850
2719.000000	0.002842
2718.000000	0.002826
2717.000000	0.002813
2716.000000	0.002810
2715.000000	0.002815
2714.000000	0.002818
2713.000000	0.002809
2712.000000	0.002785
2711.000000	0.002751
2710.000000	0.002719
2709.000000	0.002694
2708.000000	0.002681
2707.000000	0.002683
2706.000000	0.002703
2705.000000	0.002733
2704.000000	0.002754
2703.000000	0.002753
2702.000000	0.002731
2701.000000	0.002704
2700.000000	0.002684
2699.000000	0.002679
2698.000000	0.002683
2697.000000	0.002689
2696.000000	0.002687
2695.000000	0.002677
2694.000000	0.002668
2693.000000	0.002664
2692.000000	0.002661
2691.000000	0.002651
2690.000000	0.002634
2689.000000	0.002613
2688.000000	0.002594
2687.000000	0.002585
2686.000000	0.002592
2685.000000	0.002613
2684.000000	0.002636
2683.000000	0.002647
2682.000000	0.002642
2681.000000	0.002629
2680.000000	0.002616
2679.000000	0.002601
2678.000000	0.002583
2677.000000	0.002564
2676.000000	0.002548
2675.000000	0.002534
2674.000000	0.002521
2673.000000	0.002511
2672.000000	0.002512
2671.000000	0.002522
2670.000000	0.002536
2669.000000	0.002543
2668.000000	0.002542
2667.000000	0.002539
2666.000000	0.002542
2665.000000	0.002550
2664.000000	0.002558
2663.000000	0.002565
2662.000000	0.002578
2661.000000	0.002601
2660.000000	0.002630
2659.000000	0.002655
2658.000000	0.002666
2657.000000	0.002661
2656.000000	0.002643
2655.000000	0.002619
2654.000000	0.002600
2653.000000	0.002594
2652.000000	0.002595
2651.000000	0.002590
2650.000000	0.002571
2649.000000	0.002550
2648.000000	0.002538
2647.000000	0.002537
2646.000000	0.002538
2645.000000	0.002531
2644.000000	0.002521
2643.000000	0.002517
2642.000000	0.002520
2641.000000	0.002524
2640.000000	0.002526
2639.000000	0.002527
2638.000000	0.002527
2637.000000	0.002522
2636.000000	0.002509
2635.000000	0.002490
2634.000000	0.002468
2633.000000	0.002447
2632.000000	0.002426
2631.000000	0.002408
2630.000000	0.002396
2629.000000	0.002387
2628.000000	0.002375
2627.000000	0.002355
2626.000000	0.002329
2625.000000	0.002298
2624.000000	0.002269
2623.000000	0.002249
2622.000000	0.002244
2621.000000	0.002256
2620.000000	0.002279
2619.000000	0.002298
2618.000000	0.002303
2617.000000	0.002290
2616.000000	0.002273
2615.000000	0.002266
2614.000000	0.002272
2613.000000	0.002273
2612.000000	0.002254
2611.000000	0.002216
2610.000000	0.002182
2609.000000	0.002172
2608.000000	0.002182
2607.000000	0.002196
2606.000000	0.002204
2605.000000	0.002203
2604.000000	0.002196
2603.000000	0.002183
2602.000000	0.002167
2601.000000	0.002144
2600.000000	0.002115
2599.000000	0.002085
2598.000000	0.002069
2597.000000	0.002076
2596.000000	0.002097
2595.000000	0.002119
2594.000000	0.002138
2593.000000	0.002151
2592.000000	0.002151
2591.000000	0.002130
2590.000000	0.002091
2589.000000	0.002055
2588.000000	0.002033
2587.000000	0.002024
2586.000000	0.002011
2585.000000	0.001989
2584.000000	0.001964
2583.000000	0.001957
2582.000000	0.001980
2581.000000	0.002024
2580.000000	0.002062
2579.000000	0.002074
2578.000000	0.002065
2577.000000	0.002047
2576.000000	0.002024
2575.000000	0.001993
2574.000000	0.001960
2573.000000	0.001941
2572.000000	0.001948
2571.000000	0.001977
2570.000000	0.002016
2569.000000	0.002050
2568.000000	0.002062
2567.000000	0.002042
2566.000000	0.001999
2565.000000	0.001960
2564.000000	0.001941
2563.000000	0.001935
2562.000000	0.001928
2561.000000	0.001912
2560.000000	0.001895
2559.000000	0.001881
2558.000000	0.001876
2557.000000	0.001878
2556.000000	0.001886
2555.000000	0.001895
2554.000000	0.001910
2553.000000	0.001937
2552.000000	0.001972
2551.000000	0.001992
2550.000000	0.001980
2549.000000	0.001937
2548.000000	0.001878
2547.000000	0.001815
2546.000000	0.001763
2545.000000	0.001732
2544.000000	0.001727
2543.000000	0.001742
2542.000000	0.001769
2541.000000	0.001805
2540.000000	0.001838
2539.000000	0.001847
2538.000000	0.001819
2537.000000	0.001772
2536.000000	0.001739
2535.000000	0.001737
2534.000000	0.001758
2533.000000	0.001789
2532.000000	0.001818
2531.000000	0.001838
2530.000000	0.001841
2529.000000	0.001825
2528.000000	0.001801
2527.000000	0.001784
2526.000000	0.001775
2525.000000	0.001764
2524.000000	0.001740
2523.000000	0.001713
2522.000000	0.001700
2521.000000	0.001710
2520.000000	0.001733
2519.000000	0.001749
2518.000000	0.001749
2517.000000	0.001741
2516.000000	0.001740
2515.000000	0.001752
2514.000000	0.001771
2513.000000	0.001783
2512.000000	0.001777
2511.000000	0.001757
2510.000000	0.001738
2509.000000	0.001728
2508.000000	0.001724
2507.000000	0.001718
2506.000000	0.001721
2505.000000	0.001757
2504.000000	0.001827
2503.000000	0.001898
2502.000000	0.001921
2501.000000	0.001878
2500.000000	0.001795
2499.000000	0.001713
2498.000000	0.001654
2497.000000	0.001623
2496.000000	0.001614
2495.000000	0.001624
2494.000000	0.001643
2493.000000	0.001655
2492.000000	0.001651
2491.000000	0.001638
2490.000000	0.001628
2489.000000	0.001625
2488.000000	0.001621
2487.000000	0.001603
2486.000000	0.001566
2485.000000	0.001517
2484.000000	0.001471
2483.000000	0.001453
2482.000000	0.001484
2481.000000	0.001552
2480.000000	0.001620
2479.000000	0.001656
2478.000000	0.001663
2477.000000	0.001664
2476.000000	0.001678
2475.000000	0.001698
2474.000000	0.001707
2473.000000	0.001696
2472.000000	0.001666
2471.000000	0.001629
2470.000000	0.001597
2469.000000	0.001576
2468.000000	0.001565
2467.000000	0.001562
2466.000000	0.001573
2465.000000	0.001599
2464.000000	0.001631
2463.000000	0.001653
2462.000000	0.001657
2461.000000	0.001651
2460.000000	0.001646
2459.000000	0.001646
2458.000000	0.001657
2457.000000	0.001685
2456.000000	0.001723
2455.000000	0.001757
2454.000000	0.001776
2453.000000	0.001777
2452.000000	0.001763
2451.000000	0.001733
2450.000000	0.001689
2449.000000	0.001642
2448.000000	0.001604
2447.000000	0.001582
2446.000000	0.001577
2445.000000	0.001587
2444.000000	0.001602
2443.000000	0.001606
2442.000000	0.001593
2441.000000	0.001581
2440.000000	0.001583
2439.000000	0.001592
2438.000000	0.001582
2437.000000	0.001550
2436.000000	0.001524
2435.000000	0.001541
2434.000000	0.001605
2433.000000	0.001673
2432.000000	0.001698
2431.000000	0.001665
2430.000000	0.001609
2429.000000	0.001575
2428.000000	0.001576
2427.000000	0.001593
2426.000000	0.001602
2425.000000	0.001600
2424.000000	0.001599
2423.000000	0.001605
2422.000000	0.001606
2421.000000	0.001593
2420.000000	0.001571
2419.000000	0.001547
2418.000000	0.001524
2417.000000	0.001498
2416.000000	0.001474
2415.000000	0.001469
2414.000000	0.001491
2413.000000	0.001532
2412.000000	0.001568
2411.000000	0.001586
2410.000000	0.001592
2409.000000	0.001592
2408.000000	0.001580
2407.000000	0.001545
2406.000000	0.001496
2405.000000	0.001449
2404.000000	0.001420
2403.000000	0.001407
2402.000000	0.001404
2401.000000	0.001405
2400.000000	0.001406
2399.000000	0.001404
2398.000000	0.001405
2397.000000	0.001414
2396.000000	0.001431
2395.000000	0.001450
2394.000000	0.001466
2393.000000	0.001480
2392.000000	0.001491
2391.000000	0.001484
2390.000000	0.001452
2389.000000	0.001398
2388.000000	0.001338
2387.000000	0.001293
2386.000000	0.001276
2385.000000	0.001280
2384.000000	0.001287
2383.000000	0.001282
2382.000000	0.001263
2381.000000	0.001235
2380.000000	0.001192
2379.000000	0.001135
2378.000000	0.001081
2377.000000	0.001064
2376.000000	0.001099
2375.000000	0.001168
2374.000000	0.001234
2373.000000	0.001269
2372.000000	0.001269
2371.000000	0.001248
2370.000000	0.001226
2369.000000	0.001207
2368.000000	0.001188
2367.000000	0.001174
2366.000000	0.001177
2365.000000	0.001202
2364.000000	0.001224
2363.000000	0.001226
2362.000000	0.001221
2361.000000	0.001234
2360.000000	0.001275
2359.000000	0.001323
2358.000000	0.001342
2357.000000	0.001322
2356.000000	0.001283
2355.000000	0.001264
2354.000000	0.001259
2353.000000	0.001228
2352.000000	0.001161
2351.000000	0.001107
2350.000000	0.001114
2349.000000	0.001179
2348.000000	0.001265
2347.000000	0.001321
2346.000000	0.001333
2345.000000	0.001343
2344.000000	0.001379
2343.000000	0.001427
2342.000000	0.001445
2341.000000	0.001415
2340.000000	0.001373
2339.000000	0.001360
2338.000000	0.001383
2337.000000	0.001428
2336.000000	0.001479
2335.000000	0.001509
2334.000000	0.001494
2333.000000	0.001428
2332.000000	0.001358
2331.000000	0.001333
2330.000000	0.001371
2329.000000	0.001435
2328.000000	0.001507
2327.000000	0.001590
2326.000000	0.001694
2325.000000	0.001799
2324.000000	0.001871
2323.000000	0.001898
2322.000000	0.001892
2321.000000	0.001872
2320.000000	0.001850
2319.000000	0.001830
2318.000000	0.001829
2317.000000	0.001851
2316.000000	0.001883
2315.000000	0.001889
2314.000000	0.001867
2313.000000	0.001836
2312.000000	0.001822
2311.000000	0.001810
2310.000000	0.001776
2309.000000	0.001711
2308.000000	0.001636
2307.000000	0.001573
2306.000000	0.001540
2305.000000	0.001546
2304.000000	0.001584
2303.000000	0.001636
2302.000000	0.001684
2301.000000	0.001725
2300.000000	0.001764
2299.000000	0.001791
2298.000000	0.001785
2297.000000	0.001738
2296.000000	0.001669
2295.000000	0.001609
2294.000000	0.001583
2293.000000	0.001599
2292.000000	0.001651
2291.000000	0.001715
2290.000000	0.001771
2289.000000	0.001815
2288.000000	0.001857
2287.000000	0.001899
2286.000000	0.001920
2285.000000	0.001903
2284.000000	0.001856
2283.000000	0.001802
2282.000000	0.001761
2281.000000	0.001734
2280.000000	0.001707
2279.000000	0.001666
2278.000000	0.001600
2277.000000	0.001514
2276.000000	0.001436
2275.000000	0.001400
2274.000000	0.001423
2273.000000	0.001482
2272.000000	0.001532
2271.000000	0.001547
2270.000000	0.001536
2269.000000	0.001523
2268.000000	0.001522
2267.000000	0.001530
2266.000000	0.001541
2265.000000	0.001544
2264.000000	0.001519
2263.000000	0.001460
2262.000000	0.001397
2261.000000	0.001383
2260.000000	0.001443
2259.000000	0.001535
2258.000000	0.001585
2257.000000	0.001543
2256.000000	0.001417
2255.000000	0.001264
2254.000000	0.001152
2253.000000	0.001119
2252.000000	0.001141
2251.000000	0.001152
2250.000000	0.001112
2249.000000	0.001045
2248.000000	0.001005
2247.000000	0.001027
2246.000000	0.001090
2245.000000	0.001148
2244.000000	0.001171
2243.000000	0.001162
2242.000000	0.001156
2241.000000	0.001177
2240.000000	0.001216
2239.000000	0.001240
2238.000000	0.001226
2237.000000	0.001185
2236.000000	0.001147
2235.000000	0.001140
2234.000000	0.001173
2233.000000	0.001229
2232.000000	0.001261
2231.000000	0.001222
2230.000000	0.001110
2229.000000	0.000977
2228.000000	0.000894
2227.000000	0.000909
2226.000000	0.001023
2225.000000	0.001185
2224.000000	0.001319
2223.000000	0.001378
2222.000000	0.001378
2221.000000	0.001363
2220.000000	0.001346
2219.000000	0.001311
2218.000000	0.001255
2217.000000	0.001204
2216.000000	0.001170
2215.000000	0.001144
2214.000000	0.001119
2213.000000	0.001107
2212.000000	0.001110
2211.000000	0.001119
2210.000000	0.001132
2209.000000	0.001155
2208.000000	0.001174
2207.000000	0.001167
2206.000000	0.001147
2205.000000	0.001161
2204.000000	0.001218
2203.000000	0.001260
2202.000000	0.001241
2201.000000	0.001187
2200.000000	0.001154
2199.000000	0.001161
2198.000000	0.001188
2197.000000	0.001202
2196.000000	0.001176
2195.000000	0.001094
2194.000000	0.000998
2193.000000	0.000977
2192.000000	0.001095
2191.000000	0.001308
2190.000000	0.001510
2189.000000	0.001621
2188.000000	0.001627
2187.000000	0.001552
2186.000000	0.001428
2185.000000	0.001292
2184.000000	0.001169
2183.000000	0.001054
2182.000000	0.000939
2181.000000	0.000848
2180.000000	0.000815
2179.000000	0.000839
2178.000000	0.000889
2177.000000	0.000928
2176.000000	0.000923
2175.000000	0.000859
2174.000000	0.000757
2173.000000	0.000693
2172.000000	0.000736
2171.000000	0.000896
2170.000000	0.001111
2169.000000	0.001289
2168.000000	0.001365
2167.000000	0.001331
2166.000000	0.001244
2165.000000	0.001182
2164.000000	0.001189
2163.000000	0.001237
2162.000000	0.001236
2161.000000	0.001054
2160.000000	0.000587
2159.000000	-0.000112
2158.000000	-0.000779
2157.000000	-0.001132
2156.000000	-0.001140
2155.000000	-0.000986
2154.000000	-0.000832
2153.000000	-0.000717
2152.000000	-0.000630
2151.000000	-0.000569
2150.000000	-0.000528
2149.000000	-0.000494
2148.000000	-0.000473
2147.000000	-0.000491
2146.000000	-0.000527
2145.000000	-0.000517
2144.000000	-0.000438
2143.000000	-0.000336
2142.000000	-0.000259
2141.000000	-0.000185
2140.000000	-0.000063
2139.000000	0.000120
2138.000000	0.000325
2137.000000	0.000496
2136.000000	0.000593
2135.000000	0.000607
2134.000000	0.000558
2133.000000	0.000487
2132.000000	0.000429
2131.000000	0.000390
2130.000000	0.000366
2129.000000	0.000353
2128.000000	0.000358
2127.000000	0.000402
2126.000000	0.000502
2125.000000	0.000634
2124.000000	0.000744
2123.000000	0.000802
2122.000000	0.000837
2121.000000	0.000888
2120.000000	0.000936
2119.000000	0.000936
2118.000000	0.000901
2117.000000	0.000902
2116.000000	0.000972
2115.000000	0.001056
2114.000000	0.001088
2113.000000	0.001062
2112.000000	0.001026
2111.000000	0.001016
2110.000000	0.001048
2109.000000	0.001132
2108.000000	0.001250
2107.000000	0.001337
2106.000000	0.001338
2105.000000	0.001259
2104.000000	0.001161
2103.000000	0.001092
2102.000000	0.001062
2101.000000	0.001055
2100.000000	0.001055
2099.000000	0.001039
2098.000000	0.000997
2097.000000	0.000949
2096.000000	0.000922
2095.000000	0.000917
2094.000000	0.000910
2093.000000	0.000891
2092.000000	0.000878
2091.000000	0.000897
2090.000000	0.000955
2089.000000	0.001023
2088.000000	0.001053
2087.000000	0.001008
2086.000000	0.000912
2085.000000	0.000841
2084.000000	0.000858
2083.000000	0.000956
2082.000000	0.001070
2081.000000	0.001137
2080.000000	0.001141
2079.000000	0.001111
2078.000000	0.001088
2077.000000	0.001077
2076.000000	0.001034
2075.000000	0.000919
2074.000000	0.000765
2073.000000	0.000664
2072.000000	0.000668
2071.000000	0.000722
2070.000000	0.000729
2069.000000	0.000659
2068.000000	0.000561
2067.000000	0.000499
2066.000000	0.000488
2065.000000	0.000497
2064.000000	0.000475
2063.000000	0.000399
2062.000000	0.000299
2061.000000	0.000241
2060.000000	0.000266
2059.000000	0.000349
2058.000000	0.000435
2057.000000	0.000486
2056.000000	0.000493
2055.000000	0.000481
2054.000000	0.000496
2053.000000	0.000584
2052.000000	0.000722
2051.000000	0.000802
2050.000000	0.000722
2049.000000	0.000507
2048.000000	0.000315
2047.000000	0.000295
2046.000000	0.000421
2045.000000	0.000521
2044.000000	0.000446
2043.000000	0.000229
2042.000000	0.000040
2041.000000	0.000006
2040.000000	0.000085
2039.000000	0.000153
2038.000000	0.000172
2037.000000	0.000190
2036.000000	0.000195
2035.000000	0.000108
2034.000000	-0.000076
2033.000000	-0.000223
2032.000000	-0.000231
2031.000000	-0.000171
2030.000000	-0.000178
2029.000000	-0.000286
2028.000000	-0.000428
2027.000000	-0.000545
2026.000000	-0.000609
2025.000000	-0.000588
2024.000000	-0.000488
2023.000000	-0.000387
2022.000000	-0.000369
2021.000000	-0.000448
2020.000000	-0.000581
2019.000000	-0.000734
2018.000000	-0.000879
2017.000000	-0.000966
2016.000000	-0.000958
2015.000000	-0.000876
2014.000000	-0.000760
2013.000000	-0.000625
2012.000000	-0.000474
2011.000000	-0.000335
2010.000000	-0.000250
2009.000000	-0.000247
2008.000000	-0.000311
2007.000000	-0.000393
2006.000000	-0.000449
2005.000000	-0.000500
2004.000000	-0.000602
2003.000000	-0.000737
2002.000000	-0.000774
2001.000000	-0.000607
2000.000000	-0.000314
1999.000000	-0.000094
1998.000000	-0.000056
1997.000000	-0.000133
1996.000000	-0.000218
1995.000000	-0.000278
1994.000000	-0.000323
1993.000000	-0.000326
1992.000000	-0.000249
1991.000000	-0.000122
1990.000000	-0.000007
1989.000000	0.000063
1988.000000	0.000087
1987.000000	0.000060
1986.000000	-0.000011
1985.000000	-0.000086
1984.000000	-0.000119
1983.000000	-0.000089
1982.000000	0.000003
1981.000000	0.000136
1980.000000	0.000250
1979.000000	0.000278
1978.000000	0.000224
1977.000000	0.000149
1976.000000	0.000065
1975.000000	-0.000106
1974.000000	-0.000396
1973.000000	-0.000683
1972.000000	-0.000795
1971.000000	-0.000699
1970.000000	-0.000537
1969.000000	-0.000479
1968.000000	-0.000580
1967.000000	-0.000752
1966.000000	-0.000880
1965.000000	-0.000922
1964.000000	-0.000914
1963.000000	-0.000888
1962.000000	-0.000812
1961.000000	-0.000647
1960.000000	-0.000420
1959.000000	-0.000222
1958.000000	-0.000129
1957.000000	-0.000163
1956.000000	-0.000295
1955.000000	-0.000459
1954.000000	-0.000574
1953.000000	-0.000591
1952.000000	-0.000533
1951.000000	-0.000454
1950.000000	-0.000378
1949.000000	-0.000295
1948.000000	-0.000209
1947.000000	-0.000155
1946.000000	-0.000152
1945.000000	-0.000183
1944.000000	-0.000217
1943.000000	-0.000209
1942.000000	-0.000118
1941.000000	0.000045
1940.000000	0.000193
1939.000000	0.000247
1938.000000	0.000212
1937.000000	0.000156
1936.000000	0.000129
1935.000000	0.000127
1934.000000	0.000124
1933.000000	0.000111
1932.000000	0.000085
1931.000000	0.000038
1930.000000	-0.000015
1929.000000	-0.000040
1928.000000	-0.000033
1927.000000	-0.000029
1926.000000	-0.000046
1925.000000	-0.000053
1924.000000	-0.000016
1923.000000	0.000056
1922.000000	0.000115
1921.000000	0.000120
1920.000000	0.000063
1919.000000	-0.000010
1918.000000	-0.000004
1917.000000	0.000129
1916.000000	0.000302
1915.000000	0.000378
1914.000000	0.000316
1913.000000	0.000194
1912.000000	0.000115
1911.000000	0.000104
1910.000000	0.000125
1909.000000	0.000135
1908.000000	0.000112
1907.000000	0.000058
1906.000000	0.000001
1905.000000	-0.000027
1904.000000	-0.000028
1903.000000	-0.000023
1902.000000	-0.000011
1901.000000	0.000028
1900.000000	0.000085
1899.000000	0.000126
1898.000000	0.000132
1897.000000	0.000118
1896.000000	0.000105
1895.000000	0.000092
1894.000000	0.000080
1893.000000	0.000061
1892.000000	0.000007
1891.000000	-0.000094
1890.000000	-0.000188
1889.000000	-0.000194
1888.000000	-0.000114
1887.000000	-0.000032
1886.000000	0.000009
1885.000000	0.000029
1884.000000	0.000049
1883.000000	0.000052
1882.000000	0.000026
1881.000000	-0.000017
1880.000000	-0.000064
1879.000000	-0.000104
1878.000000	-0.000117
1877.000000	-0.000084
1876.000000	-0.000028
1875.000000	0.000001
1874.000000	-0.000017
1873.000000	-0.000055
1872.000000	-0.000085
1871.000000	-0.000109
1870.000000	-0.000121
1869.000000	-0.000093
1868.000000	-0.000043
1867.000000	-0.000039
1866.000000	-0.000090
1865.000000	-0.000140
1864.000000	-0.000159
1863.000000	-0.000177
1862.000000	-0.000218
1861.000000	-0.000260
1860.000000	-0.000277
1859.000000	-0.000277
1858.000000	-0.000271
1857.000000	-0.000243
1856.000000	-0.000189
1855.000000	-0.000129
1854.000000	-0.000084
1853.000000	-0.000067
1852.000000	-0.000093
1851.000000	-0.000167
1850.000000	-0.000265
1849.000000	-0.000340
1848.000000	-0.000375
1847.000000	-0.000389
1846.000000	-0.000385
1845.000000	-0.000343
1844.000000	-0.000270
1843.000000	-0.000218
1842.000000	-0.000214
1841.000000	-0.000235
1840.000000	-0.000252
1839.000000	-0.000253
1838.000000	-0.000233
1837.000000	-0.000194
1836.000000	-0.000164
1835.000000	-0.000182
1834.000000	-0.000251
1833.000000	-0.000332
1832.000000	-0.000385
1831.000000	-0.000399
1830.000000	-0.000395
1829.000000	-0.000398
1828.000000	-0.000417
1827.000000	-0.000445
1826.000000	-0.000463
1825.000000	-0.000447
1824.000000	-0.000405
1823.000000	-0.000377
1822.000000	-0.000379
1821.000000	-0.000386
1820.000000	-0.000386
1819.000000	-0.000405
1818.000000	-0.000456
1817.000000	-0.000500
1816.000000	-0.000509
1815.000000	-0.000514
1814.000000	-0.000551
1813.000000	-0.000590
1812.000000	-0.000570
1811.000000	-0.000503
1810.000000	-0.000450
1809.000000	-0.000430
1808.000000	-0.000423
1807.000000	-0.000431
1806.000000	-0.000453
1805.000000	-0.000475
1804.000000	-0.000490
1803.000000	-0.000521
1802.000000	-0.000571
1801.000000	-0.000597
1800.000000	-0.000579
1799.000000	-0.000567
1798.000000	-0.000598
1797.000000	-0.000636
1796.000000	-0.000643
1795.000000	-0.000636
1794.000000	-0.000638
1793.000000	-0.000637
1792.000000	-0.000602
1791.000000	-0.000569
1790.000000	-0.000581
1789.000000	-0.000621
1788.000000	-0.000659
1787.000000	-0.000687
1786.000000	-0.000701
1785.000000	-0.000683
1784.000000	-0.000636
1783.000000	-0.000595
1782.000000	-0.000580
1781.000000	-0.000587
1780.000000	-0.000604
1779.000000	-0.000634
1778.000000	-0.000673
1777.000000	-0.000709
1776.000000	-0.000748
1775.000000	-0.000799
1774.000000	-0.000848
1773.000000	-0.000860
1772.000000	-0.000804
1771.000000	-0.000721
1770.000000	-0.000678
1769.000000	-0.000664
1768.000000	-0.000632
1767.000000	-0.000580
1766.000000	-0.000551
1765.000000	-0.000555
1764.000000	-0.000555
1763.000000	-0.000520
1762.000000	-0.000463
1761.000000	-0.000426
1760.000000	-0.000421
1759.000000	-0.000426
1758.000000	-0.000404
1757.000000	-0.000340
1756.000000	-0.000268
1755.000000	-0.000241
1754.000000	-0.000278
1753.000000	-0.000337
1752.000000	-0.000336
1751.000000	-0.000210
1750.000000	0.000004
1749.000000	0.000207
1748.000000	0.000349
1747.000000	0.000439
1746.000000	0.000501
1745.000000	0.000549
1744.000000	0.000607
1743.000000	0.000673
1742.000000	0.000710
1741.000000	0.000706
1740.000000	0.000689
1739.000000	0.000660
1738.000000	0.000568
1737.000000	0.000394
1736.000000	0.000192
1735.000000	0.000050
1734.000000	0.000040
1733.000000	0.000114
1732.000000	0.000152
1731.000000	0.000141
1730.000000	0.000128
1729.000000	0.000131
1728.000000	0.000134
1727.000000	0.000130
1726.000000	0.000113
1725.000000	0.000079
1724.000000	0.000032
1723.000000	-0.000025
1722.000000	-0.000092
1721.000000	-0.000161
1720.000000	-0.000203
1719.000000	-0.000199
1718.000000	-0.000174
1717.000000	-0.000122
1716.000000	-0.000054
1715.000000	-0.000026
1714.000000	-0.000021
1713.000000	0.000011
1712.000000	0.000068
1711.000000	0.000114
1710.000000	0.000136
1709.000000	0.000153
1708.000000	0.000193
1707.000000	0.000264
1706.000000	0.000351
1705.000000	0.000436
1704.000000	0.000468
1703.000000	0.000417
1702.000000	0.000344
1701.000000	0.000386
1700.000000	0.000575
1699.000000	0.000699
1698.000000	0.000687
1697.000000	0.000725
1696.000000	0.000938
1695.000000	0.001178
1694.000000	0.001292
1693.000000	0.001341
1692.000000	0.001408
1691.000000	0.001497
1690.000000	0.001579
1689.000000	0.001647
1688.000000	0.001715
1687.000000	0.001784
1686.000000	0.001867
1685.000000	0.002007
1684.000000	0.002219
1683.000000	0.002409
1682.000000	0.002516
1681.000000	0.002594
1680.000000	0.002685
1679.000000	0.002787
1678.000000	0.002891
1677.000000	0.003016
1676.000000	0.003177
1675.000000	0.003348
1674.000000	0.003474
1673.000000	0.003543
1672.000000	0.003600
1671.000000	0.003689
1670.000000	0.003833
1669.000000	0.004013
1668.000000	0.004175
1667.000000	0.004301
1666.000000	0.004405
1665.000000	0.004514
1664.000000	0.004641
1663.000000	0.004771
1662.000000	0.004884
1661.000000	0.004972
1660.000000	0.005033
1659.000000	0.005086
1658.000000	0.005154
1657.000000	0.005248
1656.000000	0.005365
1655.000000	0.005519
1654.000000	0.005693
1653.000000	0.005809
1652.000000	0.005816
1651.000000	0.005790
1650.000000	0.005776
1649.000000	0.005775
1648.000000	0.005774
1647.000000	0.005768
1646.000000	0.005777
1645.000000	0.005805
1644.000000	0.005840
1643.000000	0.005872
1642.000000	0.005909
1641.000000	0.005962
1640.000000	0.006016
1639.000000	0.006044
1638.000000	0.006037
1637.000000	0.006012
1636.000000	0.005976
1635.000000	0.005954
1634.000000	0.005952
1633.000000	0.005958
1632.000000	0.005960
1631.000000	0.005953
1630.000000	0.005956
1629.000000	0.005981
1628.000000	0.006004
1627.000000	0.006008
1626.000000	0.006003
1625.000000	0.005994
1624.000000	0.005959
1623.000000	0.005900
1622.000000	0.005866
1621.000000	0.005873
1620.000000	0.005883
1619.000000	0.005868
1618.000000	0.005823
1617.000000	0.005757
1616.000000	0.005679
1615.000000	0.005626
1614.000000	0.005626
1613.000000	0.005659
1612.000000	0.005678
1611.000000	0.005661
1610.000000	0.005638
1609.000000	0.005631
1608.000000	0.005619
1607.000000	0.005592
1606.000000	0.005579
1605.000000	0.005587
1604.000000	0.005586
1603.000000	0.005560
1602.000000	0.005532
1601.000000	0.005522
1600.000000	0.005517
1599.000000	0.005505
1598.000000	0.005487
1597.000000	0.005465
1596.000000	0.005436
1595.000000	0.005405
1594.000000	0.005394
1593.000000	0.005399
1592.000000	0.005389
1591.000000	0.005351
1590.000000	0.005312
1589.000000	0.005292
1588.000000	0.005280
1587.000000	0.005263
1586.000000	0.005254
1585.000000	0.005254
1584.000000	0.005242
1583.000000	0.005221
1582.000000	0.005218
1581.000000	0.005234
1580.000000	0.005230
1579.000000	0.005193
1578.000000	0.005156
1577.000000	0.005131
1576.000000	0.005078
1575.000000	0.005002
1574.000000	0.004952
1573.000000	0.004923
1572.000000	0.004889
1571.000000	0.004816
1570.000000	0.004694
1569.000000	0.004553
1568.000000	0.004436
1567.000000	0.004382
1566.000000	0.004390
1565.000000	0.004418
1564.000000	0.004415
1563.000000	0.004393
1562.000000	0.004400
1561.000000	0.004450
1560.000000	0.004420
1559.000000	0.004204
1558.000000	0.004078
1557.000000	0.004058
1556.000000	0.004042
1555.000000	0.004025
1554.000000	0.004029
1553.000000	0.004057
1552.000000	0.004107
1551.000000	0.004155
1550.000000	0.004176
1549.000000	0.004169
1548.000000	0.004159
1547.000000	0.004162
1546.000000	0.004180
1545.000000	0.004210
1544.000000	0.004255
1543.000000	0.004291
1542.000000	0.004275
1541.000000	0.004218
1540.000000	0.004183
1539.000000	0.004183
1538.000000	0.004170
1537.000000	0.004134
1536.000000	0.004075
1535.000000	0.003970
1534.000000	0.003798
1533.000000	0.003611
1532.000000	0.003482
1531.000000	0.003388
1530.000000	0.003292
1529.000000	0.003200
1528.000000	0.003120
1527.000000	0.003030
1526.000000	0.002907
1525.000000	0.002777
1524.000000	0.002663
1523.000000	0.002537
1522.000000	0.002372
1521.000000	0.002238
1520.000000	0.002195
1519.000000	0.002183
1518.000000	0.002134
1517.000000	0.002055
1516.000000	0.001998
1515.000000	0.001969
1514.000000	0.001929
1513.000000	0.001862
1512.000000	0.001786
1511.000000	0.001706
1510.000000	0.001601
1509.000000	0.001462
1508.000000	0.001323
1507.000000	0.001244
1506.000000	0.001235
1505.000000	0.001242
1504.000000	0.001262
1503.000000	0.001281
1502.000000	0.001292
1501.000000	0.001304
1500.000000	0.001326
1499.000000	0.001336
1498.000000	0.001285
1497.000000	0.001200
1496.000000	0.001173
1495.000000	0.001197
1494.000000	0.001205
1493.000000	0.001193
1492.000000	0.001193
1491.000000	0.001203
1490.000000	0.001214
1489.000000	0.001273
1488.000000	0.001401
1487.000000	0.001516
1486.000000	0.001583
1485.000000	0.001645
1484.000000	0.001732
1483.000000	0.001844
1482.000000	0.001958
1481.000000	0.002071
1480.000000	0.002190
1479.000000	0.002304
1478.000000	0.002402
1477.000000	0.002504
1476.000000	0.002626
1475.000000	0.002740
1474.000000	0.002831
1473.000000	0.002968
1472.000000	0.003220
1471.000000	0.003511
1470.000000	0.003744
1469.000000	0.003934
1468.000000	0.004127
1467.000000	0.004322
1466.000000	0.004481
1465.000000	0.004594
1464.000000	0.004697
1463.000000	0.004814
1462.000000	0.004938
1461.000000	0.005071
1460.000000	0.005209
1459.000000	0.005326
1458.000000	0.005371
1457.000000	0.005368
1456.000000	0.005444
1455.000000	0.005613
1454.000000	0.005794
1453.000000	0.005952
1452.000000	0.006097
1451.000000	0.006243
1450.000000	0.006386
1449.000000	0.006514
1448.000000	0.006630
1447.000000	0.006740
1446.000000	0.006846
1445.000000	0.006956
1444.000000	0.007074
1443.000000	0.007196
1442.000000	0.007315
1441.000000	0.007435
1440.000000	0.007568
1439.000000	0.007720
1438.000000	0.007841
1437.000000	0.007867
1436.000000	0.007833
1435.000000	0.007856
1434.000000	0.007965
1433.000000	0.008120
1432.000000	0.008281
1431.000000	0.008417
1430.000000	0.008509
1429.000000	0.008567
1428.000000	0.008633
1427.000000	0.008733
1426.000000	0.008850
1425.000000	0.008927
1424.000000	0.008945
1423.000000	0.008970
1422.000000	0.009046
1421.000000	0.009136
1420.000000	0.009168
1419.000000	0.009132
1418.000000	0.009099
1417.000000	0.009123
1416.000000	0.009204
1415.000000	0.009310
1414.000000	0.009402
1413.000000	0.009456
1412.000000	0.009480
1411.000000	0.009511
1410.000000	0.009570
1409.000000	0.009645
1408.000000	0.009720
1407.000000	0.009776
1406.000000	0.009790
1405.000000	0.009747
1404.000000	0.009685
1403.000000	0.009668
1402.000000	0.009704
1401.000000	0.009732
1400.000000	0.009682
1399.000000	0.009573
1398.000000	0.009491
1397.000000	0.009476
1396.000000	0.009487
1395.000000	0.009475
1394.000000	0.009433
1393.000000	0.009373
1392.000000	0.009317
1391.000000	0.009277
1390.000000	0.009240
1389.000000	0.009176
1388.000000	0.009059
1387.000000	0.008918
1386.000000	0.008812
1385.000000	0.008744
1384.000000	0.008676
1383.000000	0.008582
1382.000000	0.008474
1381.000000	0.008376
1380.000000	0.008281
1379.000000	0.008181
1378.000000	0.008095
1377.000000	0.008039
1376.000000	0.007982
1375.000000	0.007887
1374.000000	0.007760
1373.000000	0.007640
1372.000000	0.007547
1371.000000	0.007482
1370.000000	0.007445
1369.000000	0.007417
1368.000000	0.007365
1367.000000	0.007281
1366.000000	0.007191
1365.000000	0.007109
1364.000000	0.007011
1363.000000	0.006873
1362.000000	0.006724
1361.000000	0.006609
1360.000000	0.006531
1359.000000	0.006471
1358.000000	0.006421
1357.000000	0.006374
1356.000000	0.006315
1355.000000	0.006232
1354.000000	0.006139
1353.000000	0.006064
1352.000000	0.006006
1351.000000	0.005938
1350.000000	0.005854
1349.000000	0.005763
1348.000000	0.005670
1347.000000	0.005579
1346.000000	0.005500
1345.000000	0.005441
1344.000000	0.005389
1343.000000	0.005328
1342.000000	0.005247
1341.000000	0.005142
1340.000000	0.005017
1339.000000	0.004909
1338.000000	0.004855
1337.000000	0.004844
1336.000000	0.004830
1335.000000	0.004782
1334.000000	0.004715
1333.000000	0.004663
1332.000000	0.004638
1331.000000	0.004626
1330.000000	0.004613
1329.000000	0.004589
1328.000000	0.004546
1327.000000	0.004484
1326.000000	0.004420
1325.000000	0.004369
1324.000000	0.004333
1323.000000	0.004312
1322.000000	0.004297
1321.000000	0.004272
1320.000000	0.004222
1319.000000	0.004161
1318.000000	0.004113
1317.000000	0.004082
1316.000000	0.004052
1315.000000	0.004018
1314.000000	0.003984
1313.000000	0.003952
1312.000000	0.003908
1311.000000	0.003847
1310.000000	0.003781
1309.000000	0.003719
1308.000000	0.003658
1307.000000	0.003598
1306.000000	0.003547
1305.000000	0.003512
1304.000000	0.003483
1303.000000	0.003446
1302.000000	0.003390
1301.000000	0.003311
1300.000000	0.003216
1299.000000	0.003129
1298.000000	0.003063
1297.000000	0.003003
1296.000000	0.002923
1295.000000	0.002816
1294.000000	0.002705
1293.000000	0.002609
1292.000000	0.002526
1291.000000	0.002447
1290.000000	0.002372
1289.000000	0.002304
1288.000000	0.002244
1287.000000	0.002197
1286.000000	0.002162
1285.000000	0.002126
1284.000000	0.002076
1283.000000	0.002011
1282.000000	0.001945
1281.000000	0.001883
1280.000000	0.001824
1279.000000	0.001767
1278.000000	0.001719
1277.000000	0.001676
1276.000000	0.001624
1275.000000	0.001564
1274.000000	0.001512
1273.000000	0.001471
1272.000000	0.001432
1271.000000	0.001392
1270.000000	0.001362
1269.000000	0.001349
1268.000000	0.001344
1267.000000	0.001333
1266.000000	0.001318
1265.000000	0.001303
1264.000000	0.001284
1263.000000	0.001261
1262.000000	0.001250
1261.000000	0.001263
1260.000000	0.001293
1259.000000	0.001316
1258.000000	0.001315
1257.000000	0.001292
1256.000000	0.001263
1255.000000	0.001245
1254.000000	0.001245
1253.000000	0.001252
1252.000000	0.001247
1251.000000	0.001223
1250.000000	0.001185
1249.000000	0.001145
1248.000000	0.001108
1247.000000	0.001077
1246.000000	0.001055
1245.000000	0.001036
1244.000000	0.001016
1243.000000	0.000996
1242.000000	0.000977
1241.000000	0.000958
1240.000000	0.000934
1239.000000	0.000910
1238.000000	0.000888
1237.000000	0.000862
1236.000000	0.000825
1235.000000	0.000776
1234.000000	0.000722
1233.000000	0.000666
1232.000000	0.000609
1231.000000	0.000551
1230.000000	0.000491
1229.000000	0.000425
1228.000000	0.000357
1227.000000	0.000299
1226.000000	0.000258
1225.000000	0.000222
1224.000000	0.000172
1223.000000	0.000110
1222.000000	0.000056
1221.000000	0.000020
1220.000000	-0.000006
1219.000000	-0.000032
1218.000000	-0.000058
1217.000000	-0.000083
1216.000000	-0.000112
1215.000000	-0.000144
1214.000000	-0.000171
1213.000000	-0.000182
1212.000000	-0.000175
1211.000000	-0.000156
1210.000000	-0.000127
1209.000000	-0.000094
1208.000000	-0.000059
1207.000000	-0.000019
1206.000000	0.000036
1205.000000	0.000111
1204.000000	0.000197
1203.000000	0.000284
1202.000000	0.000362
1201.000000	0.000423
1200.000000	0.000464
1199.000000	0.000485
1198.000000	0.000491
1197.000000	0.000478
1196.000000	0.000436
1195.000000	0.000354
1194.000000	0.000233
1193.000000	0.000088
1192.000000	-0.000057
1191.000000	-0.000181
1190.000000	-0.000286
1189.000000	-0.000386
1188.000000	-0.000493
1187.000000	-0.000599
1186.000000	-0.000685
1185.000000	-0.000738
1184.000000	-0.000753
1183.000000	-0.000729
1182.000000	-0.000671
1181.000000	-0.000587
1180.000000	-0.000488
1179.000000	-0.000383
1178.000000	-0.000276
1177.000000	-0.000169
1176.000000	-0.000054
1175.000000	0.000085
1174.000000	0.000261
1173.000000	0.000469
1172.000000	0.000684
1171.000000	0.000893
1170.000000	0.001106
1169.000000	0.001341
1168.000000	0.001602
1167.000000	0.001876
1166.000000	0.002149
1165.000000	0.002420
1164.000000	0.002692
1163.000000	0.002963
1162.000000	0.003231
1161.000000	0.003502
1160.000000	0.003782
1159.000000	0.004065
1158.000000	0.004333
1157.000000	0.004563
1156.000000	0.004760
1155.000000	0.004949
1154.000000	0.005146
1153.000000	0.005335
1152.000000	0.005481
1151.000000	0.005577
1150.000000	0.005647
1149.000000	0.005717
1148.000000	0.005788
1147.000000	0.005846
1146.000000	0.005888
1145.000000	0.005912
1144.000000	0.005915
1143.000000	0.005891
1142.000000	0.005852
1141.000000	0.005817
1140.000000	0.005794
1139.000000	0.005778
1138.000000	0.005761
1137.000000	0.005740
1136.000000	0.005714
1135.000000	0.005682
1134.000000	0.005648
1133.000000	0.005617
1132.000000	0.005602
1131.000000	0.005627
1130.000000	0.005718
1129.000000	0.005885
1128.000000	0.006106
1127.000000	0.006342
1126.000000	0.006562
1125.000000	0.006744
1124.000000	0.006871
1123.000000	0.006939
1122.000000	0.006963
1121.000000	0.006971
1120.000000	0.006978
1119.000000	0.006987
1118.000000	0.006994
1117.000000	0.006993
1116.000000	0.006983
1115.000000	0.006974
1114.000000	0.006981
1113.000000	0.007016
1112.000000	0.007075
1111.000000	0.007151
1110.000000	0.007240
1109.000000	0.007334
1108.000000	0.007416
1107.000000	0.007477
1106.000000	0.007528
1105.000000	0.007594
1104.000000	0.007689
1103.000000	0.007820
1102.000000	0.007983
1101.000000	0.008166
1100.000000	0.008354
1099.000000	0.008530
1098.000000	0.008701
1097.000000	0.008879
1096.000000	0.009070
1095.000000	0.009273
1094.000000	0.009493
1093.000000	0.009723
1092.000000	0.009935
1091.000000	0.010105
1090.000000	0.010232
1089.000000	0.010333
1088.000000	0.010412
1087.000000	0.010466
1086.000000	0.010505
1085.000000	0.010544
1084.000000	0.010586
1083.000000	0.010626
1082.000000	0.010667
1081.000000	0.010715
1080.000000	0.010766
1079.000000	0.010801
1078.000000	0.010819
1077.000000	0.010825
1076.000000	0.010820
1075.000000	0.010799
1074.000000	0.010770
1073.000000	0.010748
1072.000000	0.010731
1071.000000	0.010711
1070.000000	0.010699
1069.000000	0.010724
1068.000000	0.010791
1067.000000	0.010860
1066.000000	0.010883
1065.000000	0.010853
1064.000000	0.010798
1063.000000	0.010753
1062.000000	0.010740
1061.000000	0.010762
1060.000000	0.010804
1059.000000	0.010842
1058.000000	0.010864
1057.000000	0.010878
1056.000000	0.010907
1055.000000	0.010973
1054.000000	0.011078
1053.000000	0.011191
1052.000000	0.011271
1051.000000	0.011311
1050.000000	0.011352
1049.000000	0.011438
1048.000000	0.011567
1047.000000	0.011703
1046.000000	0.011820
1045.000000	0.011924
1044.000000	0.012032
1043.000000	0.012158
1042.000000	0.012317
1041.000000	0.012512
1040.000000	0.012726
1039.000000	0.012935
1038.000000	0.013131
1037.000000	0.013313
1036.000000	0.013466
1035.000000	0.013570
1034.000000	0.013632
1033.000000	0.013693
1032.000000	0.013784
1031.000000	0.013907
1030.000000	0.014048
1029.000000	0.014191
1028.000000	0.014311
1027.000000	0.014382
1026.000000	0.014404
1025.000000	0.014410
1024.000000	0.014435
1023.000000	0.014484
1022.000000	0.014534
1021.000000	0.014569
1020.000000	0.014592
1019.000000	0.014616
1018.000000	0.014645
1017.000000	0.014669
1016.000000	0.014680
1015.000000	0.014685
1014.000000	0.014700
1013.000000	0.014722
1012.000000	0.014724
1011.000000	0.014681
1010.000000	0.014610
1009.000000	0.014544
1008.000000	0.014493
1007.000000	0.014446
1006.000000	0.014401
1005.000000	0.014374
1004.000000	0.014365
1003.000000	0.014355
1002.000000	0.014323
1001.000000	0.014269
1000.000000	0.014201
999.000000	0.014130
998.000000	0.014075
997.000000	0.014054
996.000000	0.014064
995.000000	0.014073
994.000000	0.014050
993.000000	0.013992
992.000000	0.013915
991.000000	0.013839
990.000000	0.013774
989.000000	0.013721
988.000000	0.013676
987.000000	0.013630
986.000000	0.013571
985.000000	0.013481
984.000000	0.013343
983.000000	0.013153
982.000000	0.012936
981.000000	0.012727
980.000000	0.012544
979.000000	0.012371
978.000000	0.012185
977.000000	0.011980
976.000000	0.011760
975.000000	0.011537
974.000000	0.011317
973.000000	0.011099
972.000000	0.010869
971.000000	0.010614
970.000000	0.010347
969.000000	0.010088
968.000000	0.009843
967.000000	0.009604
966.000000	0.009363
965.000000	0.009123
964.000000	0.008883
963.000000	0.008641
962.000000	0.008399
961.000000	0.008168
960.000000	0.007959
959.000000	0.007767
958.000000	0.007585
957.000000	0.007413
956.000000	0.007249
955.000000	0.007083
954.000000	0.006903
953.000000	0.006707
952.000000	0.006501
951.000000	0.006294
950.000000	0.006093
949.000000	0.005901
948.000000	0.005712
947.000000	0.005523
946.000000	0.005336
945.000000	0.005156
944.000000	0.004978
943.000000	0.004793
942.000000	0.004595
941.000000	0.004391
940.000000	0.004196
939.000000	0.004020
938.000000	0.003873
937.000000	0.003759
936.000000	0.003666
935.000000	0.003572
934.000000	0.003458
933.000000	0.003334
932.000000	0.003222
931.000000	0.003135
930.000000	0.003061
929.000000	0.002973
928.000000	0.002858
927.000000	0.002735
926.000000	0.002632
925.000000	0.002561
924.000000	0.002510
923.000000	0.002463
922.000000	0.002412
921.000000	0.002358
920.000000	0.002304
919.000000	0.002257
918.000000	0.002231
917.000000	0.002236
916.000000	0.002260
915.000000	0.002274
914.000000	0.002257
913.000000	0.002214
912.000000	0.002167
911.000000	0.002138
910.000000	0.002142
909.000000	0.002179
908.000000	0.002241
907.000000	0.002314
906.000000	0.002377
905.000000	0.002414
904.000000	0.002414
903.000000	0.002386
902.000000	0.002359
901.000000	0.002353
900.000000	0.002355
899.000000	0.002320
898.000000	0.002223
897.000000	0.002077
896.000000	0.001927
895.000000	0.001799
894.000000	0.001690
893.000000	0.001577
892.000000	0.001445
891.000000	0.001293
890.000000	0.001125
889.000000	0.000951
888.000000	0.000803
887.000000	0.000720
886.000000	0.000713
885.000000	0.000744
884.000000	0.000764
883.000000	0.000772
882.000000	0.000807
881.000000	0.000891
880.000000	0.001011
879.000000	0.001147
878.000000	0.001301
877.000000	0.001469
876.000000	0.001608
875.000000	0.001663
874.000000	0.001616
873.000000	0.001486
872.000000	0.001298
871.000000	0.001064
870.000000	0.000806
869.000000	0.000551
868.000000	0.000309
867.000000	0.000088
866.000000	-0.000091
865.000000	-0.000211
864.000000	-0.000289
863.000000	-0.000369
862.000000	-0.000469
861.000000	-0.000570
860.000000	-0.000644
859.000000	-0.000683
858.000000	-0.000687
857.000000	-0.000657
856.000000	-0.000602
855.000000	-0.000554
854.000000	-0.000549
853.000000	-0.000595
852.000000	-0.000677
851.000000	-0.000763
850.000000	-0.000819
849.000000	-0.000835
848.000000	-0.000829
847.000000	-0.000830
846.000000	-0.000828
845.000000	-0.000786
844.000000	-0.000682
843.000000	-0.000531
842.000000	-0.000359
841.000000	-0.000171
840.000000	0.000024
839.000000	0.000190
838.000000	0.000282
837.000000	0.000294
836.000000	0.000252
835.000000	0.000185
834.000000	0.000099
833.000000	-0.000006
832.000000	-0.000122
831.000000	-0.000238
830.000000	-0.000337
829.000000	-0.000407
828.000000	-0.000451
827.000000	-0.000490
826.000000	-0.000547
825.000000	-0.000621
824.000000	-0.000682
823.000000	-0.000712
822.000000	-0.000721
821.000000	-0.000735
820.000000	-0.000770
819.000000	-0.000816
818.000000	-0.000849
817.000000	-0.000849
816.000000	-0.000819
815.000000	-0.000777
814.000000	-0.000742
813.000000	-0.000720
812.000000	-0.000709
811.000000	-0.000698
810.000000	-0.000677
809.000000	-0.000648
808.000000	-0.000629
807.000000	-0.000633
806.000000	-0.000654
805.000000	-0.000673
804.000000	-0.000680
803.000000	-0.000676
802.000000	-0.000659
801.000000	-0.000622
800.000000	-0.000573
799.000000	-0.000531
798.000000	-0.000504
797.000000	-0.000482
796.000000	-0.000445
795.000000	-0.000392
794.000000	-0.000328
793.000000	-0.000259
792.000000	-0.000202
791.000000	-0.000171
790.000000	-0.000167
789.000000	-0.000172
788.000000	-0.000168
787.000000	-0.000151
786.000000	-0.000120
785.000000	-0.000061
784.000000	0.000022
783.000000	0.000105
782.000000	0.000171
781.000000	0.000232
780.000000	0.000312
779.000000	0.000401
778.000000	0.000463
777.000000	0.000477
776.000000	0.000451
775.000000	0.000405
774.000000	0.000351
773.000000	0.000298
772.000000	0.000262
771.000000	0.000247
770.000000	0.000243
769.000000	0.000240
768.000000	0.000233
767.000000	0.000213
766.000000	0.000163
765.000000	0.000079
764.000000	-0.000014
763.000000	-0.000075
762.000000	-0.000083
761.000000	-0.000054
760.000000	-0.000021
759.000000	-0.000003
758.000000	-0.000002
757.000000	-0.000008
756.000000	-0.000012
755.000000	-0.000004
754.000000	0.000011
753.000000	0.000010
752.000000	-0.000033
751.000000	-0.000128
750.000000	-0.000253
749.000000	-0.000372
748.000000	-0.000459
747.000000	-0.000505
746.000000	-0.000517
745.000000	-0.000510
744.000000	-0.000506
743.000000	-0.000518
742.000000	-0.000552
741.000000	-0.000605
740.000000	-0.000666
739.000000	-0.000718
738.000000	-0.000746
737.000000	-0.000755
736.000000	-0.000763
735.000000	-0.000787
734.000000	-0.000813
733.000000	-0.000815
732.000000	-0.000787
731.000000	-0.000751
730.000000	-0.000728
729.000000	-0.000712
728.000000	-0.000688
727.000000	-0.000664
726.000000	-0.000657
725.000000	-0.000673
724.000000	-0.000696
723.000000	-0.000711
722.000000	-0.000707
721.000000	-0.000685
720.000000	-0.000660
719.000000	-0.000657
718.000000	-0.000677
717.000000	-0.000679
716.000000	-0.000618
715.000000	-0.000504
714.000000	-0.000404
713.000000	-0.000375
712.000000	-0.000400
711.000000	-0.000424
710.000000	-0.000431
709.000000	-0.000460
708.000000	-0.000542
707.000000	-0.000637
706.000000	-0.000673
705.000000	-0.000617
704.000000	-0.000518
703.000000	-0.000443
702.000000	-0.000415
701.000000	-0.000416
700.000000	-0.000425
699.000000	-0.000446
698.000000	-0.000479
697.000000	-0.000495
696.000000	-0.000460
695.000000	-0.000352
694.000000	-0.000186
693.000000	-0.000006
692.000000	0.000134
691.000000	0.000194
690.000000	0.000165
689.000000	0.000090
688.000000	0.000051
687.000000	0.000139
686.000000	0.000417
685.000000	0.000886
684.000000	0.001480
683.000000	0.002091
682.000000	0.002613
681.000000	0.002976
680.000000	0.003175
679.000000	0.003238
678.000000	0.003192
677.000000	0.003051
676.000000	0.002830
675.000000	0.002542
674.000000	0.002192
673.000000	0.001805
672.000000	0.001434
671.000000	0.001118
670.000000	0.000829
669.000000	0.000501
668.000000	0.000241
667.000000	0.000293
666.000000	0.000430
665.000000	0.000539
664.000000	0.000680
663.000000	0.000825
662.000000	0.000936
661.000000	0.001034
660.000000	0.001151
659.000000	0.001263
658.000000	0.001318
657.000000	0.001295
656.000000	0.001185
655.000000	0.000964
654.000000	0.000661
653.000000	0.000376
652.000000	0.000183
651.000000	0.000074
650.000000	0.000019
649.000000	0.000027
648.000000	0.000112
647.000000	0.000246
646.000000	0.000386
645.000000	0.000499
644.000000	0.000541
643.000000	0.000480
642.000000	0.000336
641.000000	0.000186
640.000000	0.000083
639.000000	0.000018
638.000000	-0.000026
637.000000	-0.000033
636.000000	-0.000001
635.000000	0.000033
634.000000	0.000026
633.000000	-0.000016
632.000000	-0.000070
631.000000	-0.000131
630.000000	-0.000202
629.000000	-0.000261
628.000000	-0.000286
627.000000	-0.000278
626.000000	-0.000253
625.000000	-0.000230
624.000000	-0.000235
623.000000	-0.000282
622.000000	-0.000333
621.000000	-0.000314
620.000000	-0.000194
619.000000	-0.000015
618.000000	0.000156
617.000000	0.000290
616.000000	0.000392
615.000000	0.000466
614.000000	0.000522
613.000000	0.000589
612.000000	0.000690
611.000000	0.000805
610.000000	0.000907
609.000000	0.000995
608.000000	0.001073
607.000000	0.001141
606.000000	0.001215
605.000000	0.001333
604.000000	0.001486
603.000000	0.001585
602.000000	0.001546
601.000000	0.001401
600.000000	0.001278
599.000000	0.001284
598.000000	0.001419
597.000000	0.001595
596.000000	0.001714
595.000000	0.001733
594.000000	0.001673
593.000000	0.001598
592.000000	0.001559
591.000000	0.001556
590.000000	0.001541
589.000000	0.001456
588.000000	0.001281
587.000000	0.001057
586.000000	0.000863
585.000000	0.000749
584.000000	0.000683
583.000000	0.000603
582.000000	0.000496
581.000000	0.000415
580.000000	0.000407
579.000000	0.000444
578.000000	0.000445
577.000000	0.000362
576.000000	0.000233
575.000000	0.000144
574.000000	0.000144
573.000000	0.000191
572.000000	0.000214
571.000000	0.000188
570.000000	0.000163
569.000000	0.000187
568.000000	0.000236
567.000000	0.000245
566.000000	0.000191
565.000000	0.000125
564.000000	0.000115
563.000000	0.000178
562.000000	0.000282
561.000000	0.000383
560.000000	0.000461
559.000000	0.000520
558.000000	0.000580
557.000000	0.000655
556.000000	0.000730
555.000000	0.000761
554.000000	0.000722
553.000000	0.000645
552.000000	0.000598
551.000000	0.000634
550.000000	0.000752
549.000000	0.000891
548.000000	0.000975
547.000000	0.000978
546.000000	0.000958
545.000000	0.000998
544.000000	0.001102
543.000000	0.001199
542.000000	0.001236
541.000000	0.001242
540.000000	0.001276
539.000000	0.001341
538.000000	0.001383
537.000000	0.001359
536.000000	0.001279
535.000000	0.001187
534.000000	0.001123
533.000000	0.001094
532.000000	0.001044
531.000000	0.000905
530.000000	0.000702
529.000000	0.000552
528.000000	0.000522
527.000000	0.000552
526.000000	0.000574
525.000000	0.000640
524.000000	0.000875
523.000000	0.001276
522.000000	0.001665
521.000000	0.001820
520.000000	0.001628
519.000000	0.001154
518.000000	0.000606
517.000000	0.000237
516.000000	0.000185
515.000000	0.000386
514.000000	0.000666
513.000000	0.000897
512.000000	0.001040
511.000000	0.001075
510.000000	0.000983
509.000000	0.000793
508.000000	0.000581
507.000000	0.000418
506.000000	0.000307
505.000000	0.000187
504.000000	-0.000001
503.000000	-0.000244
502.000000	-0.000439
501.000000	-0.000486
500.000000	-0.000409
499.000000	-0.000314
498.000000	-0.000265
497.000000	-0.000257
496.000000	-0.000276
495.000000	-0.000340
494.000000	-0.000460
493.000000	-0.000618
492.000000	-0.000792
491.000000	-0.000944
490.000000	-0.001007
489.000000	-0.000929
488.000000	-0.000772
487.000000	-0.000672
486.000000	-0.000683
485.000000	-0.000709
484.000000	-0.000624
483.000000	-0.000424
482.000000	-0.000209
481.000000	-0.000076
480.000000	-0.000063
479.000000	-0.000158
478.000000	-0.000316
477.000000	-0.000464
476.000000	-0.000523
475.000000	-0.000445
474.000000	-0.000249
473.000000	-0.000034
472.000000	0.000046
471.000000	-0.000091
470.000000	-0.000403
469.000000	-0.000776
468.000000	-0.001044
467.000000	-0.001060
466.000000	-0.000824
465.000000	-0.000515
464.000000	-0.000313
463.000000	-0.000248
462.000000	-0.000230
461.000000	-0.000257
460.000000	-0.000487
459.000000	-0.001012
458.000000	-0.001585
457.000000	-0.001733
456.000000	-0.001357
455.000000	-0.000852
454.000000	-0.000566
453.000000	-0.000498
452.000000	-0.000456
451.000000	-0.000346
450.000000	-0.000303
