PE IR       SUBTECH     SPECTRUM    ASCII       PEDS        4.00        
   -1
P3-Bleu011_1.ASC
23/06/13
11:23:09.00
23/06/13
12:04:49.00
uco
Sample 011 By uco Date Tuesday, June 13 2023
450.000000
#HDR
-1
-1
#GR
cm-1
A
1.0
0.0
4000.000000
-1.000000
3551
8
0.003540
-0.001019
#DATA
4000.000000	-0.000309
3999.000000	-0.000306
3998.000000	-0.000308
3997.000000	-0.000316
3996.000000	-0.000324
3995.000000	-0.000327
3994.000000	-0.000324
3993.000000	-0.000316
3992.000000	-0.000304
3991.000000	-0.000290
3990.000000	-0.000272
3989.000000	-0.000257
3988.000000	-0.000251
3987.000000	-0.000258
3986.000000	-0.000270
3985.000000	-0.000280
3984.000000	-0.000283
3983.000000	-0.000285
3982.000000	-0.000289
3981.000000	-0.000296
3980.000000	-0.000303
3979.000000	-0.000311
3978.000000	-0.000320
3977.000000	-0.000329
3976.000000	-0.000336
3975.000000	-0.000336
3974.000000	-0.000329
3973.000000	-0.000315
3972.000000	-0.000299
3971.000000	-0.000283
3970.000000	-0.000269
3969.000000	-0.000255
3968.000000	-0.000238
3967.000000	-0.000215
3966.000000	-0.000186
3965.000000	-0.000158
3964.000000	-0.000142
3963.000000	-0.000147
3962.000000	-0.000174
3961.000000	-0.000215
3960.000000	-0.000253
3959.000000	-0.000274
3958.000000	-0.000273
3957.000000	-0.000255
3956.000000	-0.000233
3955.000000	-0.000220
3954.000000	-0.000218
3953.000000	-0.000222
3952.000000	-0.000225
3951.000000	-0.000228
3950.000000	-0.000237
3949.000000	-0.000255
3948.000000	-0.000276
3947.000000	-0.000287
3946.000000	-0.000282
3945.000000	-0.000263
3944.000000	-0.000234
3943.000000	-0.000207
3942.000000	-0.000191
3941.000000	-0.000193
3940.000000	-0.000212
3939.000000	-0.000237
3938.000000	-0.000258
3937.000000	-0.000265
3936.000000	-0.000259
3935.000000	-0.000238
3934.000000	-0.000206
3933.000000	-0.000171
3932.000000	-0.000148
3931.000000	-0.000149
3930.000000	-0.000169
3929.000000	-0.000194
3928.000000	-0.000211
3927.000000	-0.000216
3926.000000	-0.000214
3925.000000	-0.000212
3924.000000	-0.000212
3923.000000	-0.000215
3922.000000	-0.000221
3921.000000	-0.000234
3920.000000	-0.000253
3919.000000	-0.000274
3918.000000	-0.000288
3917.000000	-0.000283
3916.000000	-0.000258
3915.000000	-0.000223
3914.000000	-0.000190
3913.000000	-0.000164
3912.000000	-0.000148
3911.000000	-0.000143
3910.000000	-0.000148
3909.000000	-0.000158
3908.000000	-0.000167
3907.000000	-0.000168
3906.000000	-0.000169
3905.000000	-0.000180
3904.000000	-0.000212
3903.000000	-0.000257
3902.000000	-0.000292
3901.000000	-0.000300
3900.000000	-0.000279
3899.000000	-0.000243
3898.000000	-0.000212
3897.000000	-0.000198
3896.000000	-0.000200
3895.000000	-0.000211
3894.000000	-0.000219
3893.000000	-0.000218
3892.000000	-0.000209
3891.000000	-0.000196
3890.000000	-0.000187
3889.000000	-0.000193
3888.000000	-0.000217
3887.000000	-0.000252
3886.000000	-0.000281
3885.000000	-0.000295
3884.000000	-0.000301
3883.000000	-0.000305
3882.000000	-0.000303
3881.000000	-0.000290
3880.000000	-0.000271
3879.000000	-0.000251
3878.000000	-0.000235
3877.000000	-0.000221
3876.000000	-0.000206
3875.000000	-0.000189
3874.000000	-0.000177
3873.000000	-0.000182
3872.000000	-0.000208
3871.000000	-0.000238
3870.000000	-0.000252
3869.000000	-0.000240
3868.000000	-0.000214
3867.000000	-0.000193
3866.000000	-0.000182
3865.000000	-0.000178
3864.000000	-0.000183
3863.000000	-0.000196
3862.000000	-0.000212
3861.000000	-0.000228
3860.000000	-0.000246
3859.000000	-0.000262
3858.000000	-0.000268
3857.000000	-0.000260
3856.000000	-0.000251
3855.000000	-0.000249
3854.000000	-0.000258
3853.000000	-0.000272
3852.000000	-0.000273
3851.000000	-0.000263
3850.000000	-0.000256
3849.000000	-0.000251
3848.000000	-0.000248
3847.000000	-0.000246
3846.000000	-0.000241
3845.000000	-0.000231
3844.000000	-0.000220
3843.000000	-0.000216
3842.000000	-0.000223
3841.000000	-0.000230
3840.000000	-0.000227
3839.000000	-0.000210
3838.000000	-0.000186
3837.000000	-0.000168
3836.000000	-0.000162
3835.000000	-0.000165
3834.000000	-0.000171
3833.000000	-0.000171
3832.000000	-0.000159
3831.000000	-0.000143
3830.000000	-0.000136
3829.000000	-0.000149
3828.000000	-0.000178
3827.000000	-0.000205
3826.000000	-0.000217
3825.000000	-0.000214
3824.000000	-0.000206
3823.000000	-0.000194
3822.000000	-0.000170
3821.000000	-0.000144
3820.000000	-0.000137
3819.000000	-0.000158
3818.000000	-0.000196
3817.000000	-0.000227
3816.000000	-0.000221
3815.000000	-0.000176
3814.000000	-0.000125
3813.000000	-0.000096
3812.000000	-0.000098
3811.000000	-0.000127
3810.000000	-0.000177
3809.000000	-0.000233
3808.000000	-0.000272
3807.000000	-0.000268
3806.000000	-0.000227
3805.000000	-0.000182
3804.000000	-0.000155
3803.000000	-0.000144
3802.000000	-0.000134
3801.000000	-0.000117
3800.000000	-0.000104
3799.000000	-0.000108
3798.000000	-0.000129
3797.000000	-0.000159
3796.000000	-0.000186
3795.000000	-0.000206
3794.000000	-0.000221
3793.000000	-0.000229
3792.000000	-0.000227
3791.000000	-0.000208
3790.000000	-0.000174
3789.000000	-0.000133
3788.000000	-0.000095
3787.000000	-0.000070
3786.000000	-0.000060
3785.000000	-0.000063
3784.000000	-0.000069
3783.000000	-0.000076
3782.000000	-0.000086
3781.000000	-0.000103
3780.000000	-0.000123
3779.000000	-0.000139
3778.000000	-0.000147
3777.000000	-0.000150
3776.000000	-0.000154
3775.000000	-0.000162
3774.000000	-0.000175
3773.000000	-0.000196
3772.000000	-0.000230
3771.000000	-0.000265
3770.000000	-0.000284
3769.000000	-0.000277
3768.000000	-0.000250
3767.000000	-0.000219
3766.000000	-0.000193
3765.000000	-0.000172
3764.000000	-0.000160
3763.000000	-0.000166
3762.000000	-0.000186
3761.000000	-0.000203
3760.000000	-0.000204
3759.000000	-0.000192
3758.000000	-0.000179
3757.000000	-0.000166
3756.000000	-0.000149
3755.000000	-0.000130
3754.000000	-0.000122
3753.000000	-0.000140
3752.000000	-0.000191
3751.000000	-0.000257
3750.000000	-0.000301
3749.000000	-0.000309
3748.000000	-0.000302
3747.000000	-0.000306
3746.000000	-0.000313
3745.000000	-0.000284
3744.000000	-0.000210
3743.000000	-0.000142
3742.000000	-0.000132
3741.000000	-0.000178
3740.000000	-0.000245
3739.000000	-0.000313
3738.000000	-0.000373
3737.000000	-0.000408
3736.000000	-0.000398
3735.000000	-0.000347
3734.000000	-0.000286
3733.000000	-0.000241
3732.000000	-0.000211
3731.000000	-0.000190
3730.000000	-0.000179
3729.000000	-0.000181
3728.000000	-0.000188
3727.000000	-0.000191
3726.000000	-0.000188
3725.000000	-0.000186
3724.000000	-0.000183
3723.000000	-0.000170
3722.000000	-0.000141
3721.000000	-0.000112
3720.000000	-0.000101
3719.000000	-0.000116
3718.000000	-0.000147
3717.000000	-0.000178
3716.000000	-0.000201
3715.000000	-0.000215
3714.000000	-0.000213
3713.000000	-0.000182
3712.000000	-0.000124
3711.000000	-0.000074
3710.000000	-0.000063
3709.000000	-0.000089
3708.000000	-0.000129
3707.000000	-0.000159
3706.000000	-0.000178
3705.000000	-0.000192
3704.000000	-0.000206
3703.000000	-0.000215
3702.000000	-0.000209
3701.000000	-0.000186
3700.000000	-0.000159
3699.000000	-0.000140
3698.000000	-0.000137
3697.000000	-0.000145
3696.000000	-0.000162
3695.000000	-0.000188
3694.000000	-0.000218
3693.000000	-0.000239
3692.000000	-0.000244
3691.000000	-0.000242
3690.000000	-0.000245
3689.000000	-0.000245
3688.000000	-0.000222
3687.000000	-0.000182
3686.000000	-0.000155
3685.000000	-0.000151
3684.000000	-0.000157
3683.000000	-0.000158
3682.000000	-0.000151
3681.000000	-0.000140
3680.000000	-0.000130
3679.000000	-0.000126
3678.000000	-0.000136
3677.000000	-0.000165
3676.000000	-0.000200
3675.000000	-0.000225
3674.000000	-0.000235
3673.000000	-0.000232
3672.000000	-0.000225
3671.000000	-0.000207
3670.000000	-0.000173
3669.000000	-0.000141
3668.000000	-0.000127
3667.000000	-0.000126
3666.000000	-0.000125
3665.000000	-0.000110
3664.000000	-0.000076
3663.000000	-0.000034
3662.000000	-0.000001
3661.000000	0.000011
3660.000000	-0.000000
3659.000000	-0.000029
3658.000000	-0.000065
3657.000000	-0.000100
3656.000000	-0.000124
3655.000000	-0.000139
3654.000000	-0.000154
3653.000000	-0.000171
3652.000000	-0.000187
3651.000000	-0.000192
3650.000000	-0.000192
3649.000000	-0.000188
3648.000000	-0.000171
3647.000000	-0.000136
3646.000000	-0.000098
3645.000000	-0.000067
3644.000000	-0.000044
3643.000000	-0.000022
3642.000000	-0.000001
3641.000000	0.000016
3640.000000	0.000021
3639.000000	0.000014
3638.000000	-0.000000
3637.000000	-0.000019
3636.000000	-0.000040
3635.000000	-0.000061
3634.000000	-0.000078
3633.000000	-0.000093
3632.000000	-0.000111
3631.000000	-0.000129
3630.000000	-0.000130
3629.000000	-0.000109
3628.000000	-0.000078
3627.000000	-0.000056
3626.000000	-0.000044
3625.000000	-0.000035
3624.000000	-0.000020
3623.000000	0.000001
3622.000000	0.000013
3621.000000	0.000009
3620.000000	-0.000010
3619.000000	-0.000031
3618.000000	-0.000046
3617.000000	-0.000050
3616.000000	-0.000045
3615.000000	-0.000031
3614.000000	-0.000009
3613.000000	0.000009
3612.000000	0.000009
3611.000000	-0.000007
3610.000000	-0.000025
3609.000000	-0.000027
3608.000000	-0.000011
3607.000000	0.000008
3606.000000	0.000023
3605.000000	0.000032
3604.000000	0.000044
3603.000000	0.000062
3602.000000	0.000085
3601.000000	0.000112
3600.000000	0.000140
3599.000000	0.000161
3598.000000	0.000174
3597.000000	0.000182
3596.000000	0.000187
3595.000000	0.000189
3594.000000	0.000180
3593.000000	0.000165
3592.000000	0.000151
3591.000000	0.000148
3590.000000	0.000157
3589.000000	0.000175
3588.000000	0.000195
3587.000000	0.000212
3586.000000	0.000225
3585.000000	0.000233
3584.000000	0.000236
3583.000000	0.000236
3582.000000	0.000233
3581.000000	0.000232
3580.000000	0.000238
3579.000000	0.000262
3578.000000	0.000300
3577.000000	0.000338
3576.000000	0.000358
3575.000000	0.000357
3574.000000	0.000352
3573.000000	0.000358
3572.000000	0.000377
3571.000000	0.000399
3570.000000	0.000419
3569.000000	0.000439
3568.000000	0.000464
3567.000000	0.000494
3566.000000	0.000520
3565.000000	0.000537
3564.000000	0.000544
3563.000000	0.000543
3562.000000	0.000536
3561.000000	0.000528
3560.000000	0.000520
3559.000000	0.000510
3558.000000	0.000499
3557.000000	0.000488
3556.000000	0.000480
3555.000000	0.000479
3554.000000	0.000486
3553.000000	0.000501
3552.000000	0.000520
3551.000000	0.000539
3550.000000	0.000556
3549.000000	0.000576
3548.000000	0.000601
3547.000000	0.000624
3546.000000	0.000633
3545.000000	0.000624
3544.000000	0.000606
3543.000000	0.000593
3542.000000	0.000591
3541.000000	0.000594
3540.000000	0.000596
3539.000000	0.000599
3538.000000	0.000611
3537.000000	0.000632
3536.000000	0.000655
3535.000000	0.000673
3534.000000	0.000688
3533.000000	0.000706
3532.000000	0.000724
3531.000000	0.000734
3530.000000	0.000730
3529.000000	0.000717
3528.000000	0.000706
3527.000000	0.000705
3526.000000	0.000716
3525.000000	0.000733
3524.000000	0.000753
3523.000000	0.000770
3522.000000	0.000775
3521.000000	0.000767
3520.000000	0.000755
3519.000000	0.000752
3518.000000	0.000769
3517.000000	0.000795
3516.000000	0.000810
3515.000000	0.000801
3514.000000	0.000774
3513.000000	0.000753
3512.000000	0.000757
3511.000000	0.000786
3510.000000	0.000824
3509.000000	0.000850
3508.000000	0.000860
3507.000000	0.000859
3506.000000	0.000858
3505.000000	0.000860
3504.000000	0.000863
3503.000000	0.000866
3502.000000	0.000874
3501.000000	0.000889
3500.000000	0.000911
3499.000000	0.000937
3498.000000	0.000964
3497.000000	0.000986
3496.000000	0.000997
3495.000000	0.000994
3494.000000	0.000980
3493.000000	0.000968
3492.000000	0.000971
3491.000000	0.000993
3490.000000	0.001026
3489.000000	0.001055
3488.000000	0.001066
3487.000000	0.001054
3486.000000	0.001026
3485.000000	0.000998
3484.000000	0.000986
3483.000000	0.000997
3482.000000	0.001025
3481.000000	0.001055
3480.000000	0.001071
3479.000000	0.001070
3478.000000	0.001058
3477.000000	0.001046
3476.000000	0.001045
3475.000000	0.001060
3474.000000	0.001090
3473.000000	0.001120
3472.000000	0.001138
3471.000000	0.001137
3470.000000	0.001124
3469.000000	0.001114
3468.000000	0.001119
3467.000000	0.001139
3466.000000	0.001163
3465.000000	0.001182
3464.000000	0.001189
3463.000000	0.001186
3462.000000	0.001173
3461.000000	0.001154
3460.000000	0.001136
3459.000000	0.001132
3458.000000	0.001151
3457.000000	0.001188
3456.000000	0.001223
3455.000000	0.001237
3454.000000	0.001226
3453.000000	0.001202
3452.000000	0.001184
3451.000000	0.001184
3450.000000	0.001200
3449.000000	0.001223
3448.000000	0.001242
3447.000000	0.001247
3446.000000	0.001235
3445.000000	0.001213
3444.000000	0.001201
3443.000000	0.001211
3442.000000	0.001242
3441.000000	0.001278
3440.000000	0.001303
3439.000000	0.001320
3438.000000	0.001339
3437.000000	0.001364
3436.000000	0.001385
3435.000000	0.001393
3434.000000	0.001388
3433.000000	0.001381
3432.000000	0.001380
3431.000000	0.001386
3430.000000	0.001394
3429.000000	0.001401
3428.000000	0.001407
3427.000000	0.001409
3426.000000	0.001409
3425.000000	0.001408
3424.000000	0.001410
3423.000000	0.001417
3422.000000	0.001430
3421.000000	0.001446
3420.000000	0.001460
3419.000000	0.001470
3418.000000	0.001475
3417.000000	0.001477
3416.000000	0.001474
3415.000000	0.001466
3414.000000	0.001453
3413.000000	0.001438
3412.000000	0.001424
3411.000000	0.001409
3410.000000	0.001393
3409.000000	0.001378
3408.000000	0.001372
3407.000000	0.001385
3406.000000	0.001416
3405.000000	0.001451
3404.000000	0.001474
3403.000000	0.001480
3402.000000	0.001476
3401.000000	0.001472
3400.000000	0.001472
3399.000000	0.001479
3398.000000	0.001491
3397.000000	0.001507
3396.000000	0.001523
3395.000000	0.001539
3394.000000	0.001558
3393.000000	0.001574
3392.000000	0.001579
3391.000000	0.001567
3390.000000	0.001543
3389.000000	0.001519
3388.000000	0.001503
3387.000000	0.001499
3386.000000	0.001509
3385.000000	0.001536
3384.000000	0.001577
3383.000000	0.001621
3382.000000	0.001648
3381.000000	0.001649
3380.000000	0.001626
3379.000000	0.001596
3378.000000	0.001576
3377.000000	0.001574
3376.000000	0.001590
3375.000000	0.001614
3374.000000	0.001641
3373.000000	0.001668
3372.000000	0.001689
3371.000000	0.001696
3370.000000	0.001684
3369.000000	0.001660
3368.000000	0.001640
3367.000000	0.001631
3366.000000	0.001633
3365.000000	0.001636
3364.000000	0.001630
3363.000000	0.001613
3362.000000	0.001591
3361.000000	0.001578
3360.000000	0.001582
3359.000000	0.001600
3358.000000	0.001618
3357.000000	0.001629
3356.000000	0.001633
3355.000000	0.001638
3354.000000	0.001647
3353.000000	0.001655
3352.000000	0.001657
3351.000000	0.001655
3350.000000	0.001653
3349.000000	0.001658
3348.000000	0.001669
3347.000000	0.001684
3346.000000	0.001696
3345.000000	0.001707
3344.000000	0.001724
3343.000000	0.001752
3342.000000	0.001783
3341.000000	0.001799
3340.000000	0.001784
3339.000000	0.001740
3338.000000	0.001689
3337.000000	0.001661
3336.000000	0.001671
3335.000000	0.001712
3334.000000	0.001753
3333.000000	0.001769
3332.000000	0.001759
3331.000000	0.001739
3330.000000	0.001730
3329.000000	0.001733
3328.000000	0.001740
3327.000000	0.001745
3326.000000	0.001747
3325.000000	0.001747
3324.000000	0.001747
3323.000000	0.001750
3322.000000	0.001758
3321.000000	0.001772
3320.000000	0.001786
3319.000000	0.001797
3318.000000	0.001804
3317.000000	0.001815
3316.000000	0.001836
3315.000000	0.001865
3314.000000	0.001893
3313.000000	0.001904
3312.000000	0.001889
3311.000000	0.001850
3310.000000	0.001801
3309.000000	0.001757
3308.000000	0.001725
3307.000000	0.001708
3306.000000	0.001711
3305.000000	0.001733
3304.000000	0.001770
3303.000000	0.001808
3302.000000	0.001833
3301.000000	0.001840
3300.000000	0.001833
3299.000000	0.001826
3298.000000	0.001826
3297.000000	0.001832
3296.000000	0.001840
3295.000000	0.001846
3294.000000	0.001848
3293.000000	0.001846
3292.000000	0.001843
3291.000000	0.001840
3290.000000	0.001838
3289.000000	0.001835
3288.000000	0.001833
3287.000000	0.001829
3286.000000	0.001823
3285.000000	0.001814
3284.000000	0.001806
3283.000000	0.001807
3282.000000	0.001821
3281.000000	0.001843
3280.000000	0.001861
3279.000000	0.001863
3278.000000	0.001843
3277.000000	0.001805
3276.000000	0.001765
3275.000000	0.001737
3274.000000	0.001728
3273.000000	0.001732
3272.000000	0.001740
3271.000000	0.001750
3270.000000	0.001766
3269.000000	0.001786
3268.000000	0.001801
3267.000000	0.001799
3266.000000	0.001782
3265.000000	0.001762
3264.000000	0.001752
3263.000000	0.001756
3262.000000	0.001769
3261.000000	0.001782
3260.000000	0.001791
3259.000000	0.001798
3258.000000	0.001803
3257.000000	0.001806
3256.000000	0.001805
3255.000000	0.001803
3254.000000	0.001802
3253.000000	0.001804
3252.000000	0.001803
3251.000000	0.001794
3250.000000	0.001774
3249.000000	0.001753
3248.000000	0.001744
3247.000000	0.001750
3246.000000	0.001764
3245.000000	0.001775
3244.000000	0.001782
3243.000000	0.001787
3242.000000	0.001789
3241.000000	0.001781
3240.000000	0.001759
3239.000000	0.001728
3238.000000	0.001699
3237.000000	0.001677
3236.000000	0.001662
3235.000000	0.001653
3234.000000	0.001657
3233.000000	0.001677
3232.000000	0.001707
3231.000000	0.001735
3230.000000	0.001751
3229.000000	0.001754
3228.000000	0.001749
3227.000000	0.001742
3226.000000	0.001731
3225.000000	0.001711
3224.000000	0.001679
3223.000000	0.001639
3222.000000	0.001607
3221.000000	0.001593
3220.000000	0.001601
3219.000000	0.001621
3218.000000	0.001645
3217.000000	0.001664
3216.000000	0.001670
3215.000000	0.001657
3214.000000	0.001633
3213.000000	0.001615
3212.000000	0.001616
3211.000000	0.001636
3210.000000	0.001663
3209.000000	0.001688
3208.000000	0.001706
3207.000000	0.001714
3206.000000	0.001709
3205.000000	0.001692
3204.000000	0.001667
3203.000000	0.001643
3202.000000	0.001626
3201.000000	0.001615
3200.000000	0.001608
3199.000000	0.001605
3198.000000	0.001609
3197.000000	0.001624
3196.000000	0.001646
3195.000000	0.001666
3194.000000	0.001674
3193.000000	0.001667
3192.000000	0.001648
3191.000000	0.001624
3190.000000	0.001602
3189.000000	0.001589
3188.000000	0.001590
3187.000000	0.001602
3186.000000	0.001620
3185.000000	0.001638
3184.000000	0.001656
3183.000000	0.001674
3182.000000	0.001689
3181.000000	0.001696
3180.000000	0.001692
3179.000000	0.001676
3178.000000	0.001649
3177.000000	0.001611
3176.000000	0.001571
3175.000000	0.001537
3174.000000	0.001517
3173.000000	0.001511
3172.000000	0.001512
3171.000000	0.001520
3170.000000	0.001531
3169.000000	0.001543
3168.000000	0.001550
3167.000000	0.001552
3166.000000	0.001554
3165.000000	0.001558
3164.000000	0.001565
3163.000000	0.001569
3162.000000	0.001569
3161.000000	0.001568
3160.000000	0.001568
3159.000000	0.001568
3158.000000	0.001563
3157.000000	0.001550
3156.000000	0.001534
3155.000000	0.001521
3154.000000	0.001522
3153.000000	0.001534
3152.000000	0.001545
3151.000000	0.001539
3150.000000	0.001514
3149.000000	0.001481
3148.000000	0.001454
3147.000000	0.001441
3146.000000	0.001438
3145.000000	0.001439
3144.000000	0.001440
3143.000000	0.001440
3142.000000	0.001439
3141.000000	0.001438
3140.000000	0.001438
3139.000000	0.001432
3138.000000	0.001412
3137.000000	0.001379
3136.000000	0.001345
3135.000000	0.001320
3134.000000	0.001306
3133.000000	0.001297
3132.000000	0.001288
3131.000000	0.001277
3130.000000	0.001266
3129.000000	0.001260
3128.000000	0.001264
3127.000000	0.001284
3126.000000	0.001312
3125.000000	0.001333
3124.000000	0.001333
3123.000000	0.001311
3122.000000	0.001277
3121.000000	0.001246
3120.000000	0.001223
3119.000000	0.001211
3118.000000	0.001202
3117.000000	0.001190
3116.000000	0.001173
3115.000000	0.001162
3114.000000	0.001169
3113.000000	0.001195
3112.000000	0.001229
3111.000000	0.001258
3110.000000	0.001277
3109.000000	0.001285
3108.000000	0.001279
3107.000000	0.001259
3106.000000	0.001232
3105.000000	0.001215
3104.000000	0.001214
3103.000000	0.001223
3102.000000	0.001232
3101.000000	0.001236
3100.000000	0.001235
3099.000000	0.001230
3098.000000	0.001215
3097.000000	0.001187
3096.000000	0.001150
3095.000000	0.001115
3094.000000	0.001094
3093.000000	0.001089
3092.000000	0.001097
3091.000000	0.001109
3090.000000	0.001117
3089.000000	0.001118
3088.000000	0.001112
3087.000000	0.001103
3086.000000	0.001093
3085.000000	0.001083
3084.000000	0.001073
3083.000000	0.001066
3082.000000	0.001066
3081.000000	0.001076
3080.000000	0.001092
3079.000000	0.001109
3078.000000	0.001126
3077.000000	0.001141
3076.000000	0.001156
3075.000000	0.001165
3074.000000	0.001163
3073.000000	0.001151
3072.000000	0.001136
3071.000000	0.001126
3070.000000	0.001123
3069.000000	0.001121
3068.000000	0.001117
3067.000000	0.001108
3066.000000	0.001096
3065.000000	0.001080
3064.000000	0.001061
3063.000000	0.001044
3062.000000	0.001038
3061.000000	0.001049
3060.000000	0.001077
3059.000000	0.001108
3058.000000	0.001124
3057.000000	0.001116
3056.000000	0.001092
3055.000000	0.001070
3054.000000	0.001063
3053.000000	0.001068
3052.000000	0.001072
3051.000000	0.001061
3050.000000	0.001038
3049.000000	0.001012
3048.000000	0.000995
3047.000000	0.000987
3046.000000	0.000985
3045.000000	0.000982
3044.000000	0.000975
3043.000000	0.000967
3042.000000	0.000961
3041.000000	0.000963
3040.000000	0.000975
3039.000000	0.000990
3038.000000	0.000997
3037.000000	0.000987
3036.000000	0.000962
3035.000000	0.000935
3034.000000	0.000923
3033.000000	0.000937
3032.000000	0.000974
3031.000000	0.001019
3030.000000	0.001052
3029.000000	0.001057
3028.000000	0.001035
3027.000000	0.001007
3026.000000	0.000996
3025.000000	0.001010
3024.000000	0.001033
3023.000000	0.001041
3022.000000	0.001023
3021.000000	0.000988
3020.000000	0.000956
3019.000000	0.000945
3018.000000	0.000960
3017.000000	0.000998
3016.000000	0.001045
3015.000000	0.001088
3014.000000	0.001118
3013.000000	0.001135
3012.000000	0.001142
3011.000000	0.001140
3010.000000	0.001132
3009.000000	0.001125
3008.000000	0.001124
3007.000000	0.001132
3006.000000	0.001143
3005.000000	0.001154
3004.000000	0.001162
3003.000000	0.001167
3002.000000	0.001171
3001.000000	0.001179
3000.000000	0.001196
2999.000000	0.001221
2998.000000	0.001242
2997.000000	0.001252
2996.000000	0.001252
2995.000000	0.001256
2994.000000	0.001275
2993.000000	0.001307
2992.000000	0.001347
2991.000000	0.001389
2990.000000	0.001428
2989.000000	0.001455
2988.000000	0.001463
2987.000000	0.001451
2986.000000	0.001435
2985.000000	0.001431
2984.000000	0.001452
2983.000000	0.001496
2982.000000	0.001547
2981.000000	0.001582
2980.000000	0.001593
2979.000000	0.001592
2978.000000	0.001598
2977.000000	0.001622
2976.000000	0.001665
2975.000000	0.001719
2974.000000	0.001773
2973.000000	0.001822
2972.000000	0.001863
2971.000000	0.001903
2970.000000	0.001951
2969.000000	0.002004
2968.000000	0.002049
2967.000000	0.002077
2966.000000	0.002094
2965.000000	0.002113
2964.000000	0.002139
2963.000000	0.002168
2962.000000	0.002195
2961.000000	0.002219
2960.000000	0.002236
2959.000000	0.002240
2958.000000	0.002230
2957.000000	0.002218
2956.000000	0.002218
2955.000000	0.002231
2954.000000	0.002245
2953.000000	0.002250
2952.000000	0.002244
2951.000000	0.002231
2950.000000	0.002216
2949.000000	0.002204
2948.000000	0.002199
2947.000000	0.002203
2946.000000	0.002214
2945.000000	0.002230
2944.000000	0.002259
2943.000000	0.002302
2942.000000	0.002351
2941.000000	0.002393
2940.000000	0.002427
2939.000000	0.002465
2938.000000	0.002523
2937.000000	0.002597
2936.000000	0.002666
2935.000000	0.002712
2934.000000	0.002729
2933.000000	0.002734
2932.000000	0.002744
2931.000000	0.002769
2930.000000	0.002808
2929.000000	0.002853
2928.000000	0.002890
2927.000000	0.002904
2926.000000	0.002891
2925.000000	0.002857
2924.000000	0.002814
2923.000000	0.002776
2922.000000	0.002742
2921.000000	0.002702
2920.000000	0.002650
2919.000000	0.002587
2918.000000	0.002521
2917.000000	0.002460
2916.000000	0.002408
2915.000000	0.002363
2914.000000	0.002329
2913.000000	0.002307
2912.000000	0.002297
2911.000000	0.002291
2910.000000	0.002279
2909.000000	0.002255
2908.000000	0.002222
2907.000000	0.002188
2906.000000	0.002161
2905.000000	0.002146
2904.000000	0.002145
2903.000000	0.002152
2902.000000	0.002152
2901.000000	0.002135
2900.000000	0.002102
2899.000000	0.002059
2898.000000	0.002009
2897.000000	0.001955
2896.000000	0.001901
2895.000000	0.001857
2894.000000	0.001834
2893.000000	0.001830
2892.000000	0.001832
2891.000000	0.001825
2890.000000	0.001803
2889.000000	0.001768
2888.000000	0.001732
2887.000000	0.001708
2886.000000	0.001699
2885.000000	0.001697
2884.000000	0.001696
2883.000000	0.001696
2882.000000	0.001711
2881.000000	0.001744
2880.000000	0.001786
2879.000000	0.001819
2878.000000	0.001832
2877.000000	0.001831
2876.000000	0.001828
2875.000000	0.001828
2874.000000	0.001831
2873.000000	0.001836
2872.000000	0.001840
2871.000000	0.001842
2870.000000	0.001840
2869.000000	0.001840
2868.000000	0.001845
2867.000000	0.001857
2866.000000	0.001872
2865.000000	0.001888
2864.000000	0.001907
2863.000000	0.001930
2862.000000	0.001949
2861.000000	0.001959
2860.000000	0.001961
2859.000000	0.001961
2858.000000	0.001965
2857.000000	0.001965
2856.000000	0.001956
2855.000000	0.001939
2854.000000	0.001918
2853.000000	0.001893
2852.000000	0.001861
2851.000000	0.001822
2850.000000	0.001785
2849.000000	0.001754
2848.000000	0.001728
2847.000000	0.001697
2846.000000	0.001651
2845.000000	0.001592
2844.000000	0.001527
2843.000000	0.001466
2842.000000	0.001415
2841.000000	0.001370
2840.000000	0.001328
2839.000000	0.001289
2838.000000	0.001256
2837.000000	0.001230
2836.000000	0.001213
2835.000000	0.001205
2834.000000	0.001204
2833.000000	0.001204
2832.000000	0.001200
2831.000000	0.001190
2830.000000	0.001181
2829.000000	0.001174
2828.000000	0.001166
2827.000000	0.001152
2826.000000	0.001135
2825.000000	0.001120
2824.000000	0.001108
2823.000000	0.001093
2822.000000	0.001076
2821.000000	0.001061
2820.000000	0.001053
2819.000000	0.001051
2818.000000	0.001054
2817.000000	0.001065
2816.000000	0.001090
2815.000000	0.001124
2814.000000	0.001153
2813.000000	0.001157
2812.000000	0.001123
2811.000000	0.001061
2810.000000	0.000999
2809.000000	0.000965
2808.000000	0.000969
2807.000000	0.000995
2806.000000	0.001014
2805.000000	0.001011
2804.000000	0.000987
2803.000000	0.000957
2802.000000	0.000934
2801.000000	0.000920
2800.000000	0.000913
2799.000000	0.000911
2798.000000	0.000916
2797.000000	0.000930
2796.000000	0.000954
2795.000000	0.000981
2794.000000	0.001003
2793.000000	0.001004
2792.000000	0.000981
2791.000000	0.000940
2790.000000	0.000901
2789.000000	0.000880
2788.000000	0.000883
2787.000000	0.000907
2786.000000	0.000945
2785.000000	0.000987
2784.000000	0.001017
2783.000000	0.001028
2782.000000	0.001019
2781.000000	0.000998
2780.000000	0.000973
2779.000000	0.000949
2778.000000	0.000928
2777.000000	0.000909
2776.000000	0.000896
2775.000000	0.000891
2774.000000	0.000893
2773.000000	0.000897
2772.000000	0.000896
2771.000000	0.000894
2770.000000	0.000894
2769.000000	0.000896
2768.000000	0.000896
2767.000000	0.000893
2766.000000	0.000889
2765.000000	0.000891
2764.000000	0.000896
2763.000000	0.000901
2762.000000	0.000906
2761.000000	0.000915
2760.000000	0.000927
2759.000000	0.000929
2758.000000	0.000913
2757.000000	0.000879
2756.000000	0.000845
2755.000000	0.000830
2754.000000	0.000838
2753.000000	0.000865
2752.000000	0.000900
2751.000000	0.000934
2750.000000	0.000956
2749.000000	0.000958
2748.000000	0.000938
2747.000000	0.000906
2746.000000	0.000876
2745.000000	0.000858
2744.000000	0.000857
2743.000000	0.000871
2742.000000	0.000890
2741.000000	0.000903
2740.000000	0.000904
2739.000000	0.000891
2738.000000	0.000874
2737.000000	0.000862
2736.000000	0.000860
2735.000000	0.000869
2734.000000	0.000885
2733.000000	0.000901
2732.000000	0.000913
2731.000000	0.000926
2730.000000	0.000939
2729.000000	0.000949
2728.000000	0.000945
2727.000000	0.000922
2726.000000	0.000888
2725.000000	0.000856
2724.000000	0.000838
2723.000000	0.000833
2722.000000	0.000839
2721.000000	0.000854
2720.000000	0.000874
2719.000000	0.000890
2718.000000	0.000894
2717.000000	0.000885
2716.000000	0.000874
2715.000000	0.000872
2714.000000	0.000878
2713.000000	0.000885
2712.000000	0.000885
2711.000000	0.000873
2710.000000	0.000854
2709.000000	0.000834
2708.000000	0.000821
2707.000000	0.000823
2706.000000	0.000838
2705.000000	0.000856
2704.000000	0.000866
2703.000000	0.000868
2702.000000	0.000869
2701.000000	0.000872
2700.000000	0.000875
2699.000000	0.000872
2698.000000	0.000860
2697.000000	0.000843
2696.000000	0.000827
2695.000000	0.000812
2694.000000	0.000798
2693.000000	0.000784
2692.000000	0.000771
2691.000000	0.000768
2690.000000	0.000779
2689.000000	0.000800
2688.000000	0.000817
2687.000000	0.000825
2686.000000	0.000829
2685.000000	0.000839
2684.000000	0.000853
2683.000000	0.000862
2682.000000	0.000862
2681.000000	0.000854
2680.000000	0.000847
2679.000000	0.000843
2678.000000	0.000844
2677.000000	0.000849
2676.000000	0.000853
2675.000000	0.000849
2674.000000	0.000833
2673.000000	0.000814
2672.000000	0.000806
2671.000000	0.000815
2670.000000	0.000834
2669.000000	0.000852
2668.000000	0.000860
2667.000000	0.000865
2666.000000	0.000871
2665.000000	0.000875
2664.000000	0.000872
2663.000000	0.000865
2662.000000	0.000864
2661.000000	0.000880
2660.000000	0.000907
2659.000000	0.000932
2658.000000	0.000944
2657.000000	0.000937
2656.000000	0.000915
2655.000000	0.000887
2654.000000	0.000861
2653.000000	0.000844
2652.000000	0.000834
2651.000000	0.000827
2650.000000	0.000820
2649.000000	0.000819
2648.000000	0.000829
2647.000000	0.000847
2646.000000	0.000863
2645.000000	0.000866
2644.000000	0.000854
2643.000000	0.000838
2642.000000	0.000831
2641.000000	0.000835
2640.000000	0.000844
2639.000000	0.000848
2638.000000	0.000843
2637.000000	0.000835
2636.000000	0.000830
2635.000000	0.000828
2634.000000	0.000825
2633.000000	0.000817
2632.000000	0.000803
2631.000000	0.000786
2630.000000	0.000778
2629.000000	0.000787
2628.000000	0.000807
2627.000000	0.000818
2626.000000	0.000803
2625.000000	0.000761
2624.000000	0.000714
2623.000000	0.000691
2622.000000	0.000703
2621.000000	0.000736
2620.000000	0.000767
2619.000000	0.000781
2618.000000	0.000778
2617.000000	0.000765
2616.000000	0.000755
2615.000000	0.000759
2614.000000	0.000784
2613.000000	0.000818
2612.000000	0.000837
2611.000000	0.000823
2610.000000	0.000787
2609.000000	0.000753
2608.000000	0.000735
2607.000000	0.000723
2606.000000	0.000702
2605.000000	0.000675
2604.000000	0.000657
2603.000000	0.000653
2602.000000	0.000652
2601.000000	0.000646
2600.000000	0.000642
2599.000000	0.000655
2598.000000	0.000684
2597.000000	0.000707
2596.000000	0.000706
2595.000000	0.000687
2594.000000	0.000675
2593.000000	0.000690
2592.000000	0.000719
2591.000000	0.000738
2590.000000	0.000733
2589.000000	0.000707
2588.000000	0.000671
2587.000000	0.000631
2586.000000	0.000592
2585.000000	0.000561
2584.000000	0.000551
2583.000000	0.000573
2582.000000	0.000625
2581.000000	0.000687
2580.000000	0.000733
2579.000000	0.000751
2578.000000	0.000744
2577.000000	0.000716
2576.000000	0.000670
2575.000000	0.000616
2574.000000	0.000579
2573.000000	0.000575
2572.000000	0.000592
2571.000000	0.000608
2570.000000	0.000610
2569.000000	0.000611
2568.000000	0.000620
2567.000000	0.000632
2566.000000	0.000637
2565.000000	0.000632
2564.000000	0.000620
2563.000000	0.000606
2562.000000	0.000587
2561.000000	0.000561
2560.000000	0.000526
2559.000000	0.000493
2558.000000	0.000485
2557.000000	0.000513
2556.000000	0.000562
2555.000000	0.000605
2554.000000	0.000634
2553.000000	0.000664
2552.000000	0.000703
2551.000000	0.000733
2550.000000	0.000733
2549.000000	0.000702
2548.000000	0.000660
2547.000000	0.000629
2546.000000	0.000617
2545.000000	0.000624
2544.000000	0.000643
2543.000000	0.000664
2542.000000	0.000686
2541.000000	0.000710
2540.000000	0.000726
2539.000000	0.000712
2538.000000	0.000660
2537.000000	0.000596
2536.000000	0.000561
2535.000000	0.000569
2534.000000	0.000599
2533.000000	0.000620
2532.000000	0.000622
2531.000000	0.000614
2530.000000	0.000605
2529.000000	0.000603
2528.000000	0.000611
2527.000000	0.000624
2526.000000	0.000631
2525.000000	0.000623
2524.000000	0.000604
2523.000000	0.000587
2522.000000	0.000578
2521.000000	0.000572
2520.000000	0.000555
2519.000000	0.000523
2518.000000	0.000491
2517.000000	0.000480
2516.000000	0.000503
2515.000000	0.000547
2514.000000	0.000587
2513.000000	0.000606
2512.000000	0.000608
2511.000000	0.000606
2510.000000	0.000607
2509.000000	0.000601
2508.000000	0.000574
2507.000000	0.000533
2506.000000	0.000511
2505.000000	0.000553
2504.000000	0.000666
2503.000000	0.000797
2502.000000	0.000869
2501.000000	0.000841
2500.000000	0.000742
2499.000000	0.000639
2498.000000	0.000577
2497.000000	0.000562
2496.000000	0.000576
2495.000000	0.000600
2494.000000	0.000617
2493.000000	0.000620
2492.000000	0.000620
2491.000000	0.000632
2490.000000	0.000653
2489.000000	0.000662
2488.000000	0.000633
2487.000000	0.000566
2486.000000	0.000482
2485.000000	0.000407
2484.000000	0.000366
2483.000000	0.000372
2482.000000	0.000422
2481.000000	0.000491
2480.000000	0.000540
2479.000000	0.000552
2478.000000	0.000543
2477.000000	0.000539
2476.000000	0.000550
2475.000000	0.000566
2474.000000	0.000573
2473.000000	0.000570
2472.000000	0.000568
2471.000000	0.000581
2470.000000	0.000606
2469.000000	0.000630
2468.000000	0.000631
2467.000000	0.000608
2466.000000	0.000579
2465.000000	0.000564
2464.000000	0.000567
2463.000000	0.000575
2462.000000	0.000581
2461.000000	0.000588
2460.000000	0.000600
2459.000000	0.000615
2458.000000	0.000630
2457.000000	0.000647
2456.000000	0.000664
2455.000000	0.000676
2454.000000	0.000676
2453.000000	0.000665
2452.000000	0.000645
2451.000000	0.000615
2450.000000	0.000576
2449.000000	0.000533
2448.000000	0.000499
2447.000000	0.000484
2446.000000	0.000492
2445.000000	0.000518
2444.000000	0.000547
2443.000000	0.000562
2442.000000	0.000562
2441.000000	0.000562
2440.000000	0.000570
2439.000000	0.000574
2438.000000	0.000556
2437.000000	0.000516
2436.000000	0.000480
2435.000000	0.000480
2434.000000	0.000516
2433.000000	0.000562
2432.000000	0.000590
2431.000000	0.000590
2430.000000	0.000579
2429.000000	0.000576
2428.000000	0.000587
2427.000000	0.000601
2426.000000	0.000606
2425.000000	0.000605
2424.000000	0.000608
2423.000000	0.000615
2422.000000	0.000612
2421.000000	0.000589
2420.000000	0.000552
2419.000000	0.000513
2418.000000	0.000481
2417.000000	0.000459
2416.000000	0.000452
2415.000000	0.000467
2414.000000	0.000505
2413.000000	0.000552
2412.000000	0.000592
2411.000000	0.000616
2410.000000	0.000623
2409.000000	0.000614
2408.000000	0.000584
2407.000000	0.000539
2406.000000	0.000492
2405.000000	0.000459
2404.000000	0.000445
2403.000000	0.000443
2402.000000	0.000449
2401.000000	0.000469
2400.000000	0.000506
2399.000000	0.000548
2398.000000	0.000579
2397.000000	0.000588
2396.000000	0.000587
2395.000000	0.000594
2394.000000	0.000617
2393.000000	0.000644
2392.000000	0.000658
2391.000000	0.000653
2390.000000	0.000633
2389.000000	0.000598
2388.000000	0.000547
2387.000000	0.000489
2386.000000	0.000442
2385.000000	0.000414
2384.000000	0.000396
2383.000000	0.000369
2382.000000	0.000335
2381.000000	0.000305
2380.000000	0.000283
2379.000000	0.000257
2378.000000	0.000222
2377.000000	0.000189
2376.000000	0.000184
2375.000000	0.000217
2374.000000	0.000269
2373.000000	0.000313
2372.000000	0.000332
2371.000000	0.000340
2370.000000	0.000360
2369.000000	0.000385
2368.000000	0.000384
2367.000000	0.000336
2366.000000	0.000272
2365.000000	0.000236
2364.000000	0.000243
2363.000000	0.000271
2362.000000	0.000294
2361.000000	0.000302
2360.000000	0.000303
2359.000000	0.000305
2358.000000	0.000310
2357.000000	0.000319
2356.000000	0.000329
2355.000000	0.000344
2354.000000	0.000350
2353.000000	0.000323
2352.000000	0.000266
2351.000000	0.000222
2350.000000	0.000233
2349.000000	0.000303
2348.000000	0.000394
2347.000000	0.000449
2346.000000	0.000437
2345.000000	0.000387
2344.000000	0.000353
2343.000000	0.000355
2342.000000	0.000363
2341.000000	0.000341
2340.000000	0.000296
2339.000000	0.000256
2338.000000	0.000248
2337.000000	0.000277
2336.000000	0.000337
2335.000000	0.000402
2334.000000	0.000440
2333.000000	0.000432
2332.000000	0.000404
2331.000000	0.000391
2330.000000	0.000410
2329.000000	0.000438
2328.000000	0.000459
2327.000000	0.000475
2326.000000	0.000495
2325.000000	0.000519
2324.000000	0.000533
2323.000000	0.000527
2322.000000	0.000506
2321.000000	0.000484
2320.000000	0.000474
2319.000000	0.000475
2318.000000	0.000489
2317.000000	0.000519
2316.000000	0.000571
2315.000000	0.000625
2314.000000	0.000662
2313.000000	0.000666
2312.000000	0.000644
2311.000000	0.000606
2310.000000	0.000564
2309.000000	0.000521
2308.000000	0.000489
2307.000000	0.000473
2306.000000	0.000482
2305.000000	0.000508
2304.000000	0.000540
2303.000000	0.000557
2302.000000	0.000558
2301.000000	0.000560
2300.000000	0.000584
2299.000000	0.000625
2298.000000	0.000654
2297.000000	0.000647
2296.000000	0.000612
2295.000000	0.000580
2294.000000	0.000589
2293.000000	0.000648
2292.000000	0.000728
2291.000000	0.000785
2290.000000	0.000796
2289.000000	0.000783
2288.000000	0.000787
2287.000000	0.000820
2286.000000	0.000855
2285.000000	0.000860
2284.000000	0.000834
2283.000000	0.000802
2282.000000	0.000779
2281.000000	0.000763
2280.000000	0.000745
2279.000000	0.000721
2278.000000	0.000690
2277.000000	0.000647
2276.000000	0.000596
2275.000000	0.000546
2274.000000	0.000517
2273.000000	0.000523
2272.000000	0.000565
2271.000000	0.000621
2270.000000	0.000665
2269.000000	0.000682
2268.000000	0.000677
2267.000000	0.000661
2266.000000	0.000635
2265.000000	0.000595
2264.000000	0.000550
2263.000000	0.000515
2262.000000	0.000496
2261.000000	0.000485
2260.000000	0.000466
2259.000000	0.000441
2258.000000	0.000429
2257.000000	0.000453
2256.000000	0.000515
2255.000000	0.000574
2254.000000	0.000585
2253.000000	0.000544
2252.000000	0.000494
2251.000000	0.000481
2250.000000	0.000502
2249.000000	0.000524
2248.000000	0.000531
2247.000000	0.000541
2246.000000	0.000558
2245.000000	0.000559
2244.000000	0.000521
2243.000000	0.000470
2242.000000	0.000456
2241.000000	0.000488
2240.000000	0.000514
2239.000000	0.000479
2238.000000	0.000385
2237.000000	0.000290
2236.000000	0.000247
2235.000000	0.000271
2234.000000	0.000341
2233.000000	0.000420
2232.000000	0.000461
2231.000000	0.000426
2230.000000	0.000327
2229.000000	0.000235
2228.000000	0.000231
2227.000000	0.000344
2226.000000	0.000520
2225.000000	0.000673
2224.000000	0.000747
2223.000000	0.000749
2222.000000	0.000728
2221.000000	0.000721
2220.000000	0.000713
2219.000000	0.000664
2218.000000	0.000565
2217.000000	0.000450
2216.000000	0.000361
2215.000000	0.000301
2214.000000	0.000252
2213.000000	0.000223
2212.000000	0.000247
2211.000000	0.000327
2210.000000	0.000409
2209.000000	0.000428
2208.000000	0.000375
2207.000000	0.000313
2206.000000	0.000311
2205.000000	0.000373
2204.000000	0.000444
2203.000000	0.000465
2202.000000	0.000438
2201.000000	0.000417
2200.000000	0.000455
2199.000000	0.000553
2198.000000	0.000664
2197.000000	0.000724
2196.000000	0.000693
2195.000000	0.000594
2194.000000	0.000499
2193.000000	0.000486
2192.000000	0.000565
2191.000000	0.000664
2190.000000	0.000701
2189.000000	0.000668
2188.000000	0.000632
2187.000000	0.000648
2186.000000	0.000706
2185.000000	0.000767
2184.000000	0.000816
2183.000000	0.000856
2182.000000	0.000852
2181.000000	0.000751
2180.000000	0.000559
2179.000000	0.000378
2178.000000	0.000317
2177.000000	0.000397
2176.000000	0.000533
2175.000000	0.000621
2174.000000	0.000620
2173.000000	0.000559
2172.000000	0.000504
2171.000000	0.000495
2170.000000	0.000526
2169.000000	0.000561
2168.000000	0.000578
2167.000000	0.000584
2166.000000	0.000574
2165.000000	0.000510
2164.000000	0.000379
2163.000000	0.000248
2162.000000	0.000203
2161.000000	0.000231
2160.000000	0.000199
2159.000000	0.000011
2158.000000	-0.000267
2157.000000	-0.000506
2156.000000	-0.000651
2155.000000	-0.000701
2154.000000	-0.000635
2153.000000	-0.000451
2152.000000	-0.000232
2151.000000	-0.000091
2150.000000	-0.000064
2149.000000	-0.000099
2148.000000	-0.000146
2147.000000	-0.000201
2146.000000	-0.000263
2145.000000	-0.000297
2144.000000	-0.000288
2143.000000	-0.000266
2142.000000	-0.000268
2141.000000	-0.000277
2140.000000	-0.000232
2139.000000	-0.000099
2138.000000	0.000084
2137.000000	0.000238
2136.000000	0.000318
2135.000000	0.000350
2134.000000	0.000390
2133.000000	0.000447
2132.000000	0.000482
2131.000000	0.000455
2130.000000	0.000383
2129.000000	0.000311
2128.000000	0.000272
2127.000000	0.000271
2126.000000	0.000288
2125.000000	0.000303
2124.000000	0.000302
2123.000000	0.000295
2122.000000	0.000302
2121.000000	0.000334
2120.000000	0.000376
2119.000000	0.000423
2118.000000	0.000487
2117.000000	0.000575
2116.000000	0.000651
2115.000000	0.000672
2114.000000	0.000635
2113.000000	0.000575
2112.000000	0.000515
2111.000000	0.000447
2110.000000	0.000377
2109.000000	0.000352
2108.000000	0.000417
2107.000000	0.000563
2106.000000	0.000720
2105.000000	0.000802
2104.000000	0.000764
2103.000000	0.000632
2102.000000	0.000494
2101.000000	0.000436
2100.000000	0.000466
2099.000000	0.000519
2098.000000	0.000534
2097.000000	0.000513
2096.000000	0.000486
2095.000000	0.000456
2094.000000	0.000401
2093.000000	0.000331
2092.000000	0.000299
2091.000000	0.000354
2090.000000	0.000482
2089.000000	0.000608
2088.000000	0.000643
2087.000000	0.000566
2086.000000	0.000433
2085.000000	0.000316
2084.000000	0.000233
2083.000000	0.000164
2082.000000	0.000113
2081.000000	0.000126
2080.000000	0.000233
2079.000000	0.000399
2078.000000	0.000552
2077.000000	0.000634
2076.000000	0.000614
2075.000000	0.000488
2074.000000	0.000301
2073.000000	0.000158
2072.000000	0.000135
2071.000000	0.000207
2070.000000	0.000273
2069.000000	0.000266
2068.000000	0.000202
2067.000000	0.000138
2066.000000	0.000101
2065.000000	0.000079
2064.000000	0.000047
2063.000000	0.000002
2062.000000	-0.000021
2061.000000	0.000030
2060.000000	0.000161
2059.000000	0.000295
2058.000000	0.000320
2057.000000	0.000197
2056.000000	0.000000
2055.000000	-0.000146
2054.000000	-0.000164
2053.000000	-0.000057
2052.000000	0.000114
2051.000000	0.000271
2050.000000	0.000345
2049.000000	0.000317
2048.000000	0.000249
2047.000000	0.000233
2046.000000	0.000299
2045.000000	0.000381
2044.000000	0.000394
2043.000000	0.000324
2042.000000	0.000220
2041.000000	0.000116
2040.000000	-0.000001
2039.000000	-0.000127
2038.000000	-0.000208
2037.000000	-0.000194
2036.000000	-0.000126
2035.000000	-0.000098
2034.000000	-0.000138
2033.000000	-0.000177
2032.000000	-0.000156
2031.000000	-0.000095
2030.000000	-0.000025
2029.000000	0.000067
2028.000000	0.000187
2027.000000	0.000264
2026.000000	0.000207
2025.000000	0.000025
2024.000000	-0.000151
2023.000000	-0.000178
2022.000000	-0.000008
2021.000000	0.000274
2020.000000	0.000491
2019.000000	0.000484
2018.000000	0.000233
2017.000000	-0.000109
2016.000000	-0.000345
2015.000000	-0.000405
2014.000000	-0.000368
2013.000000	-0.000325
2012.000000	-0.000297
2011.000000	-0.000260
2010.000000	-0.000200
2009.000000	-0.000136
2008.000000	-0.000094
2007.000000	-0.000099
2006.000000	-0.000176
2005.000000	-0.000320
2004.000000	-0.000469
2003.000000	-0.000516
2002.000000	-0.000383
2001.000000	-0.000103
2000.000000	0.000175
1999.000000	0.000296
1998.000000	0.000227
1997.000000	0.000065
1996.000000	-0.000064
1995.000000	-0.000110
1994.000000	-0.000103
1993.000000	-0.000084
1992.000000	-0.000066
1991.000000	-0.000049
1990.000000	-0.000049
1989.000000	-0.000082
1988.000000	-0.000133
1987.000000	-0.000156
1986.000000	-0.000127
1985.000000	-0.000073
1984.000000	-0.000028
1983.000000	0.000024
1982.000000	0.000146
1981.000000	0.000343
1980.000000	0.000512
1979.000000	0.000521
1978.000000	0.000349
1977.000000	0.000103
1976.000000	-0.000102
1975.000000	-0.000254
1974.000000	-0.000389
1973.000000	-0.000501
1972.000000	-0.000532
1971.000000	-0.000434
1970.000000	-0.000234
1969.000000	-0.000041
1968.000000	0.000010
1967.000000	-0.000122
1966.000000	-0.000331
1965.000000	-0.000463
1964.000000	-0.000460
1963.000000	-0.000383
1962.000000	-0.000317
1961.000000	-0.000286
1960.000000	-0.000267
1959.000000	-0.000239
1958.000000	-0.000194
1957.000000	-0.000141
1956.000000	-0.000105
1955.000000	-0.000105
1954.000000	-0.000139
1953.000000	-0.000173
1952.000000	-0.000182
1951.000000	-0.000162
1950.000000	-0.000124
1949.000000	-0.000079
1948.000000	-0.000047
1947.000000	-0.000050
1946.000000	-0.000077
1945.000000	-0.000081
1944.000000	-0.000028
1943.000000	0.000061
1942.000000	0.000131
1941.000000	0.000152
1940.000000	0.000136
1939.000000	0.000100
1938.000000	0.000042
1937.000000	-0.000038
1936.000000	-0.000110
1935.000000	-0.000125
1934.000000	-0.000061
1933.000000	0.000053
1932.000000	0.000145
1931.000000	0.000157
1930.000000	0.000085
1929.000000	-0.000025
1928.000000	-0.000113
1927.000000	-0.000141
1926.000000	-0.000109
1925.000000	-0.000047
1924.000000	0.000001
1923.000000	0.000011
1922.000000	-0.000005
1921.000000	-0.000027
1920.000000	-0.000061
1919.000000	-0.000112
1918.000000	-0.000145
1917.000000	-0.000116
1916.000000	-0.000035
1915.000000	0.000041
1914.000000	0.000083
1913.000000	0.000101
1912.000000	0.000106
1911.000000	0.000088
1910.000000	0.000044
1909.000000	0.000004
1908.000000	-0.000012
1907.000000	-0.000037
1906.000000	-0.000113
1905.000000	-0.000231
1904.000000	-0.000330
1903.000000	-0.000349
1902.000000	-0.000276
1901.000000	-0.000145
1900.000000	-0.000012
1899.000000	0.000073
1898.000000	0.000090
1897.000000	0.000051
1896.000000	-0.000006
1895.000000	-0.000041
1894.000000	-0.000037
1893.000000	-0.000014
1892.000000	-0.000012
1891.000000	-0.000052
1890.000000	-0.000109
1889.000000	-0.000142
1888.000000	-0.000140
1887.000000	-0.000128
1886.000000	-0.000122
1885.000000	-0.000119
1884.000000	-0.000115
1883.000000	-0.000110
1882.000000	-0.000100
1881.000000	-0.000088
1880.000000	-0.000088
1879.000000	-0.000111
1878.000000	-0.000138
1877.000000	-0.000136
1876.000000	-0.000100
1875.000000	-0.000065
1874.000000	-0.000056
1873.000000	-0.000064
1872.000000	-0.000063
1871.000000	-0.000051
1870.000000	-0.000045
1869.000000	-0.000056
1868.000000	-0.000078
1867.000000	-0.000101
1866.000000	-0.000115
1865.000000	-0.000120
1864.000000	-0.000133
1863.000000	-0.000165
1862.000000	-0.000200
1861.000000	-0.000201
1860.000000	-0.000163
1859.000000	-0.000114
1858.000000	-0.000084
1857.000000	-0.000073
1856.000000	-0.000062
1855.000000	-0.000045
1854.000000	-0.000029
1853.000000	-0.000026
1852.000000	-0.000040
1851.000000	-0.000068
1850.000000	-0.000099
1849.000000	-0.000119
1848.000000	-0.000126
1847.000000	-0.000129
1846.000000	-0.000137
1845.000000	-0.000141
1844.000000	-0.000134
1843.000000	-0.000120
1842.000000	-0.000107
1841.000000	-0.000102
1840.000000	-0.000108
1839.000000	-0.000113
1838.000000	-0.000101
1837.000000	-0.000079
1836.000000	-0.000079
1835.000000	-0.000117
1834.000000	-0.000171
1833.000000	-0.000201
1832.000000	-0.000200
1831.000000	-0.000200
1830.000000	-0.000228
1829.000000	-0.000273
1828.000000	-0.000307
1827.000000	-0.000329
1826.000000	-0.000348
1825.000000	-0.000353
1824.000000	-0.000326
1823.000000	-0.000280
1822.000000	-0.000238
1821.000000	-0.000210
1820.000000	-0.000203
1819.000000	-0.000223
1818.000000	-0.000260
1817.000000	-0.000282
1816.000000	-0.000268
1815.000000	-0.000240
1814.000000	-0.000233
1813.000000	-0.000249
1812.000000	-0.000256
1811.000000	-0.000240
1810.000000	-0.000216
1809.000000	-0.000206
1808.000000	-0.000215
1807.000000	-0.000245
1806.000000	-0.000281
1805.000000	-0.000308
1804.000000	-0.000320
1803.000000	-0.000328
1802.000000	-0.000329
1801.000000	-0.000306
1800.000000	-0.000261
1799.000000	-0.000231
1798.000000	-0.000231
1797.000000	-0.000239
1796.000000	-0.000237
1795.000000	-0.000236
1794.000000	-0.000259
1793.000000	-0.000292
1792.000000	-0.000305
1791.000000	-0.000299
1790.000000	-0.000298
1789.000000	-0.000304
1788.000000	-0.000307
1787.000000	-0.000305
1786.000000	-0.000300
1785.000000	-0.000281
1784.000000	-0.000250
1783.000000	-0.000224
1782.000000	-0.000224
1781.000000	-0.000250
1780.000000	-0.000275
1779.000000	-0.000281
1778.000000	-0.000268
1777.000000	-0.000249
1776.000000	-0.000236
1775.000000	-0.000233
1774.000000	-0.000240
1773.000000	-0.000241
1772.000000	-0.000217
1771.000000	-0.000173
1770.000000	-0.000144
1769.000000	-0.000145
1768.000000	-0.000158
1767.000000	-0.000160
1766.000000	-0.000137
1765.000000	-0.000096
1764.000000	-0.000047
1763.000000	0.000001
1762.000000	0.000047
1761.000000	0.000098
1760.000000	0.000168
1759.000000	0.000258
1758.000000	0.000366
1757.000000	0.000491
1756.000000	0.000619
1755.000000	0.000727
1754.000000	0.000812
1753.000000	0.000899
1752.000000	0.001035
1751.000000	0.001238
1750.000000	0.001464
1749.000000	0.001659
1748.000000	0.001808
1747.000000	0.001921
1746.000000	0.002000
1745.000000	0.002048
1744.000000	0.002070
1743.000000	0.002071
1742.000000	0.002041
1741.000000	0.001976
1740.000000	0.001884
1739.000000	0.001781
1738.000000	0.001667
1737.000000	0.001528
1736.000000	0.001352
1735.000000	0.001145
1734.000000	0.000953
1733.000000	0.000823
1732.000000	0.000746
1731.000000	0.000685
1730.000000	0.000614
1729.000000	0.000532
1728.000000	0.000448
1727.000000	0.000377
1726.000000	0.000318
1725.000000	0.000259
1724.000000	0.000194
1723.000000	0.000132
1722.000000	0.000086
1721.000000	0.000057
1720.000000	0.000031
1719.000000	-0.000000
1718.000000	-0.000033
1717.000000	-0.000043
1716.000000	-0.000031
1715.000000	-0.000031
1714.000000	-0.000037
1713.000000	-0.000029
1712.000000	-0.000008
1711.000000	0.000003
1710.000000	-0.000006
1709.000000	-0.000022
1708.000000	-0.000026
1707.000000	-0.000014
1706.000000	0.000004
1705.000000	0.000032
1704.000000	0.000062
1703.000000	0.000079
1702.000000	0.000082
1701.000000	0.000088
1700.000000	0.000098
1699.000000	0.000078
1698.000000	0.000047
1697.000000	0.000040
1696.000000	0.000067
1695.000000	0.000084
1694.000000	0.000080
1693.000000	0.000094
1692.000000	0.000133
1691.000000	0.000180
1690.000000	0.000219
1689.000000	0.000243
1688.000000	0.000256
1687.000000	0.000264
1686.000000	0.000282
1685.000000	0.000327
1684.000000	0.000385
1683.000000	0.000404
1682.000000	0.000390
1681.000000	0.000374
1680.000000	0.000377
1679.000000	0.000403
1678.000000	0.000440
1677.000000	0.000483
1676.000000	0.000534
1675.000000	0.000589
1674.000000	0.000629
1673.000000	0.000647
1672.000000	0.000655
1671.000000	0.000670
1670.000000	0.000705
1669.000000	0.000745
1668.000000	0.000770
1667.000000	0.000788
1666.000000	0.000808
1665.000000	0.000834
1664.000000	0.000871
1663.000000	0.000925
1662.000000	0.000975
1661.000000	0.000991
1660.000000	0.000972
1659.000000	0.000948
1658.000000	0.000948
1657.000000	0.000976
1656.000000	0.001010
1655.000000	0.001046
1654.000000	0.001116
1653.000000	0.001200
1652.000000	0.001192
1651.000000	0.001153
1650.000000	0.001138
1649.000000	0.001128
1648.000000	0.001124
1647.000000	0.001142
1646.000000	0.001157
1645.000000	0.001144
1644.000000	0.001125
1643.000000	0.001122
1642.000000	0.001134
1641.000000	0.001158
1640.000000	0.001183
1639.000000	0.001191
1638.000000	0.001174
1637.000000	0.001142
1636.000000	0.001121
1635.000000	0.001127
1634.000000	0.001144
1633.000000	0.001163
1632.000000	0.001175
1631.000000	0.001184
1630.000000	0.001206
1629.000000	0.001243
1628.000000	0.001276
1627.000000	0.001297
1626.000000	0.001309
1625.000000	0.001304
1624.000000	0.001267
1623.000000	0.001211
1622.000000	0.001178
1621.000000	0.001179
1620.000000	0.001184
1619.000000	0.001162
1618.000000	0.001113
1617.000000	0.001060
1616.000000	0.001024
1615.000000	0.001026
1614.000000	0.001071
1613.000000	0.001130
1612.000000	0.001171
1611.000000	0.001184
1610.000000	0.001188
1609.000000	0.001195
1608.000000	0.001198
1607.000000	0.001189
1606.000000	0.001180
1605.000000	0.001181
1604.000000	0.001189
1603.000000	0.001196
1602.000000	0.001205
1601.000000	0.001220
1600.000000	0.001235
1599.000000	0.001238
1598.000000	0.001221
1597.000000	0.001191
1596.000000	0.001164
1595.000000	0.001159
1594.000000	0.001180
1593.000000	0.001203
1592.000000	0.001198
1591.000000	0.001165
1590.000000	0.001128
1589.000000	0.001103
1588.000000	0.001086
1587.000000	0.001070
1586.000000	0.001061
1585.000000	0.001062
1584.000000	0.001062
1583.000000	0.001057
1582.000000	0.001047
1581.000000	0.001029
1580.000000	0.000996
1579.000000	0.000949
1578.000000	0.000907
1577.000000	0.000889
1576.000000	0.000887
1575.000000	0.000886
1574.000000	0.000890
1573.000000	0.000890
1572.000000	0.000872
1571.000000	0.000833
1570.000000	0.000787
1569.000000	0.000746
1568.000000	0.000715
1567.000000	0.000705
1566.000000	0.000719
1565.000000	0.000742
1564.000000	0.000760
1563.000000	0.000763
1562.000000	0.000757
1561.000000	0.000745
1560.000000	0.000705
1559.000000	0.000629
1558.000000	0.000594
1557.000000	0.000580
1556.000000	0.000577
1555.000000	0.000580
1554.000000	0.000589
1553.000000	0.000602
1552.000000	0.000612
1551.000000	0.000608
1550.000000	0.000593
1549.000000	0.000575
1548.000000	0.000562
1547.000000	0.000551
1546.000000	0.000537
1545.000000	0.000526
1544.000000	0.000530
1543.000000	0.000539
1542.000000	0.000539
1541.000000	0.000538
1540.000000	0.000554
1539.000000	0.000558
1538.000000	0.000539
1537.000000	0.000526
1536.000000	0.000509
1535.000000	0.000475
1534.000000	0.000432
1533.000000	0.000407
1532.000000	0.000409
1531.000000	0.000422
1530.000000	0.000439
1529.000000	0.000457
1528.000000	0.000459
1527.000000	0.000429
1526.000000	0.000378
1525.000000	0.000340
1524.000000	0.000319
1523.000000	0.000277
1522.000000	0.000194
1521.000000	0.000119
1520.000000	0.000102
1519.000000	0.000123
1518.000000	0.000133
1517.000000	0.000119
1516.000000	0.000106
1515.000000	0.000105
1514.000000	0.000111
1513.000000	0.000122
1512.000000	0.000141
1511.000000	0.000158
1510.000000	0.000145
1509.000000	0.000086
1508.000000	-0.000005
1507.000000	-0.000068
1506.000000	-0.000081
1505.000000	-0.000077
1504.000000	-0.000054
1503.000000	-0.000031
1502.000000	-0.000027
1501.000000	-0.000030
1500.000000	-0.000019
1499.000000	-0.000002
1498.000000	-0.000011
1497.000000	-0.000046
1496.000000	-0.000068
1495.000000	-0.000062
1494.000000	-0.000046
1493.000000	-0.000036
1492.000000	-0.000035
1491.000000	-0.000037
1490.000000	-0.000036
1489.000000	-0.000014
1488.000000	0.000024
1487.000000	0.000043
1486.000000	0.000037
1485.000000	0.000029
1484.000000	0.000034
1483.000000	0.000054
1482.000000	0.000083
1481.000000	0.000120
1480.000000	0.000167
1479.000000	0.000223
1478.000000	0.000288
1477.000000	0.000357
1476.000000	0.000410
1475.000000	0.000418
1474.000000	0.000391
1473.000000	0.000390
1472.000000	0.000467
1471.000000	0.000586
1470.000000	0.000690
1469.000000	0.000770
1468.000000	0.000831
1467.000000	0.000871
1466.000000	0.000891
1465.000000	0.000903
1464.000000	0.000922
1463.000000	0.000942
1462.000000	0.000952
1461.000000	0.000955
1460.000000	0.000954
1459.000000	0.000955
1458.000000	0.000960
1457.000000	0.000968
1456.000000	0.000975
1455.000000	0.000978
1454.000000	0.000979
1453.000000	0.000980
1452.000000	0.000992
1451.000000	0.001019
1450.000000	0.001044
1449.000000	0.001052
1448.000000	0.001047
1447.000000	0.001039
1446.000000	0.001025
1445.000000	0.001008
1444.000000	0.000999
1443.000000	0.001008
1442.000000	0.001029
1441.000000	0.001050
1440.000000	0.001064
1439.000000	0.001069
1438.000000	0.001063
1437.000000	0.001047
1436.000000	0.001031
1435.000000	0.001031
1434.000000	0.001046
1433.000000	0.001073
1432.000000	0.001115
1431.000000	0.001168
1430.000000	0.001208
1429.000000	0.001218
1428.000000	0.001212
1427.000000	0.001215
1426.000000	0.001226
1425.000000	0.001227
1424.000000	0.001214
1423.000000	0.001205
1422.000000	0.001211
1421.000000	0.001223
1420.000000	0.001240
1419.000000	0.001266
1418.000000	0.001292
1417.000000	0.001297
1416.000000	0.001283
1415.000000	0.001260
1414.000000	0.001241
1413.000000	0.001232
1412.000000	0.001232
1411.000000	0.001237
1410.000000	0.001243
1409.000000	0.001251
1408.000000	0.001258
1407.000000	0.001255
1406.000000	0.001231
1405.000000	0.001194
1404.000000	0.001165
1403.000000	0.001155
1402.000000	0.001151
1401.000000	0.001133
1400.000000	0.001100
1399.000000	0.001063
1398.000000	0.001036
1397.000000	0.001026
1396.000000	0.001036
1395.000000	0.001066
1394.000000	0.001092
1393.000000	0.001090
1392.000000	0.001073
1391.000000	0.001064
1390.000000	0.001069
1389.000000	0.001074
1388.000000	0.001073
1387.000000	0.001073
1386.000000	0.001077
1385.000000	0.001075
1384.000000	0.001058
1383.000000	0.001033
1382.000000	0.001017
1381.000000	0.001019
1380.000000	0.001032
1379.000000	0.001041
1378.000000	0.001039
1377.000000	0.001021
1376.000000	0.000983
1375.000000	0.000926
1374.000000	0.000869
1373.000000	0.000826
1372.000000	0.000799
1371.000000	0.000783
1370.000000	0.000782
1369.000000	0.000785
1368.000000	0.000779
1367.000000	0.000761
1366.000000	0.000740
1365.000000	0.000725
1364.000000	0.000710
1363.000000	0.000682
1362.000000	0.000643
1361.000000	0.000608
1360.000000	0.000588
1359.000000	0.000586
1358.000000	0.000597
1357.000000	0.000615
1356.000000	0.000629
1355.000000	0.000629
1354.000000	0.000611
1353.000000	0.000581
1352.000000	0.000546
1351.000000	0.000509
1350.000000	0.000479
1349.000000	0.000462
1348.000000	0.000458
1347.000000	0.000458
1346.000000	0.000459
1345.000000	0.000462
1344.000000	0.000469
1343.000000	0.000481
1342.000000	0.000493
1341.000000	0.000496
1340.000000	0.000488
1339.000000	0.000481
1338.000000	0.000485
1337.000000	0.000488
1336.000000	0.000469
1335.000000	0.000429
1334.000000	0.000389
1333.000000	0.000376
1332.000000	0.000390
1331.000000	0.000414
1330.000000	0.000435
1329.000000	0.000451
1328.000000	0.000468
1327.000000	0.000479
1326.000000	0.000477
1325.000000	0.000460
1324.000000	0.000439
1323.000000	0.000428
1322.000000	0.000431
1321.000000	0.000433
1320.000000	0.000417
1319.000000	0.000382
1318.000000	0.000348
1317.000000	0.000336
1316.000000	0.000354
1315.000000	0.000392
1314.000000	0.000432
1313.000000	0.000455
1312.000000	0.000451
1311.000000	0.000421
1310.000000	0.000385
1309.000000	0.000362
1308.000000	0.000362
1307.000000	0.000374
1306.000000	0.000382
1305.000000	0.000375
1304.000000	0.000357
1303.000000	0.000337
1302.000000	0.000319
1301.000000	0.000305
1300.000000	0.000299
1299.000000	0.000303
1298.000000	0.000314
1297.000000	0.000317
1296.000000	0.000300
1295.000000	0.000270
1294.000000	0.000244
1293.000000	0.000230
1292.000000	0.000220
1291.000000	0.000200
1290.000000	0.000170
1289.000000	0.000138
1288.000000	0.000116
1287.000000	0.000106
1286.000000	0.000102
1285.000000	0.000101
1284.000000	0.000106
1283.000000	0.000117
1282.000000	0.000128
1281.000000	0.000129
1280.000000	0.000114
1279.000000	0.000093
1278.000000	0.000076
1277.000000	0.000066
1276.000000	0.000061
1275.000000	0.000061
1274.000000	0.000071
1273.000000	0.000084
1272.000000	0.000094
1271.000000	0.000100
1270.000000	0.000113
1269.000000	0.000139
1268.000000	0.000170
1267.000000	0.000191
1266.000000	0.000193
1265.000000	0.000178
1264.000000	0.000162
1263.000000	0.000164
1262.000000	0.000199
1261.000000	0.000259
1260.000000	0.000317
1259.000000	0.000349
1258.000000	0.000353
1257.000000	0.000344
1256.000000	0.000334
1255.000000	0.000326
1254.000000	0.000323
1253.000000	0.000327
1252.000000	0.000337
1251.000000	0.000352
1250.000000	0.000370
1249.000000	0.000394
1248.000000	0.000416
1247.000000	0.000426
1246.000000	0.000419
1245.000000	0.000402
1244.000000	0.000387
1243.000000	0.000377
1242.000000	0.000364
1241.000000	0.000345
1240.000000	0.000329
1239.000000	0.000324
1238.000000	0.000327
1237.000000	0.000325
1236.000000	0.000314
1235.000000	0.000299
1234.000000	0.000289
1233.000000	0.000281
1232.000000	0.000268
1231.000000	0.000243
1230.000000	0.000209
1229.000000	0.000175
1228.000000	0.000148
1227.000000	0.000130
1226.000000	0.000117
1225.000000	0.000099
1224.000000	0.000068
1223.000000	0.000028
1222.000000	-0.000009
1221.000000	-0.000036
1220.000000	-0.000054
1219.000000	-0.000067
1218.000000	-0.000078
1217.000000	-0.000093
1216.000000	-0.000119
1215.000000	-0.000158
1214.000000	-0.000201
1213.000000	-0.000230
1212.000000	-0.000240
1211.000000	-0.000240
1210.000000	-0.000244
1209.000000	-0.000259
1208.000000	-0.000279
1207.000000	-0.000302
1206.000000	-0.000325
1205.000000	-0.000339
1204.000000	-0.000335
1203.000000	-0.000313
1202.000000	-0.000288
1201.000000	-0.000276
1200.000000	-0.000283
1199.000000	-0.000296
1198.000000	-0.000305
1197.000000	-0.000304
1196.000000	-0.000296
1195.000000	-0.000287
1194.000000	-0.000277
1193.000000	-0.000261
1192.000000	-0.000232
1191.000000	-0.000196
1190.000000	-0.000162
1189.000000	-0.000135
1188.000000	-0.000110
1187.000000	-0.000082
1186.000000	-0.000057
1185.000000	-0.000044
1184.000000	-0.000036
1183.000000	-0.000014
1182.000000	0.000033
1181.000000	0.000100
1180.000000	0.000175
1179.000000	0.000249
1178.000000	0.000316
1177.000000	0.000376
1176.000000	0.000430
1175.000000	0.000482
1174.000000	0.000536
1173.000000	0.000588
1172.000000	0.000636
1171.000000	0.000684
1170.000000	0.000742
1169.000000	0.000815
1168.000000	0.000894
1167.000000	0.000969
1166.000000	0.001038
1165.000000	0.001106
1164.000000	0.001179
1163.000000	0.001253
1162.000000	0.001321
1161.000000	0.001379
1160.000000	0.001433
1159.000000	0.001484
1158.000000	0.001520
1157.000000	0.001526
1156.000000	0.001506
1155.000000	0.001487
1154.000000	0.001488
1153.000000	0.001494
1152.000000	0.001482
1151.000000	0.001450
1150.000000	0.001419
1149.000000	0.001401
1148.000000	0.001376
1147.000000	0.001332
1146.000000	0.001282
1145.000000	0.001252
1144.000000	0.001239
1143.000000	0.001213
1142.000000	0.001153
1141.000000	0.001070
1140.000000	0.000992
1139.000000	0.000941
1138.000000	0.000916
1137.000000	0.000905
1136.000000	0.000892
1135.000000	0.000869
1134.000000	0.000838
1133.000000	0.000802
1132.000000	0.000773
1131.000000	0.000769
1130.000000	0.000804
1129.000000	0.000874
1128.000000	0.000957
1127.000000	0.001030
1126.000000	0.001087
1125.000000	0.001134
1124.000000	0.001173
1123.000000	0.001200
1122.000000	0.001215
1121.000000	0.001232
1120.000000	0.001259
1119.000000	0.001294
1118.000000	0.001331
1117.000000	0.001369
1116.000000	0.001405
1115.000000	0.001439
1114.000000	0.001472
1113.000000	0.001508
1112.000000	0.001555
1111.000000	0.001611
1110.000000	0.001668
1109.000000	0.001709
1108.000000	0.001723
1107.000000	0.001707
1106.000000	0.001670
1105.000000	0.001623
1104.000000	0.001582
1103.000000	0.001567
1102.000000	0.001588
1101.000000	0.001638
1100.000000	0.001696
1099.000000	0.001738
1098.000000	0.001759
1097.000000	0.001765
1096.000000	0.001771
1095.000000	0.001796
1094.000000	0.001843
1093.000000	0.001899
1092.000000	0.001944
1091.000000	0.001978
1090.000000	0.002016
1089.000000	0.002069
1088.000000	0.002123
1087.000000	0.002165
1086.000000	0.002198
1085.000000	0.002228
1084.000000	0.002251
1083.000000	0.002265
1082.000000	0.002283
1081.000000	0.002324
1080.000000	0.002382
1079.000000	0.002428
1078.000000	0.002443
1077.000000	0.002435
1076.000000	0.002421
1075.000000	0.002413
1074.000000	0.002412
1073.000000	0.002409
1072.000000	0.002386
1071.000000	0.002347
1070.000000	0.002324
1069.000000	0.002353
1068.000000	0.002427
1067.000000	0.002494
1066.000000	0.002513
1065.000000	0.002486
1064.000000	0.002441
1063.000000	0.002402
1062.000000	0.002385
1061.000000	0.002396
1060.000000	0.002431
1059.000000	0.002462
1058.000000	0.002463
1057.000000	0.002432
1056.000000	0.002401
1055.000000	0.002404
1054.000000	0.002446
1053.000000	0.002502
1052.000000	0.002542
1051.000000	0.002570
1050.000000	0.002614
1049.000000	0.002683
1048.000000	0.002745
1047.000000	0.002761
1046.000000	0.002736
1045.000000	0.002722
1044.000000	0.002750
1043.000000	0.002808
1042.000000	0.002859
1041.000000	0.002890
1040.000000	0.002918
1039.000000	0.002961
1038.000000	0.003024
1037.000000	0.003091
1036.000000	0.003138
1035.000000	0.003149
1034.000000	0.003136
1033.000000	0.003135
1032.000000	0.003171
1031.000000	0.003237
1030.000000	0.003310
1029.000000	0.003377
1028.000000	0.003432
1027.000000	0.003467
1026.000000	0.003473
1025.000000	0.003458
1024.000000	0.003443
1023.000000	0.003442
1022.000000	0.003458
1021.000000	0.003480
1020.000000	0.003497
1019.000000	0.003503
1018.000000	0.003497
1017.000000	0.003486
1016.000000	0.003476
1015.000000	0.003476
1014.000000	0.003491
1013.000000	0.003517
1012.000000	0.003540
1011.000000	0.003538
1010.000000	0.003508
1009.000000	0.003460
1008.000000	0.003406
1007.000000	0.003360
1006.000000	0.003338
1005.000000	0.003352
1004.000000	0.003390
1003.000000	0.003416
1002.000000	0.003414
1001.000000	0.003397
1000.000000	0.003381
999.000000	0.003363
998.000000	0.003335
997.000000	0.003310
996.000000	0.003307
995.000000	0.003318
994.000000	0.003315
993.000000	0.003286
992.000000	0.003244
991.000000	0.003207
990.000000	0.003183
989.000000	0.003177
988.000000	0.003197
987.000000	0.003238
986.000000	0.003276
985.000000	0.003282
984.000000	0.003242
983.000000	0.003159
982.000000	0.003051
981.000000	0.002949
980.000000	0.002881
979.000000	0.002853
978.000000	0.002839
977.000000	0.002804
976.000000	0.002737
975.000000	0.002658
974.000000	0.002594
973.000000	0.002548
972.000000	0.002500
971.000000	0.002436
970.000000	0.002361
969.000000	0.002292
968.000000	0.002230
967.000000	0.002159
966.000000	0.002073
965.000000	0.001988
964.000000	0.001923
963.000000	0.001882
962.000000	0.001855
961.000000	0.001834
960.000000	0.001810
959.000000	0.001769
958.000000	0.001703
957.000000	0.001623
956.000000	0.001556
955.000000	0.001517
954.000000	0.001495
953.000000	0.001466
952.000000	0.001427
951.000000	0.001388
950.000000	0.001360
949.000000	0.001339
948.000000	0.001307
947.000000	0.001257
946.000000	0.001198
945.000000	0.001146
944.000000	0.001107
943.000000	0.001064
942.000000	0.000993
941.000000	0.000896
940.000000	0.000800
939.000000	0.000737
938.000000	0.000721
937.000000	0.000738
936.000000	0.000758
935.000000	0.000755
934.000000	0.000726
933.000000	0.000684
932.000000	0.000645
931.000000	0.000611
930.000000	0.000576
929.000000	0.000534
928.000000	0.000489
927.000000	0.000452
926.000000	0.000433
925.000000	0.000436
924.000000	0.000451
923.000000	0.000461
922.000000	0.000453
921.000000	0.000432
920.000000	0.000410
919.000000	0.000388
918.000000	0.000366
917.000000	0.000353
916.000000	0.000365
915.000000	0.000391
914.000000	0.000398
913.000000	0.000358
912.000000	0.000284
911.000000	0.000225
910.000000	0.000221
909.000000	0.000280
908.000000	0.000372
907.000000	0.000453
906.000000	0.000491
905.000000	0.000486
904.000000	0.000459
903.000000	0.000440
902.000000	0.000451
901.000000	0.000491
900.000000	0.000541
899.000000	0.000564
898.000000	0.000535
897.000000	0.000458
896.000000	0.000376
895.000000	0.000333
894.000000	0.000342
893.000000	0.000383
892.000000	0.000415
891.000000	0.000406
890.000000	0.000344
889.000000	0.000248
888.000000	0.000163
887.000000	0.000126
886.000000	0.000135
885.000000	0.000155
884.000000	0.000156
883.000000	0.000140
882.000000	0.000127
881.000000	0.000127
880.000000	0.000142
879.000000	0.000170
878.000000	0.000206
877.000000	0.000241
876.000000	0.000268
875.000000	0.000284
874.000000	0.000288
873.000000	0.000268
872.000000	0.000212
871.000000	0.000125
870.000000	0.000029
869.000000	-0.000060
868.000000	-0.000138
867.000000	-0.000205
866.000000	-0.000244
865.000000	-0.000244
864.000000	-0.000215
863.000000	-0.000182
862.000000	-0.000161
861.000000	-0.000160
860.000000	-0.000189
859.000000	-0.000258
858.000000	-0.000344
857.000000	-0.000389
856.000000	-0.000355
855.000000	-0.000275
854.000000	-0.000226
853.000000	-0.000251
852.000000	-0.000323
851.000000	-0.000374
850.000000	-0.000366
849.000000	-0.000310
848.000000	-0.000239
847.000000	-0.000178
846.000000	-0.000136
845.000000	-0.000113
844.000000	-0.000104
843.000000	-0.000102
842.000000	-0.000091
841.000000	-0.000063
840.000000	-0.000023
839.000000	0.000017
838.000000	0.000047
837.000000	0.000063
836.000000	0.000061
835.000000	0.000036
834.000000	-0.000009
833.000000	-0.000064
832.000000	-0.000117
831.000000	-0.000168
830.000000	-0.000213
829.000000	-0.000243
828.000000	-0.000242
827.000000	-0.000215
826.000000	-0.000189
825.000000	-0.000187
824.000000	-0.000213
823.000000	-0.000257
822.000000	-0.000307
821.000000	-0.000351
820.000000	-0.000370
819.000000	-0.000358
818.000000	-0.000328
817.000000	-0.000309
816.000000	-0.000317
815.000000	-0.000341
814.000000	-0.000351
813.000000	-0.000323
812.000000	-0.000252
811.000000	-0.000164
810.000000	-0.000107
809.000000	-0.000118
808.000000	-0.000193
807.000000	-0.000281
806.000000	-0.000331
805.000000	-0.000334
804.000000	-0.000322
803.000000	-0.000329
802.000000	-0.000346
801.000000	-0.000345
800.000000	-0.000316
799.000000	-0.000282
798.000000	-0.000276
797.000000	-0.000305
796.000000	-0.000342
795.000000	-0.000344
794.000000	-0.000285
793.000000	-0.000173
792.000000	-0.000048
791.000000	0.000049
790.000000	0.000091
789.000000	0.000075
788.000000	0.000013
787.000000	-0.000067
786.000000	-0.000132
785.000000	-0.000160
784.000000	-0.000161
783.000000	-0.000161
782.000000	-0.000163
781.000000	-0.000143
780.000000	-0.000088
779.000000	-0.000020
778.000000	0.000013
777.000000	-0.000006
776.000000	-0.000044
775.000000	-0.000057
774.000000	-0.000040
773.000000	-0.000024
772.000000	-0.000041
771.000000	-0.000089
770.000000	-0.000143
769.000000	-0.000184
768.000000	-0.000210
767.000000	-0.000226
766.000000	-0.000238
765.000000	-0.000250
764.000000	-0.000268
763.000000	-0.000295
762.000000	-0.000329
761.000000	-0.000361
760.000000	-0.000374
759.000000	-0.000361
758.000000	-0.000326
757.000000	-0.000282
756.000000	-0.000237
755.000000	-0.000193
754.000000	-0.000148
753.000000	-0.000108
752.000000	-0.000089
751.000000	-0.000097
750.000000	-0.000130
749.000000	-0.000181
748.000000	-0.000240
747.000000	-0.000286
746.000000	-0.000296
745.000000	-0.000273
744.000000	-0.000247
743.000000	-0.000248
742.000000	-0.000273
741.000000	-0.000295
740.000000	-0.000299
739.000000	-0.000298
738.000000	-0.000301
737.000000	-0.000300
736.000000	-0.000287
735.000000	-0.000266
734.000000	-0.000252
733.000000	-0.000251
732.000000	-0.000262
731.000000	-0.000275
730.000000	-0.000281
729.000000	-0.000263
728.000000	-0.000217
727.000000	-0.000163
726.000000	-0.000130
725.000000	-0.000128
724.000000	-0.000149
723.000000	-0.000180
722.000000	-0.000212
721.000000	-0.000234
720.000000	-0.000231
719.000000	-0.000199
718.000000	-0.000155
717.000000	-0.000128
716.000000	-0.000126
715.000000	-0.000130
714.000000	-0.000117
713.000000	-0.000083
712.000000	-0.000048
711.000000	-0.000037
710.000000	-0.000059
709.000000	-0.000100
708.000000	-0.000140
707.000000	-0.000165
706.000000	-0.000165
705.000000	-0.000136
704.000000	-0.000082
703.000000	-0.000033
702.000000	-0.000019
701.000000	-0.000052
700.000000	-0.000111
699.000000	-0.000157
698.000000	-0.000160
697.000000	-0.000120
696.000000	-0.000059
695.000000	-0.000005
694.000000	0.000017
693.000000	-0.000010
692.000000	-0.000081
691.000000	-0.000180
690.000000	-0.000290
689.000000	-0.000390
688.000000	-0.000452
687.000000	-0.000450
686.000000	-0.000384
685.000000	-0.000285
684.000000	-0.000197
683.000000	-0.000145
682.000000	-0.000142
681.000000	-0.000185
680.000000	-0.000250
679.000000	-0.000286
678.000000	-0.000257
677.000000	-0.000165
676.000000	-0.000057
675.000000	0.000014
674.000000	0.000022
673.000000	-0.000025
672.000000	-0.000115
671.000000	-0.000244
670.000000	-0.000411
669.000000	-0.000594
668.000000	-0.000663
667.000000	-0.000489
666.000000	-0.000299
665.000000	-0.000201
664.000000	-0.000134
663.000000	-0.000097
662.000000	-0.000116
661.000000	-0.000175
660.000000	-0.000221
659.000000	-0.000216
658.000000	-0.000161
657.000000	-0.000074
656.000000	0.000009
655.000000	0.000040
654.000000	0.000000
653.000000	-0.000072
652.000000	-0.000136
651.000000	-0.000185
650.000000	-0.000226
649.000000	-0.000252
648.000000	-0.000262
647.000000	-0.000262
646.000000	-0.000235
645.000000	-0.000169
644.000000	-0.000096
643.000000	-0.000076
642.000000	-0.000113
641.000000	-0.000142
640.000000	-0.000118
639.000000	-0.000070
638.000000	-0.000041
637.000000	-0.000019
636.000000	0.000020
635.000000	0.000053
634.000000	0.000036
633.000000	-0.000025
632.000000	-0.000085
631.000000	-0.000129
630.000000	-0.000171
629.000000	-0.000204
628.000000	-0.000199
627.000000	-0.000150
626.000000	-0.000095
625.000000	-0.000065
624.000000	-0.000055
623.000000	-0.000046
622.000000	-0.000042
621.000000	-0.000063
620.000000	-0.000110
619.000000	-0.000165
618.000000	-0.000210
617.000000	-0.000247
616.000000	-0.000291
615.000000	-0.000333
614.000000	-0.000326
613.000000	-0.000229
612.000000	-0.000069
611.000000	0.000071
610.000000	0.000133
609.000000	0.000139
608.000000	0.000148
607.000000	0.000176
606.000000	0.000197
605.000000	0.000188
604.000000	0.000145
603.000000	0.000051
602.000000	-0.000101
601.000000	-0.000265
600.000000	-0.000360
599.000000	-0.000348
598.000000	-0.000282
597.000000	-0.000235
596.000000	-0.000210
595.000000	-0.000147
594.000000	-0.000019
593.000000	0.000126
592.000000	0.000222
591.000000	0.000245
590.000000	0.000218
589.000000	0.000160
588.000000	0.000084
587.000000	0.000020
586.000000	0.000001
585.000000	0.000018
584.000000	0.000024
583.000000	-0.000018
582.000000	-0.000095
581.000000	-0.000184
580.000000	-0.000279
579.000000	-0.000367
578.000000	-0.000412
577.000000	-0.000396
576.000000	-0.000341
575.000000	-0.000286
574.000000	-0.000236
573.000000	-0.000185
572.000000	-0.000147
571.000000	-0.000143
570.000000	-0.000149
569.000000	-0.000124
568.000000	-0.000087
567.000000	-0.000114
566.000000	-0.000225
565.000000	-0.000332
564.000000	-0.000329
563.000000	-0.000216
562.000000	-0.000089
561.000000	-0.000025
560.000000	-0.000002
559.000000	0.000045
558.000000	0.000126
557.000000	0.000179
556.000000	0.000139
555.000000	0.000011
554.000000	-0.000109
553.000000	-0.000116
552.000000	0.000003
551.000000	0.000154
550.000000	0.000227
549.000000	0.000203
548.000000	0.000136
547.000000	0.000083
546.000000	0.000059
545.000000	0.000054
544.000000	0.000063
543.000000	0.000075
542.000000	0.000068
541.000000	0.000036
540.000000	0.000004
539.000000	0.000009
538.000000	0.000053
537.000000	0.000099
536.000000	0.000118
535.000000	0.000127
534.000000	0.000173
533.000000	0.000254
532.000000	0.000295
531.000000	0.000217
530.000000	0.000048
529.000000	-0.000091
528.000000	-0.000112
527.000000	-0.000022
526.000000	0.000126
525.000000	0.000311
524.000000	0.000535
523.000000	0.000770
522.000000	0.000944
521.000000	0.000975
520.000000	0.000802
519.000000	0.000427
518.000000	-0.000023
517.000000	-0.000322
516.000000	-0.000328
515.000000	-0.000123
514.000000	0.000106
513.000000	0.000287
512.000000	0.000476
511.000000	0.000679
510.000000	0.000752
509.000000	0.000565
508.000000	0.000201
507.000000	-0.000077
506.000000	-0.000112
505.000000	-0.000030
504.000000	-0.000064
503.000000	-0.000281
502.000000	-0.000487
501.000000	-0.000448
500.000000	-0.000156
499.000000	0.000194
498.000000	0.000412
497.000000	0.000441
496.000000	0.000342
495.000000	0.000206
494.000000	0.000093
493.000000	0.000017
492.000000	-0.000047
491.000000	-0.000120
490.000000	-0.000194
489.000000	-0.000249
488.000000	-0.000302
487.000000	-0.000394
486.000000	-0.000521
485.000000	-0.000584
484.000000	-0.000464
483.000000	-0.000183
482.000000	0.000056
481.000000	0.000024
480.000000	-0.000310
479.000000	-0.000719
478.000000	-0.000907
477.000000	-0.000770
476.000000	-0.000432
475.000000	-0.000061
474.000000	0.000248
473.000000	0.000420
472.000000	0.000365
471.000000	0.000104
470.000000	-0.000211
469.000000	-0.000461
468.000000	-0.000655
467.000000	-0.000839
466.000000	-0.000986
465.000000	-0.001019
464.000000	-0.000913
463.000000	-0.000701
462.000000	-0.000428
461.000000	-0.000180
460.000000	-0.000086
459.000000	-0.000241
458.000000	-0.000572
457.000000	-0.000835
456.000000	-0.000883
455.000000	-0.000766
454.000000	-0.000551
453.000000	-0.000269
452.000000	-0.000019
451.000000	0.000052
450.000000	-0.000079
