PE IR       SUBTECH     SPECTRUM    ASCII       PEDS        4.00        
   -1
P3-Bleu047_1.ASC
23/06/13
12:01:48.00
23/06/13
12:04:49.00
uco
Sample 047 By uco Date Tuesday, June 13 2023
450.000000
#HDR
-1
-1
#GR
cm-1
A
1.0
0.0
4000.000000
-1.000000
3551
8
0.007087
-0.001560
#DATA
4000.000000	-0.000714
3999.000000	-0.000696
3998.000000	-0.000687
3997.000000	-0.000690
3996.000000	-0.000694
3995.000000	-0.000696
3994.000000	-0.000697
3993.000000	-0.000703
3992.000000	-0.000713
3991.000000	-0.000720
3990.000000	-0.000716
3989.000000	-0.000703
3988.000000	-0.000690
3987.000000	-0.000684
3986.000000	-0.000688
3985.000000	-0.000700
3984.000000	-0.000716
3983.000000	-0.000731
3982.000000	-0.000738
3981.000000	-0.000729
3980.000000	-0.000704
3979.000000	-0.000672
3978.000000	-0.000644
3977.000000	-0.000631
3976.000000	-0.000633
3975.000000	-0.000648
3974.000000	-0.000669
3973.000000	-0.000685
3972.000000	-0.000688
3971.000000	-0.000679
3970.000000	-0.000664
3969.000000	-0.000647
3968.000000	-0.000627
3967.000000	-0.000598
3966.000000	-0.000564
3965.000000	-0.000538
3964.000000	-0.000531
3963.000000	-0.000548
3962.000000	-0.000579
3961.000000	-0.000608
3960.000000	-0.000629
3959.000000	-0.000638
3958.000000	-0.000635
3957.000000	-0.000618
3956.000000	-0.000595
3955.000000	-0.000575
3954.000000	-0.000565
3953.000000	-0.000563
3952.000000	-0.000566
3951.000000	-0.000576
3950.000000	-0.000596
3949.000000	-0.000626
3948.000000	-0.000651
3947.000000	-0.000656
3946.000000	-0.000635
3945.000000	-0.000599
3944.000000	-0.000563
3943.000000	-0.000543
3942.000000	-0.000545
3941.000000	-0.000564
3940.000000	-0.000588
3939.000000	-0.000606
3938.000000	-0.000613
3937.000000	-0.000613
3936.000000	-0.000614
3935.000000	-0.000616
3934.000000	-0.000613
3933.000000	-0.000594
3932.000000	-0.000564
3931.000000	-0.000537
3930.000000	-0.000526
3929.000000	-0.000527
3928.000000	-0.000525
3927.000000	-0.000515
3926.000000	-0.000506
3925.000000	-0.000512
3924.000000	-0.000533
3923.000000	-0.000559
3922.000000	-0.000581
3921.000000	-0.000602
3920.000000	-0.000627
3919.000000	-0.000658
3918.000000	-0.000684
3917.000000	-0.000689
3916.000000	-0.000665
3915.000000	-0.000625
3914.000000	-0.000587
3913.000000	-0.000559
3912.000000	-0.000537
3911.000000	-0.000515
3910.000000	-0.000487
3909.000000	-0.000455
3908.000000	-0.000428
3907.000000	-0.000421
3906.000000	-0.000453
3905.000000	-0.000530
3904.000000	-0.000632
3903.000000	-0.000714
3902.000000	-0.000733
3901.000000	-0.000684
3900.000000	-0.000591
3899.000000	-0.000495
3898.000000	-0.000432
3897.000000	-0.000416
3896.000000	-0.000436
3895.000000	-0.000472
3894.000000	-0.000502
3893.000000	-0.000516
3892.000000	-0.000515
3891.000000	-0.000504
3890.000000	-0.000497
3889.000000	-0.000507
3888.000000	-0.000533
3887.000000	-0.000555
3886.000000	-0.000550
3885.000000	-0.000523
3884.000000	-0.000499
3883.000000	-0.000494
3882.000000	-0.000505
3881.000000	-0.000525
3880.000000	-0.000546
3879.000000	-0.000557
3878.000000	-0.000550
3877.000000	-0.000528
3876.000000	-0.000488
3875.000000	-0.000435
3874.000000	-0.000391
3873.000000	-0.000380
3872.000000	-0.000414
3871.000000	-0.000475
3870.000000	-0.000524
3869.000000	-0.000536
3868.000000	-0.000523
3867.000000	-0.000511
3866.000000	-0.000508
3865.000000	-0.000507
3864.000000	-0.000519
3863.000000	-0.000549
3862.000000	-0.000583
3861.000000	-0.000606
3860.000000	-0.000602
3859.000000	-0.000568
3858.000000	-0.000506
3857.000000	-0.000429
3856.000000	-0.000362
3855.000000	-0.000333
3854.000000	-0.000381
3853.000000	-0.000473
3852.000000	-0.000523
3851.000000	-0.000522
3850.000000	-0.000512
3849.000000	-0.000500
3848.000000	-0.000485
3847.000000	-0.000469
3846.000000	-0.000452
3845.000000	-0.000432
3844.000000	-0.000412
3843.000000	-0.000394
3842.000000	-0.000382
3841.000000	-0.000375
3840.000000	-0.000367
3839.000000	-0.000360
3838.000000	-0.000353
3837.000000	-0.000343
3836.000000	-0.000339
3835.000000	-0.000352
3834.000000	-0.000386
3833.000000	-0.000435
3832.000000	-0.000480
3831.000000	-0.000510
3830.000000	-0.000527
3829.000000	-0.000532
3828.000000	-0.000523
3827.000000	-0.000496
3826.000000	-0.000460
3825.000000	-0.000431
3824.000000	-0.000424
3823.000000	-0.000424
3822.000000	-0.000411
3821.000000	-0.000391
3820.000000	-0.000381
3819.000000	-0.000399
3818.000000	-0.000444
3817.000000	-0.000492
3816.000000	-0.000502
3815.000000	-0.000468
3814.000000	-0.000422
3813.000000	-0.000397
3812.000000	-0.000398
3811.000000	-0.000417
3810.000000	-0.000448
3809.000000	-0.000481
3808.000000	-0.000496
3807.000000	-0.000483
3806.000000	-0.000457
3805.000000	-0.000453
3804.000000	-0.000482
3803.000000	-0.000512
3802.000000	-0.000503
3801.000000	-0.000444
3800.000000	-0.000376
3799.000000	-0.000351
3798.000000	-0.000377
3797.000000	-0.000431
3796.000000	-0.000477
3795.000000	-0.000497
3794.000000	-0.000491
3793.000000	-0.000470
3792.000000	-0.000441
3791.000000	-0.000409
3790.000000	-0.000377
3789.000000	-0.000344
3788.000000	-0.000313
3787.000000	-0.000293
3786.000000	-0.000293
3785.000000	-0.000312
3784.000000	-0.000335
3783.000000	-0.000356
3782.000000	-0.000374
3781.000000	-0.000391
3780.000000	-0.000404
3779.000000	-0.000407
3778.000000	-0.000398
3777.000000	-0.000384
3776.000000	-0.000372
3775.000000	-0.000360
3774.000000	-0.000348
3773.000000	-0.000343
3772.000000	-0.000357
3771.000000	-0.000389
3770.000000	-0.000421
3769.000000	-0.000438
3768.000000	-0.000439
3767.000000	-0.000434
3766.000000	-0.000431
3765.000000	-0.000427
3764.000000	-0.000429
3763.000000	-0.000445
3762.000000	-0.000471
3761.000000	-0.000490
3760.000000	-0.000490
3759.000000	-0.000480
3758.000000	-0.000470
3757.000000	-0.000460
3756.000000	-0.000448
3755.000000	-0.000434
3754.000000	-0.000424
3753.000000	-0.000434
3752.000000	-0.000482
3751.000000	-0.000567
3750.000000	-0.000633
3749.000000	-0.000637
3748.000000	-0.000605
3747.000000	-0.000581
3746.000000	-0.000572
3745.000000	-0.000545
3744.000000	-0.000487
3743.000000	-0.000443
3742.000000	-0.000468
3741.000000	-0.000554
3740.000000	-0.000649
3739.000000	-0.000723
3738.000000	-0.000768
3737.000000	-0.000779
3736.000000	-0.000759
3735.000000	-0.000725
3734.000000	-0.000705
3733.000000	-0.000699
3732.000000	-0.000678
3731.000000	-0.000633
3730.000000	-0.000582
3729.000000	-0.000543
3728.000000	-0.000512
3727.000000	-0.000478
3726.000000	-0.000449
3725.000000	-0.000441
3724.000000	-0.000450
3723.000000	-0.000457
3722.000000	-0.000454
3721.000000	-0.000446
3720.000000	-0.000440
3719.000000	-0.000439
3718.000000	-0.000436
3717.000000	-0.000426
3716.000000	-0.000411
3715.000000	-0.000394
3714.000000	-0.000377
3713.000000	-0.000360
3712.000000	-0.000357
3711.000000	-0.000381
3710.000000	-0.000419
3709.000000	-0.000448
3708.000000	-0.000455
3707.000000	-0.000439
3706.000000	-0.000413
3705.000000	-0.000391
3704.000000	-0.000386
3703.000000	-0.000401
3702.000000	-0.000427
3701.000000	-0.000445
3700.000000	-0.000438
3699.000000	-0.000412
3698.000000	-0.000384
3697.000000	-0.000359
3696.000000	-0.000337
3695.000000	-0.000320
3694.000000	-0.000305
3693.000000	-0.000292
3692.000000	-0.000285
3691.000000	-0.000305
3690.000000	-0.000365
3689.000000	-0.000432
3688.000000	-0.000457
3687.000000	-0.000448
3686.000000	-0.000447
3685.000000	-0.000461
3684.000000	-0.000469
3683.000000	-0.000453
3682.000000	-0.000417
3681.000000	-0.000377
3680.000000	-0.000350
3679.000000	-0.000344
3678.000000	-0.000361
3677.000000	-0.000387
3676.000000	-0.000406
3675.000000	-0.000414
3674.000000	-0.000424
3673.000000	-0.000450
3672.000000	-0.000485
3671.000000	-0.000497
3670.000000	-0.000468
3669.000000	-0.000420
3668.000000	-0.000379
3667.000000	-0.000358
3666.000000	-0.000353
3665.000000	-0.000348
3664.000000	-0.000333
3663.000000	-0.000311
3662.000000	-0.000290
3661.000000	-0.000284
3660.000000	-0.000294
3659.000000	-0.000320
3658.000000	-0.000353
3657.000000	-0.000385
3656.000000	-0.000401
3655.000000	-0.000402
3654.000000	-0.000404
3653.000000	-0.000418
3652.000000	-0.000439
3651.000000	-0.000459
3650.000000	-0.000483
3649.000000	-0.000504
3648.000000	-0.000491
3647.000000	-0.000446
3646.000000	-0.000403
3645.000000	-0.000379
3644.000000	-0.000366
3643.000000	-0.000346
3642.000000	-0.000313
3641.000000	-0.000278
3640.000000	-0.000256
3639.000000	-0.000249
3638.000000	-0.000251
3637.000000	-0.000254
3636.000000	-0.000259
3635.000000	-0.000267
3634.000000	-0.000278
3633.000000	-0.000298
3632.000000	-0.000333
3631.000000	-0.000373
3630.000000	-0.000400
3629.000000	-0.000402
3628.000000	-0.000379
3627.000000	-0.000347
3626.000000	-0.000322
3625.000000	-0.000304
3624.000000	-0.000279
3623.000000	-0.000246
3622.000000	-0.000211
3621.000000	-0.000180
3620.000000	-0.000159
3619.000000	-0.000154
3618.000000	-0.000162
3617.000000	-0.000177
3616.000000	-0.000196
3615.000000	-0.000219
3614.000000	-0.000246
3613.000000	-0.000282
3612.000000	-0.000322
3611.000000	-0.000350
3610.000000	-0.000345
3609.000000	-0.000295
3608.000000	-0.000217
3607.000000	-0.000148
3606.000000	-0.000106
3605.000000	-0.000089
3604.000000	-0.000085
3603.000000	-0.000086
3602.000000	-0.000087
3601.000000	-0.000082
3600.000000	-0.000065
3599.000000	-0.000042
3598.000000	-0.000021
3597.000000	-0.000004
3596.000000	0.000006
3595.000000	0.000006
3594.000000	-0.000005
3593.000000	-0.000024
3592.000000	-0.000042
3591.000000	-0.000056
3590.000000	-0.000062
3589.000000	-0.000056
3588.000000	-0.000039
3587.000000	-0.000009
3586.000000	0.000026
3585.000000	0.000056
3584.000000	0.000078
3583.000000	0.000096
3582.000000	0.000116
3581.000000	0.000141
3580.000000	0.000167
3579.000000	0.000191
3578.000000	0.000210
3577.000000	0.000222
3576.000000	0.000226
3575.000000	0.000227
3574.000000	0.000238
3573.000000	0.000259
3572.000000	0.000280
3571.000000	0.000287
3570.000000	0.000280
3569.000000	0.000276
3568.000000	0.000304
3567.000000	0.000372
3566.000000	0.000457
3565.000000	0.000517
3564.000000	0.000533
3563.000000	0.000520
3562.000000	0.000505
3561.000000	0.000501
3560.000000	0.000504
3559.000000	0.000504
3558.000000	0.000495
3557.000000	0.000482
3556.000000	0.000471
3555.000000	0.000471
3554.000000	0.000487
3553.000000	0.000520
3552.000000	0.000557
3551.000000	0.000581
3550.000000	0.000585
3549.000000	0.000575
3548.000000	0.000568
3547.000000	0.000576
3546.000000	0.000600
3545.000000	0.000633
3544.000000	0.000663
3543.000000	0.000684
3542.000000	0.000696
3541.000000	0.000702
3540.000000	0.000710
3539.000000	0.000722
3538.000000	0.000734
3537.000000	0.000743
3536.000000	0.000750
3535.000000	0.000760
3534.000000	0.000777
3533.000000	0.000801
3532.000000	0.000826
3531.000000	0.000847
3530.000000	0.000856
3529.000000	0.000849
3528.000000	0.000825
3527.000000	0.000797
3526.000000	0.000778
3525.000000	0.000780
3524.000000	0.000806
3523.000000	0.000848
3522.000000	0.000890
3521.000000	0.000920
3520.000000	0.000937
3519.000000	0.000948
3518.000000	0.000956
3517.000000	0.000960
3516.000000	0.000958
3515.000000	0.000954
3514.000000	0.000954
3513.000000	0.000965
3512.000000	0.000988
3511.000000	0.001020
3510.000000	0.001048
3509.000000	0.001058
3508.000000	0.001046
3507.000000	0.001023
3506.000000	0.001005
3505.000000	0.001004
3504.000000	0.001018
3503.000000	0.001040
3502.000000	0.001065
3501.000000	0.001090
3500.000000	0.001113
3499.000000	0.001131
3498.000000	0.001147
3497.000000	0.001162
3496.000000	0.001175
3495.000000	0.001182
3494.000000	0.001179
3493.000000	0.001171
3492.000000	0.001171
3491.000000	0.001184
3490.000000	0.001208
3489.000000	0.001228
3488.000000	0.001234
3487.000000	0.001227
3486.000000	0.001214
3485.000000	0.001206
3484.000000	0.001207
3483.000000	0.001214
3482.000000	0.001221
3481.000000	0.001224
3480.000000	0.001226
3479.000000	0.001234
3478.000000	0.001251
3477.000000	0.001275
3476.000000	0.001301
3475.000000	0.001329
3474.000000	0.001355
3473.000000	0.001375
3472.000000	0.001383
3471.000000	0.001380
3470.000000	0.001371
3469.000000	0.001367
3468.000000	0.001370
3467.000000	0.001376
3466.000000	0.001379
3465.000000	0.001377
3464.000000	0.001378
3463.000000	0.001384
3462.000000	0.001393
3461.000000	0.001396
3460.000000	0.001392
3459.000000	0.001390
3458.000000	0.001403
3457.000000	0.001432
3456.000000	0.001464
3455.000000	0.001484
3454.000000	0.001487
3453.000000	0.001482
3452.000000	0.001484
3451.000000	0.001498
3450.000000	0.001520
3449.000000	0.001540
3448.000000	0.001546
3447.000000	0.001537
3446.000000	0.001520
3445.000000	0.001511
3444.000000	0.001521
3443.000000	0.001549
3442.000000	0.001585
3441.000000	0.001615
3440.000000	0.001632
3439.000000	0.001641
3438.000000	0.001648
3437.000000	0.001658
3436.000000	0.001665
3435.000000	0.001662
3434.000000	0.001653
3433.000000	0.001645
3432.000000	0.001645
3431.000000	0.001653
3430.000000	0.001669
3429.000000	0.001691
3428.000000	0.001711
3427.000000	0.001724
3426.000000	0.001727
3425.000000	0.001725
3424.000000	0.001722
3423.000000	0.001725
3422.000000	0.001737
3421.000000	0.001761
3420.000000	0.001792
3419.000000	0.001822
3418.000000	0.001844
3417.000000	0.001857
3416.000000	0.001868
3415.000000	0.001883
3414.000000	0.001898
3413.000000	0.001902
3412.000000	0.001888
3411.000000	0.001862
3410.000000	0.001840
3409.000000	0.001841
3408.000000	0.001867
3407.000000	0.001907
3406.000000	0.001943
3405.000000	0.001958
3404.000000	0.001950
3403.000000	0.001928
3402.000000	0.001907
3401.000000	0.001898
3400.000000	0.001910
3399.000000	0.001939
3398.000000	0.001975
3397.000000	0.002000
3396.000000	0.002007
3395.000000	0.002002
3394.000000	0.002000
3393.000000	0.002004
3392.000000	0.002011
3391.000000	0.002016
3390.000000	0.002019
3389.000000	0.002017
3388.000000	0.002010
3387.000000	0.001999
3386.000000	0.001991
3385.000000	0.002001
3384.000000	0.002036
3383.000000	0.002089
3382.000000	0.002141
3381.000000	0.002170
3380.000000	0.002171
3379.000000	0.002155
3378.000000	0.002144
3377.000000	0.002145
3376.000000	0.002155
3375.000000	0.002162
3374.000000	0.002164
3373.000000	0.002167
3372.000000	0.002170
3371.000000	0.002165
3370.000000	0.002146
3369.000000	0.002119
3368.000000	0.002101
3367.000000	0.002103
3366.000000	0.002115
3365.000000	0.002122
3364.000000	0.002120
3363.000000	0.002116
3362.000000	0.002119
3361.000000	0.002126
3360.000000	0.002134
3359.000000	0.002139
3358.000000	0.002145
3357.000000	0.002156
3356.000000	0.002176
3355.000000	0.002201
3354.000000	0.002221
3353.000000	0.002225
3352.000000	0.002214
3351.000000	0.002197
3350.000000	0.002188
3349.000000	0.002192
3348.000000	0.002205
3347.000000	0.002217
3346.000000	0.002221
3345.000000	0.002222
3344.000000	0.002230
3343.000000	0.002255
3342.000000	0.002292
3341.000000	0.002323
3340.000000	0.002329
3339.000000	0.002310
3338.000000	0.002281
3337.000000	0.002258
3336.000000	0.002251
3335.000000	0.002258
3334.000000	0.002273
3333.000000	0.002293
3332.000000	0.002315
3331.000000	0.002334
3330.000000	0.002343
3329.000000	0.002334
3328.000000	0.002307
3327.000000	0.002279
3326.000000	0.002264
3325.000000	0.002271
3324.000000	0.002289
3323.000000	0.002311
3322.000000	0.002332
3321.000000	0.002353
3320.000000	0.002378
3319.000000	0.002406
3318.000000	0.002428
3317.000000	0.002436
3316.000000	0.002426
3315.000000	0.002405
3314.000000	0.002384
3313.000000	0.002369
3312.000000	0.002357
3311.000000	0.002345
3310.000000	0.002336
3309.000000	0.002332
3308.000000	0.002334
3307.000000	0.002341
3306.000000	0.002355
3305.000000	0.002377
3304.000000	0.002404
3303.000000	0.002428
3302.000000	0.002440
3301.000000	0.002439
3300.000000	0.002431
3299.000000	0.002424
3298.000000	0.002428
3297.000000	0.002445
3296.000000	0.002469
3295.000000	0.002485
3294.000000	0.002487
3293.000000	0.002476
3292.000000	0.002465
3291.000000	0.002465
3290.000000	0.002475
3289.000000	0.002482
3288.000000	0.002478
3287.000000	0.002468
3286.000000	0.002461
3285.000000	0.002465
3284.000000	0.002479
3283.000000	0.002494
3282.000000	0.002503
3281.000000	0.002504
3280.000000	0.002500
3279.000000	0.002492
3278.000000	0.002478
3277.000000	0.002458
3276.000000	0.002435
3275.000000	0.002410
3274.000000	0.002389
3273.000000	0.002378
3272.000000	0.002380
3271.000000	0.002395
3270.000000	0.002418
3269.000000	0.002442
3268.000000	0.002463
3267.000000	0.002474
3266.000000	0.002472
3265.000000	0.002455
3264.000000	0.002430
3263.000000	0.002410
3262.000000	0.002400
3261.000000	0.002399
3260.000000	0.002398
3259.000000	0.002393
3258.000000	0.002387
3257.000000	0.002389
3256.000000	0.002397
3255.000000	0.002408
3254.000000	0.002421
3253.000000	0.002436
3252.000000	0.002452
3251.000000	0.002459
3250.000000	0.002444
3249.000000	0.002406
3248.000000	0.002357
3247.000000	0.002319
3246.000000	0.002303
3245.000000	0.002307
3244.000000	0.002321
3243.000000	0.002337
3242.000000	0.002353
3241.000000	0.002366
3240.000000	0.002373
3239.000000	0.002368
3238.000000	0.002348
3237.000000	0.002313
3236.000000	0.002278
3235.000000	0.002255
3234.000000	0.002253
3233.000000	0.002266
3232.000000	0.002284
3231.000000	0.002295
3230.000000	0.002296
3229.000000	0.002288
3228.000000	0.002278
3227.000000	0.002272
3226.000000	0.002275
3225.000000	0.002280
3224.000000	0.002278
3223.000000	0.002265
3222.000000	0.002247
3221.000000	0.002235
3220.000000	0.002234
3219.000000	0.002242
3218.000000	0.002252
3217.000000	0.002257
3216.000000	0.002251
3215.000000	0.002234
3214.000000	0.002213
3213.000000	0.002197
3212.000000	0.002192
3211.000000	0.002196
3210.000000	0.002205
3209.000000	0.002220
3208.000000	0.002237
3207.000000	0.002247
3206.000000	0.002241
3205.000000	0.002221
3204.000000	0.002201
3203.000000	0.002194
3202.000000	0.002197
3201.000000	0.002197
3200.000000	0.002185
3199.000000	0.002167
3198.000000	0.002153
3197.000000	0.002150
3196.000000	0.002157
3195.000000	0.002165
3194.000000	0.002171
3193.000000	0.002170
3192.000000	0.002162
3191.000000	0.002149
3190.000000	0.002133
3189.000000	0.002115
3188.000000	0.002095
3187.000000	0.002076
3186.000000	0.002060
3185.000000	0.002049
3184.000000	0.002045
3183.000000	0.002053
3182.000000	0.002072
3181.000000	0.002096
3180.000000	0.002116
3179.000000	0.002125
3178.000000	0.002122
3177.000000	0.002107
3176.000000	0.002079
3175.000000	0.002042
3174.000000	0.002003
3173.000000	0.001972
3172.000000	0.001954
3171.000000	0.001946
3170.000000	0.001949
3169.000000	0.001963
3168.000000	0.001980
3167.000000	0.001992
3166.000000	0.001991
3165.000000	0.001985
3164.000000	0.001986
3163.000000	0.001995
3162.000000	0.002003
3161.000000	0.001998
3160.000000	0.001974
3159.000000	0.001941
3158.000000	0.001910
3157.000000	0.001896
3156.000000	0.001902
3155.000000	0.001920
3154.000000	0.001937
3153.000000	0.001941
3152.000000	0.001928
3151.000000	0.001905
3150.000000	0.001882
3149.000000	0.001867
3148.000000	0.001864
3147.000000	0.001869
3146.000000	0.001875
3145.000000	0.001873
3144.000000	0.001864
3143.000000	0.001851
3142.000000	0.001844
3141.000000	0.001849
3140.000000	0.001862
3139.000000	0.001870
3138.000000	0.001859
3137.000000	0.001828
3136.000000	0.001792
3135.000000	0.001769
3134.000000	0.001765
3133.000000	0.001770
3132.000000	0.001773
3131.000000	0.001768
3130.000000	0.001753
3129.000000	0.001735
3128.000000	0.001721
3127.000000	0.001720
3126.000000	0.001730
3125.000000	0.001735
3124.000000	0.001720
3123.000000	0.001682
3122.000000	0.001637
3121.000000	0.001606
3120.000000	0.001600
3119.000000	0.001614
3118.000000	0.001633
3117.000000	0.001641
3116.000000	0.001639
3115.000000	0.001633
3114.000000	0.001632
3113.000000	0.001635
3112.000000	0.001635
3111.000000	0.001629
3110.000000	0.001628
3109.000000	0.001639
3108.000000	0.001653
3107.000000	0.001655
3106.000000	0.001641
3105.000000	0.001622
3104.000000	0.001611
3103.000000	0.001609
3102.000000	0.001607
3101.000000	0.001604
3100.000000	0.001603
3099.000000	0.001601
3098.000000	0.001590
3097.000000	0.001563
3096.000000	0.001526
3095.000000	0.001495
3094.000000	0.001485
3093.000000	0.001491
3092.000000	0.001504
3091.000000	0.001514
3090.000000	0.001518
3089.000000	0.001520
3088.000000	0.001521
3087.000000	0.001518
3086.000000	0.001512
3085.000000	0.001507
3084.000000	0.001506
3083.000000	0.001512
3082.000000	0.001522
3081.000000	0.001531
3080.000000	0.001538
3079.000000	0.001544
3078.000000	0.001557
3077.000000	0.001578
3076.000000	0.001600
3075.000000	0.001611
3074.000000	0.001601
3073.000000	0.001571
3072.000000	0.001529
3071.000000	0.001488
3070.000000	0.001455
3069.000000	0.001433
3068.000000	0.001424
3067.000000	0.001426
3066.000000	0.001438
3065.000000	0.001452
3064.000000	0.001465
3063.000000	0.001476
3062.000000	0.001488
3061.000000	0.001498
3060.000000	0.001506
3059.000000	0.001511
3058.000000	0.001514
3057.000000	0.001510
3056.000000	0.001496
3055.000000	0.001477
3054.000000	0.001467
3053.000000	0.001466
3052.000000	0.001462
3051.000000	0.001443
3050.000000	0.001410
3049.000000	0.001381
3048.000000	0.001368
3047.000000	0.001366
3046.000000	0.001364
3045.000000	0.001353
3044.000000	0.001328
3043.000000	0.001296
3042.000000	0.001266
3041.000000	0.001255
3040.000000	0.001271
3039.000000	0.001305
3038.000000	0.001339
3037.000000	0.001353
3036.000000	0.001340
3035.000000	0.001311
3034.000000	0.001288
3033.000000	0.001287
3032.000000	0.001312
3031.000000	0.001353
3030.000000	0.001387
3029.000000	0.001399
3028.000000	0.001389
3027.000000	0.001370
3026.000000	0.001359
3025.000000	0.001366
3024.000000	0.001385
3023.000000	0.001400
3022.000000	0.001396
3021.000000	0.001369
3020.000000	0.001335
3019.000000	0.001317
3018.000000	0.001330
3017.000000	0.001371
3016.000000	0.001423
3015.000000	0.001467
3014.000000	0.001494
3013.000000	0.001508
3012.000000	0.001513
3011.000000	0.001510
3010.000000	0.001500
3009.000000	0.001488
3008.000000	0.001480
3007.000000	0.001483
3006.000000	0.001495
3005.000000	0.001507
3004.000000	0.001511
3003.000000	0.001505
3002.000000	0.001493
3001.000000	0.001481
3000.000000	0.001474
2999.000000	0.001477
2998.000000	0.001492
2997.000000	0.001513
2996.000000	0.001532
2995.000000	0.001545
2994.000000	0.001557
2993.000000	0.001578
2992.000000	0.001613
2991.000000	0.001658
2990.000000	0.001701
2989.000000	0.001728
2988.000000	0.001731
2987.000000	0.001715
2986.000000	0.001696
2985.000000	0.001693
2984.000000	0.001713
2983.000000	0.001746
2982.000000	0.001776
2981.000000	0.001794
2980.000000	0.001805
2979.000000	0.001824
2978.000000	0.001857
2977.000000	0.001898
2976.000000	0.001935
2975.000000	0.001961
2974.000000	0.001979
2973.000000	0.001999
2972.000000	0.002029
2971.000000	0.002071
2970.000000	0.002117
2969.000000	0.002152
2968.000000	0.002165
2967.000000	0.002157
2966.000000	0.002147
2965.000000	0.002152
2964.000000	0.002176
2963.000000	0.002208
2962.000000	0.002235
2961.000000	0.002255
2960.000000	0.002270
2959.000000	0.002283
2958.000000	0.002298
2957.000000	0.002314
2956.000000	0.002332
2955.000000	0.002348
2954.000000	0.002362
2953.000000	0.002372
2952.000000	0.002377
2951.000000	0.002374
2950.000000	0.002360
2949.000000	0.002342
2948.000000	0.002333
2947.000000	0.002341
2946.000000	0.002365
2945.000000	0.002396
2944.000000	0.002432
2943.000000	0.002476
2942.000000	0.002526
2941.000000	0.002575
2940.000000	0.002616
2939.000000	0.002653
2938.000000	0.002698
2937.000000	0.002750
2936.000000	0.002799
2935.000000	0.002836
2934.000000	0.002860
2933.000000	0.002875
2932.000000	0.002884
2931.000000	0.002892
2930.000000	0.002905
2929.000000	0.002930
2928.000000	0.002966
2927.000000	0.003001
2926.000000	0.003028
2925.000000	0.003045
2924.000000	0.003057
2923.000000	0.003065
2922.000000	0.003067
2921.000000	0.003059
2920.000000	0.003031
2919.000000	0.002980
2918.000000	0.002911
2917.000000	0.002837
2916.000000	0.002773
2915.000000	0.002726
2914.000000	0.002696
2913.000000	0.002679
2912.000000	0.002668
2911.000000	0.002656
2910.000000	0.002636
2909.000000	0.002612
2908.000000	0.002592
2907.000000	0.002575
2906.000000	0.002557
2905.000000	0.002537
2904.000000	0.002524
2903.000000	0.002522
2902.000000	0.002525
2901.000000	0.002517
2900.000000	0.002492
2899.000000	0.002459
2898.000000	0.002429
2897.000000	0.002408
2896.000000	0.002392
2895.000000	0.002374
2894.000000	0.002355
2893.000000	0.002341
2892.000000	0.002333
2891.000000	0.002325
2890.000000	0.002310
2889.000000	0.002286
2888.000000	0.002260
2887.000000	0.002239
2886.000000	0.002225
2885.000000	0.002212
2884.000000	0.002199
2883.000000	0.002188
2882.000000	0.002189
2881.000000	0.002207
2880.000000	0.002235
2879.000000	0.002256
2878.000000	0.002258
2877.000000	0.002246
2876.000000	0.002228
2875.000000	0.002211
2874.000000	0.002195
2873.000000	0.002177
2872.000000	0.002164
2871.000000	0.002158
2870.000000	0.002160
2869.000000	0.002167
2868.000000	0.002178
2867.000000	0.002190
2866.000000	0.002199
2865.000000	0.002205
2864.000000	0.002212
2863.000000	0.002226
2862.000000	0.002245
2861.000000	0.002260
2860.000000	0.002268
2859.000000	0.002274
2858.000000	0.002285
2857.000000	0.002299
2856.000000	0.002313
2855.000000	0.002321
2854.000000	0.002320
2853.000000	0.002308
2852.000000	0.002287
2851.000000	0.002266
2850.000000	0.002248
2849.000000	0.002232
2848.000000	0.002210
2847.000000	0.002174
2846.000000	0.002124
2845.000000	0.002064
2844.000000	0.002004
2843.000000	0.001952
2842.000000	0.001907
2841.000000	0.001863
2840.000000	0.001817
2839.000000	0.001775
2838.000000	0.001747
2837.000000	0.001737
2836.000000	0.001734
2835.000000	0.001726
2834.000000	0.001707
2833.000000	0.001684
2832.000000	0.001667
2831.000000	0.001663
2830.000000	0.001666
2829.000000	0.001669
2828.000000	0.001665
2827.000000	0.001658
2826.000000	0.001653
2825.000000	0.001651
2824.000000	0.001641
2823.000000	0.001613
2822.000000	0.001569
2821.000000	0.001523
2820.000000	0.001494
2819.000000	0.001489
2818.000000	0.001502
2817.000000	0.001523
2816.000000	0.001541
2815.000000	0.001552
2814.000000	0.001556
2813.000000	0.001551
2812.000000	0.001533
2811.000000	0.001504
2810.000000	0.001474
2809.000000	0.001454
2808.000000	0.001454
2807.000000	0.001468
2806.000000	0.001484
2805.000000	0.001486
2804.000000	0.001473
2803.000000	0.001452
2802.000000	0.001434
2801.000000	0.001423
2800.000000	0.001419
2799.000000	0.001420
2798.000000	0.001424
2797.000000	0.001433
2796.000000	0.001446
2795.000000	0.001460
2794.000000	0.001464
2793.000000	0.001455
2792.000000	0.001436
2791.000000	0.001412
2790.000000	0.001387
2789.000000	0.001370
2788.000000	0.001371
2787.000000	0.001395
2786.000000	0.001432
2785.000000	0.001461
2784.000000	0.001470
2783.000000	0.001464
2782.000000	0.001453
2781.000000	0.001440
2780.000000	0.001423
2779.000000	0.001399
2778.000000	0.001372
2777.000000	0.001346
2776.000000	0.001332
2775.000000	0.001340
2774.000000	0.001366
2773.000000	0.001394
2772.000000	0.001404
2771.000000	0.001395
2770.000000	0.001376
2769.000000	0.001360
2768.000000	0.001348
2767.000000	0.001343
2766.000000	0.001345
2765.000000	0.001353
2764.000000	0.001359
2763.000000	0.001360
2762.000000	0.001362
2761.000000	0.001370
2760.000000	0.001383
2759.000000	0.001392
2758.000000	0.001388
2757.000000	0.001375
2756.000000	0.001364
2755.000000	0.001366
2754.000000	0.001383
2753.000000	0.001410
2752.000000	0.001434
2751.000000	0.001444
2750.000000	0.001442
2749.000000	0.001432
2748.000000	0.001419
2747.000000	0.001405
2746.000000	0.001389
2745.000000	0.001375
2744.000000	0.001366
2743.000000	0.001360
2742.000000	0.001353
2741.000000	0.001339
2740.000000	0.001322
2739.000000	0.001312
2738.000000	0.001317
2737.000000	0.001333
2736.000000	0.001353
2735.000000	0.001370
2734.000000	0.001382
2733.000000	0.001389
2732.000000	0.001395
2731.000000	0.001402
2730.000000	0.001409
2729.000000	0.001409
2728.000000	0.001397
2727.000000	0.001374
2726.000000	0.001348
2725.000000	0.001328
2724.000000	0.001317
2723.000000	0.001318
2722.000000	0.001333
2721.000000	0.001356
2720.000000	0.001373
2719.000000	0.001375
2718.000000	0.001362
2717.000000	0.001343
2716.000000	0.001331
2715.000000	0.001333
2714.000000	0.001347
2713.000000	0.001355
2712.000000	0.001342
2711.000000	0.001308
2710.000000	0.001272
2709.000000	0.001248
2708.000000	0.001239
2707.000000	0.001242
2706.000000	0.001255
2705.000000	0.001273
2704.000000	0.001291
2703.000000	0.001300
2702.000000	0.001298
2701.000000	0.001291
2700.000000	0.001286
2699.000000	0.001282
2698.000000	0.001277
2697.000000	0.001270
2696.000000	0.001264
2695.000000	0.001262
2694.000000	0.001267
2693.000000	0.001277
2692.000000	0.001285
2691.000000	0.001285
2690.000000	0.001278
2689.000000	0.001266
2688.000000	0.001251
2687.000000	0.001240
2686.000000	0.001242
2685.000000	0.001265
2684.000000	0.001304
2683.000000	0.001345
2682.000000	0.001373
2681.000000	0.001381
2680.000000	0.001368
2679.000000	0.001341
2678.000000	0.001311
2677.000000	0.001290
2676.000000	0.001281
2675.000000	0.001281
2674.000000	0.001283
2673.000000	0.001286
2672.000000	0.001288
2671.000000	0.001292
2670.000000	0.001301
2669.000000	0.001315
2668.000000	0.001332
2667.000000	0.001349
2666.000000	0.001363
2665.000000	0.001375
2664.000000	0.001382
2663.000000	0.001384
2662.000000	0.001386
2661.000000	0.001393
2660.000000	0.001404
2659.000000	0.001409
2658.000000	0.001398
2657.000000	0.001371
2656.000000	0.001338
2655.000000	0.001308
2654.000000	0.001285
2653.000000	0.001271
2652.000000	0.001265
2651.000000	0.001264
2650.000000	0.001264
2649.000000	0.001268
2648.000000	0.001275
2647.000000	0.001284
2646.000000	0.001286
2645.000000	0.001278
2644.000000	0.001261
2643.000000	0.001246
2642.000000	0.001242
2641.000000	0.001248
2640.000000	0.001255
2639.000000	0.001255
2638.000000	0.001245
2637.000000	0.001231
2636.000000	0.001217
2635.000000	0.001199
2634.000000	0.001174
2633.000000	0.001143
2632.000000	0.001111
2631.000000	0.001080
2630.000000	0.001050
2629.000000	0.001019
2628.000000	0.000991
2627.000000	0.000971
2626.000000	0.000963
2625.000000	0.000968
2624.000000	0.000982
2623.000000	0.000999
2622.000000	0.001009
2621.000000	0.001004
2620.000000	0.000987
2619.000000	0.000969
2618.000000	0.000958
2617.000000	0.000954
2616.000000	0.000951
2615.000000	0.000950
2614.000000	0.000948
2613.000000	0.000939
2612.000000	0.000913
2611.000000	0.000874
2610.000000	0.000842
2609.000000	0.000835
2608.000000	0.000853
2607.000000	0.000885
2606.000000	0.000914
2605.000000	0.000926
2604.000000	0.000908
2603.000000	0.000864
2602.000000	0.000818
2601.000000	0.000792
2600.000000	0.000791
2599.000000	0.000803
2598.000000	0.000815
2597.000000	0.000820
2596.000000	0.000816
2595.000000	0.000809
2594.000000	0.000812
2593.000000	0.000830
2592.000000	0.000845
2591.000000	0.000837
2590.000000	0.000802
2589.000000	0.000759
2588.000000	0.000727
2587.000000	0.000704
2586.000000	0.000680
2585.000000	0.000655
2584.000000	0.000642
2583.000000	0.000651
2582.000000	0.000678
2581.000000	0.000704
2580.000000	0.000713
2579.000000	0.000706
2578.000000	0.000688
2577.000000	0.000665
2576.000000	0.000634
2575.000000	0.000600
2574.000000	0.000581
2573.000000	0.000592
2572.000000	0.000624
2571.000000	0.000664
2570.000000	0.000703
2569.000000	0.000741
2568.000000	0.000768
2567.000000	0.000770
2566.000000	0.000753
2565.000000	0.000740
2564.000000	0.000753
2563.000000	0.000783
2562.000000	0.000803
2561.000000	0.000790
2560.000000	0.000752
2559.000000	0.000713
2558.000000	0.000701
2557.000000	0.000720
2556.000000	0.000742
2555.000000	0.000742
2554.000000	0.000725
2553.000000	0.000724
2552.000000	0.000755
2551.000000	0.000795
2550.000000	0.000807
2549.000000	0.000775
2548.000000	0.000715
2547.000000	0.000659
2546.000000	0.000627
2545.000000	0.000625
2544.000000	0.000646
2543.000000	0.000679
2542.000000	0.000718
2541.000000	0.000759
2540.000000	0.000787
2539.000000	0.000776
2538.000000	0.000717
2537.000000	0.000635
2536.000000	0.000574
2535.000000	0.000563
2534.000000	0.000596
2533.000000	0.000640
2532.000000	0.000664
2531.000000	0.000654
2530.000000	0.000617
2529.000000	0.000574
2528.000000	0.000549
2527.000000	0.000554
2526.000000	0.000582
2525.000000	0.000607
2524.000000	0.000612
2523.000000	0.000596
2522.000000	0.000577
2521.000000	0.000570
2520.000000	0.000575
2519.000000	0.000585
2518.000000	0.000599
2517.000000	0.000620
2516.000000	0.000647
2515.000000	0.000673
2514.000000	0.000694
2513.000000	0.000705
2512.000000	0.000700
2511.000000	0.000676
2510.000000	0.000637
2509.000000	0.000593
2508.000000	0.000555
2507.000000	0.000534
2506.000000	0.000548
2505.000000	0.000612
2504.000000	0.000708
2503.000000	0.000786
2502.000000	0.000805
2501.000000	0.000764
2500.000000	0.000698
2499.000000	0.000635
2498.000000	0.000583
2497.000000	0.000539
2496.000000	0.000512
2495.000000	0.000512
2494.000000	0.000535
2493.000000	0.000563
2492.000000	0.000577
2491.000000	0.000582
2490.000000	0.000590
2489.000000	0.000599
2488.000000	0.000589
2487.000000	0.000552
2486.000000	0.000502
2485.000000	0.000460
2484.000000	0.000437
2483.000000	0.000432
2482.000000	0.000451
2481.000000	0.000496
2480.000000	0.000549
2479.000000	0.000582
2478.000000	0.000587
2477.000000	0.000585
2476.000000	0.000595
2475.000000	0.000608
2474.000000	0.000606
2473.000000	0.000586
2472.000000	0.000562
2471.000000	0.000550
2470.000000	0.000546
2469.000000	0.000540
2468.000000	0.000523
2467.000000	0.000503
2466.000000	0.000495
2465.000000	0.000508
2464.000000	0.000535
2463.000000	0.000555
2462.000000	0.000553
2461.000000	0.000530
2460.000000	0.000502
2459.000000	0.000485
2458.000000	0.000487
2457.000000	0.000510
2456.000000	0.000547
2455.000000	0.000591
2454.000000	0.000630
2453.000000	0.000652
2452.000000	0.000646
2451.000000	0.000610
2450.000000	0.000556
2449.000000	0.000508
2448.000000	0.000480
2447.000000	0.000471
2446.000000	0.000474
2445.000000	0.000490
2444.000000	0.000516
2443.000000	0.000545
2442.000000	0.000567
2441.000000	0.000584
2440.000000	0.000601
2439.000000	0.000616
2438.000000	0.000617
2437.000000	0.000599
2436.000000	0.000580
2435.000000	0.000583
2434.000000	0.000620
2433.000000	0.000667
2432.000000	0.000681
2431.000000	0.000637
2430.000000	0.000555
2429.000000	0.000479
2428.000000	0.000445
2427.000000	0.000453
2426.000000	0.000479
2425.000000	0.000506
2424.000000	0.000529
2423.000000	0.000548
2422.000000	0.000561
2421.000000	0.000557
2420.000000	0.000534
2419.000000	0.000503
2418.000000	0.000484
2417.000000	0.000484
2416.000000	0.000494
2415.000000	0.000501
2414.000000	0.000495
2413.000000	0.000477
2412.000000	0.000449
2411.000000	0.000421
2410.000000	0.000407
2409.000000	0.000419
2408.000000	0.000449
2407.000000	0.000476
2406.000000	0.000484
2405.000000	0.000464
2404.000000	0.000421
2403.000000	0.000366
2402.000000	0.000321
2401.000000	0.000305
2400.000000	0.000322
2399.000000	0.000362
2398.000000	0.000415
2397.000000	0.000471
2396.000000	0.000523
2395.000000	0.000561
2394.000000	0.000584
2393.000000	0.000593
2392.000000	0.000587
2391.000000	0.000568
2390.000000	0.000544
2389.000000	0.000523
2388.000000	0.000502
2387.000000	0.000473
2386.000000	0.000435
2385.000000	0.000394
2384.000000	0.000350
2383.000000	0.000296
2382.000000	0.000234
2381.000000	0.000176
2380.000000	0.000125
2379.000000	0.000075
2378.000000	0.000023
2377.000000	-0.000011
2376.000000	-0.000003
2375.000000	0.000052
2374.000000	0.000125
2373.000000	0.000182
2372.000000	0.000210
2371.000000	0.000226
2370.000000	0.000249
2369.000000	0.000267
2368.000000	0.000254
2367.000000	0.000202
2366.000000	0.000139
2365.000000	0.000094
2364.000000	0.000080
2363.000000	0.000096
2362.000000	0.000139
2361.000000	0.000187
2360.000000	0.000217
2359.000000	0.000221
2358.000000	0.000215
2357.000000	0.000214
2356.000000	0.000225
2355.000000	0.000246
2354.000000	0.000242
2353.000000	0.000178
2352.000000	0.000088
2351.000000	0.000059
2350.000000	0.000131
2349.000000	0.000262
2348.000000	0.000376
2347.000000	0.000413
2346.000000	0.000369
2345.000000	0.000315
2344.000000	0.000316
2343.000000	0.000361
2342.000000	0.000397
2341.000000	0.000389
2340.000000	0.000351
2339.000000	0.000327
2338.000000	0.000344
2337.000000	0.000402
2336.000000	0.000480
2335.000000	0.000532
2334.000000	0.000513
2333.000000	0.000416
2332.000000	0.000303
2331.000000	0.000255
2330.000000	0.000299
2329.000000	0.000395
2328.000000	0.000499
2327.000000	0.000596
2326.000000	0.000680
2325.000000	0.000730
2324.000000	0.000723
2323.000000	0.000660
2322.000000	0.000578
2321.000000	0.000519
2320.000000	0.000502
2319.000000	0.000520
2318.000000	0.000563
2317.000000	0.000620
2316.000000	0.000674
2315.000000	0.000694
2314.000000	0.000670
2313.000000	0.000629
2312.000000	0.000606
2311.000000	0.000602
2310.000000	0.000590
2309.000000	0.000554
2308.000000	0.000511
2307.000000	0.000489
2306.000000	0.000496
2305.000000	0.000525
2304.000000	0.000562
2303.000000	0.000593
2302.000000	0.000612
2301.000000	0.000627
2300.000000	0.000646
2299.000000	0.000664
2298.000000	0.000666
2297.000000	0.000646
2296.000000	0.000618
2295.000000	0.000601
2294.000000	0.000609
2293.000000	0.000642
2292.000000	0.000697
2291.000000	0.000765
2290.000000	0.000827
2289.000000	0.000873
2288.000000	0.000905
2287.000000	0.000928
2286.000000	0.000940
2285.000000	0.000938
2284.000000	0.000931
2283.000000	0.000928
2282.000000	0.000930
2281.000000	0.000926
2280.000000	0.000906
2279.000000	0.000866
2278.000000	0.000800
2277.000000	0.000709
2276.000000	0.000613
2275.000000	0.000546
2274.000000	0.000534
2273.000000	0.000564
2272.000000	0.000601
2271.000000	0.000623
2270.000000	0.000629
2269.000000	0.000630
2268.000000	0.000629
2267.000000	0.000623
2266.000000	0.000612
2265.000000	0.000597
2264.000000	0.000571
2263.000000	0.000535
2262.000000	0.000509
2261.000000	0.000526
2260.000000	0.000593
2259.000000	0.000673
2258.000000	0.000717
2257.000000	0.000700
2256.000000	0.000637
2255.000000	0.000559
2254.000000	0.000489
2253.000000	0.000443
2252.000000	0.000431
2251.000000	0.000446
2250.000000	0.000460
2249.000000	0.000439
2248.000000	0.000385
2247.000000	0.000332
2246.000000	0.000313
2245.000000	0.000320
2244.000000	0.000323
2243.000000	0.000307
2242.000000	0.000292
2241.000000	0.000302
2240.000000	0.000345
2239.000000	0.000418
2238.000000	0.000509
2237.000000	0.000589
2236.000000	0.000622
2235.000000	0.000604
2234.000000	0.000571
2233.000000	0.000556
2232.000000	0.000534
2231.000000	0.000453
2230.000000	0.000318
2229.000000	0.000204
2228.000000	0.000189
2227.000000	0.000286
2226.000000	0.000439
2225.000000	0.000578
2224.000000	0.000653
2223.000000	0.000649
2222.000000	0.000584
2221.000000	0.000486
2220.000000	0.000380
2219.000000	0.000278
2218.000000	0.000193
2217.000000	0.000130
2216.000000	0.000086
2215.000000	0.000061
2214.000000	0.000070
2213.000000	0.000126
2212.000000	0.000208
2211.000000	0.000270
2210.000000	0.000288
2209.000000	0.000276
2208.000000	0.000252
2207.000000	0.000228
2206.000000	0.000220
2205.000000	0.000243
2204.000000	0.000286
2203.000000	0.000311
2202.000000	0.000299
2201.000000	0.000280
2200.000000	0.000295
2199.000000	0.000347
2198.000000	0.000403
2197.000000	0.000438
2196.000000	0.000451
2195.000000	0.000468
2194.000000	0.000524
2193.000000	0.000627
2192.000000	0.000735
2191.000000	0.000776
2190.000000	0.000717
2189.000000	0.000590
2188.000000	0.000458
2187.000000	0.000373
2186.000000	0.000360
2185.000000	0.000421
2184.000000	0.000503
2183.000000	0.000516
2182.000000	0.000410
2181.000000	0.000251
2180.000000	0.000170
2179.000000	0.000233
2178.000000	0.000382
2177.000000	0.000493
2176.000000	0.000483
2175.000000	0.000363
2174.000000	0.000205
2173.000000	0.000084
2172.000000	0.000029
2171.000000	0.000034
2170.000000	0.000087
2169.000000	0.000180
2168.000000	0.000293
2167.000000	0.000393
2166.000000	0.000439
2165.000000	0.000414
2164.000000	0.000349
2163.000000	0.000317
2162.000000	0.000361
2161.000000	0.000400
2160.000000	0.000254
2159.000000	-0.000168
2158.000000	-0.000721
2157.000000	-0.001140
2156.000000	-0.001290
2155.000000	-0.001214
2154.000000	-0.001010
2153.000000	-0.000774
2152.000000	-0.000595
2151.000000	-0.000520
2150.000000	-0.000519
2149.000000	-0.000535
2148.000000	-0.000562
2147.000000	-0.000626
2146.000000	-0.000713
2145.000000	-0.000765
2144.000000	-0.000760
2143.000000	-0.000734
2142.000000	-0.000716
2141.000000	-0.000694
2140.000000	-0.000637
2139.000000	-0.000540
2138.000000	-0.000423
2137.000000	-0.000314
2136.000000	-0.000239
2135.000000	-0.000210
2134.000000	-0.000200
2133.000000	-0.000178
2132.000000	-0.000146
2131.000000	-0.000123
2130.000000	-0.000109
2129.000000	-0.000088
2128.000000	-0.000065
2127.000000	-0.000060
2126.000000	-0.000068
2125.000000	-0.000062
2124.000000	-0.000028
2123.000000	0.000019
2122.000000	0.000066
2121.000000	0.000117
2120.000000	0.000169
2119.000000	0.000207
2118.000000	0.000226
2117.000000	0.000241
2116.000000	0.000253
2115.000000	0.000237
2114.000000	0.000188
2113.000000	0.000141
2112.000000	0.000135
2111.000000	0.000164
2110.000000	0.000196
2109.000000	0.000227
2108.000000	0.000276
2107.000000	0.000345
2106.000000	0.000407
2105.000000	0.000439
2104.000000	0.000437
2103.000000	0.000406
2102.000000	0.000361
2101.000000	0.000326
2100.000000	0.000322
2099.000000	0.000333
2098.000000	0.000324
2097.000000	0.000281
2096.000000	0.000227
2095.000000	0.000189
2094.000000	0.000163
2093.000000	0.000132
2092.000000	0.000104
2091.000000	0.000115
2090.000000	0.000186
2089.000000	0.000287
2088.000000	0.000358
2087.000000	0.000365
2086.000000	0.000324
2085.000000	0.000271
2084.000000	0.000227
2083.000000	0.000199
2082.000000	0.000206
2081.000000	0.000255
2080.000000	0.000321
2079.000000	0.000367
2078.000000	0.000385
2077.000000	0.000394
2076.000000	0.000388
2075.000000	0.000330
2074.000000	0.000211
2073.000000	0.000089
2072.000000	0.000025
2071.000000	0.000021
2070.000000	0.000038
2069.000000	0.000055
2068.000000	0.000075
2067.000000	0.000076
2066.000000	0.000021
2065.000000	-0.000097
2064.000000	-0.000221
2063.000000	-0.000280
2062.000000	-0.000245
2061.000000	-0.000135
2060.000000	0.000009
2059.000000	0.000151
2058.000000	0.000264
2057.000000	0.000318
2056.000000	0.000283
2055.000000	0.000167
2054.000000	0.000046
2053.000000	0.000022
2052.000000	0.000123
2051.000000	0.000251
2050.000000	0.000253
2049.000000	0.000075
2048.000000	-0.000155
2047.000000	-0.000238
2046.000000	-0.000121
2045.000000	0.000052
2044.000000	0.000115
2043.000000	0.000057
2042.000000	0.000001
2041.000000	0.000029
2040.000000	0.000086
2039.000000	0.000089
2038.000000	0.000043
2037.000000	-0.000010
2036.000000	-0.000097
2035.000000	-0.000288
2034.000000	-0.000547
2033.000000	-0.000725
2032.000000	-0.000728
2031.000000	-0.000629
2030.000000	-0.000558
2029.000000	-0.000567
2028.000000	-0.000625
2027.000000	-0.000684
2026.000000	-0.000723
2025.000000	-0.000738
2024.000000	-0.000738
2023.000000	-0.000730
2022.000000	-0.000710
2021.000000	-0.000699
2020.000000	-0.000773
2019.000000	-0.000993
2018.000000	-0.001298
2017.000000	-0.001524
2016.000000	-0.001560
2015.000000	-0.001460
2014.000000	-0.001338
2013.000000	-0.001232
2012.000000	-0.001103
2011.000000	-0.000921
2010.000000	-0.000728
2009.000000	-0.000609
2008.000000	-0.000603
2007.000000	-0.000649
2006.000000	-0.000657
2005.000000	-0.000625
2004.000000	-0.000623
2003.000000	-0.000653
2002.000000	-0.000605
2001.000000	-0.000413
2000.000000	-0.000189
1999.000000	-0.000111
1998.000000	-0.000217
1997.000000	-0.000396
1996.000000	-0.000540
1995.000000	-0.000631
1994.000000	-0.000663
1993.000000	-0.000593
1992.000000	-0.000426
1991.000000	-0.000272
1990.000000	-0.000226
1989.000000	-0.000256
1988.000000	-0.000262
1987.000000	-0.000211
1986.000000	-0.000157
1985.000000	-0.000160
1984.000000	-0.000205
1983.000000	-0.000210
1982.000000	-0.000091
1981.000000	0.000152
1980.000000	0.000409
1979.000000	0.000528
1978.000000	0.000432
1977.000000	0.000179
1976.000000	-0.000104
1975.000000	-0.000330
1974.000000	-0.000482
1973.000000	-0.000558
1972.000000	-0.000568
1971.000000	-0.000550
1970.000000	-0.000559
1969.000000	-0.000630
1968.000000	-0.000739
1967.000000	-0.000815
1966.000000	-0.000801
1965.000000	-0.000712
1964.000000	-0.000617
1963.000000	-0.000568
1962.000000	-0.000565
1961.000000	-0.000588
1960.000000	-0.000636
1959.000000	-0.000700
1958.000000	-0.000752
1957.000000	-0.000772
1956.000000	-0.000774
1955.000000	-0.000775
1954.000000	-0.000757
1953.000000	-0.000696
1952.000000	-0.000605
1951.000000	-0.000529
1950.000000	-0.000494
1949.000000	-0.000495
1948.000000	-0.000513
1947.000000	-0.000521
1946.000000	-0.000475
1945.000000	-0.000363
1944.000000	-0.000241
1943.000000	-0.000197
1942.000000	-0.000254
1941.000000	-0.000355
1940.000000	-0.000443
1939.000000	-0.000502
1938.000000	-0.000529
1937.000000	-0.000518
1936.000000	-0.000479
1935.000000	-0.000444
1934.000000	-0.000424
1933.000000	-0.000401
1932.000000	-0.000359
1931.000000	-0.000322
1930.000000	-0.000324
1929.000000	-0.000374
1928.000000	-0.000458
1927.000000	-0.000534
1926.000000	-0.000550
1925.000000	-0.000477
1924.000000	-0.000345
1923.000000	-0.000232
1922.000000	-0.000189
1921.000000	-0.000209
1920.000000	-0.000263
1919.000000	-0.000314
1918.000000	-0.000321
1917.000000	-0.000267
1916.000000	-0.000201
1915.000000	-0.000179
1914.000000	-0.000191
1913.000000	-0.000185
1912.000000	-0.000149
1911.000000	-0.000128
1910.000000	-0.000167
1909.000000	-0.000262
1908.000000	-0.000383
1907.000000	-0.000497
1906.000000	-0.000580
1905.000000	-0.000610
1904.000000	-0.000600
1903.000000	-0.000565
1902.000000	-0.000485
1901.000000	-0.000346
1900.000000	-0.000200
1899.000000	-0.000132
1898.000000	-0.000169
1897.000000	-0.000249
1896.000000	-0.000307
1895.000000	-0.000336
1894.000000	-0.000352
1893.000000	-0.000358
1892.000000	-0.000364
1891.000000	-0.000389
1890.000000	-0.000435
1889.000000	-0.000465
1888.000000	-0.000458
1887.000000	-0.000436
1886.000000	-0.000415
1885.000000	-0.000389
1884.000000	-0.000357
1883.000000	-0.000339
1882.000000	-0.000347
1881.000000	-0.000372
1880.000000	-0.000398
1879.000000	-0.000412
1878.000000	-0.000399
1877.000000	-0.000360
1876.000000	-0.000326
1875.000000	-0.000331
1874.000000	-0.000370
1873.000000	-0.000401
1872.000000	-0.000401
1871.000000	-0.000394
1870.000000	-0.000398
1869.000000	-0.000402
1868.000000	-0.000394
1867.000000	-0.000393
1866.000000	-0.000401
1865.000000	-0.000405
1864.000000	-0.000421
1863.000000	-0.000471
1862.000000	-0.000534
1861.000000	-0.000550
1860.000000	-0.000503
1859.000000	-0.000446
1858.000000	-0.000430
1857.000000	-0.000445
1856.000000	-0.000451
1855.000000	-0.000433
1854.000000	-0.000406
1853.000000	-0.000401
1852.000000	-0.000438
1851.000000	-0.000500
1850.000000	-0.000545
1849.000000	-0.000548
1848.000000	-0.000533
1847.000000	-0.000538
1846.000000	-0.000565
1845.000000	-0.000574
1844.000000	-0.000552
1843.000000	-0.000540
1842.000000	-0.000558
1841.000000	-0.000587
1840.000000	-0.000592
1839.000000	-0.000552
1838.000000	-0.000472
1837.000000	-0.000387
1836.000000	-0.000349
1835.000000	-0.000380
1834.000000	-0.000452
1833.000000	-0.000511
1832.000000	-0.000522
1831.000000	-0.000498
1830.000000	-0.000486
1829.000000	-0.000505
1828.000000	-0.000533
1827.000000	-0.000549
1826.000000	-0.000556
1825.000000	-0.000555
1824.000000	-0.000546
1823.000000	-0.000540
1822.000000	-0.000545
1821.000000	-0.000557
1820.000000	-0.000574
1819.000000	-0.000611
1818.000000	-0.000669
1817.000000	-0.000714
1816.000000	-0.000725
1815.000000	-0.000729
1814.000000	-0.000747
1813.000000	-0.000753
1812.000000	-0.000707
1811.000000	-0.000632
1810.000000	-0.000581
1809.000000	-0.000557
1808.000000	-0.000544
1807.000000	-0.000553
1806.000000	-0.000584
1805.000000	-0.000606
1804.000000	-0.000595
1803.000000	-0.000576
1802.000000	-0.000583
1801.000000	-0.000609
1800.000000	-0.000627
1799.000000	-0.000643
1798.000000	-0.000660
1797.000000	-0.000655
1796.000000	-0.000626
1795.000000	-0.000601
1794.000000	-0.000602
1793.000000	-0.000616
1792.000000	-0.000618
1791.000000	-0.000627
1790.000000	-0.000659
1789.000000	-0.000695
1788.000000	-0.000723
1787.000000	-0.000745
1786.000000	-0.000757
1785.000000	-0.000739
1784.000000	-0.000694
1783.000000	-0.000650
1782.000000	-0.000623
1781.000000	-0.000617
1780.000000	-0.000628
1779.000000	-0.000654
1778.000000	-0.000682
1777.000000	-0.000697
1776.000000	-0.000701
1775.000000	-0.000702
1774.000000	-0.000707
1773.000000	-0.000720
1772.000000	-0.000724
1771.000000	-0.000715
1770.000000	-0.000708
1769.000000	-0.000712
1768.000000	-0.000712
1767.000000	-0.000696
1766.000000	-0.000665
1765.000000	-0.000622
1764.000000	-0.000566
1763.000000	-0.000514
1762.000000	-0.000494
1761.000000	-0.000508
1760.000000	-0.000513
1759.000000	-0.000482
1758.000000	-0.000423
1757.000000	-0.000363
1756.000000	-0.000317
1755.000000	-0.000285
1754.000000	-0.000273
1753.000000	-0.000282
1752.000000	-0.000279
1751.000000	-0.000206
1750.000000	-0.000057
1749.000000	0.000107
1748.000000	0.000233
1747.000000	0.000318
1746.000000	0.000369
1745.000000	0.000398
1744.000000	0.000425
1743.000000	0.000454
1742.000000	0.000452
1741.000000	0.000399
1740.000000	0.000329
1739.000000	0.000284
1738.000000	0.000248
1737.000000	0.000176
1736.000000	0.000049
1735.000000	-0.000114
1734.000000	-0.000231
1733.000000	-0.000247
1732.000000	-0.000200
1731.000000	-0.000147
1730.000000	-0.000114
1729.000000	-0.000117
1728.000000	-0.000152
1727.000000	-0.000187
1726.000000	-0.000211
1725.000000	-0.000238
1724.000000	-0.000277
1723.000000	-0.000320
1722.000000	-0.000351
1721.000000	-0.000363
1720.000000	-0.000358
1719.000000	-0.000352
1718.000000	-0.000380
1717.000000	-0.000405
1716.000000	-0.000394
1715.000000	-0.000389
1714.000000	-0.000382
1713.000000	-0.000336
1712.000000	-0.000268
1711.000000	-0.000217
1710.000000	-0.000200
1709.000000	-0.000203
1708.000000	-0.000203
1707.000000	-0.000181
1706.000000	-0.000123
1705.000000	-0.000027
1704.000000	0.000051
1703.000000	0.000048
1702.000000	-0.000031
1701.000000	-0.000108
1700.000000	-0.000111
1699.000000	-0.000105
1698.000000	-0.000107
1697.000000	-0.000040
1696.000000	0.000117
1695.000000	0.000247
1694.000000	0.000296
1693.000000	0.000339
1692.000000	0.000404
1691.000000	0.000473
1690.000000	0.000528
1689.000000	0.000571
1688.000000	0.000606
1687.000000	0.000625
1686.000000	0.000643
1685.000000	0.000707
1684.000000	0.000808
1683.000000	0.000856
1682.000000	0.000868
1681.000000	0.000898
1680.000000	0.000954
1679.000000	0.001015
1678.000000	0.001068
1677.000000	0.001128
1676.000000	0.001221
1675.000000	0.001337
1674.000000	0.001424
1673.000000	0.001458
1672.000000	0.001470
1671.000000	0.001501
1670.000000	0.001582
1669.000000	0.001690
1668.000000	0.001771
1667.000000	0.001822
1666.000000	0.001860
1665.000000	0.001905
1664.000000	0.001975
1663.000000	0.002064
1662.000000	0.002141
1661.000000	0.002176
1660.000000	0.002173
1659.000000	0.002167
1658.000000	0.002180
1657.000000	0.002202
1656.000000	0.002209
1655.000000	0.002228
1654.000000	0.002334
1653.000000	0.002530
1652.000000	0.002612
1651.000000	0.002600
1650.000000	0.002563
1649.000000	0.002528
1648.000000	0.002510
1647.000000	0.002511
1646.000000	0.002516
1645.000000	0.002518
1644.000000	0.002526
1643.000000	0.002531
1642.000000	0.002536
1641.000000	0.002548
1640.000000	0.002554
1639.000000	0.002530
1638.000000	0.002482
1637.000000	0.002454
1636.000000	0.002471
1635.000000	0.002505
1634.000000	0.002507
1633.000000	0.002485
1632.000000	0.002444
1631.000000	0.002401
1630.000000	0.002391
1629.000000	0.002428
1628.000000	0.002473
1627.000000	0.002485
1626.000000	0.002467
1625.000000	0.002438
1624.000000	0.002406
1623.000000	0.002374
1622.000000	0.002357
1621.000000	0.002339
1620.000000	0.002301
1619.000000	0.002257
1618.000000	0.002250
1617.000000	0.002289
1616.000000	0.002305
1615.000000	0.002271
1614.000000	0.002238
1613.000000	0.002226
1612.000000	0.002215
1611.000000	0.002197
1610.000000	0.002194
1609.000000	0.002211
1608.000000	0.002224
1607.000000	0.002226
1606.000000	0.002236
1605.000000	0.002254
1604.000000	0.002261
1603.000000	0.002257
1602.000000	0.002255
1601.000000	0.002252
1600.000000	0.002237
1599.000000	0.002217
1598.000000	0.002203
1597.000000	0.002188
1596.000000	0.002159
1595.000000	0.002127
1594.000000	0.002121
1593.000000	0.002140
1592.000000	0.002148
1591.000000	0.002130
1590.000000	0.002102
1589.000000	0.002078
1588.000000	0.002055
1587.000000	0.002040
1586.000000	0.002049
1585.000000	0.002071
1584.000000	0.002078
1583.000000	0.002076
1582.000000	0.002090
1581.000000	0.002109
1580.000000	0.002099
1579.000000	0.002066
1578.000000	0.002047
1577.000000	0.002058
1576.000000	0.002058
1575.000000	0.002033
1574.000000	0.002015
1573.000000	0.001996
1572.000000	0.001965
1571.000000	0.001929
1570.000000	0.001903
1569.000000	0.001867
1568.000000	0.001806
1567.000000	0.001769
1566.000000	0.001786
1565.000000	0.001833
1564.000000	0.001861
1563.000000	0.001859
1562.000000	0.001852
1561.000000	0.001858
1560.000000	0.001853
1559.000000	0.001825
1558.000000	0.001833
1557.000000	0.001827
1556.000000	0.001807
1555.000000	0.001794
1554.000000	0.001797
1553.000000	0.001805
1552.000000	0.001816
1551.000000	0.001825
1550.000000	0.001823
1549.000000	0.001804
1548.000000	0.001772
1547.000000	0.001747
1546.000000	0.001751
1545.000000	0.001795
1544.000000	0.001861
1543.000000	0.001898
1542.000000	0.001881
1541.000000	0.001864
1540.000000	0.001898
1539.000000	0.001925
1538.000000	0.001907
1537.000000	0.001865
1536.000000	0.001810
1535.000000	0.001745
1534.000000	0.001684
1533.000000	0.001641
1532.000000	0.001610
1531.000000	0.001565
1530.000000	0.001514
1529.000000	0.001482
1528.000000	0.001467
1527.000000	0.001433
1526.000000	0.001362
1525.000000	0.001287
1524.000000	0.001232
1523.000000	0.001180
1522.000000	0.001110
1521.000000	0.001066
1520.000000	0.001074
1519.000000	0.001096
1518.000000	0.001095
1517.000000	0.001063
1516.000000	0.001009
1515.000000	0.000943
1514.000000	0.000880
1513.000000	0.000845
1512.000000	0.000858
1511.000000	0.000892
1510.000000	0.000898
1509.000000	0.000857
1508.000000	0.000795
1507.000000	0.000730
1506.000000	0.000643
1505.000000	0.000574
1504.000000	0.000583
1503.000000	0.000621
1502.000000	0.000645
1501.000000	0.000646
1500.000000	0.000634
1499.000000	0.000601
1498.000000	0.000528
1497.000000	0.000454
1496.000000	0.000441
1495.000000	0.000458
1494.000000	0.000453
1493.000000	0.000434
1492.000000	0.000438
1491.000000	0.000474
1490.000000	0.000527
1489.000000	0.000603
1488.000000	0.000694
1487.000000	0.000740
1486.000000	0.000739
1485.000000	0.000741
1484.000000	0.000762
1483.000000	0.000798
1482.000000	0.000836
1481.000000	0.000876
1480.000000	0.000926
1479.000000	0.000985
1478.000000	0.001054
1477.000000	0.001144
1476.000000	0.001239
1475.000000	0.001289
1474.000000	0.001292
1473.000000	0.001322
1472.000000	0.001441
1471.000000	0.001584
1470.000000	0.001695
1469.000000	0.001790
1468.000000	0.001897
1467.000000	0.002002
1466.000000	0.002077
1465.000000	0.002123
1464.000000	0.002156
1463.000000	0.002184
1462.000000	0.002204
1461.000000	0.002231
1460.000000	0.002280
1459.000000	0.002352
1458.000000	0.002420
1457.000000	0.002468
1456.000000	0.002522
1455.000000	0.002591
1454.000000	0.002659
1453.000000	0.002724
1452.000000	0.002799
1451.000000	0.002877
1450.000000	0.002941
1449.000000	0.002999
1448.000000	0.003070
1447.000000	0.003139
1446.000000	0.003176
1445.000000	0.003191
1444.000000	0.003219
1443.000000	0.003270
1442.000000	0.003326
1441.000000	0.003369
1440.000000	0.003402
1439.000000	0.003440
1438.000000	0.003490
1437.000000	0.003548
1436.000000	0.003607
1435.000000	0.003654
1434.000000	0.003683
1433.000000	0.003715
1432.000000	0.003772
1431.000000	0.003853
1430.000000	0.003919
1429.000000	0.003945
1428.000000	0.003952
1427.000000	0.003969
1426.000000	0.004003
1425.000000	0.004031
1424.000000	0.004040
1423.000000	0.004037
1422.000000	0.004024
1421.000000	0.004008
1420.000000	0.004018
1419.000000	0.004083
1418.000000	0.004149
1417.000000	0.004172
1416.000000	0.004179
1415.000000	0.004191
1414.000000	0.004203
1413.000000	0.004207
1412.000000	0.004211
1411.000000	0.004229
1410.000000	0.004245
1409.000000	0.004246
1408.000000	0.004242
1407.000000	0.004245
1406.000000	0.004246
1405.000000	0.004237
1404.000000	0.004230
1403.000000	0.004234
1402.000000	0.004230
1401.000000	0.004202
1400.000000	0.004159
1399.000000	0.004125
1398.000000	0.004105
1397.000000	0.004089
1396.000000	0.004086
1395.000000	0.004107
1394.000000	0.004124
1393.000000	0.004088
1392.000000	0.004015
1391.000000	0.003947
1390.000000	0.003900
1389.000000	0.003865
1388.000000	0.003834
1387.000000	0.003802
1386.000000	0.003758
1385.000000	0.003689
1384.000000	0.003597
1383.000000	0.003507
1382.000000	0.003441
1381.000000	0.003407
1380.000000	0.003386
1379.000000	0.003360
1378.000000	0.003323
1377.000000	0.003284
1376.000000	0.003252
1375.000000	0.003235
1374.000000	0.003223
1373.000000	0.003191
1372.000000	0.003125
1371.000000	0.003048
1370.000000	0.002995
1369.000000	0.002962
1368.000000	0.002916
1367.000000	0.002850
1366.000000	0.002787
1365.000000	0.002753
1364.000000	0.002746
1363.000000	0.002736
1362.000000	0.002704
1361.000000	0.002651
1360.000000	0.002584
1359.000000	0.002516
1358.000000	0.002463
1357.000000	0.002432
1356.000000	0.002414
1355.000000	0.002390
1354.000000	0.002357
1353.000000	0.002323
1352.000000	0.002290
1351.000000	0.002252
1350.000000	0.002214
1349.000000	0.002180
1348.000000	0.002148
1347.000000	0.002113
1346.000000	0.002083
1345.000000	0.002067
1344.000000	0.002059
1343.000000	0.002048
1342.000000	0.002028
1341.000000	0.001998
1340.000000	0.001954
1339.000000	0.001909
1338.000000	0.001873
1337.000000	0.001845
1336.000000	0.001814
1335.000000	0.001775
1334.000000	0.001740
1333.000000	0.001721
1332.000000	0.001722
1331.000000	0.001731
1330.000000	0.001740
1329.000000	0.001745
1328.000000	0.001743
1327.000000	0.001731
1326.000000	0.001711
1325.000000	0.001682
1324.000000	0.001648
1323.000000	0.001620
1322.000000	0.001607
1321.000000	0.001599
1320.000000	0.001584
1319.000000	0.001563
1318.000000	0.001542
1317.000000	0.001519
1316.000000	0.001492
1315.000000	0.001469
1314.000000	0.001459
1313.000000	0.001455
1312.000000	0.001444
1311.000000	0.001420
1310.000000	0.001395
1309.000000	0.001378
1308.000000	0.001365
1307.000000	0.001348
1306.000000	0.001323
1305.000000	0.001290
1304.000000	0.001257
1303.000000	0.001231
1302.000000	0.001208
1301.000000	0.001176
1300.000000	0.001133
1299.000000	0.001092
1298.000000	0.001064
1297.000000	0.001037
1296.000000	0.000991
1295.000000	0.000933
1294.000000	0.000886
1293.000000	0.000866
1292.000000	0.000857
1291.000000	0.000835
1290.000000	0.000790
1289.000000	0.000737
1288.000000	0.000692
1287.000000	0.000664
1286.000000	0.000651
1285.000000	0.000642
1284.000000	0.000630
1283.000000	0.000611
1282.000000	0.000586
1281.000000	0.000552
1280.000000	0.000512
1279.000000	0.000474
1278.000000	0.000446
1277.000000	0.000423
1276.000000	0.000400
1275.000000	0.000376
1274.000000	0.000356
1273.000000	0.000344
1272.000000	0.000335
1271.000000	0.000330
1270.000000	0.000331
1269.000000	0.000339
1268.000000	0.000352
1267.000000	0.000368
1266.000000	0.000381
1265.000000	0.000377
1264.000000	0.000353
1263.000000	0.000323
1262.000000	0.000312
1261.000000	0.000333
1260.000000	0.000376
1259.000000	0.000419
1258.000000	0.000441
1257.000000	0.000440
1256.000000	0.000425
1255.000000	0.000414
1254.000000	0.000420
1253.000000	0.000437
1252.000000	0.000446
1251.000000	0.000435
1250.000000	0.000408
1249.000000	0.000382
1248.000000	0.000369
1247.000000	0.000372
1246.000000	0.000381
1245.000000	0.000386
1244.000000	0.000381
1243.000000	0.000372
1242.000000	0.000362
1241.000000	0.000351
1240.000000	0.000340
1239.000000	0.000325
1238.000000	0.000307
1237.000000	0.000289
1236.000000	0.000278
1235.000000	0.000277
1234.000000	0.000274
1233.000000	0.000257
1232.000000	0.000226
1231.000000	0.000191
1230.000000	0.000160
1229.000000	0.000128
1228.000000	0.000096
1227.000000	0.000073
1226.000000	0.000060
1225.000000	0.000041
1224.000000	0.000001
1223.000000	-0.000054
1222.000000	-0.000106
1221.000000	-0.000148
1220.000000	-0.000187
1219.000000	-0.000226
1218.000000	-0.000261
1217.000000	-0.000291
1216.000000	-0.000324
1215.000000	-0.000366
1214.000000	-0.000406
1213.000000	-0.000430
1212.000000	-0.000435
1211.000000	-0.000431
1210.000000	-0.000436
1209.000000	-0.000449
1208.000000	-0.000456
1207.000000	-0.000451
1206.000000	-0.000441
1205.000000	-0.000438
1204.000000	-0.000444
1203.000000	-0.000450
1202.000000	-0.000453
1201.000000	-0.000459
1200.000000	-0.000473
1199.000000	-0.000490
1198.000000	-0.000501
1197.000000	-0.000505
1196.000000	-0.000503
1195.000000	-0.000508
1194.000000	-0.000533
1193.000000	-0.000581
1192.000000	-0.000639
1191.000000	-0.000683
1190.000000	-0.000709
1189.000000	-0.000724
1188.000000	-0.000737
1187.000000	-0.000740
1186.000000	-0.000730
1185.000000	-0.000714
1184.000000	-0.000701
1183.000000	-0.000688
1182.000000	-0.000664
1181.000000	-0.000622
1180.000000	-0.000562
1179.000000	-0.000493
1178.000000	-0.000424
1177.000000	-0.000364
1176.000000	-0.000314
1175.000000	-0.000262
1174.000000	-0.000196
1173.000000	-0.000113
1172.000000	-0.000019
1171.000000	0.000075
1170.000000	0.000170
1169.000000	0.000269
1168.000000	0.000372
1167.000000	0.000481
1166.000000	0.000591
1165.000000	0.000704
1164.000000	0.000821
1163.000000	0.000947
1162.000000	0.001080
1161.000000	0.001211
1160.000000	0.001334
1159.000000	0.001450
1158.000000	0.001557
1157.000000	0.001653
1156.000000	0.001738
1155.000000	0.001819
1154.000000	0.001894
1153.000000	0.001949
1152.000000	0.001976
1151.000000	0.001990
1150.000000	0.002012
1149.000000	0.002042
1148.000000	0.002054
1147.000000	0.002035
1146.000000	0.002005
1145.000000	0.001996
1144.000000	0.002008
1143.000000	0.002009
1142.000000	0.001973
1141.000000	0.001914
1140.000000	0.001870
1139.000000	0.001865
1138.000000	0.001886
1137.000000	0.001903
1136.000000	0.001897
1135.000000	0.001877
1134.000000	0.001854
1133.000000	0.001836
1132.000000	0.001826
1131.000000	0.001839
1130.000000	0.001894
1129.000000	0.001987
1128.000000	0.002094
1127.000000	0.002191
1126.000000	0.002269
1125.000000	0.002333
1124.000000	0.002381
1123.000000	0.002407
1122.000000	0.002411
1121.000000	0.002405
1120.000000	0.002413
1119.000000	0.002448
1118.000000	0.002505
1117.000000	0.002563
1116.000000	0.002599
1115.000000	0.002610
1114.000000	0.002613
1113.000000	0.002630
1112.000000	0.002669
1111.000000	0.002729
1110.000000	0.002799
1109.000000	0.002868
1108.000000	0.002925
1107.000000	0.002963
1106.000000	0.002987
1105.000000	0.003006
1104.000000	0.003031
1103.000000	0.003066
1102.000000	0.003115
1101.000000	0.003167
1100.000000	0.003216
1099.000000	0.003263
1098.000000	0.003318
1097.000000	0.003393
1096.000000	0.003485
1095.000000	0.003587
1094.000000	0.003696
1093.000000	0.003808
1092.000000	0.003913
1091.000000	0.004005
1090.000000	0.004086
1089.000000	0.004155
1088.000000	0.004202
1087.000000	0.004223
1086.000000	0.004236
1085.000000	0.004264
1084.000000	0.004317
1083.000000	0.004387
1082.000000	0.004470
1081.000000	0.004570
1080.000000	0.004676
1079.000000	0.004770
1078.000000	0.004835
1077.000000	0.004867
1076.000000	0.004857
1075.000000	0.004803
1074.000000	0.004730
1073.000000	0.004673
1072.000000	0.004646
1071.000000	0.004639
1070.000000	0.004647
1069.000000	0.004682
1068.000000	0.004746
1067.000000	0.004811
1066.000000	0.004847
1065.000000	0.004850
1064.000000	0.004839
1063.000000	0.004828
1062.000000	0.004821
1061.000000	0.004826
1060.000000	0.004850
1059.000000	0.004883
1058.000000	0.004902
1057.000000	0.004902
1056.000000	0.004908
1055.000000	0.004953
1054.000000	0.005038
1053.000000	0.005128
1052.000000	0.005190
1051.000000	0.005225
1050.000000	0.005260
1049.000000	0.005319
1048.000000	0.005392
1047.000000	0.005455
1046.000000	0.005501
1045.000000	0.005545
1044.000000	0.005603
1043.000000	0.005678
1042.000000	0.005761
1041.000000	0.005842
1040.000000	0.005919
1039.000000	0.005997
1038.000000	0.006089
1037.000000	0.006192
1036.000000	0.006277
1035.000000	0.006320
1034.000000	0.006332
1033.000000	0.006352
1032.000000	0.006409
1031.000000	0.006489
1030.000000	0.006565
1029.000000	0.006626
1028.000000	0.006675
1027.000000	0.006715
1026.000000	0.006745
1025.000000	0.006774
1024.000000	0.006813
1023.000000	0.006863
1022.000000	0.006915
1021.000000	0.006957
1020.000000	0.006987
1019.000000	0.007006
1018.000000	0.007012
1017.000000	0.007009
1016.000000	0.007003
1015.000000	0.007007
1014.000000	0.007030
1013.000000	0.007065
1012.000000	0.007087
1011.000000	0.007073
1010.000000	0.007025
1009.000000	0.006970
1008.000000	0.006925
1007.000000	0.006895
1006.000000	0.006884
1005.000000	0.006896
1004.000000	0.006921
1003.000000	0.006934
1002.000000	0.006918
1001.000000	0.006887
1000.000000	0.006864
999.000000	0.006854
998.000000	0.006853
997.000000	0.006857
996.000000	0.006863
995.000000	0.006860
994.000000	0.006839
993.000000	0.006809
992.000000	0.006785
991.000000	0.006768
990.000000	0.006746
989.000000	0.006717
988.000000	0.006695
987.000000	0.006688
986.000000	0.006679
985.000000	0.006642
984.000000	0.006571
983.000000	0.006480
982.000000	0.006386
981.000000	0.006298
980.000000	0.006215
979.000000	0.006135
978.000000	0.006048
977.000000	0.005949
976.000000	0.005843
975.000000	0.005741
974.000000	0.005648
973.000000	0.005551
972.000000	0.005441
971.000000	0.005324
970.000000	0.005216
969.000000	0.005115
968.000000	0.005004
967.000000	0.004874
966.000000	0.004742
965.000000	0.004626
964.000000	0.004519
963.000000	0.004407
962.000000	0.004287
961.000000	0.004176
960.000000	0.004082
959.000000	0.003986
958.000000	0.003872
957.000000	0.003749
956.000000	0.003639
955.000000	0.003551
954.000000	0.003463
953.000000	0.003353
952.000000	0.003226
951.000000	0.003112
950.000000	0.003034
949.000000	0.002982
948.000000	0.002920
947.000000	0.002820
946.000000	0.002689
945.000000	0.002548
944.000000	0.002410
943.000000	0.002283
942.000000	0.002177
941.000000	0.002097
940.000000	0.002030
939.000000	0.001956
938.000000	0.001872
937.000000	0.001801
936.000000	0.001759
935.000000	0.001726
934.000000	0.001672
933.000000	0.001594
932.000000	0.001509
931.000000	0.001430
930.000000	0.001355
929.000000	0.001282
928.000000	0.001224
927.000000	0.001186
926.000000	0.001161
925.000000	0.001139
924.000000	0.001118
923.000000	0.001102
922.000000	0.001086
921.000000	0.001057
920.000000	0.001010
919.000000	0.000951
918.000000	0.000898
917.000000	0.000872
916.000000	0.000873
915.000000	0.000880
914.000000	0.000864
913.000000	0.000819
912.000000	0.000769
911.000000	0.000751
910.000000	0.000781
909.000000	0.000851
908.000000	0.000933
907.000000	0.000999
906.000000	0.001029
905.000000	0.001020
904.000000	0.000984
903.000000	0.000941
902.000000	0.000910
901.000000	0.000899
900.000000	0.000897
899.000000	0.000884
898.000000	0.000839
897.000000	0.000764
896.000000	0.000684
895.000000	0.000627
894.000000	0.000592
893.000000	0.000557
892.000000	0.000499
891.000000	0.000413
890.000000	0.000315
889.000000	0.000222
888.000000	0.000152
887.000000	0.000118
886.000000	0.000112
885.000000	0.000113
884.000000	0.000109
883.000000	0.000115
882.000000	0.000154
881.000000	0.000229
880.000000	0.000318
879.000000	0.000405
878.000000	0.000491
877.000000	0.000574
876.000000	0.000639
875.000000	0.000662
874.000000	0.000631
873.000000	0.000551
872.000000	0.000430
871.000000	0.000286
870.000000	0.000137
869.000000	-0.000009
868.000000	-0.000157
867.000000	-0.000300
866.000000	-0.000412
865.000000	-0.000469
864.000000	-0.000486
863.000000	-0.000502
862.000000	-0.000550
861.000000	-0.000625
860.000000	-0.000695
859.000000	-0.000731
858.000000	-0.000724
857.000000	-0.000694
856.000000	-0.000673
855.000000	-0.000675
854.000000	-0.000691
853.000000	-0.000704
852.000000	-0.000715
851.000000	-0.000725
850.000000	-0.000728
849.000000	-0.000716
848.000000	-0.000699
847.000000	-0.000697
846.000000	-0.000711
845.000000	-0.000722
844.000000	-0.000716
843.000000	-0.000690
842.000000	-0.000643
841.000000	-0.000567
840.000000	-0.000468
839.000000	-0.000374
838.000000	-0.000312
837.000000	-0.000285
836.000000	-0.000281
835.000000	-0.000286
834.000000	-0.000300
833.000000	-0.000327
832.000000	-0.000374
831.000000	-0.000444
830.000000	-0.000523
829.000000	-0.000594
828.000000	-0.000647
827.000000	-0.000685
826.000000	-0.000707
825.000000	-0.000707
824.000000	-0.000687
823.000000	-0.000672
822.000000	-0.000681
821.000000	-0.000714
820.000000	-0.000752
819.000000	-0.000776
818.000000	-0.000776
817.000000	-0.000750
816.000000	-0.000712
815.000000	-0.000683
814.000000	-0.000664
813.000000	-0.000642
812.000000	-0.000604
811.000000	-0.000563
810.000000	-0.000541
809.000000	-0.000554
808.000000	-0.000600
807.000000	-0.000660
806.000000	-0.000706
805.000000	-0.000719
804.000000	-0.000715
803.000000	-0.000728
802.000000	-0.000763
801.000000	-0.000781
800.000000	-0.000740
799.000000	-0.000650
798.000000	-0.000563
797.000000	-0.000517
796.000000	-0.000505
795.000000	-0.000488
794.000000	-0.000443
793.000000	-0.000370
792.000000	-0.000288
791.000000	-0.000226
790.000000	-0.000202
789.000000	-0.000219
788.000000	-0.000264
787.000000	-0.000321
786.000000	-0.000371
785.000000	-0.000394
784.000000	-0.000379
783.000000	-0.000341
782.000000	-0.000298
781.000000	-0.000253
780.000000	-0.000197
779.000000	-0.000139
778.000000	-0.000115
777.000000	-0.000148
776.000000	-0.000214
775.000000	-0.000267
774.000000	-0.000284
773.000000	-0.000284
772.000000	-0.000297
771.000000	-0.000329
770.000000	-0.000369
769.000000	-0.000394
768.000000	-0.000397
767.000000	-0.000389
766.000000	-0.000403
765.000000	-0.000465
764.000000	-0.000564
763.000000	-0.000652
762.000000	-0.000693
761.000000	-0.000692
760.000000	-0.000673
759.000000	-0.000641
758.000000	-0.000589
757.000000	-0.000534
756.000000	-0.000510
755.000000	-0.000525
754.000000	-0.000547
753.000000	-0.000544
752.000000	-0.000520
751.000000	-0.000495
750.000000	-0.000487
749.000000	-0.000508
748.000000	-0.000568
747.000000	-0.000658
746.000000	-0.000730
745.000000	-0.000739
744.000000	-0.000693
743.000000	-0.000640
742.000000	-0.000617
741.000000	-0.000622
740.000000	-0.000644
739.000000	-0.000680
738.000000	-0.000722
737.000000	-0.000748
736.000000	-0.000744
735.000000	-0.000720
734.000000	-0.000701
733.000000	-0.000697
732.000000	-0.000701
731.000000	-0.000710
730.000000	-0.000718
729.000000	-0.000710
728.000000	-0.000679
727.000000	-0.000644
726.000000	-0.000638
725.000000	-0.000674
724.000000	-0.000733
723.000000	-0.000782
722.000000	-0.000795
721.000000	-0.000761
720.000000	-0.000700
719.000000	-0.000656
718.000000	-0.000654
717.000000	-0.000668
716.000000	-0.000648
715.000000	-0.000592
714.000000	-0.000553
713.000000	-0.000579
712.000000	-0.000640
711.000000	-0.000660
710.000000	-0.000607
709.000000	-0.000531
708.000000	-0.000499
707.000000	-0.000520
706.000000	-0.000553
705.000000	-0.000567
704.000000	-0.000573
703.000000	-0.000585
702.000000	-0.000589
701.000000	-0.000566
700.000000	-0.000532
699.000000	-0.000519
698.000000	-0.000532
697.000000	-0.000539
696.000000	-0.000516
695.000000	-0.000467
694.000000	-0.000412
693.000000	-0.000364
692.000000	-0.000316
691.000000	-0.000261
690.000000	-0.000206
689.000000	-0.000159
688.000000	-0.000117
687.000000	-0.000046
686.000000	0.000099
685.000000	0.000342
684.000000	0.000659
683.000000	0.000977
682.000000	0.001214
681.000000	0.001333
680.000000	0.001367
679.000000	0.001371
678.000000	0.001350
677.000000	0.001273
676.000000	0.001132
675.000000	0.000957
674.000000	0.000781
673.000000	0.000604
672.000000	0.000387
671.000000	0.000088
670.000000	-0.000304
669.000000	-0.000716
668.000000	-0.000895
667.000000	-0.000612
666.000000	-0.000268
665.000000	-0.000079
664.000000	0.000056
663.000000	0.000156
662.000000	0.000174
661.000000	0.000112
660.000000	0.000040
659.000000	0.000016
658.000000	0.000030
657.000000	0.000051
656.000000	0.000050
655.000000	0.000005
654.000000	-0.000076
653.000000	-0.000151
652.000000	-0.000208
651.000000	-0.000268
650.000000	-0.000334
649.000000	-0.000372
648.000000	-0.000363
647.000000	-0.000330
646.000000	-0.000292
645.000000	-0.000249
644.000000	-0.000221
643.000000	-0.000245
642.000000	-0.000303
641.000000	-0.000334
640.000000	-0.000307
639.000000	-0.000265
638.000000	-0.000241
637.000000	-0.000215
636.000000	-0.000174
635.000000	-0.000147
634.000000	-0.000158
633.000000	-0.000181
632.000000	-0.000197
631.000000	-0.000235
630.000000	-0.000323
629.000000	-0.000429
628.000000	-0.000483
627.000000	-0.000454
626.000000	-0.000374
625.000000	-0.000302
624.000000	-0.000299
623.000000	-0.000379
622.000000	-0.000475
621.000000	-0.000501
620.000000	-0.000440
619.000000	-0.000374
618.000000	-0.000383
617.000000	-0.000462
616.000000	-0.000543
615.000000	-0.000575
614.000000	-0.000533
613.000000	-0.000412
612.000000	-0.000246
611.000000	-0.000117
610.000000	-0.000090
609.000000	-0.000134
608.000000	-0.000166
607.000000	-0.000134
606.000000	-0.000049
605.000000	0.000048
604.000000	0.000109
603.000000	0.000097
602.000000	0.000031
601.000000	-0.000019
600.000000	0.000005
599.000000	0.000084
598.000000	0.000152
597.000000	0.000175
596.000000	0.000181
595.000000	0.000211
594.000000	0.000265
593.000000	0.000311
592.000000	0.000320
591.000000	0.000291
590.000000	0.000253
589.000000	0.000222
588.000000	0.000188
587.000000	0.000131
586.000000	0.000047
585.000000	-0.000041
584.000000	-0.000119
583.000000	-0.000185
582.000000	-0.000241
581.000000	-0.000285
580.000000	-0.000317
579.000000	-0.000343
578.000000	-0.000382
577.000000	-0.000454
576.000000	-0.000546
575.000000	-0.000596
574.000000	-0.000537
573.000000	-0.000387
572.000000	-0.000240
571.000000	-0.000174
570.000000	-0.000176
569.000000	-0.000183
568.000000	-0.000186
567.000000	-0.000223
566.000000	-0.000289
565.000000	-0.000328
564.000000	-0.000317
563.000000	-0.000299
562.000000	-0.000312
561.000000	-0.000324
560.000000	-0.000286
559.000000	-0.000206
558.000000	-0.000133
557.000000	-0.000085
556.000000	-0.000055
555.000000	-0.000048
554.000000	-0.000074
553.000000	-0.000101
552.000000	-0.000075
551.000000	0.000021
550.000000	0.000147
549.000000	0.000245
548.000000	0.000268
547.000000	0.000209
546.000000	0.000128
545.000000	0.000117
544.000000	0.000209
543.000000	0.000324
542.000000	0.000354
541.000000	0.000291
540.000000	0.000240
539.000000	0.000288
538.000000	0.000399
537.000000	0.000457
536.000000	0.000396
535.000000	0.000269
534.000000	0.000184
533.000000	0.000185
532.000000	0.000191
531.000000	0.000102
530.000000	-0.000053
529.000000	-0.000134
528.000000	-0.000073
527.000000	0.000044
526.000000	0.000093
525.000000	0.000087
524.000000	0.000149
523.000000	0.000328
522.000000	0.000528
521.000000	0.000606
520.000000	0.000484
519.000000	0.000194
518.000000	-0.000140
517.000000	-0.000359
516.000000	-0.000379
515.000000	-0.000246
514.000000	-0.000068
513.000000	0.000082
512.000000	0.000179
511.000000	0.000210
510.000000	0.000170
509.000000	0.000093
508.000000	0.000008
507.000000	-0.000079
506.000000	-0.000179
505.000000	-0.000296
504.000000	-0.000430
503.000000	-0.000559
502.000000	-0.000625
501.000000	-0.000578
500.000000	-0.000466
499.000000	-0.000377
498.000000	-0.000347
497.000000	-0.000358
496.000000	-0.000405
495.000000	-0.000503
494.000000	-0.000611
493.000000	-0.000659
492.000000	-0.000665
491.000000	-0.000705
490.000000	-0.000756
489.000000	-0.000693
488.000000	-0.000515
487.000000	-0.000423
486.000000	-0.000584
485.000000	-0.000881
484.000000	-0.001012
483.000000	-0.000840
482.000000	-0.000543
481.000000	-0.000424
480.000000	-0.000612
479.000000	-0.000953
478.000000	-0.001169
477.000000	-0.001102
476.000000	-0.000823
475.000000	-0.000508
474.000000	-0.000267
473.000000	-0.000127
472.000000	-0.000131
471.000000	-0.000317
470.000000	-0.000643
469.000000	-0.000990
468.000000	-0.001228
467.000000	-0.001273
466.000000	-0.001108
465.000000	-0.000780
464.000000	-0.000389
463.000000	-0.000077
462.000000	0.000058
461.000000	0.000002
460.000000	-0.000201
459.000000	-0.000505
458.000000	-0.000812
457.000000	-0.000960
456.000000	-0.000897
455.000000	-0.000745
454.000000	-0.000628
453.000000	-0.000574
452.000000	-0.000593
451.000000	-0.000701
450.000000	-0.000890
