PE IR       SUBTECH     SPECTRUM    ASCII       PEDS        4.00        
   -1
P3-Bleu022_1.ASC
23/06/13
11:33:39.00
23/06/13
12:04:49.00
uco
Sample 022 By uco Date Tuesday, June 13 2023
450.000000
#HDR
-1
-1
#GR
cm-1
A
1.0
0.0
4000.000000
-1.000000
3551
8
0.034959
-0.000649
#DATA
4000.000000	-0.000243
3999.000000	-0.000247
3998.000000	-0.000250
3997.000000	-0.000248
3996.000000	-0.000237
3995.000000	-0.000220
3994.000000	-0.000204
3993.000000	-0.000197
3992.000000	-0.000201
3991.000000	-0.000211
3990.000000	-0.000221
3989.000000	-0.000228
3988.000000	-0.000232
3987.000000	-0.000234
3986.000000	-0.000235
3985.000000	-0.000234
3984.000000	-0.000229
3983.000000	-0.000220
3982.000000	-0.000205
3981.000000	-0.000191
3980.000000	-0.000185
3979.000000	-0.000192
3978.000000	-0.000210
3977.000000	-0.000228
3976.000000	-0.000234
3975.000000	-0.000225
3974.000000	-0.000206
3973.000000	-0.000189
3972.000000	-0.000183
3971.000000	-0.000189
3970.000000	-0.000201
3969.000000	-0.000212
3968.000000	-0.000213
3967.000000	-0.000197
3966.000000	-0.000165
3965.000000	-0.000122
3964.000000	-0.000085
3963.000000	-0.000071
3962.000000	-0.000086
3961.000000	-0.000124
3960.000000	-0.000169
3959.000000	-0.000204
3958.000000	-0.000221
3957.000000	-0.000219
3956.000000	-0.000203
3955.000000	-0.000185
3954.000000	-0.000174
3953.000000	-0.000173
3952.000000	-0.000176
3951.000000	-0.000176
3950.000000	-0.000174
3949.000000	-0.000180
3948.000000	-0.000197
3947.000000	-0.000218
3946.000000	-0.000227
3945.000000	-0.000214
3944.000000	-0.000182
3943.000000	-0.000150
3942.000000	-0.000132
3941.000000	-0.000132
3940.000000	-0.000144
3939.000000	-0.000158
3938.000000	-0.000170
3937.000000	-0.000182
3936.000000	-0.000190
3935.000000	-0.000189
3934.000000	-0.000168
3933.000000	-0.000130
3932.000000	-0.000092
3931.000000	-0.000075
3930.000000	-0.000086
3929.000000	-0.000112
3928.000000	-0.000134
3927.000000	-0.000138
3926.000000	-0.000130
3925.000000	-0.000119
3924.000000	-0.000109
3923.000000	-0.000104
3922.000000	-0.000104
3921.000000	-0.000119
3920.000000	-0.000149
3919.000000	-0.000187
3918.000000	-0.000214
3917.000000	-0.000215
3916.000000	-0.000191
3915.000000	-0.000157
3914.000000	-0.000127
3913.000000	-0.000108
3912.000000	-0.000096
3911.000000	-0.000083
3910.000000	-0.000062
3909.000000	-0.000032
3908.000000	0.000002
3907.000000	0.000026
3906.000000	0.000024
3905.000000	-0.000015
3904.000000	-0.000082
3903.000000	-0.000148
3902.000000	-0.000184
3901.000000	-0.000180
3900.000000	-0.000146
3899.000000	-0.000101
3898.000000	-0.000065
3897.000000	-0.000050
3896.000000	-0.000059
3895.000000	-0.000083
3894.000000	-0.000112
3893.000000	-0.000136
3892.000000	-0.000151
3891.000000	-0.000152
3890.000000	-0.000143
3889.000000	-0.000136
3888.000000	-0.000138
3887.000000	-0.000146
3886.000000	-0.000150
3885.000000	-0.000147
3884.000000	-0.000143
3883.000000	-0.000140
3882.000000	-0.000138
3881.000000	-0.000141
3880.000000	-0.000151
3879.000000	-0.000162
3878.000000	-0.000167
3877.000000	-0.000161
3876.000000	-0.000146
3875.000000	-0.000123
3874.000000	-0.000103
3873.000000	-0.000098
3872.000000	-0.000115
3871.000000	-0.000146
3870.000000	-0.000171
3869.000000	-0.000171
3868.000000	-0.000144
3867.000000	-0.000105
3866.000000	-0.000062
3865.000000	-0.000029
3864.000000	-0.000024
3863.000000	-0.000057
3862.000000	-0.000110
3861.000000	-0.000161
3860.000000	-0.000194
3859.000000	-0.000201
3858.000000	-0.000174
3857.000000	-0.000117
3856.000000	-0.000054
3855.000000	-0.000015
3854.000000	-0.000029
3853.000000	-0.000080
3852.000000	-0.000124
3851.000000	-0.000150
3850.000000	-0.000167
3849.000000	-0.000172
3848.000000	-0.000163
3847.000000	-0.000147
3846.000000	-0.000129
3845.000000	-0.000111
3844.000000	-0.000099
3843.000000	-0.000097
3842.000000	-0.000110
3841.000000	-0.000133
3840.000000	-0.000153
3839.000000	-0.000159
3838.000000	-0.000150
3837.000000	-0.000134
3836.000000	-0.000121
3835.000000	-0.000118
3834.000000	-0.000121
3833.000000	-0.000122
3832.000000	-0.000119
3831.000000	-0.000119
3830.000000	-0.000131
3829.000000	-0.000154
3828.000000	-0.000177
3827.000000	-0.000187
3826.000000	-0.000186
3825.000000	-0.000186
3824.000000	-0.000199
3823.000000	-0.000213
3822.000000	-0.000205
3821.000000	-0.000172
3820.000000	-0.000131
3819.000000	-0.000108
3818.000000	-0.000106
3817.000000	-0.000113
3816.000000	-0.000103
3815.000000	-0.000073
3814.000000	-0.000042
3813.000000	-0.000030
3812.000000	-0.000039
3811.000000	-0.000067
3810.000000	-0.000111
3809.000000	-0.000164
3808.000000	-0.000203
3807.000000	-0.000212
3806.000000	-0.000199
3805.000000	-0.000188
3804.000000	-0.000192
3803.000000	-0.000193
3802.000000	-0.000167
3801.000000	-0.000109
3800.000000	-0.000048
3799.000000	-0.000018
3798.000000	-0.000023
3797.000000	-0.000048
3796.000000	-0.000075
3795.000000	-0.000094
3794.000000	-0.000108
3793.000000	-0.000119
3792.000000	-0.000123
3791.000000	-0.000114
3790.000000	-0.000087
3789.000000	-0.000051
3788.000000	-0.000016
3787.000000	0.000006
3786.000000	0.000008
3785.000000	-0.000004
3784.000000	-0.000018
3783.000000	-0.000029
3782.000000	-0.000044
3781.000000	-0.000066
3780.000000	-0.000091
3779.000000	-0.000108
3778.000000	-0.000111
3777.000000	-0.000104
3776.000000	-0.000097
3775.000000	-0.000091
3774.000000	-0.000089
3773.000000	-0.000096
3772.000000	-0.000117
3771.000000	-0.000144
3770.000000	-0.000162
3769.000000	-0.000165
3768.000000	-0.000155
3767.000000	-0.000140
3766.000000	-0.000121
3765.000000	-0.000095
3764.000000	-0.000072
3763.000000	-0.000061
3762.000000	-0.000061
3761.000000	-0.000064
3760.000000	-0.000067
3759.000000	-0.000079
3758.000000	-0.000104
3757.000000	-0.000135
3756.000000	-0.000160
3755.000000	-0.000176
3754.000000	-0.000188
3753.000000	-0.000205
3752.000000	-0.000233
3751.000000	-0.000260
3750.000000	-0.000262
3749.000000	-0.000234
3748.000000	-0.000206
3747.000000	-0.000201
3746.000000	-0.000210
3745.000000	-0.000197
3744.000000	-0.000143
3743.000000	-0.000094
3742.000000	-0.000103
3741.000000	-0.000164
3740.000000	-0.000235
3739.000000	-0.000289
3738.000000	-0.000314
3737.000000	-0.000307
3736.000000	-0.000271
3735.000000	-0.000226
3734.000000	-0.000200
3733.000000	-0.000197
3732.000000	-0.000201
3731.000000	-0.000200
3730.000000	-0.000195
3729.000000	-0.000188
3728.000000	-0.000175
3727.000000	-0.000159
3726.000000	-0.000150
3725.000000	-0.000162
3724.000000	-0.000187
3723.000000	-0.000202
3722.000000	-0.000190
3721.000000	-0.000153
3720.000000	-0.000108
3719.000000	-0.000077
3718.000000	-0.000065
3717.000000	-0.000066
3716.000000	-0.000070
3715.000000	-0.000074
3714.000000	-0.000077
3713.000000	-0.000084
3712.000000	-0.000094
3711.000000	-0.000107
3710.000000	-0.000119
3709.000000	-0.000127
3708.000000	-0.000126
3707.000000	-0.000111
3706.000000	-0.000086
3705.000000	-0.000065
3704.000000	-0.000058
3703.000000	-0.000066
3702.000000	-0.000073
3701.000000	-0.000061
3700.000000	-0.000027
3699.000000	0.000010
3698.000000	0.000036
3697.000000	0.000045
3696.000000	0.000041
3695.000000	0.000030
3694.000000	0.000018
3693.000000	0.000014
3692.000000	0.000017
3691.000000	0.000015
3690.000000	-0.000002
3689.000000	-0.000020
3688.000000	-0.000017
3687.000000	-0.000003
3686.000000	-0.000001
3685.000000	-0.000009
3684.000000	-0.000008
3683.000000	0.000010
3682.000000	0.000032
3681.000000	0.000044
3680.000000	0.000041
3679.000000	0.000031
3678.000000	0.000020
3677.000000	0.000018
3676.000000	0.000032
3675.000000	0.000056
3674.000000	0.000075
3673.000000	0.000080
3672.000000	0.000080
3671.000000	0.000097
3670.000000	0.000143
3669.000000	0.000197
3668.000000	0.000234
3667.000000	0.000246
3666.000000	0.000246
3665.000000	0.000256
3664.000000	0.000288
3663.000000	0.000341
3662.000000	0.000397
3661.000000	0.000438
3660.000000	0.000453
3659.000000	0.000448
3658.000000	0.000435
3657.000000	0.000426
3656.000000	0.000425
3655.000000	0.000427
3654.000000	0.000421
3653.000000	0.000410
3652.000000	0.000402
3651.000000	0.000401
3650.000000	0.000396
3649.000000	0.000388
3648.000000	0.000411
3647.000000	0.000476
3646.000000	0.000559
3645.000000	0.000631
3644.000000	0.000684
3643.000000	0.000721
3642.000000	0.000752
3641.000000	0.000777
3640.000000	0.000796
3639.000000	0.000811
3638.000000	0.000830
3637.000000	0.000855
3636.000000	0.000883
3635.000000	0.000906
3634.000000	0.000919
3633.000000	0.000919
3632.000000	0.000911
3631.000000	0.000902
3630.000000	0.000911
3629.000000	0.000950
3628.000000	0.001007
3627.000000	0.001058
3626.000000	0.001092
3625.000000	0.001123
3624.000000	0.001171
3623.000000	0.001235
3622.000000	0.001301
3621.000000	0.001348
3620.000000	0.001370
3619.000000	0.001380
3618.000000	0.001397
3617.000000	0.001429
3616.000000	0.001467
3615.000000	0.001501
3614.000000	0.001527
3613.000000	0.001541
3612.000000	0.001546
3611.000000	0.001553
3610.000000	0.001580
3609.000000	0.001637
3608.000000	0.001712
3607.000000	0.001778
3606.000000	0.001820
3605.000000	0.001842
3604.000000	0.001858
3603.000000	0.001883
3602.000000	0.001921
3601.000000	0.001973
3600.000000	0.002032
3599.000000	0.002093
3598.000000	0.002156
3597.000000	0.002230
3596.000000	0.002313
3595.000000	0.002391
3594.000000	0.002450
3593.000000	0.002484
3592.000000	0.002501
3591.000000	0.002515
3590.000000	0.002532
3589.000000	0.002558
3588.000000	0.002590
3587.000000	0.002627
3586.000000	0.002671
3585.000000	0.002730
3584.000000	0.002806
3583.000000	0.002891
3582.000000	0.002968
3581.000000	0.003028
3580.000000	0.003074
3579.000000	0.003118
3578.000000	0.003171
3577.000000	0.003231
3576.000000	0.003292
3575.000000	0.003355
3574.000000	0.003425
3573.000000	0.003504
3572.000000	0.003586
3571.000000	0.003662
3570.000000	0.003735
3569.000000	0.003811
3568.000000	0.003891
3567.000000	0.003968
3566.000000	0.004031
3565.000000	0.004074
3564.000000	0.004099
3563.000000	0.004117
3562.000000	0.004139
3561.000000	0.004174
3560.000000	0.004221
3559.000000	0.004275
3558.000000	0.004328
3557.000000	0.004378
3556.000000	0.004424
3555.000000	0.004470
3554.000000	0.004526
3553.000000	0.004598
3552.000000	0.004681
3551.000000	0.004766
3550.000000	0.004848
3549.000000	0.004931
3548.000000	0.005022
3547.000000	0.005117
3546.000000	0.005200
3545.000000	0.005262
3544.000000	0.005308
3543.000000	0.005351
3542.000000	0.005399
3541.000000	0.005449
3540.000000	0.005498
3539.000000	0.005544
3538.000000	0.005593
3537.000000	0.005645
3536.000000	0.005701
3535.000000	0.005762
3534.000000	0.005827
3533.000000	0.005896
3532.000000	0.005963
3531.000000	0.006025
3530.000000	0.006081
3529.000000	0.006127
3528.000000	0.006165
3527.000000	0.006200
3526.000000	0.006238
3525.000000	0.006284
3524.000000	0.006340
3523.000000	0.006402
3522.000000	0.006465
3521.000000	0.006520
3520.000000	0.006568
3519.000000	0.006612
3518.000000	0.006661
3517.000000	0.006714
3516.000000	0.006760
3515.000000	0.006796
3514.000000	0.006825
3513.000000	0.006864
3512.000000	0.006918
3511.000000	0.006983
3510.000000	0.007043
3509.000000	0.007084
3508.000000	0.007109
3507.000000	0.007128
3506.000000	0.007152
3505.000000	0.007184
3504.000000	0.007225
3503.000000	0.007278
3502.000000	0.007345
3501.000000	0.007422
3500.000000	0.007499
3499.000000	0.007570
3498.000000	0.007636
3497.000000	0.007702
3496.000000	0.007771
3495.000000	0.007835
3494.000000	0.007888
3493.000000	0.007927
3492.000000	0.007959
3491.000000	0.007995
3490.000000	0.008044
3489.000000	0.008102
3488.000000	0.008157
3487.000000	0.008199
3486.000000	0.008235
3485.000000	0.008274
3484.000000	0.008323
3483.000000	0.008378
3482.000000	0.008434
3481.000000	0.008487
3480.000000	0.008534
3479.000000	0.008575
3478.000000	0.008609
3477.000000	0.008643
3476.000000	0.008692
3475.000000	0.008762
3474.000000	0.008845
3473.000000	0.008922
3472.000000	0.008978
3471.000000	0.009015
3470.000000	0.009047
3469.000000	0.009090
3468.000000	0.009142
3467.000000	0.009192
3466.000000	0.009230
3465.000000	0.009257
3464.000000	0.009282
3463.000000	0.009313
3462.000000	0.009342
3461.000000	0.009363
3460.000000	0.009379
3459.000000	0.009405
3458.000000	0.009455
3457.000000	0.009529
3456.000000	0.009606
3455.000000	0.009668
3454.000000	0.009708
3453.000000	0.009737
3452.000000	0.009774
3451.000000	0.009826
3450.000000	0.009892
3449.000000	0.009956
3448.000000	0.010009
3447.000000	0.010047
3446.000000	0.010079
3445.000000	0.010117
3444.000000	0.010167
3443.000000	0.010229
3442.000000	0.010299
3441.000000	0.010366
3440.000000	0.010420
3439.000000	0.010460
3438.000000	0.010489
3437.000000	0.010511
3436.000000	0.010529
3435.000000	0.010547
3434.000000	0.010571
3433.000000	0.010608
3432.000000	0.010655
3431.000000	0.010706
3430.000000	0.010756
3429.000000	0.010803
3428.000000	0.010851
3427.000000	0.010899
3426.000000	0.010946
3425.000000	0.010986
3424.000000	0.011014
3423.000000	0.011036
3422.000000	0.011067
3421.000000	0.011115
3420.000000	0.011176
3419.000000	0.011238
3418.000000	0.011294
3417.000000	0.011347
3416.000000	0.011396
3415.000000	0.011439
3414.000000	0.011473
3413.000000	0.011503
3412.000000	0.011533
3411.000000	0.011570
3410.000000	0.011614
3409.000000	0.011661
3408.000000	0.011710
3407.000000	0.011760
3406.000000	0.011807
3405.000000	0.011839
3404.000000	0.011851
3403.000000	0.011847
3402.000000	0.011846
3401.000000	0.011864
3400.000000	0.011906
3399.000000	0.011970
3398.000000	0.012046
3397.000000	0.012118
3396.000000	0.012172
3395.000000	0.012203
3394.000000	0.012220
3393.000000	0.012235
3392.000000	0.012251
3391.000000	0.012264
3390.000000	0.012276
3389.000000	0.012291
3388.000000	0.012316
3387.000000	0.012350
3386.000000	0.012392
3385.000000	0.012440
3384.000000	0.012497
3383.000000	0.012563
3382.000000	0.012630
3381.000000	0.012683
3380.000000	0.012716
3379.000000	0.012731
3378.000000	0.012739
3377.000000	0.012753
3376.000000	0.012773
3375.000000	0.012800
3374.000000	0.012834
3373.000000	0.012876
3372.000000	0.012920
3371.000000	0.012956
3370.000000	0.012981
3369.000000	0.012998
3368.000000	0.013014
3367.000000	0.013031
3366.000000	0.013047
3365.000000	0.013062
3364.000000	0.013075
3363.000000	0.013089
3362.000000	0.013107
3361.000000	0.013132
3360.000000	0.013165
3359.000000	0.013203
3358.000000	0.013239
3357.000000	0.013270
3356.000000	0.013300
3355.000000	0.013336
3354.000000	0.013376
3353.000000	0.013412
3352.000000	0.013439
3351.000000	0.013457
3350.000000	0.013475
3349.000000	0.013498
3348.000000	0.013524
3347.000000	0.013546
3346.000000	0.013554
3345.000000	0.013551
3344.000000	0.013549
3343.000000	0.013564
3342.000000	0.013600
3341.000000	0.013643
3340.000000	0.013671
3339.000000	0.013674
3338.000000	0.013662
3337.000000	0.013657
3336.000000	0.013676
3335.000000	0.013719
3334.000000	0.013773
3333.000000	0.013821
3332.000000	0.013855
3331.000000	0.013877
3330.000000	0.013900
3329.000000	0.013926
3328.000000	0.013945
3327.000000	0.013951
3326.000000	0.013946
3325.000000	0.013941
3324.000000	0.013945
3323.000000	0.013957
3322.000000	0.013973
3321.000000	0.013988
3320.000000	0.014009
3319.000000	0.014043
3318.000000	0.014092
3317.000000	0.014145
3316.000000	0.014189
3315.000000	0.014219
3314.000000	0.014242
3313.000000	0.014261
3312.000000	0.014274
3311.000000	0.014273
3310.000000	0.014253
3309.000000	0.014221
3308.000000	0.014194
3307.000000	0.014190
3306.000000	0.014218
3305.000000	0.014269
3304.000000	0.014323
3303.000000	0.014358
3302.000000	0.014365
3301.000000	0.014351
3300.000000	0.014325
3299.000000	0.014298
3298.000000	0.014281
3297.000000	0.014282
3296.000000	0.014300
3295.000000	0.014328
3294.000000	0.014353
3293.000000	0.014367
3292.000000	0.014373
3291.000000	0.014379
3290.000000	0.014391
3289.000000	0.014405
3288.000000	0.014414
3287.000000	0.014414
3286.000000	0.014409
3285.000000	0.014402
3284.000000	0.014393
3283.000000	0.014381
3282.000000	0.014370
3281.000000	0.014363
3280.000000	0.014359
3279.000000	0.014352
3278.000000	0.014331
3277.000000	0.014295
3276.000000	0.014246
3275.000000	0.014196
3274.000000	0.014154
3273.000000	0.014127
3272.000000	0.014121
3271.000000	0.014136
3270.000000	0.014166
3269.000000	0.014197
3268.000000	0.014217
3267.000000	0.014221
3266.000000	0.014214
3265.000000	0.014198
3264.000000	0.014174
3263.000000	0.014142
3262.000000	0.014107
3261.000000	0.014068
3260.000000	0.014031
3259.000000	0.014002
3258.000000	0.013986
3257.000000	0.013982
3256.000000	0.013976
3255.000000	0.013962
3254.000000	0.013944
3253.000000	0.013935
3252.000000	0.013941
3251.000000	0.013952
3250.000000	0.013955
3249.000000	0.013941
3248.000000	0.013911
3247.000000	0.013876
3246.000000	0.013841
3245.000000	0.013811
3244.000000	0.013789
3243.000000	0.013775
3242.000000	0.013764
3241.000000	0.013751
3240.000000	0.013727
3239.000000	0.013694
3238.000000	0.013656
3237.000000	0.013614
3236.000000	0.013566
3235.000000	0.013517
3234.000000	0.013476
3233.000000	0.013450
3232.000000	0.013436
3231.000000	0.013419
3230.000000	0.013392
3229.000000	0.013359
3228.000000	0.013331
3227.000000	0.013312
3226.000000	0.013298
3225.000000	0.013283
3224.000000	0.013261
3223.000000	0.013236
3222.000000	0.013216
3221.000000	0.013203
3220.000000	0.013193
3219.000000	0.013176
3218.000000	0.013150
3217.000000	0.013117
3216.000000	0.013082
3215.000000	0.013048
3214.000000	0.013019
3213.000000	0.012998
3212.000000	0.012985
3211.000000	0.012974
3210.000000	0.012959
3209.000000	0.012938
3208.000000	0.012915
3207.000000	0.012892
3206.000000	0.012867
3205.000000	0.012836
3204.000000	0.012803
3203.000000	0.012774
3202.000000	0.012748
3201.000000	0.012717
3200.000000	0.012678
3199.000000	0.012637
3198.000000	0.012606
3197.000000	0.012586
3196.000000	0.012571
3195.000000	0.012556
3194.000000	0.012540
3193.000000	0.012525
3192.000000	0.012507
3191.000000	0.012482
3190.000000	0.012445
3189.000000	0.012400
3188.000000	0.012349
3187.000000	0.012296
3186.000000	0.012249
3185.000000	0.012216
3184.000000	0.012200
3183.000000	0.012195
3182.000000	0.012187
3181.000000	0.012164
3180.000000	0.012126
3179.000000	0.012080
3178.000000	0.012032
3177.000000	0.011988
3176.000000	0.011946
3175.000000	0.011905
3174.000000	0.011862
3173.000000	0.011814
3172.000000	0.011760
3171.000000	0.011710
3170.000000	0.011670
3169.000000	0.011642
3168.000000	0.011620
3167.000000	0.011597
3166.000000	0.011571
3165.000000	0.011547
3164.000000	0.011528
3163.000000	0.011506
3162.000000	0.011474
3161.000000	0.011428
3160.000000	0.011373
3159.000000	0.011316
3158.000000	0.011261
3157.000000	0.011211
3156.000000	0.011168
3155.000000	0.011138
3154.000000	0.011123
3153.000000	0.011113
3152.000000	0.011088
3151.000000	0.011035
3150.000000	0.010959
3149.000000	0.010883
3148.000000	0.010826
3147.000000	0.010790
3146.000000	0.010763
3145.000000	0.010733
3144.000000	0.010698
3143.000000	0.010660
3142.000000	0.010622
3141.000000	0.010588
3140.000000	0.010556
3139.000000	0.010522
3138.000000	0.010484
3137.000000	0.010440
3136.000000	0.010398
3135.000000	0.010360
3134.000000	0.010320
3133.000000	0.010273
3132.000000	0.010219
3131.000000	0.010167
3130.000000	0.010127
3129.000000	0.010099
3128.000000	0.010079
3127.000000	0.010063
3126.000000	0.010045
3125.000000	0.010018
3124.000000	0.009973
3123.000000	0.009908
3122.000000	0.009828
3121.000000	0.009746
3120.000000	0.009674
3119.000000	0.009624
3118.000000	0.009599
3117.000000	0.009591
3116.000000	0.009589
3115.000000	0.009585
3114.000000	0.009578
3113.000000	0.009569
3112.000000	0.009557
3111.000000	0.009540
3110.000000	0.009519
3109.000000	0.009493
3108.000000	0.009457
3107.000000	0.009411
3106.000000	0.009360
3105.000000	0.009320
3104.000000	0.009292
3103.000000	0.009267
3102.000000	0.009235
3101.000000	0.009202
3100.000000	0.009178
3099.000000	0.009165
3098.000000	0.009148
3097.000000	0.009113
3096.000000	0.009061
3095.000000	0.009009
3094.000000	0.008974
3093.000000	0.008957
3092.000000	0.008946
3091.000000	0.008927
3090.000000	0.008895
3089.000000	0.008853
3088.000000	0.008811
3087.000000	0.008773
3086.000000	0.008734
3085.000000	0.008693
3084.000000	0.008651
3083.000000	0.008617
3082.000000	0.008598
3081.000000	0.008593
3080.000000	0.008594
3079.000000	0.008590
3078.000000	0.008581
3077.000000	0.008572
3076.000000	0.008566
3075.000000	0.008557
3074.000000	0.008534
3073.000000	0.008494
3072.000000	0.008445
3071.000000	0.008399
3070.000000	0.008360
3069.000000	0.008325
3068.000000	0.008292
3067.000000	0.008264
3066.000000	0.008241
3065.000000	0.008213
3064.000000	0.008173
3063.000000	0.008126
3062.000000	0.008084
3061.000000	0.008056
3060.000000	0.008037
3059.000000	0.008018
3058.000000	0.007991
3057.000000	0.007956
3056.000000	0.007918
3055.000000	0.007882
3054.000000	0.007856
3053.000000	0.007841
3052.000000	0.007828
3051.000000	0.007809
3050.000000	0.007780
3049.000000	0.007747
3048.000000	0.007717
3047.000000	0.007688
3046.000000	0.007657
3045.000000	0.007620
3044.000000	0.007573
3043.000000	0.007516
3042.000000	0.007458
3041.000000	0.007414
3040.000000	0.007399
3039.000000	0.007412
3038.000000	0.007430
3037.000000	0.007426
3036.000000	0.007386
3035.000000	0.007322
3034.000000	0.007262
3033.000000	0.007232
3032.000000	0.007240
3031.000000	0.007273
3030.000000	0.007301
3029.000000	0.007300
3028.000000	0.007269
3027.000000	0.007224
3026.000000	0.007184
3025.000000	0.007158
3024.000000	0.007141
3023.000000	0.007119
3022.000000	0.007085
3021.000000	0.007035
3020.000000	0.006982
3019.000000	0.006944
3018.000000	0.006934
3017.000000	0.006951
3016.000000	0.006980
3015.000000	0.007005
3014.000000	0.007017
3013.000000	0.007015
3012.000000	0.007002
3011.000000	0.006983
3010.000000	0.006963
3009.000000	0.006948
3008.000000	0.006945
3007.000000	0.006955
3006.000000	0.006973
3005.000000	0.006987
3004.000000	0.006986
3003.000000	0.006972
3002.000000	0.006950
3001.000000	0.006926
3000.000000	0.006908
2999.000000	0.006901
2998.000000	0.006910
2997.000000	0.006929
2996.000000	0.006954
2995.000000	0.006987
2994.000000	0.007032
2993.000000	0.007088
2992.000000	0.007149
2991.000000	0.007206
2990.000000	0.007249
2989.000000	0.007276
2988.000000	0.007290
2987.000000	0.007297
2986.000000	0.007306
2985.000000	0.007324
2984.000000	0.007356
2983.000000	0.007404
2982.000000	0.007466
2981.000000	0.007533
2980.000000	0.007595
2979.000000	0.007653
2978.000000	0.007715
2977.000000	0.007786
2976.000000	0.007868
2975.000000	0.007958
2974.000000	0.008057
2973.000000	0.008161
2972.000000	0.008261
2971.000000	0.008355
2970.000000	0.008445
2969.000000	0.008530
2968.000000	0.008606
2967.000000	0.008672
2966.000000	0.008742
2965.000000	0.008834
2964.000000	0.008950
2963.000000	0.009074
2962.000000	0.009189
2961.000000	0.009287
2960.000000	0.009373
2959.000000	0.009450
2958.000000	0.009520
2957.000000	0.009582
2956.000000	0.009632
2955.000000	0.009670
2954.000000	0.009704
2953.000000	0.009739
2952.000000	0.009781
2951.000000	0.009824
2950.000000	0.009859
2949.000000	0.009888
2948.000000	0.009922
2947.000000	0.009975
2946.000000	0.010051
2945.000000	0.010149
2944.000000	0.010264
2943.000000	0.010391
2942.000000	0.010521
2941.000000	0.010644
2940.000000	0.010757
2939.000000	0.010867
2938.000000	0.010985
2937.000000	0.011111
2936.000000	0.011233
2935.000000	0.011341
2934.000000	0.011435
2933.000000	0.011518
2932.000000	0.011594
2931.000000	0.011662
2930.000000	0.011723
2929.000000	0.011783
2928.000000	0.011844
2927.000000	0.011909
2926.000000	0.011978
2925.000000	0.012047
2924.000000	0.012112
2923.000000	0.012166
2922.000000	0.012198
2921.000000	0.012199
2920.000000	0.012163
2919.000000	0.012100
2918.000000	0.012024
2917.000000	0.011946
2916.000000	0.011865
2915.000000	0.011774
2914.000000	0.011669
2913.000000	0.011558
2912.000000	0.011450
2911.000000	0.011347
2910.000000	0.011240
2909.000000	0.011123
2908.000000	0.011000
2907.000000	0.010888
2906.000000	0.010798
2905.000000	0.010730
2904.000000	0.010676
2903.000000	0.010632
2902.000000	0.010590
2901.000000	0.010542
2900.000000	0.010482
2899.000000	0.010410
2898.000000	0.010335
2897.000000	0.010263
2896.000000	0.010193
2895.000000	0.010129
2894.000000	0.010073
2893.000000	0.010026
2892.000000	0.009982
2891.000000	0.009937
2890.000000	0.009887
2889.000000	0.009835
2888.000000	0.009784
2887.000000	0.009739
2886.000000	0.009701
2885.000000	0.009667
2884.000000	0.009633
2883.000000	0.009607
2882.000000	0.009599
2881.000000	0.009616
2880.000000	0.009644
2879.000000	0.009664
2878.000000	0.009668
2877.000000	0.009658
2876.000000	0.009644
2875.000000	0.009632
2874.000000	0.009624
2873.000000	0.009619
2872.000000	0.009613
2871.000000	0.009596
2870.000000	0.009564
2869.000000	0.009521
2868.000000	0.009478
2867.000000	0.009443
2866.000000	0.009420
2865.000000	0.009413
2864.000000	0.009420
2863.000000	0.009435
2862.000000	0.009446
2861.000000	0.009448
2860.000000	0.009446
2859.000000	0.009453
2858.000000	0.009478
2857.000000	0.009511
2856.000000	0.009536
2855.000000	0.009547
2854.000000	0.009545
2853.000000	0.009533
2852.000000	0.009508
2851.000000	0.009468
2850.000000	0.009409
2849.000000	0.009331
2848.000000	0.009235
2847.000000	0.009121
2846.000000	0.008989
2845.000000	0.008841
2844.000000	0.008683
2843.000000	0.008526
2842.000000	0.008383
2841.000000	0.008255
2840.000000	0.008140
2839.000000	0.008031
2838.000000	0.007927
2837.000000	0.007832
2836.000000	0.007750
2835.000000	0.007686
2834.000000	0.007636
2833.000000	0.007589
2832.000000	0.007537
2831.000000	0.007478
2830.000000	0.007419
2829.000000	0.007364
2828.000000	0.007314
2827.000000	0.007271
2826.000000	0.007237
2825.000000	0.007209
2824.000000	0.007176
2823.000000	0.007131
2822.000000	0.007080
2821.000000	0.007031
2820.000000	0.006985
2819.000000	0.006941
2818.000000	0.006903
2817.000000	0.006879
2816.000000	0.006872
2815.000000	0.006871
2814.000000	0.006865
2813.000000	0.006841
2812.000000	0.006799
2811.000000	0.006749
2810.000000	0.006707
2809.000000	0.006687
2808.000000	0.006688
2807.000000	0.006694
2806.000000	0.006687
2805.000000	0.006660
2804.000000	0.006621
2803.000000	0.006584
2802.000000	0.006556
2801.000000	0.006530
2800.000000	0.006500
2799.000000	0.006465
2798.000000	0.006435
2797.000000	0.006423
2796.000000	0.006429
2795.000000	0.006448
2794.000000	0.006466
2793.000000	0.006468
2792.000000	0.006446
2791.000000	0.006403
2790.000000	0.006355
2789.000000	0.006318
2788.000000	0.006300
2787.000000	0.006295
2786.000000	0.006296
2785.000000	0.006296
2784.000000	0.006295
2783.000000	0.006292
2782.000000	0.006284
2781.000000	0.006265
2780.000000	0.006234
2779.000000	0.006196
2778.000000	0.006158
2777.000000	0.006126
2776.000000	0.006102
2775.000000	0.006086
2774.000000	0.006078
2773.000000	0.006077
2772.000000	0.006076
2771.000000	0.006068
2770.000000	0.006054
2769.000000	0.006036
2768.000000	0.006017
2767.000000	0.006002
2766.000000	0.005994
2765.000000	0.005990
2764.000000	0.005986
2763.000000	0.005977
2762.000000	0.005971
2761.000000	0.005972
2760.000000	0.005974
2759.000000	0.005969
2758.000000	0.005949
2757.000000	0.005920
2756.000000	0.005890
2755.000000	0.005869
2754.000000	0.005866
2753.000000	0.005883
2752.000000	0.005908
2751.000000	0.005926
2750.000000	0.005929
2749.000000	0.005919
2748.000000	0.005895
2747.000000	0.005854
2746.000000	0.005801
2745.000000	0.005754
2744.000000	0.005732
2743.000000	0.005738
2742.000000	0.005759
2741.000000	0.005773
2740.000000	0.005772
2739.000000	0.005758
2738.000000	0.005745
2737.000000	0.005740
2736.000000	0.005744
2735.000000	0.005753
2734.000000	0.005763
2733.000000	0.005771
2732.000000	0.005777
2731.000000	0.005781
2730.000000	0.005783
2729.000000	0.005780
2728.000000	0.005767
2727.000000	0.005745
2726.000000	0.005721
2725.000000	0.005704
2724.000000	0.005694
2723.000000	0.005687
2722.000000	0.005680
2721.000000	0.005674
2720.000000	0.005670
2719.000000	0.005663
2718.000000	0.005649
2717.000000	0.005629
2716.000000	0.005609
2715.000000	0.005594
2714.000000	0.005584
2713.000000	0.005572
2712.000000	0.005553
2711.000000	0.005527
2710.000000	0.005504
2709.000000	0.005493
2708.000000	0.005493
2707.000000	0.005497
2706.000000	0.005501
2705.000000	0.005504
2704.000000	0.005502
2703.000000	0.005493
2702.000000	0.005480
2701.000000	0.005467
2700.000000	0.005457
2699.000000	0.005446
2698.000000	0.005432
2697.000000	0.005419
2696.000000	0.005410
2695.000000	0.005405
2694.000000	0.005400
2693.000000	0.005392
2692.000000	0.005385
2691.000000	0.005383
2690.000000	0.005386
2689.000000	0.005386
2688.000000	0.005375
2687.000000	0.005352
2686.000000	0.005333
2685.000000	0.005332
2684.000000	0.005347
2683.000000	0.005363
2682.000000	0.005368
2681.000000	0.005362
2680.000000	0.005348
2679.000000	0.005333
2678.000000	0.005321
2677.000000	0.005314
2676.000000	0.005307
2675.000000	0.005294
2674.000000	0.005279
2673.000000	0.005270
2672.000000	0.005272
2671.000000	0.005281
2670.000000	0.005286
2669.000000	0.005285
2668.000000	0.005281
2667.000000	0.005276
2666.000000	0.005274
2665.000000	0.005271
2664.000000	0.005268
2663.000000	0.005262
2662.000000	0.005259
2661.000000	0.005264
2660.000000	0.005276
2659.000000	0.005286
2658.000000	0.005284
2657.000000	0.005270
2656.000000	0.005251
2655.000000	0.005233
2654.000000	0.005213
2653.000000	0.005191
2652.000000	0.005165
2651.000000	0.005138
2650.000000	0.005119
2649.000000	0.005114
2648.000000	0.005123
2647.000000	0.005132
2646.000000	0.005128
2645.000000	0.005102
2644.000000	0.005061
2643.000000	0.005018
2642.000000	0.004982
2641.000000	0.004957
2640.000000	0.004939
2639.000000	0.004923
2638.000000	0.004911
2637.000000	0.004906
2636.000000	0.004908
2635.000000	0.004907
2634.000000	0.004889
2633.000000	0.004850
2632.000000	0.004800
2631.000000	0.004755
2630.000000	0.004730
2629.000000	0.004724
2628.000000	0.004725
2627.000000	0.004714
2626.000000	0.004682
2625.000000	0.004634
2624.000000	0.004589
2623.000000	0.004569
2622.000000	0.004580
2621.000000	0.004609
2620.000000	0.004633
2619.000000	0.004636
2618.000000	0.004616
2617.000000	0.004582
2616.000000	0.004550
2615.000000	0.004530
2614.000000	0.004524
2613.000000	0.004520
2612.000000	0.004502
2611.000000	0.004463
2610.000000	0.004415
2609.000000	0.004375
2608.000000	0.004350
2607.000000	0.004343
2606.000000	0.004353
2605.000000	0.004374
2604.000000	0.004398
2603.000000	0.004416
2602.000000	0.004420
2601.000000	0.004407
2600.000000	0.004376
2599.000000	0.004335
2598.000000	0.004297
2597.000000	0.004266
2596.000000	0.004241
2595.000000	0.004230
2594.000000	0.004245
2593.000000	0.004280
2592.000000	0.004302
2591.000000	0.004286
2590.000000	0.004243
2589.000000	0.004206
2588.000000	0.004184
2587.000000	0.004159
2586.000000	0.004111
2585.000000	0.004053
2584.000000	0.004014
2583.000000	0.004017
2582.000000	0.004061
2581.000000	0.004126
2580.000000	0.004182
2579.000000	0.004210
2578.000000	0.004214
2577.000000	0.004204
2576.000000	0.004175
2575.000000	0.004125
2574.000000	0.004070
2573.000000	0.004036
2572.000000	0.004034
2571.000000	0.004050
2570.000000	0.004070
2569.000000	0.004092
2568.000000	0.004111
2567.000000	0.004117
2566.000000	0.004106
2565.000000	0.004087
2564.000000	0.004070
2563.000000	0.004052
2562.000000	0.004029
2561.000000	0.003999
2560.000000	0.003963
2559.000000	0.003921
2558.000000	0.003877
2557.000000	0.003843
2556.000000	0.003823
2555.000000	0.003813
2554.000000	0.003821
2553.000000	0.003863
2552.000000	0.003932
2551.000000	0.003989
2550.000000	0.003997
2549.000000	0.003955
2548.000000	0.003903
2547.000000	0.003873
2546.000000	0.003868
2545.000000	0.003869
2544.000000	0.003857
2543.000000	0.003838
2542.000000	0.003829
2541.000000	0.003841
2540.000000	0.003862
2539.000000	0.003867
2538.000000	0.003845
2537.000000	0.003810
2536.000000	0.003781
2535.000000	0.003769
2534.000000	0.003775
2533.000000	0.003801
2532.000000	0.003835
2531.000000	0.003856
2530.000000	0.003844
2529.000000	0.003802
2528.000000	0.003757
2527.000000	0.003734
2526.000000	0.003742
2525.000000	0.003765
2524.000000	0.003784
2523.000000	0.003784
2522.000000	0.003773
2521.000000	0.003761
2520.000000	0.003748
2519.000000	0.003727
2518.000000	0.003706
2517.000000	0.003703
2516.000000	0.003726
2515.000000	0.003760
2514.000000	0.003783
2513.000000	0.003788
2512.000000	0.003776
2511.000000	0.003751
2510.000000	0.003714
2509.000000	0.003676
2508.000000	0.003649
2507.000000	0.003640
2506.000000	0.003656
2505.000000	0.003707
2504.000000	0.003790
2503.000000	0.003871
2502.000000	0.003908
2501.000000	0.003886
2500.000000	0.003825
2499.000000	0.003759
2498.000000	0.003705
2497.000000	0.003666
2496.000000	0.003641
2495.000000	0.003636
2494.000000	0.003651
2493.000000	0.003673
2492.000000	0.003684
2491.000000	0.003679
2490.000000	0.003666
2489.000000	0.003653
2488.000000	0.003637
2487.000000	0.003605
2486.000000	0.003558
2485.000000	0.003504
2484.000000	0.003452
2483.000000	0.003417
2482.000000	0.003412
2481.000000	0.003441
2480.000000	0.003483
2479.000000	0.003510
2478.000000	0.003517
2477.000000	0.003528
2476.000000	0.003557
2475.000000	0.003593
2474.000000	0.003613
2473.000000	0.003608
2472.000000	0.003592
2471.000000	0.003580
2470.000000	0.003581
2469.000000	0.003588
2468.000000	0.003590
2467.000000	0.003579
2466.000000	0.003562
2465.000000	0.003556
2464.000000	0.003570
2463.000000	0.003595
2462.000000	0.003620
2461.000000	0.003640
2460.000000	0.003653
2459.000000	0.003661
2458.000000	0.003666
2457.000000	0.003672
2456.000000	0.003677
2455.000000	0.003676
2454.000000	0.003670
2453.000000	0.003665
2452.000000	0.003657
2451.000000	0.003634
2450.000000	0.003593
2449.000000	0.003549
2448.000000	0.003524
2447.000000	0.003522
2446.000000	0.003535
2445.000000	0.003545
2444.000000	0.003540
2443.000000	0.003517
2442.000000	0.003494
2441.000000	0.003497
2440.000000	0.003529
2439.000000	0.003559
2438.000000	0.003547
2437.000000	0.003491
2436.000000	0.003426
2435.000000	0.003400
2434.000000	0.003428
2433.000000	0.003484
2432.000000	0.003525
2431.000000	0.003521
2430.000000	0.003486
2429.000000	0.003454
2428.000000	0.003448
2427.000000	0.003463
2426.000000	0.003484
2425.000000	0.003502
2424.000000	0.003513
2423.000000	0.003512
2422.000000	0.003494
2421.000000	0.003463
2420.000000	0.003429
2419.000000	0.003399
2418.000000	0.003377
2417.000000	0.003368
2416.000000	0.003374
2415.000000	0.003390
2414.000000	0.003409
2413.000000	0.003422
2412.000000	0.003425
2411.000000	0.003424
2410.000000	0.003434
2409.000000	0.003460
2408.000000	0.003486
2407.000000	0.003485
2406.000000	0.003452
2405.000000	0.003401
2404.000000	0.003347
2403.000000	0.003294
2402.000000	0.003245
2401.000000	0.003215
2400.000000	0.003220
2399.000000	0.003260
2398.000000	0.003317
2397.000000	0.003370
2396.000000	0.003402
2395.000000	0.003408
2394.000000	0.003397
2393.000000	0.003388
2392.000000	0.003386
2391.000000	0.003379
2390.000000	0.003356
2389.000000	0.003321
2388.000000	0.003286
2387.000000	0.003263
2386.000000	0.003258
2385.000000	0.003264
2384.000000	0.003267
2383.000000	0.003244
2382.000000	0.003193
2381.000000	0.003124
2380.000000	0.003050
2379.000000	0.002971
2378.000000	0.002899
2377.000000	0.002862
2376.000000	0.002891
2375.000000	0.002983
2374.000000	0.003091
2373.000000	0.003166
2372.000000	0.003188
2371.000000	0.003176
2370.000000	0.003158
2369.000000	0.003144
2368.000000	0.003127
2367.000000	0.003110
2366.000000	0.003112
2365.000000	0.003142
2364.000000	0.003179
2363.000000	0.003200
2362.000000	0.003198
2361.000000	0.003182
2360.000000	0.003169
2359.000000	0.003168
2358.000000	0.003175
2357.000000	0.003183
2356.000000	0.003188
2355.000000	0.003204
2354.000000	0.003222
2353.000000	0.003199
2352.000000	0.003126
2351.000000	0.003057
2350.000000	0.003059
2349.000000	0.003138
2348.000000	0.003247
2347.000000	0.003320
2346.000000	0.003325
2345.000000	0.003305
2344.000000	0.003311
2343.000000	0.003350
2342.000000	0.003377
2341.000000	0.003351
2340.000000	0.003291
2339.000000	0.003243
2338.000000	0.003243
2337.000000	0.003296
2336.000000	0.003383
2335.000000	0.003458
2334.000000	0.003477
2333.000000	0.003426
2332.000000	0.003353
2331.000000	0.003307
2330.000000	0.003319
2329.000000	0.003368
2328.000000	0.003445
2327.000000	0.003547
2326.000000	0.003669
2325.000000	0.003780
2324.000000	0.003835
2323.000000	0.003811
2322.000000	0.003733
2321.000000	0.003650
2320.000000	0.003597
2319.000000	0.003569
2318.000000	0.003561
2317.000000	0.003565
2316.000000	0.003581
2315.000000	0.003587
2314.000000	0.003573
2313.000000	0.003540
2312.000000	0.003507
2311.000000	0.003473
2310.000000	0.003437
2309.000000	0.003405
2308.000000	0.003389
2307.000000	0.003386
2306.000000	0.003387
2305.000000	0.003392
2304.000000	0.003410
2303.000000	0.003440
2302.000000	0.003467
2301.000000	0.003476
2300.000000	0.003464
2299.000000	0.003435
2298.000000	0.003399
2297.000000	0.003361
2296.000000	0.003334
2295.000000	0.003327
2294.000000	0.003354
2293.000000	0.003420
2292.000000	0.003507
2291.000000	0.003579
2290.000000	0.003620
2289.000000	0.003648
2288.000000	0.003686
2287.000000	0.003731
2286.000000	0.003754
2285.000000	0.003736
2284.000000	0.003692
2283.000000	0.003648
2282.000000	0.003623
2281.000000	0.003615
2280.000000	0.003602
2279.000000	0.003551
2278.000000	0.003451
2277.000000	0.003330
2276.000000	0.003239
2275.000000	0.003212
2274.000000	0.003252
2273.000000	0.003336
2272.000000	0.003420
2271.000000	0.003455
2270.000000	0.003423
2269.000000	0.003354
2268.000000	0.003294
2267.000000	0.003248
2266.000000	0.003188
2265.000000	0.003104
2264.000000	0.003026
2263.000000	0.002988
2262.000000	0.002994
2261.000000	0.003025
2260.000000	0.003065
2259.000000	0.003097
2258.000000	0.003104
2257.000000	0.003070
2256.000000	0.002999
2255.000000	0.002910
2254.000000	0.002828
2253.000000	0.002780
2252.000000	0.002786
2251.000000	0.002837
2250.000000	0.002893
2249.000000	0.002910
2248.000000	0.002879
2247.000000	0.002839
2246.000000	0.002828
2245.000000	0.002834
2244.000000	0.002807
2243.000000	0.002719
2242.000000	0.002615
2241.000000	0.002567
2240.000000	0.002597
2239.000000	0.002663
2238.000000	0.002715
2237.000000	0.002738
2236.000000	0.002740
2235.000000	0.002724
2234.000000	0.002697
2233.000000	0.002671
2232.000000	0.002640
2231.000000	0.002572
2230.000000	0.002448
2229.000000	0.002314
2228.000000	0.002244
2227.000000	0.002290
2226.000000	0.002442
2225.000000	0.002649
2224.000000	0.002832
2223.000000	0.002915
2222.000000	0.002871
2221.000000	0.002740
2220.000000	0.002597
2219.000000	0.002485
2218.000000	0.002408
2217.000000	0.002356
2216.000000	0.002331
2215.000000	0.002335
2214.000000	0.002357
2213.000000	0.002382
2212.000000	0.002395
2211.000000	0.002382
2210.000000	0.002339
2209.000000	0.002281
2208.000000	0.002243
2207.000000	0.002255
2206.000000	0.002315
2205.000000	0.002378
2204.000000	0.002403
2203.000000	0.002398
2202.000000	0.002412
2201.000000	0.002465
2200.000000	0.002516
2199.000000	0.002505
2198.000000	0.002439
2197.000000	0.002381
2196.000000	0.002375
2195.000000	0.002407
2194.000000	0.002436
2193.000000	0.002434
2192.000000	0.002401
2191.000000	0.002370
2190.000000	0.002396
2189.000000	0.002495
2188.000000	0.002595
2187.000000	0.002590
2186.000000	0.002457
2185.000000	0.002286
2184.000000	0.002166
2183.000000	0.002098
2182.000000	0.002024
2181.000000	0.001925
2180.000000	0.001840
2179.000000	0.001819
2178.000000	0.001884
2177.000000	0.001999
2176.000000	0.002088
2175.000000	0.002082
2174.000000	0.001982
2173.000000	0.001855
2172.000000	0.001761
2171.000000	0.001718
2170.000000	0.001717
2169.000000	0.001741
2168.000000	0.001761
2167.000000	0.001758
2166.000000	0.001742
2165.000000	0.001731
2164.000000	0.001716
2163.000000	0.001676
2162.000000	0.001612
2161.000000	0.001488
2160.000000	0.001184
2159.000000	0.000618
2158.000000	-0.000054
2157.000000	-0.000512
2156.000000	-0.000577
2155.000000	-0.000311
2154.000000	0.000131
2153.000000	0.000600
2152.000000	0.000965
2151.000000	0.001156
2150.000000	0.001216
2149.000000	0.001229
2148.000000	0.001194
2147.000000	0.001060
2146.000000	0.000860
2145.000000	0.000735
2144.000000	0.000774
2143.000000	0.000921
2142.000000	0.001072
2141.000000	0.001185
2140.000000	0.001278
2139.000000	0.001367
2138.000000	0.001456
2137.000000	0.001555
2136.000000	0.001672
2135.000000	0.001801
2134.000000	0.001927
2133.000000	0.002037
2132.000000	0.002110
2131.000000	0.002135
2130.000000	0.002126
2129.000000	0.002108
2128.000000	0.002087
2127.000000	0.002060
2126.000000	0.002038
2125.000000	0.002044
2124.000000	0.002076
2123.000000	0.002121
2122.000000	0.002186
2121.000000	0.002283
2120.000000	0.002390
2119.000000	0.002468
2118.000000	0.002509
2117.000000	0.002543
2116.000000	0.002576
2115.000000	0.002584
2114.000000	0.002571
2113.000000	0.002575
2112.000000	0.002608
2111.000000	0.002619
2110.000000	0.002574
2109.000000	0.002516
2108.000000	0.002518
2107.000000	0.002592
2106.000000	0.002685
2105.000000	0.002740
2104.000000	0.002735
2103.000000	0.002680
2102.000000	0.002615
2101.000000	0.002594
2100.000000	0.002631
2099.000000	0.002678
2098.000000	0.002673
2097.000000	0.002608
2096.000000	0.002520
2095.000000	0.002437
2094.000000	0.002366
2093.000000	0.002313
2092.000000	0.002292
2091.000000	0.002311
2090.000000	0.002362
2089.000000	0.002430
2088.000000	0.002484
2087.000000	0.002495
2086.000000	0.002455
2085.000000	0.002382
2084.000000	0.002302
2083.000000	0.002238
2082.000000	0.002218
2081.000000	0.002263
2080.000000	0.002353
2079.000000	0.002433
2078.000000	0.002469
2077.000000	0.002458
2076.000000	0.002394
2075.000000	0.002261
2074.000000	0.002091
2073.000000	0.001966
2072.000000	0.001932
2071.000000	0.001941
2070.000000	0.001923
2069.000000	0.001880
2068.000000	0.001862
2067.000000	0.001873
2066.000000	0.001864
2065.000000	0.001801
2064.000000	0.001698
2063.000000	0.001593
2062.000000	0.001523
2061.000000	0.001525
2060.000000	0.001604
2059.000000	0.001717
2058.000000	0.001800
2057.000000	0.001820
2056.000000	0.001783
2055.000000	0.001725
2054.000000	0.001707
2053.000000	0.001783
2052.000000	0.001934
2051.000000	0.002038
2050.000000	0.001957
2049.000000	0.001683
2048.000000	0.001367
2047.000000	0.001192
2046.000000	0.001211
2045.000000	0.001330
2044.000000	0.001407
2043.000000	0.001369
2042.000000	0.001248
2041.000000	0.001119
2040.000000	0.001011
2039.000000	0.000896
2038.000000	0.000767
2037.000000	0.000654
2036.000000	0.000564
2035.000000	0.000450
2034.000000	0.000311
2033.000000	0.000231
2032.000000	0.000269
2031.000000	0.000359
2030.000000	0.000392
2029.000000	0.000343
2028.000000	0.000266
2027.000000	0.000199
2026.000000	0.000131
2025.000000	0.000045
2024.000000	-0.000051
2023.000000	-0.000120
2022.000000	-0.000120
2021.000000	-0.000067
2020.000000	-0.000061
2019.000000	-0.000193
2018.000000	-0.000396
2017.000000	-0.000478
2016.000000	-0.000350
2015.000000	-0.000153
2014.000000	-0.000089
2013.000000	-0.000194
2012.000000	-0.000310
2011.000000	-0.000274
2010.000000	-0.000084
2009.000000	0.000111
2008.000000	0.000165
2007.000000	0.000080
2006.000000	-0.000035
2005.000000	-0.000133
2004.000000	-0.000252
2003.000000	-0.000373
2002.000000	-0.000350
2001.000000	-0.000079
2000.000000	0.000317
1999.000000	0.000589
1998.000000	0.000616
1997.000000	0.000489
1996.000000	0.000358
1995.000000	0.000299
1994.000000	0.000322
1993.000000	0.000402
1992.000000	0.000466
1991.000000	0.000434
1990.000000	0.000326
1989.000000	0.000254
1988.000000	0.000289
1987.000000	0.000390
1986.000000	0.000474
1985.000000	0.000505
1984.000000	0.000495
1983.000000	0.000499
1982.000000	0.000604
1981.000000	0.000846
1980.000000	0.001113
1979.000000	0.001196
1978.000000	0.000996
1977.000000	0.000633
1976.000000	0.000304
1975.000000	0.000077
1974.000000	-0.000087
1973.000000	-0.000223
1972.000000	-0.000332
1971.000000	-0.000401
1970.000000	-0.000416
1969.000000	-0.000373
1968.000000	-0.000307
1967.000000	-0.000249
1966.000000	-0.000181
1965.000000	-0.000072
1964.000000	0.000041
1963.000000	0.000104
1962.000000	0.000122
1961.000000	0.000139
1960.000000	0.000163
1959.000000	0.000177
1958.000000	0.000203
1957.000000	0.000276
1956.000000	0.000367
1955.000000	0.000413
1954.000000	0.000420
1953.000000	0.000455
1952.000000	0.000543
1951.000000	0.000634
1950.000000	0.000689
1949.000000	0.000717
1948.000000	0.000726
1947.000000	0.000697
1946.000000	0.000626
1945.000000	0.000554
1944.000000	0.000518
1943.000000	0.000534
1942.000000	0.000609
1941.000000	0.000729
1940.000000	0.000845
1939.000000	0.000910
1938.000000	0.000939
1937.000000	0.000974
1936.000000	0.001024
1935.000000	0.001055
1934.000000	0.001062
1933.000000	0.001074
1932.000000	0.001106
1931.000000	0.001135
1930.000000	0.001152
1929.000000	0.001171
1928.000000	0.001181
1927.000000	0.001150
1926.000000	0.001081
1925.000000	0.001030
1924.000000	0.001038
1923.000000	0.001093
1922.000000	0.001151
1921.000000	0.001181
1920.000000	0.001162
1919.000000	0.001106
1918.000000	0.001085
1917.000000	0.001164
1916.000000	0.001285
1915.000000	0.001337
1914.000000	0.001292
1913.000000	0.001224
1912.000000	0.001191
1911.000000	0.001161
1910.000000	0.001087
1909.000000	0.000998
1908.000000	0.000952
1907.000000	0.000949
1906.000000	0.000956
1905.000000	0.000961
1904.000000	0.000981
1903.000000	0.001017
1902.000000	0.001058
1901.000000	0.001094
1900.000000	0.001111
1899.000000	0.001089
1898.000000	0.001030
1897.000000	0.000976
1896.000000	0.000971
1895.000000	0.001018
1894.000000	0.001080
1893.000000	0.001111
1892.000000	0.001077
1891.000000	0.000987
1890.000000	0.000903
1889.000000	0.000894
1888.000000	0.000948
1887.000000	0.000999
1886.000000	0.001013
1885.000000	0.001004
1884.000000	0.000990
1883.000000	0.000966
1882.000000	0.000937
1881.000000	0.000920
1880.000000	0.000908
1879.000000	0.000875
1878.000000	0.000826
1877.000000	0.000803
1876.000000	0.000822
1875.000000	0.000847
1874.000000	0.000836
1873.000000	0.000786
1872.000000	0.000720
1871.000000	0.000660
1870.000000	0.000640
1869.000000	0.000701
1868.000000	0.000810
1867.000000	0.000867
1866.000000	0.000828
1865.000000	0.000742
1864.000000	0.000663
1863.000000	0.000604
1862.000000	0.000561
1861.000000	0.000539
1860.000000	0.000542
1859.000000	0.000561
1858.000000	0.000589
1857.000000	0.000634
1856.000000	0.000690
1855.000000	0.000732
1854.000000	0.000739
1853.000000	0.000712
1852.000000	0.000658
1851.000000	0.000590
1850.000000	0.000531
1849.000000	0.000502
1848.000000	0.000494
1847.000000	0.000479
1846.000000	0.000454
1845.000000	0.000449
1844.000000	0.000475
1843.000000	0.000498
1842.000000	0.000497
1841.000000	0.000489
1840.000000	0.000484
1839.000000	0.000477
1838.000000	0.000471
1837.000000	0.000473
1836.000000	0.000472
1835.000000	0.000442
1834.000000	0.000381
1833.000000	0.000316
1832.000000	0.000264
1831.000000	0.000227
1830.000000	0.000207
1829.000000	0.000205
1828.000000	0.000200
1827.000000	0.000173
1826.000000	0.000136
1825.000000	0.000120
1824.000000	0.000132
1823.000000	0.000141
1822.000000	0.000139
1821.000000	0.000140
1820.000000	0.000139
1819.000000	0.000103
1818.000000	0.000031
1817.000000	-0.000023
1816.000000	-0.000029
1815.000000	-0.000019
1814.000000	-0.000030
1813.000000	-0.000046
1812.000000	-0.000025
1811.000000	0.000029
1810.000000	0.000083
1809.000000	0.000120
1808.000000	0.000133
1807.000000	0.000108
1806.000000	0.000057
1805.000000	0.000019
1804.000000	0.000012
1803.000000	0.000011
1802.000000	-0.000007
1801.000000	-0.000018
1800.000000	-0.000007
1799.000000	-0.000007
1798.000000	-0.000046
1797.000000	-0.000093
1796.000000	-0.000116
1795.000000	-0.000123
1794.000000	-0.000133
1793.000000	-0.000128
1792.000000	-0.000088
1791.000000	-0.000054
1790.000000	-0.000067
1789.000000	-0.000095
1788.000000	-0.000104
1787.000000	-0.000100
1786.000000	-0.000105
1785.000000	-0.000121
1784.000000	-0.000135
1783.000000	-0.000149
1782.000000	-0.000163
1781.000000	-0.000167
1780.000000	-0.000162
1779.000000	-0.000169
1778.000000	-0.000197
1777.000000	-0.000226
1776.000000	-0.000244
1775.000000	-0.000266
1774.000000	-0.000305
1773.000000	-0.000335
1772.000000	-0.000305
1771.000000	-0.000233
1770.000000	-0.000179
1769.000000	-0.000151
1768.000000	-0.000126
1767.000000	-0.000103
1766.000000	-0.000092
1765.000000	-0.000081
1764.000000	-0.000055
1763.000000	-0.000017
1762.000000	0.000025
1761.000000	0.000076
1760.000000	0.000144
1759.000000	0.000231
1758.000000	0.000345
1757.000000	0.000495
1756.000000	0.000660
1755.000000	0.000795
1754.000000	0.000890
1753.000000	0.000985
1752.000000	0.001136
1751.000000	0.001365
1750.000000	0.001632
1749.000000	0.001885
1748.000000	0.002103
1747.000000	0.002270
1746.000000	0.002375
1745.000000	0.002440
1744.000000	0.002494
1743.000000	0.002535
1742.000000	0.002531
1741.000000	0.002476
1740.000000	0.002399
1739.000000	0.002312
1738.000000	0.002197
1737.000000	0.002040
1736.000000	0.001840
1735.000000	0.001604
1734.000000	0.001413
1733.000000	0.001314
1732.000000	0.001243
1731.000000	0.001168
1730.000000	0.001101
1729.000000	0.001045
1728.000000	0.000988
1727.000000	0.000919
1726.000000	0.000839
1725.000000	0.000756
1724.000000	0.000677
1723.000000	0.000608
1722.000000	0.000559
1721.000000	0.000540
1720.000000	0.000540
1719.000000	0.000528
1718.000000	0.000502
1717.000000	0.000519
1716.000000	0.000580
1715.000000	0.000618
1714.000000	0.000638
1713.000000	0.000674
1712.000000	0.000724
1711.000000	0.000761
1710.000000	0.000776
1709.000000	0.000792
1708.000000	0.000833
1707.000000	0.000902
1706.000000	0.001013
1705.000000	0.001177
1704.000000	0.001339
1703.000000	0.001433
1702.000000	0.001466
1701.000000	0.001525
1700.000000	0.001687
1699.000000	0.001828
1698.000000	0.001893
1697.000000	0.002027
1696.000000	0.002323
1695.000000	0.002638
1694.000000	0.002815
1693.000000	0.002912
1692.000000	0.003013
1691.000000	0.003136
1690.000000	0.003276
1689.000000	0.003439
1688.000000	0.003615
1687.000000	0.003775
1686.000000	0.003917
1685.000000	0.004116
1684.000000	0.004445
1683.000000	0.004756
1682.000000	0.004930
1681.000000	0.005071
1680.000000	0.005257
1679.000000	0.005472
1678.000000	0.005685
1677.000000	0.005906
1676.000000	0.006162
1675.000000	0.006424
1674.000000	0.006620
1673.000000	0.006752
1672.000000	0.006891
1671.000000	0.007085
1670.000000	0.007360
1669.000000	0.007687
1668.000000	0.007977
1667.000000	0.008186
1666.000000	0.008343
1665.000000	0.008501
1664.000000	0.008697
1663.000000	0.008931
1662.000000	0.009166
1661.000000	0.009359
1660.000000	0.009511
1659.000000	0.009644
1658.000000	0.009784
1657.000000	0.009946
1656.000000	0.010123
1655.000000	0.010289
1654.000000	0.010468
1653.000000	0.010741
1652.000000	0.010937
1651.000000	0.010963
1650.000000	0.010959
1649.000000	0.010982
1648.000000	0.011037
1647.000000	0.011132
1646.000000	0.011240
1645.000000	0.011308
1644.000000	0.011345
1643.000000	0.011376
1642.000000	0.011416
1641.000000	0.011473
1640.000000	0.011539
1639.000000	0.011590
1638.000000	0.011613
1637.000000	0.011625
1636.000000	0.011660
1635.000000	0.011704
1634.000000	0.011697
1633.000000	0.011663
1632.000000	0.011642
1631.000000	0.011634
1630.000000	0.011640
1629.000000	0.011664
1628.000000	0.011694
1627.000000	0.011703
1626.000000	0.011681
1625.000000	0.011636
1624.000000	0.011576
1623.000000	0.011516
1622.000000	0.011474
1621.000000	0.011459
1620.000000	0.011463
1619.000000	0.011469
1618.000000	0.011458
1617.000000	0.011429
1616.000000	0.011388
1615.000000	0.011336
1614.000000	0.011290
1613.000000	0.011261
1612.000000	0.011237
1611.000000	0.011211
1610.000000	0.011199
1609.000000	0.011209
1608.000000	0.011225
1607.000000	0.011229
1606.000000	0.011223
1605.000000	0.011217
1604.000000	0.011213
1603.000000	0.011211
1602.000000	0.011216
1601.000000	0.011229
1600.000000	0.011239
1599.000000	0.011232
1598.000000	0.011202
1597.000000	0.011152
1596.000000	0.011089
1595.000000	0.011024
1594.000000	0.010969
1593.000000	0.010919
1592.000000	0.010853
1591.000000	0.010763
1590.000000	0.010670
1589.000000	0.010597
1588.000000	0.010542
1587.000000	0.010494
1586.000000	0.010452
1585.000000	0.010416
1584.000000	0.010374
1583.000000	0.010318
1582.000000	0.010257
1581.000000	0.010201
1580.000000	0.010146
1579.000000	0.010083
1578.000000	0.010013
1577.000000	0.009937
1576.000000	0.009850
1575.000000	0.009741
1574.000000	0.009619
1573.000000	0.009499
1572.000000	0.009374
1571.000000	0.009219
1570.000000	0.009042
1569.000000	0.008881
1568.000000	0.008748
1567.000000	0.008637
1566.000000	0.008546
1565.000000	0.008470
1564.000000	0.008413
1563.000000	0.008387
1562.000000	0.008394
1561.000000	0.008382
1560.000000	0.008235
1559.000000	0.008026
1558.000000	0.008004
1557.000000	0.008011
1556.000000	0.007994
1555.000000	0.007989
1554.000000	0.007992
1553.000000	0.007985
1552.000000	0.007975
1551.000000	0.007972
1550.000000	0.007984
1549.000000	0.008004
1548.000000	0.008025
1547.000000	0.008048
1546.000000	0.008080
1545.000000	0.008129
1544.000000	0.008199
1543.000000	0.008255
1542.000000	0.008248
1541.000000	0.008201
1540.000000	0.008195
1539.000000	0.008188
1538.000000	0.008087
1537.000000	0.007936
1536.000000	0.007773
1535.000000	0.007561
1534.000000	0.007274
1533.000000	0.006980
1532.000000	0.006747
1531.000000	0.006549
1530.000000	0.006363
1529.000000	0.006191
1528.000000	0.006025
1527.000000	0.005832
1526.000000	0.005607
1525.000000	0.005392
1524.000000	0.005210
1523.000000	0.005016
1522.000000	0.004792
1521.000000	0.004629
1520.000000	0.004556
1519.000000	0.004486
1518.000000	0.004362
1517.000000	0.004223
1516.000000	0.004131
1515.000000	0.004066
1514.000000	0.003976
1513.000000	0.003853
1512.000000	0.003709
1511.000000	0.003552
1510.000000	0.003377
1509.000000	0.003181
1508.000000	0.002995
1507.000000	0.002905
1506.000000	0.002896
1505.000000	0.002826
1504.000000	0.002722
1503.000000	0.002629
1502.000000	0.002553
1501.000000	0.002507
1500.000000	0.002499
1499.000000	0.002493
1498.000000	0.002436
1497.000000	0.002350
1496.000000	0.002307
1495.000000	0.002296
1494.000000	0.002281
1493.000000	0.002270
1492.000000	0.002276
1491.000000	0.002290
1490.000000	0.002320
1489.000000	0.002417
1488.000000	0.002572
1487.000000	0.002709
1486.000000	0.002805
1485.000000	0.002901
1484.000000	0.003025
1483.000000	0.003179
1482.000000	0.003363
1481.000000	0.003586
1480.000000	0.003833
1479.000000	0.004072
1478.000000	0.004301
1477.000000	0.004548
1476.000000	0.004819
1475.000000	0.005071
1474.000000	0.005302
1473.000000	0.005603
1472.000000	0.006019
1471.000000	0.006429
1470.000000	0.006754
1469.000000	0.007046
1468.000000	0.007347
1467.000000	0.007645
1466.000000	0.007918
1465.000000	0.008182
1464.000000	0.008441
1463.000000	0.008658
1462.000000	0.008832
1461.000000	0.009005
1460.000000	0.009204
1459.000000	0.009423
1458.000000	0.009663
1457.000000	0.009965
1456.000000	0.010278
1455.000000	0.010505
1454.000000	0.010680
1453.000000	0.010868
1452.000000	0.011083
1451.000000	0.011295
1450.000000	0.011487
1449.000000	0.011678
1448.000000	0.011893
1447.000000	0.012118
1446.000000	0.012324
1445.000000	0.012515
1444.000000	0.012708
1443.000000	0.012902
1442.000000	0.013092
1441.000000	0.013282
1440.000000	0.013482
1439.000000	0.013698
1438.000000	0.013924
1437.000000	0.014154
1436.000000	0.014364
1435.000000	0.014520
1434.000000	0.014643
1433.000000	0.014787
1432.000000	0.014970
1431.000000	0.015169
1430.000000	0.015360
1429.000000	0.015532
1428.000000	0.015683
1427.000000	0.015817
1426.000000	0.015945
1425.000000	0.016072
1424.000000	0.016199
1423.000000	0.016335
1422.000000	0.016485
1421.000000	0.016636
1420.000000	0.016758
1419.000000	0.016845
1418.000000	0.016930
1417.000000	0.017028
1416.000000	0.017130
1415.000000	0.017214
1414.000000	0.017280
1413.000000	0.017344
1412.000000	0.017411
1411.000000	0.017474
1410.000000	0.017527
1409.000000	0.017583
1408.000000	0.017649
1407.000000	0.017709
1406.000000	0.017750
1405.000000	0.017770
1404.000000	0.017783
1403.000000	0.017804
1402.000000	0.017836
1401.000000	0.017860
1400.000000	0.017841
1399.000000	0.017769
1398.000000	0.017690
1397.000000	0.017650
1396.000000	0.017641
1395.000000	0.017625
1394.000000	0.017571
1393.000000	0.017473
1392.000000	0.017354
1391.000000	0.017241
1390.000000	0.017136
1389.000000	0.017022
1388.000000	0.016867
1387.000000	0.016673
1386.000000	0.016478
1385.000000	0.016300
1384.000000	0.016120
1383.000000	0.015928
1382.000000	0.015745
1381.000000	0.015600
1380.000000	0.015485
1379.000000	0.015373
1378.000000	0.015261
1377.000000	0.015155
1376.000000	0.015042
1375.000000	0.014900
1374.000000	0.014741
1373.000000	0.014592
1372.000000	0.014456
1371.000000	0.014328
1370.000000	0.014213
1369.000000	0.014098
1368.000000	0.013962
1367.000000	0.013799
1366.000000	0.013637
1365.000000	0.013499
1364.000000	0.013370
1363.000000	0.013225
1362.000000	0.013067
1361.000000	0.012915
1360.000000	0.012765
1359.000000	0.012610
1358.000000	0.012451
1357.000000	0.012291
1356.000000	0.012128
1355.000000	0.011967
1354.000000	0.011824
1353.000000	0.011707
1352.000000	0.011596
1351.000000	0.011466
1350.000000	0.011322
1349.000000	0.011184
1348.000000	0.011057
1347.000000	0.010934
1346.000000	0.010819
1345.000000	0.010716
1344.000000	0.010614
1343.000000	0.010500
1342.000000	0.010374
1341.000000	0.010236
1340.000000	0.010095
1339.000000	0.009976
1338.000000	0.009903
1337.000000	0.009861
1336.000000	0.009804
1335.000000	0.009701
1334.000000	0.009569
1333.000000	0.009443
1332.000000	0.009342
1331.000000	0.009259
1330.000000	0.009187
1329.000000	0.009128
1328.000000	0.009072
1327.000000	0.009007
1326.000000	0.008929
1325.000000	0.008842
1324.000000	0.008755
1323.000000	0.008678
1322.000000	0.008613
1321.000000	0.008551
1320.000000	0.008480
1319.000000	0.008406
1318.000000	0.008345
1317.000000	0.008300
1316.000000	0.008254
1315.000000	0.008201
1314.000000	0.008149
1313.000000	0.008104
1312.000000	0.008055
1311.000000	0.007983
1310.000000	0.007886
1309.000000	0.007772
1308.000000	0.007649
1307.000000	0.007526
1306.000000	0.007412
1305.000000	0.007311
1304.000000	0.007217
1303.000000	0.007119
1302.000000	0.007009
1301.000000	0.006881
1300.000000	0.006736
1299.000000	0.006585
1298.000000	0.006439
1297.000000	0.006297
1296.000000	0.006150
1295.000000	0.006000
1294.000000	0.005854
1293.000000	0.005713
1292.000000	0.005570
1291.000000	0.005423
1290.000000	0.005280
1289.000000	0.005144
1288.000000	0.005011
1287.000000	0.004877
1286.000000	0.004747
1285.000000	0.004625
1284.000000	0.004511
1283.000000	0.004409
1282.000000	0.004320
1281.000000	0.004234
1280.000000	0.004136
1279.000000	0.004023
1278.000000	0.003908
1277.000000	0.003803
1276.000000	0.003704
1275.000000	0.003607
1274.000000	0.003515
1273.000000	0.003435
1272.000000	0.003371
1271.000000	0.003327
1270.000000	0.003307
1269.000000	0.003302
1268.000000	0.003294
1267.000000	0.003271
1266.000000	0.003235
1265.000000	0.003189
1264.000000	0.003135
1263.000000	0.003088
1262.000000	0.003071
1261.000000	0.003094
1260.000000	0.003136
1259.000000	0.003171
1258.000000	0.003186
1257.000000	0.003177
1256.000000	0.003149
1255.000000	0.003111
1254.000000	0.003079
1253.000000	0.003061
1252.000000	0.003045
1251.000000	0.003017
1250.000000	0.002976
1249.000000	0.002934
1248.000000	0.002894
1247.000000	0.002852
1246.000000	0.002805
1245.000000	0.002761
1244.000000	0.002728
1243.000000	0.002705
1242.000000	0.002678
1241.000000	0.002629
1240.000000	0.002561
1239.000000	0.002493
1238.000000	0.002436
1237.000000	0.002383
1236.000000	0.002320
1235.000000	0.002244
1234.000000	0.002162
1233.000000	0.002070
1232.000000	0.001964
1231.000000	0.001847
1230.000000	0.001731
1229.000000	0.001622
1228.000000	0.001520
1227.000000	0.001429
1226.000000	0.001352
1225.000000	0.001276
1224.000000	0.001188
1223.000000	0.001088
1222.000000	0.000993
1221.000000	0.000915
1220.000000	0.000847
1219.000000	0.000780
1218.000000	0.000719
1217.000000	0.000674
1216.000000	0.000647
1215.000000	0.000634
1214.000000	0.000632
1213.000000	0.000640
1212.000000	0.000658
1211.000000	0.000692
1210.000000	0.000752
1209.000000	0.000841
1208.000000	0.000953
1207.000000	0.001081
1206.000000	0.001225
1205.000000	0.001383
1204.000000	0.001545
1203.000000	0.001696
1202.000000	0.001822
1201.000000	0.001919
1200.000000	0.001976
1199.000000	0.001986
1198.000000	0.001946
1197.000000	0.001858
1196.000000	0.001724
1195.000000	0.001547
1194.000000	0.001334
1193.000000	0.001098
1192.000000	0.000852
1191.000000	0.000603
1190.000000	0.000357
1189.000000	0.000119
1188.000000	-0.000098
1187.000000	-0.000274
1186.000000	-0.000388
1185.000000	-0.000442
1184.000000	-0.000448
1183.000000	-0.000412
1182.000000	-0.000329
1181.000000	-0.000192
1180.000000	-0.000001
1179.000000	0.000234
1178.000000	0.000498
1177.000000	0.000778
1176.000000	0.001068
1175.000000	0.001376
1174.000000	0.001718
1173.000000	0.002106
1172.000000	0.002537
1171.000000	0.003002
1170.000000	0.003499
1169.000000	0.004025
1168.000000	0.004574
1167.000000	0.005138
1166.000000	0.005722
1165.000000	0.006335
1164.000000	0.006969
1163.000000	0.007603
1162.000000	0.008220
1161.000000	0.008822
1160.000000	0.009417
1159.000000	0.010003
1158.000000	0.010567
1157.000000	0.011095
1156.000000	0.011581
1155.000000	0.012023
1154.000000	0.012416
1153.000000	0.012748
1152.000000	0.013013
1151.000000	0.013218
1150.000000	0.013389
1149.000000	0.013534
1148.000000	0.013632
1147.000000	0.013665
1146.000000	0.013646
1145.000000	0.013618
1144.000000	0.013601
1143.000000	0.013584
1142.000000	0.013549
1141.000000	0.013500
1140.000000	0.013447
1139.000000	0.013399
1138.000000	0.013356
1137.000000	0.013312
1136.000000	0.013260
1135.000000	0.013198
1134.000000	0.013143
1133.000000	0.013111
1132.000000	0.013119
1131.000000	0.013195
1130.000000	0.013385
1129.000000	0.013718
1128.000000	0.014171
1127.000000	0.014678
1126.000000	0.015178
1125.000000	0.015626
1124.000000	0.015978
1123.000000	0.016195
1122.000000	0.016278
1121.000000	0.016272
1120.000000	0.016237
1119.000000	0.016215
1118.000000	0.016220
1117.000000	0.016243
1116.000000	0.016261
1115.000000	0.016265
1114.000000	0.016284
1113.000000	0.016354
1112.000000	0.016479
1111.000000	0.016624
1110.000000	0.016758
1109.000000	0.016874
1108.000000	0.016976
1107.000000	0.017074
1106.000000	0.017191
1105.000000	0.017356
1104.000000	0.017590
1103.000000	0.017892
1102.000000	0.018254
1101.000000	0.018659
1100.000000	0.019085
1099.000000	0.019519
1098.000000	0.019972
1097.000000	0.020466
1096.000000	0.020993
1095.000000	0.021525
1094.000000	0.022047
1093.000000	0.022561
1092.000000	0.023049
1091.000000	0.023477
1090.000000	0.023821
1089.000000	0.024080
1088.000000	0.024266
1087.000000	0.024392
1086.000000	0.024488
1085.000000	0.024579
1084.000000	0.024662
1083.000000	0.024720
1082.000000	0.024763
1081.000000	0.024824
1080.000000	0.024907
1079.000000	0.024981
1078.000000	0.025020
1077.000000	0.025022
1076.000000	0.024996
1075.000000	0.024950
1074.000000	0.024906
1073.000000	0.024882
1072.000000	0.024861
1071.000000	0.024826
1070.000000	0.024797
1069.000000	0.024818
1068.000000	0.024888
1067.000000	0.024954
1066.000000	0.024976
1065.000000	0.024972
1064.000000	0.024978
1063.000000	0.024998
1062.000000	0.025026
1061.000000	0.025066
1060.000000	0.025129
1059.000000	0.025210
1058.000000	0.025297
1057.000000	0.025387
1056.000000	0.025487
1055.000000	0.025611
1054.000000	0.025770
1053.000000	0.025954
1052.000000	0.026130
1051.000000	0.026280
1050.000000	0.026441
1049.000000	0.026671
1048.000000	0.026976
1047.000000	0.027306
1046.000000	0.027618
1045.000000	0.027916
1044.000000	0.028225
1043.000000	0.028554
1042.000000	0.028906
1041.000000	0.029287
1040.000000	0.029702
1039.000000	0.030145
1038.000000	0.030605
1037.000000	0.031066
1036.000000	0.031493
1035.000000	0.031862
1034.000000	0.032190
1033.000000	0.032515
1032.000000	0.032847
1031.000000	0.033161
1030.000000	0.033433
1029.000000	0.033653
1028.000000	0.033805
1027.000000	0.033878
1026.000000	0.033899
1025.000000	0.033923
1024.000000	0.033981
1023.000000	0.034066
1022.000000	0.034172
1021.000000	0.034302
1020.000000	0.034451
1019.000000	0.034595
1018.000000	0.034719
1017.000000	0.034821
1016.000000	0.034894
1015.000000	0.034933
1014.000000	0.034950
1013.000000	0.034959
1012.000000	0.034942
1011.000000	0.034881
1010.000000	0.034795
1009.000000	0.034715
1008.000000	0.034630
1007.000000	0.034495
1006.000000	0.034313
1005.000000	0.034147
1004.000000	0.034043
1003.000000	0.033987
1002.000000	0.033948
1001.000000	0.033916
1000.000000	0.033885
999.000000	0.033838
998.000000	0.033779
997.000000	0.033738
996.000000	0.033724
995.000000	0.033702
994.000000	0.033639
993.000000	0.033542
992.000000	0.033434
991.000000	0.033323
990.000000	0.033204
989.000000	0.033086
988.000000	0.032977
987.000000	0.032862
986.000000	0.032717
985.000000	0.032525
984.000000	0.032278
983.000000	0.031973
982.000000	0.031620
981.000000	0.031239
980.000000	0.030831
979.000000	0.030381
978.000000	0.029884
977.000000	0.029358
976.000000	0.028824
975.000000	0.028288
974.000000	0.027753
973.000000	0.027218
972.000000	0.026674
971.000000	0.026106
970.000000	0.025510
969.000000	0.024902
968.000000	0.024296
967.000000	0.023695
966.000000	0.023097
965.000000	0.022506
964.000000	0.021918
963.000000	0.021330
962.000000	0.020758
961.000000	0.020225
960.000000	0.019738
959.000000	0.019272
958.000000	0.018803
957.000000	0.018329
956.000000	0.017862
955.000000	0.017419
954.000000	0.017012
953.000000	0.016630
952.000000	0.016245
951.000000	0.015835
950.000000	0.015401
949.000000	0.014964
948.000000	0.014531
947.000000	0.014096
946.000000	0.013662
945.000000	0.013244
944.000000	0.012837
943.000000	0.012417
942.000000	0.011975
941.000000	0.011532
940.000000	0.011118
939.000000	0.010746
938.000000	0.010410
937.000000	0.010103
936.000000	0.009812
935.000000	0.009526
934.000000	0.009244
933.000000	0.008980
932.000000	0.008741
931.000000	0.008521
930.000000	0.008306
929.000000	0.008092
928.000000	0.007872
927.000000	0.007645
926.000000	0.007417
925.000000	0.007211
924.000000	0.007036
923.000000	0.006887
922.000000	0.006753
921.000000	0.006636
920.000000	0.006540
919.000000	0.006463
918.000000	0.006403
917.000000	0.006370
916.000000	0.006364
915.000000	0.006370
914.000000	0.006367
913.000000	0.006361
912.000000	0.006382
911.000000	0.006454
910.000000	0.006580
909.000000	0.006743
908.000000	0.006919
907.000000	0.007070
906.000000	0.007166
905.000000	0.007194
904.000000	0.007173
903.000000	0.007134
902.000000	0.007094
901.000000	0.007040
900.000000	0.006942
899.000000	0.006772
898.000000	0.006530
897.000000	0.006242
896.000000	0.005944
895.000000	0.005657
894.000000	0.005376
893.000000	0.005082
892.000000	0.004775
891.000000	0.004470
890.000000	0.004185
889.000000	0.003925
888.000000	0.003699
887.000000	0.003528
886.000000	0.003421
885.000000	0.003353
884.000000	0.003284
883.000000	0.003212
882.000000	0.003187
881.000000	0.003259
880.000000	0.003427
879.000000	0.003642
878.000000	0.003848
877.000000	0.003997
876.000000	0.004051
875.000000	0.003990
874.000000	0.003820
873.000000	0.003554
872.000000	0.003203
871.000000	0.002781
870.000000	0.002327
869.000000	0.001884
868.000000	0.001474
867.000000	0.001108
866.000000	0.000803
865.000000	0.000575
864.000000	0.000414
863.000000	0.000287
862.000000	0.000177
861.000000	0.000087
860.000000	0.000017
859.000000	-0.000043
858.000000	-0.000093
857.000000	-0.000118
856.000000	-0.000111
855.000000	-0.000097
854.000000	-0.000113
853.000000	-0.000173
852.000000	-0.000261
851.000000	-0.000340
850.000000	-0.000375
849.000000	-0.000355
848.000000	-0.000301
847.000000	-0.000248
846.000000	-0.000207
845.000000	-0.000160
844.000000	-0.000079
843.000000	0.000067
842.000000	0.000304
841.000000	0.000637
840.000000	0.001014
839.000000	0.001342
838.000000	0.001557
837.000000	0.001660
836.000000	0.001685
835.000000	0.001653
834.000000	0.001567
833.000000	0.001427
832.000000	0.001240
831.000000	0.001020
830.000000	0.000791
829.000000	0.000594
828.000000	0.000454
827.000000	0.000360
826.000000	0.000273
825.000000	0.000164
824.000000	0.000032
823.000000	-0.000100
822.000000	-0.000204
821.000000	-0.000266
820.000000	-0.000305
819.000000	-0.000342
818.000000	-0.000374
817.000000	-0.000380
816.000000	-0.000358
815.000000	-0.000331
814.000000	-0.000315
813.000000	-0.000282
812.000000	-0.000203
811.000000	-0.000100
810.000000	-0.000027
809.000000	-0.000020
808.000000	-0.000066
807.000000	-0.000115
806.000000	-0.000124
805.000000	-0.000084
804.000000	-0.000024
803.000000	0.000018
802.000000	0.000038
801.000000	0.000071
800.000000	0.000148
799.000000	0.000263
798.000000	0.000387
797.000000	0.000506
796.000000	0.000618
795.000000	0.000722
794.000000	0.000818
793.000000	0.000923
792.000000	0.001053
791.000000	0.001203
790.000000	0.001338
789.000000	0.001429
788.000000	0.001480
787.000000	0.001526
786.000000	0.001607
785.000000	0.001738
784.000000	0.001887
783.000000	0.002013
782.000000	0.002113
781.000000	0.002225
780.000000	0.002375
779.000000	0.002533
778.000000	0.002652
777.000000	0.002721
776.000000	0.002765
775.000000	0.002804
774.000000	0.002821
773.000000	0.002788
772.000000	0.002691
771.000000	0.002541
770.000000	0.002378
769.000000	0.002256
768.000000	0.002209
767.000000	0.002213
766.000000	0.002199
765.000000	0.002117
764.000000	0.001976
763.000000	0.001829
762.000000	0.001713
761.000000	0.001625
760.000000	0.001547
759.000000	0.001476
758.000000	0.001420
757.000000	0.001384
756.000000	0.001356
755.000000	0.001320
754.000000	0.001265
753.000000	0.001184
752.000000	0.001083
751.000000	0.000981
750.000000	0.000896
749.000000	0.000819
748.000000	0.000721
747.000000	0.000595
746.000000	0.000476
745.000000	0.000409
744.000000	0.000390
743.000000	0.000374
742.000000	0.000326
741.000000	0.000243
740.000000	0.000137
739.000000	0.000023
738.000000	-0.000075
737.000000	-0.000143
736.000000	-0.000198
735.000000	-0.000272
734.000000	-0.000364
733.000000	-0.000427
732.000000	-0.000422
731.000000	-0.000358
730.000000	-0.000271
729.000000	-0.000181
728.000000	-0.000089
727.000000	0.000002
726.000000	0.000080
725.000000	0.000141
724.000000	0.000184
723.000000	0.000220
722.000000	0.000275
721.000000	0.000372
720.000000	0.000479
719.000000	0.000535
718.000000	0.000517
717.000000	0.000478
716.000000	0.000483
715.000000	0.000543
714.000000	0.000620
713.000000	0.000686
712.000000	0.000744
711.000000	0.000802
710.000000	0.000853
709.000000	0.000886
708.000000	0.000897
707.000000	0.000885
706.000000	0.000860
705.000000	0.000843
704.000000	0.000840
703.000000	0.000832
702.000000	0.000798
701.000000	0.000745
700.000000	0.000701
699.000000	0.000689
698.000000	0.000731
697.000000	0.000854
696.000000	0.001073
695.000000	0.001370
694.000000	0.001693
693.000000	0.001978
692.000000	0.002174
691.000000	0.002246
690.000000	0.002198
689.000000	0.002096
688.000000	0.002067
687.000000	0.002274
686.000000	0.002846
685.000000	0.003809
684.000000	0.005061
683.000000	0.006398
682.000000	0.007591
681.000000	0.008448
680.000000	0.008859
679.000000	0.008830
678.000000	0.008456
677.000000	0.007872
676.000000	0.007206
675.000000	0.006540
674.000000	0.005908
673.000000	0.005328
672.000000	0.004805
671.000000	0.004315
670.000000	0.003803
669.000000	0.003238
668.000000	0.002786
667.000000	0.002774
666.000000	0.002959
665.000000	0.003087
664.000000	0.003192
663.000000	0.003309
662.000000	0.003465
661.000000	0.003691
660.000000	0.003971
659.000000	0.004202
658.000000	0.004270
657.000000	0.004156
656.000000	0.003905
655.000000	0.003542
654.000000	0.003096
653.000000	0.002641
652.000000	0.002245
651.000000	0.001941
650.000000	0.001769
649.000000	0.001788
648.000000	0.002004
647.000000	0.002323
646.000000	0.002620
645.000000	0.002806
644.000000	0.002831
643.000000	0.002677
642.000000	0.002397
641.000000	0.002103
640.000000	0.001881
639.000000	0.001726
638.000000	0.001596
637.000000	0.001473
636.000000	0.001357
635.000000	0.001242
634.000000	0.001147
633.000000	0.001111
632.000000	0.001139
631.000000	0.001176
630.000000	0.001170
629.000000	0.001146
628.000000	0.001156
627.000000	0.001206
626.000000	0.001256
625.000000	0.001278
624.000000	0.001274
623.000000	0.001276
622.000000	0.001331
621.000000	0.001478
620.000000	0.001699
619.000000	0.001934
618.000000	0.002144
617.000000	0.002343
616.000000	0.002540
615.000000	0.002709
614.000000	0.002830
613.000000	0.002934
612.000000	0.003056
611.000000	0.003193
610.000000	0.003338
609.000000	0.003517
608.000000	0.003745
607.000000	0.003987
606.000000	0.004221
605.000000	0.004474
604.000000	0.004753
603.000000	0.004998
602.000000	0.005151
601.000000	0.005241
600.000000	0.005332
599.000000	0.005432
598.000000	0.005516
597.000000	0.005587
596.000000	0.005660
595.000000	0.005702
594.000000	0.005666
593.000000	0.005548
592.000000	0.005380
591.000000	0.005171
590.000000	0.004910
589.000000	0.004608
588.000000	0.004297
587.000000	0.004006
586.000000	0.003762
585.000000	0.003589
584.000000	0.003472
583.000000	0.003350
582.000000	0.003189
581.000000	0.003029
580.000000	0.002912
579.000000	0.002809
578.000000	0.002656
577.000000	0.002446
576.000000	0.002246
575.000000	0.002124
574.000000	0.002100
573.000000	0.002151
572.000000	0.002224
571.000000	0.002262
570.000000	0.002258
569.000000	0.002260
568.000000	0.002289
567.000000	0.002293
566.000000	0.002231
565.000000	0.002170
564.000000	0.002207
563.000000	0.002348
562.000000	0.002528
561.000000	0.002722
560.000000	0.002958
559.000000	0.003221
558.000000	0.003434
557.000000	0.003563
556.000000	0.003638
555.000000	0.003688
554.000000	0.003719
553.000000	0.003756
552.000000	0.003822
551.000000	0.003883
550.000000	0.003891
549.000000	0.003881
548.000000	0.003951
547.000000	0.004138
546.000000	0.004382
545.000000	0.004619
544.000000	0.004836
543.000000	0.005009
542.000000	0.005088
541.000000	0.005063
540.000000	0.004993
539.000000	0.004945
538.000000	0.004930
537.000000	0.004923
536.000000	0.004900
535.000000	0.004865
534.000000	0.004847
533.000000	0.004862
532.000000	0.004849
531.000000	0.004710
530.000000	0.004455
529.000000	0.004243
528.000000	0.004193
527.000000	0.004260
526.000000	0.004329
525.000000	0.004384
524.000000	0.004476
523.000000	0.004567
522.000000	0.004540
521.000000	0.004337
520.000000	0.003989
519.000000	0.003542
518.000000	0.003061
517.000000	0.002693
516.000000	0.002565
515.000000	0.002636
514.000000	0.002762
513.000000	0.002885
512.000000	0.003046
511.000000	0.003218
510.000000	0.003262
509.000000	0.003075
508.000000	0.002686
507.000000	0.002202
506.000000	0.001733
505.000000	0.001344
504.000000	0.001042
503.000000	0.000781
502.000000	0.000537
501.000000	0.000359
500.000000	0.000288
499.000000	0.000287
498.000000	0.000281
497.000000	0.000235
496.000000	0.000162
495.000000	0.000070
494.000000	-0.000030
493.000000	-0.000115
492.000000	-0.000210
491.000000	-0.000358
490.000000	-0.000523
489.000000	-0.000557
488.000000	-0.000393
487.000000	-0.000166
486.000000	-0.000047
485.000000	-0.000011
484.000000	0.000107
483.000000	0.000336
482.000000	0.000501
481.000000	0.000446
480.000000	0.000207
479.000000	-0.000036
478.000000	-0.000107
477.000000	0.000065
476.000000	0.000398
475.000000	0.000702
474.000000	0.000833
473.000000	0.000823
472.000000	0.000823
471.000000	0.000914
470.000000	0.001037
469.000000	0.001113
468.000000	0.001106
467.000000	0.001002
466.000000	0.000853
465.000000	0.000789
464.000000	0.000887
463.000000	0.001054
462.000000	0.001108
461.000000	0.000961
460.000000	0.000634
459.000000	0.000173
458.000000	-0.000269
457.000000	-0.000399
456.000000	-0.000154
455.000000	-0.000289
454.000000	-0.000216
453.000000	-0.000490
452.000000	-0.000649
451.000000	-0.000459
450.000000	-0.000145
