PE IR       SUBTECH     SPECTRUM    ASCII       PEDS        4.00        
   -1
P3-Bleu027_1.ASC
23/06/13
11:43:30.00
23/06/13
12:04:49.00
uco
Sample 027 By uco Date Tuesday, June 13 2023
450.000000
#HDR
-1
-1
#GR
cm-1
A
1.0
0.0
4000.000000
-1.000000
3551
8
0.007822
-0.000604
#DATA
4000.000000	-0.000083
3999.000000	-0.000085
3998.000000	-0.000086
3997.000000	-0.000087
3996.000000	-0.000082
3995.000000	-0.000071
3994.000000	-0.000060
3993.000000	-0.000056
3992.000000	-0.000063
3991.000000	-0.000076
3990.000000	-0.000087
3989.000000	-0.000092
3988.000000	-0.000094
3987.000000	-0.000096
3986.000000	-0.000097
3985.000000	-0.000096
3984.000000	-0.000093
3983.000000	-0.000089
3982.000000	-0.000083
3981.000000	-0.000075
3980.000000	-0.000067
3979.000000	-0.000062
3978.000000	-0.000065
3977.000000	-0.000075
3976.000000	-0.000086
3975.000000	-0.000092
3974.000000	-0.000084
3973.000000	-0.000059
3972.000000	-0.000026
3971.000000	0.000004
3970.000000	0.000020
3969.000000	0.000020
3968.000000	0.000011
3967.000000	0.000003
3966.000000	0.000002
3965.000000	0.000004
3964.000000	0.000004
3963.000000	-0.000002
3962.000000	-0.000016
3961.000000	-0.000035
3960.000000	-0.000057
3959.000000	-0.000077
3958.000000	-0.000087
3957.000000	-0.000083
3956.000000	-0.000064
3955.000000	-0.000040
3954.000000	-0.000020
3953.000000	-0.000010
3952.000000	-0.000013
3951.000000	-0.000028
3950.000000	-0.000052
3949.000000	-0.000078
3948.000000	-0.000097
3947.000000	-0.000099
3946.000000	-0.000088
3945.000000	-0.000071
3944.000000	-0.000056
3943.000000	-0.000043
3942.000000	-0.000036
3941.000000	-0.000036
3940.000000	-0.000039
3939.000000	-0.000036
3938.000000	-0.000023
3937.000000	-0.000004
3936.000000	0.000008
3935.000000	0.000009
3934.000000	0.000010
3933.000000	0.000022
3932.000000	0.000041
3931.000000	0.000051
3930.000000	0.000042
3929.000000	0.000020
3928.000000	0.000001
3927.000000	-0.000008
3926.000000	-0.000013
3925.000000	-0.000023
3924.000000	-0.000041
3923.000000	-0.000062
3922.000000	-0.000079
3921.000000	-0.000088
3920.000000	-0.000092
3919.000000	-0.000095
3918.000000	-0.000092
3917.000000	-0.000072
3916.000000	-0.000034
3915.000000	0.000010
3914.000000	0.000045
3913.000000	0.000067
3912.000000	0.000082
3911.000000	0.000097
3910.000000	0.000116
3909.000000	0.000135
3908.000000	0.000149
3907.000000	0.000145
3906.000000	0.000110
3905.000000	0.000042
3904.000000	-0.000044
3903.000000	-0.000116
3902.000000	-0.000150
3901.000000	-0.000145
3900.000000	-0.000111
3899.000000	-0.000060
3898.000000	-0.000009
3897.000000	0.000030
3896.000000	0.000049
3895.000000	0.000049
3894.000000	0.000034
3893.000000	0.000010
3892.000000	-0.000014
3891.000000	-0.000025
3890.000000	-0.000022
3889.000000	-0.000027
3888.000000	-0.000061
3887.000000	-0.000112
3886.000000	-0.000142
3885.000000	-0.000123
3884.000000	-0.000071
3883.000000	-0.000020
3882.000000	0.000010
3881.000000	0.000017
3880.000000	0.000008
3879.000000	0.000002
3878.000000	0.000012
3877.000000	0.000039
3876.000000	0.000076
3875.000000	0.000120
3874.000000	0.000156
3873.000000	0.000160
3872.000000	0.000118
3871.000000	0.000050
3870.000000	0.000002
3869.000000	0.000003
3868.000000	0.000038
3867.000000	0.000072
3866.000000	0.000091
3865.000000	0.000099
3864.000000	0.000092
3863.000000	0.000065
3862.000000	0.000031
3861.000000	0.000004
3860.000000	-0.000004
3859.000000	0.000008
3858.000000	0.000040
3857.000000	0.000083
3856.000000	0.000117
3855.000000	0.000125
3854.000000	0.000106
3853.000000	0.000066
3852.000000	0.000036
3851.000000	0.000026
3850.000000	0.000021
3849.000000	0.000021
3848.000000	0.000026
3847.000000	0.000035
3846.000000	0.000048
3845.000000	0.000065
3844.000000	0.000087
3843.000000	0.000107
3842.000000	0.000122
3841.000000	0.000128
3840.000000	0.000129
3839.000000	0.000129
3838.000000	0.000128
3837.000000	0.000124
3836.000000	0.000111
3835.000000	0.000087
3834.000000	0.000053
3833.000000	0.000023
3832.000000	0.000007
3831.000000	0.000006
3830.000000	0.000010
3829.000000	0.000014
3828.000000	0.000020
3827.000000	0.000035
3826.000000	0.000061
3825.000000	0.000084
3824.000000	0.000090
3823.000000	0.000085
3822.000000	0.000093
3821.000000	0.000120
3820.000000	0.000146
3819.000000	0.000157
3818.000000	0.000150
3817.000000	0.000136
3816.000000	0.000138
3815.000000	0.000152
3814.000000	0.000151
3813.000000	0.000125
3812.000000	0.000084
3811.000000	0.000049
3810.000000	0.000024
3809.000000	0.000006
3808.000000	0.000005
3807.000000	0.000030
3806.000000	0.000074
3805.000000	0.000114
3804.000000	0.000128
3803.000000	0.000123
3802.000000	0.000124
3801.000000	0.000144
3800.000000	0.000167
3799.000000	0.000175
3798.000000	0.000161
3797.000000	0.000133
3796.000000	0.000098
3795.000000	0.000063
3794.000000	0.000032
3793.000000	0.000009
3792.000000	0.000001
3791.000000	0.000010
3790.000000	0.000033
3789.000000	0.000067
3788.000000	0.000107
3787.000000	0.000143
3786.000000	0.000163
3785.000000	0.000166
3784.000000	0.000163
3783.000000	0.000160
3782.000000	0.000153
3781.000000	0.000132
3780.000000	0.000098
3779.000000	0.000062
3778.000000	0.000038
3777.000000	0.000030
3776.000000	0.000037
3775.000000	0.000060
3774.000000	0.000094
3773.000000	0.000122
3772.000000	0.000126
3771.000000	0.000102
3770.000000	0.000068
3769.000000	0.000039
3768.000000	0.000018
3767.000000	0.000003
3766.000000	-0.000004
3765.000000	0.000008
3764.000000	0.000036
3763.000000	0.000063
3762.000000	0.000081
3761.000000	0.000095
3760.000000	0.000112
3759.000000	0.000119
3758.000000	0.000109
3757.000000	0.000092
3756.000000	0.000085
3755.000000	0.000089
3754.000000	0.000096
3753.000000	0.000089
3752.000000	0.000053
3751.000000	-0.000015
3750.000000	-0.000075
3749.000000	-0.000079
3748.000000	-0.000043
3747.000000	-0.000018
3746.000000	-0.000028
3745.000000	-0.000036
3744.000000	-0.000003
3743.000000	0.000046
3742.000000	0.000058
3741.000000	0.000024
3740.000000	-0.000024
3739.000000	-0.000064
3738.000000	-0.000092
3737.000000	-0.000111
3736.000000	-0.000113
3735.000000	-0.000106
3734.000000	-0.000105
3733.000000	-0.000107
3732.000000	-0.000090
3731.000000	-0.000053
3730.000000	-0.000016
3729.000000	-0.000001
3728.000000	-0.000005
3727.000000	-0.000012
3726.000000	-0.000015
3725.000000	-0.000024
3724.000000	-0.000042
3723.000000	-0.000055
3722.000000	-0.000051
3721.000000	-0.000033
3720.000000	-0.000011
3719.000000	0.000003
3718.000000	0.000009
3717.000000	0.000013
3716.000000	0.000020
3715.000000	0.000030
3714.000000	0.000050
3713.000000	0.000092
3712.000000	0.000146
3711.000000	0.000175
3710.000000	0.000154
3709.000000	0.000099
3708.000000	0.000044
3707.000000	0.000018
3706.000000	0.000023
3705.000000	0.000041
3704.000000	0.000050
3703.000000	0.000037
3702.000000	0.000007
3701.000000	-0.000021
3700.000000	-0.000026
3699.000000	-0.000010
3698.000000	0.000017
3697.000000	0.000046
3696.000000	0.000072
3695.000000	0.000091
3694.000000	0.000105
3693.000000	0.000123
3692.000000	0.000140
3691.000000	0.000137
3690.000000	0.000097
3689.000000	0.000045
3688.000000	0.000034
3687.000000	0.000067
3686.000000	0.000101
3685.000000	0.000109
3684.000000	0.000099
3683.000000	0.000090
3682.000000	0.000088
3681.000000	0.000094
3680.000000	0.000107
3679.000000	0.000124
3678.000000	0.000124
3677.000000	0.000104
3676.000000	0.000082
3675.000000	0.000078
3674.000000	0.000092
3673.000000	0.000112
3672.000000	0.000124
3671.000000	0.000137
3670.000000	0.000162
3669.000000	0.000177
3668.000000	0.000170
3667.000000	0.000152
3666.000000	0.000138
3665.000000	0.000139
3664.000000	0.000159
3663.000000	0.000193
3662.000000	0.000228
3661.000000	0.000250
3660.000000	0.000251
3659.000000	0.000231
3658.000000	0.000198
3657.000000	0.000171
3656.000000	0.000167
3655.000000	0.000183
3654.000000	0.000193
3653.000000	0.000177
3652.000000	0.000140
3651.000000	0.000110
3650.000000	0.000098
3649.000000	0.000097
3648.000000	0.000109
3647.000000	0.000142
3646.000000	0.000183
3645.000000	0.000212
3644.000000	0.000225
3643.000000	0.000232
3642.000000	0.000248
3641.000000	0.000272
3640.000000	0.000294
3639.000000	0.000305
3638.000000	0.000308
3637.000000	0.000304
3636.000000	0.000289
3635.000000	0.000262
3634.000000	0.000229
3633.000000	0.000190
3632.000000	0.000140
3631.000000	0.000087
3630.000000	0.000065
3629.000000	0.000096
3628.000000	0.000150
3627.000000	0.000185
3626.000000	0.000190
3625.000000	0.000176
3624.000000	0.000166
3623.000000	0.000173
3622.000000	0.000195
3621.000000	0.000223
3620.000000	0.000251
3619.000000	0.000268
3618.000000	0.000273
3617.000000	0.000270
3616.000000	0.000266
3615.000000	0.000260
3614.000000	0.000257
3613.000000	0.000252
3612.000000	0.000237
3611.000000	0.000212
3610.000000	0.000196
3609.000000	0.000210
3608.000000	0.000254
3607.000000	0.000306
3606.000000	0.000341
3605.000000	0.000355
3604.000000	0.000357
3603.000000	0.000357
3602.000000	0.000364
3601.000000	0.000381
3600.000000	0.000404
3599.000000	0.000425
3598.000000	0.000443
3597.000000	0.000468
3596.000000	0.000506
3595.000000	0.000550
3594.000000	0.000578
3593.000000	0.000574
3592.000000	0.000540
3591.000000	0.000490
3590.000000	0.000447
3589.000000	0.000430
3588.000000	0.000445
3587.000000	0.000478
3586.000000	0.000509
3585.000000	0.000531
3584.000000	0.000552
3583.000000	0.000576
3582.000000	0.000608
3581.000000	0.000642
3580.000000	0.000674
3579.000000	0.000704
3578.000000	0.000733
3577.000000	0.000757
3576.000000	0.000768
3575.000000	0.000761
3574.000000	0.000747
3573.000000	0.000742
3572.000000	0.000754
3571.000000	0.000773
3570.000000	0.000789
3569.000000	0.000800
3568.000000	0.000824
3567.000000	0.000874
3566.000000	0.000943
3565.000000	0.001001
3564.000000	0.001029
3563.000000	0.001031
3562.000000	0.001023
3561.000000	0.001019
3560.000000	0.001019
3559.000000	0.001016
3558.000000	0.001004
3557.000000	0.000987
3556.000000	0.000971
3555.000000	0.000963
3554.000000	0.000971
3553.000000	0.001000
3552.000000	0.001046
3551.000000	0.001092
3550.000000	0.001125
3549.000000	0.001140
3548.000000	0.001144
3547.000000	0.001150
3546.000000	0.001163
3545.000000	0.001182
3544.000000	0.001197
3543.000000	0.001204
3542.000000	0.001199
3541.000000	0.001187
3540.000000	0.001174
3539.000000	0.001166
3538.000000	0.001171
3537.000000	0.001196
3536.000000	0.001238
3535.000000	0.001283
3534.000000	0.001320
3533.000000	0.001344
3532.000000	0.001363
3531.000000	0.001385
3530.000000	0.001405
3529.000000	0.001414
3528.000000	0.001404
3527.000000	0.001386
3526.000000	0.001375
3525.000000	0.001387
3524.000000	0.001422
3523.000000	0.001467
3522.000000	0.001503
3521.000000	0.001519
3520.000000	0.001518
3519.000000	0.001512
3518.000000	0.001516
3517.000000	0.001529
3516.000000	0.001541
3515.000000	0.001543
3514.000000	0.001535
3513.000000	0.001526
3512.000000	0.001528
3511.000000	0.001542
3510.000000	0.001559
3509.000000	0.001569
3508.000000	0.001574
3507.000000	0.001580
3506.000000	0.001592
3505.000000	0.001609
3504.000000	0.001628
3503.000000	0.001645
3502.000000	0.001661
3501.000000	0.001675
3500.000000	0.001689
3499.000000	0.001706
3498.000000	0.001723
3497.000000	0.001736
3496.000000	0.001746
3495.000000	0.001759
3494.000000	0.001783
3493.000000	0.001815
3492.000000	0.001845
3491.000000	0.001862
3490.000000	0.001866
3489.000000	0.001862
3488.000000	0.001860
3487.000000	0.001867
3486.000000	0.001882
3485.000000	0.001897
3484.000000	0.001907
3483.000000	0.001914
3482.000000	0.001923
3481.000000	0.001934
3480.000000	0.001944
3479.000000	0.001947
3478.000000	0.001944
3477.000000	0.001939
3476.000000	0.001939
3475.000000	0.001951
3474.000000	0.001976
3473.000000	0.002007
3472.000000	0.002034
3471.000000	0.002049
3470.000000	0.002055
3469.000000	0.002057
3468.000000	0.002055
3467.000000	0.002051
3466.000000	0.002047
3465.000000	0.002049
3464.000000	0.002058
3463.000000	0.002072
3462.000000	0.002087
3461.000000	0.002101
3460.000000	0.002112
3459.000000	0.002126
3458.000000	0.002150
3457.000000	0.002187
3456.000000	0.002229
3455.000000	0.002258
3454.000000	0.002263
3453.000000	0.002245
3452.000000	0.002217
3451.000000	0.002198
3450.000000	0.002200
3449.000000	0.002220
3448.000000	0.002246
3447.000000	0.002264
3446.000000	0.002266
3445.000000	0.002259
3444.000000	0.002258
3443.000000	0.002274
3442.000000	0.002306
3441.000000	0.002340
3440.000000	0.002366
3439.000000	0.002379
3438.000000	0.002384
3437.000000	0.002380
3436.000000	0.002369
3435.000000	0.002354
3434.000000	0.002347
3433.000000	0.002353
3432.000000	0.002369
3431.000000	0.002386
3430.000000	0.002401
3429.000000	0.002419
3428.000000	0.002441
3427.000000	0.002464
3426.000000	0.002477
3425.000000	0.002473
3424.000000	0.002455
3423.000000	0.002437
3422.000000	0.002433
3421.000000	0.002450
3420.000000	0.002480
3419.000000	0.002510
3418.000000	0.002535
3417.000000	0.002553
3416.000000	0.002564
3415.000000	0.002569
3414.000000	0.002572
3413.000000	0.002578
3412.000000	0.002585
3411.000000	0.002591
3410.000000	0.002595
3409.000000	0.002600
3408.000000	0.002608
3407.000000	0.002623
3406.000000	0.002645
3405.000000	0.002665
3404.000000	0.002674
3403.000000	0.002671
3402.000000	0.002663
3401.000000	0.002662
3400.000000	0.002669
3399.000000	0.002681
3398.000000	0.002695
3397.000000	0.002709
3396.000000	0.002724
3395.000000	0.002742
3394.000000	0.002766
3393.000000	0.002791
3392.000000	0.002808
3391.000000	0.002807
3390.000000	0.002789
3389.000000	0.002764
3388.000000	0.002745
3387.000000	0.002738
3386.000000	0.002749
3385.000000	0.002777
3384.000000	0.002821
3383.000000	0.002866
3382.000000	0.002898
3381.000000	0.002903
3380.000000	0.002884
3379.000000	0.002856
3378.000000	0.002840
3377.000000	0.002844
3376.000000	0.002861
3375.000000	0.002878
3374.000000	0.002891
3373.000000	0.002906
3372.000000	0.002925
3371.000000	0.002945
3370.000000	0.002958
3369.000000	0.002964
3368.000000	0.002968
3367.000000	0.002972
3366.000000	0.002972
3365.000000	0.002965
3364.000000	0.002952
3363.000000	0.002937
3362.000000	0.002929
3361.000000	0.002932
3360.000000	0.002944
3359.000000	0.002961
3358.000000	0.002973
3357.000000	0.002979
3356.000000	0.002984
3355.000000	0.002994
3354.000000	0.003010
3353.000000	0.003025
3352.000000	0.003036
3351.000000	0.003042
3350.000000	0.003049
3349.000000	0.003063
3348.000000	0.003085
3347.000000	0.003106
3346.000000	0.003123
3345.000000	0.003134
3344.000000	0.003145
3343.000000	0.003157
3342.000000	0.003170
3341.000000	0.003177
3340.000000	0.003174
3339.000000	0.003159
3338.000000	0.003140
3337.000000	0.003129
3336.000000	0.003133
3335.000000	0.003153
3334.000000	0.003175
3333.000000	0.003190
3332.000000	0.003197
3331.000000	0.003196
3330.000000	0.003189
3329.000000	0.003175
3328.000000	0.003159
3327.000000	0.003151
3326.000000	0.003158
3325.000000	0.003177
3324.000000	0.003198
3323.000000	0.003216
3322.000000	0.003233
3321.000000	0.003254
3320.000000	0.003277
3319.000000	0.003299
3318.000000	0.003313
3317.000000	0.003316
3316.000000	0.003313
3315.000000	0.003315
3314.000000	0.003325
3313.000000	0.003336
3312.000000	0.003336
3311.000000	0.003322
3310.000000	0.003298
3309.000000	0.003274
3308.000000	0.003257
3307.000000	0.003250
3306.000000	0.003256
3305.000000	0.003278
3304.000000	0.003311
3303.000000	0.003345
3302.000000	0.003366
3301.000000	0.003369
3300.000000	0.003356
3299.000000	0.003335
3298.000000	0.003317
3297.000000	0.003311
3296.000000	0.003314
3295.000000	0.003316
3294.000000	0.003310
3293.000000	0.003299
3292.000000	0.003297
3291.000000	0.003315
3290.000000	0.003350
3289.000000	0.003384
3288.000000	0.003398
3287.000000	0.003390
3286.000000	0.003371
3285.000000	0.003357
3284.000000	0.003354
3283.000000	0.003359
3282.000000	0.003361
3281.000000	0.003356
3280.000000	0.003346
3279.000000	0.003336
3278.000000	0.003322
3277.000000	0.003299
3276.000000	0.003268
3275.000000	0.003238
3274.000000	0.003214
3273.000000	0.003197
3272.000000	0.003189
3271.000000	0.003199
3270.000000	0.003233
3269.000000	0.003284
3268.000000	0.003330
3267.000000	0.003352
3266.000000	0.003347
3265.000000	0.003327
3264.000000	0.003308
3263.000000	0.003299
3262.000000	0.003298
3261.000000	0.003300
3260.000000	0.003303
3259.000000	0.003306
3258.000000	0.003313
3257.000000	0.003317
3256.000000	0.003310
3255.000000	0.003289
3254.000000	0.003265
3253.000000	0.003250
3252.000000	0.003252
3251.000000	0.003262
3250.000000	0.003265
3249.000000	0.003254
3248.000000	0.003230
3247.000000	0.003202
3246.000000	0.003183
3245.000000	0.003180
3244.000000	0.003197
3243.000000	0.003230
3242.000000	0.003260
3241.000000	0.003265
3240.000000	0.003241
3239.000000	0.003204
3238.000000	0.003173
3237.000000	0.003157
3236.000000	0.003148
3235.000000	0.003134
3234.000000	0.003113
3233.000000	0.003089
3232.000000	0.003074
3231.000000	0.003072
3230.000000	0.003080
3229.000000	0.003088
3228.000000	0.003088
3227.000000	0.003080
3226.000000	0.003071
3225.000000	0.003067
3224.000000	0.003062
3223.000000	0.003054
3222.000000	0.003047
3221.000000	0.003049
3220.000000	0.003063
3219.000000	0.003081
3218.000000	0.003091
3217.000000	0.003085
3216.000000	0.003066
3215.000000	0.003040
3214.000000	0.003019
3213.000000	0.003011
3212.000000	0.003022
3211.000000	0.003045
3210.000000	0.003068
3209.000000	0.003078
3208.000000	0.003071
3207.000000	0.003053
3206.000000	0.003035
3205.000000	0.003030
3204.000000	0.003041
3203.000000	0.003060
3202.000000	0.003076
3201.000000	0.003078
3200.000000	0.003068
3199.000000	0.003054
3198.000000	0.003041
3197.000000	0.003030
3196.000000	0.003018
3195.000000	0.003008
3194.000000	0.003008
3193.000000	0.003017
3192.000000	0.003026
3191.000000	0.003025
3190.000000	0.003008
3189.000000	0.002980
3188.000000	0.002951
3187.000000	0.002928
3186.000000	0.002916
3185.000000	0.002915
3184.000000	0.002926
3183.000000	0.002946
3182.000000	0.002970
3181.000000	0.002989
3180.000000	0.002996
3179.000000	0.002987
3178.000000	0.002964
3177.000000	0.002930
3176.000000	0.002892
3175.000000	0.002857
3174.000000	0.002831
3173.000000	0.002816
3172.000000	0.002808
3171.000000	0.002808
3170.000000	0.002818
3169.000000	0.002837
3168.000000	0.002854
3167.000000	0.002858
3166.000000	0.002847
3165.000000	0.002828
3164.000000	0.002810
3163.000000	0.002793
3162.000000	0.002779
3161.000000	0.002769
3160.000000	0.002764
3159.000000	0.002762
3158.000000	0.002757
3157.000000	0.002745
3156.000000	0.002731
3155.000000	0.002719
3154.000000	0.002714
3153.000000	0.002716
3152.000000	0.002721
3151.000000	0.002717
3150.000000	0.002701
3149.000000	0.002678
3148.000000	0.002661
3147.000000	0.002655
3146.000000	0.002650
3145.000000	0.002637
3144.000000	0.002617
3143.000000	0.002598
3142.000000	0.002590
3141.000000	0.002594
3140.000000	0.002601
3139.000000	0.002599
3138.000000	0.002580
3137.000000	0.002549
3136.000000	0.002519
3135.000000	0.002502
3134.000000	0.002499
3133.000000	0.002501
3132.000000	0.002497
3131.000000	0.002486
3130.000000	0.002473
3129.000000	0.002467
3128.000000	0.002473
3127.000000	0.002489
3126.000000	0.002503
3125.000000	0.002498
3124.000000	0.002471
3123.000000	0.002427
3122.000000	0.002383
3121.000000	0.002352
3120.000000	0.002339
3119.000000	0.002341
3118.000000	0.002355
3117.000000	0.002373
3116.000000	0.002390
3115.000000	0.002400
3114.000000	0.002403
3113.000000	0.002398
3112.000000	0.002388
3111.000000	0.002378
3110.000000	0.002371
3109.000000	0.002370
3108.000000	0.002372
3107.000000	0.002370
3106.000000	0.002363
3105.000000	0.002353
3104.000000	0.002344
3103.000000	0.002338
3102.000000	0.002335
3101.000000	0.002337
3100.000000	0.002343
3099.000000	0.002349
3098.000000	0.002342
3097.000000	0.002317
3096.000000	0.002282
3095.000000	0.002252
3094.000000	0.002240
3093.000000	0.002243
3092.000000	0.002250
3091.000000	0.002250
3090.000000	0.002237
3089.000000	0.002213
3088.000000	0.002190
3087.000000	0.002179
3086.000000	0.002185
3085.000000	0.002198
3084.000000	0.002208
3083.000000	0.002212
3082.000000	0.002215
3081.000000	0.002216
3080.000000	0.002211
3079.000000	0.002199
3078.000000	0.002190
3077.000000	0.002198
3076.000000	0.002225
3075.000000	0.002255
3074.000000	0.002267
3073.000000	0.002255
3072.000000	0.002228
3071.000000	0.002205
3070.000000	0.002196
3069.000000	0.002198
3068.000000	0.002203
3067.000000	0.002205
3066.000000	0.002199
3065.000000	0.002184
3064.000000	0.002162
3063.000000	0.002140
3062.000000	0.002128
3061.000000	0.002130
3060.000000	0.002145
3059.000000	0.002164
3058.000000	0.002176
3057.000000	0.002172
3056.000000	0.002156
3055.000000	0.002141
3054.000000	0.002139
3053.000000	0.002150
3052.000000	0.002159
3051.000000	0.002153
3050.000000	0.002130
3049.000000	0.002103
3048.000000	0.002083
3047.000000	0.002072
3046.000000	0.002062
3045.000000	0.002046
3044.000000	0.002022
3043.000000	0.001993
3042.000000	0.001968
3041.000000	0.001953
3040.000000	0.001957
3039.000000	0.001978
3038.000000	0.002006
3037.000000	0.002025
3036.000000	0.002026
3035.000000	0.002010
3034.000000	0.001991
3033.000000	0.001988
3032.000000	0.002010
3031.000000	0.002048
3030.000000	0.002077
3029.000000	0.002079
3028.000000	0.002053
3027.000000	0.002021
3026.000000	0.002008
3025.000000	0.002019
3024.000000	0.002042
3023.000000	0.002060
3022.000000	0.002063
3021.000000	0.002049
3020.000000	0.002026
3019.000000	0.002009
3018.000000	0.002014
3017.000000	0.002045
3016.000000	0.002092
3015.000000	0.002138
3014.000000	0.002171
3013.000000	0.002187
3012.000000	0.002193
3011.000000	0.002196
3010.000000	0.002200
3009.000000	0.002204
3008.000000	0.002206
3007.000000	0.002208
3006.000000	0.002213
3005.000000	0.002224
3004.000000	0.002237
3003.000000	0.002246
3002.000000	0.002246
3001.000000	0.002234
3000.000000	0.002219
2999.000000	0.002210
2998.000000	0.002215
2997.000000	0.002231
2996.000000	0.002254
2995.000000	0.002284
2994.000000	0.002325
2993.000000	0.002376
2992.000000	0.002427
2991.000000	0.002471
2990.000000	0.002504
2989.000000	0.002525
2988.000000	0.002534
2987.000000	0.002533
2986.000000	0.002524
2985.000000	0.002514
2984.000000	0.002510
2983.000000	0.002518
2982.000000	0.002538
2981.000000	0.002563
2980.000000	0.002582
2979.000000	0.002596
2978.000000	0.002615
2977.000000	0.002646
2976.000000	0.002691
2975.000000	0.002745
2974.000000	0.002800
2973.000000	0.002851
2972.000000	0.002893
2971.000000	0.002932
2970.000000	0.002970
2969.000000	0.003005
2968.000000	0.003026
2967.000000	0.003034
2966.000000	0.003039
2965.000000	0.003059
2964.000000	0.003097
2963.000000	0.003146
2962.000000	0.003198
2961.000000	0.003246
2960.000000	0.003289
2959.000000	0.003327
2958.000000	0.003363
2957.000000	0.003396
2956.000000	0.003418
2955.000000	0.003424
2954.000000	0.003418
2953.000000	0.003409
2952.000000	0.003401
2951.000000	0.003394
2950.000000	0.003389
2949.000000	0.003388
2948.000000	0.003396
2947.000000	0.003408
2946.000000	0.003419
2945.000000	0.003433
2944.000000	0.003458
2943.000000	0.003497
2942.000000	0.003546
2941.000000	0.003594
2940.000000	0.003636
2939.000000	0.003675
2938.000000	0.003717
2937.000000	0.003767
2936.000000	0.003823
2935.000000	0.003882
2934.000000	0.003935
2933.000000	0.003979
2932.000000	0.004010
2931.000000	0.004031
2930.000000	0.004050
2929.000000	0.004081
2928.000000	0.004128
2927.000000	0.004181
2926.000000	0.004224
2925.000000	0.004247
2924.000000	0.004258
2923.000000	0.004272
2922.000000	0.004296
2921.000000	0.004313
2920.000000	0.004303
2919.000000	0.004252
2918.000000	0.004171
2917.000000	0.004081
2916.000000	0.004002
2915.000000	0.003943
2914.000000	0.003904
2913.000000	0.003878
2912.000000	0.003860
2911.000000	0.003844
2910.000000	0.003822
2909.000000	0.003791
2908.000000	0.003753
2907.000000	0.003713
2906.000000	0.003676
2905.000000	0.003644
2904.000000	0.003623
2903.000000	0.003615
2902.000000	0.003609
2901.000000	0.003592
2900.000000	0.003553
2899.000000	0.003498
2898.000000	0.003440
2897.000000	0.003389
2896.000000	0.003347
2895.000000	0.003313
2894.000000	0.003287
2893.000000	0.003264
2892.000000	0.003238
2891.000000	0.003213
2890.000000	0.003191
2889.000000	0.003175
2888.000000	0.003162
2887.000000	0.003151
2886.000000	0.003142
2885.000000	0.003132
2884.000000	0.003115
2883.000000	0.003094
2882.000000	0.003082
2881.000000	0.003092
2880.000000	0.003119
2879.000000	0.003149
2878.000000	0.003166
2877.000000	0.003165
2876.000000	0.003152
2875.000000	0.003133
2874.000000	0.003118
2873.000000	0.003110
2872.000000	0.003107
2871.000000	0.003107
2870.000000	0.003108
2869.000000	0.003113
2868.000000	0.003123
2867.000000	0.003132
2866.000000	0.003134
2865.000000	0.003126
2864.000000	0.003115
2863.000000	0.003105
2862.000000	0.003098
2861.000000	0.003093
2860.000000	0.003099
2859.000000	0.003122
2858.000000	0.003163
2857.000000	0.003207
2856.000000	0.003237
2855.000000	0.003248
2854.000000	0.003248
2853.000000	0.003241
2852.000000	0.003223
2851.000000	0.003186
2850.000000	0.003134
2849.000000	0.003079
2848.000000	0.003030
2847.000000	0.002981
2846.000000	0.002925
2845.000000	0.002861
2844.000000	0.002797
2843.000000	0.002742
2842.000000	0.002693
2841.000000	0.002648
2840.000000	0.002603
2839.000000	0.002564
2838.000000	0.002536
2837.000000	0.002518
2836.000000	0.002499
2835.000000	0.002475
2834.000000	0.002448
2833.000000	0.002423
2832.000000	0.002398
2831.000000	0.002368
2830.000000	0.002335
2829.000000	0.002306
2828.000000	0.002288
2827.000000	0.002279
2826.000000	0.002274
2825.000000	0.002267
2824.000000	0.002251
2823.000000	0.002225
2822.000000	0.002192
2821.000000	0.002159
2820.000000	0.002132
2819.000000	0.002114
2818.000000	0.002106
2817.000000	0.002111
2816.000000	0.002128
2815.000000	0.002147
2814.000000	0.002153
2813.000000	0.002133
2812.000000	0.002091
2811.000000	0.002048
2810.000000	0.002023
2809.000000	0.002029
2808.000000	0.002059
2807.000000	0.002094
2806.000000	0.002113
2805.000000	0.002104
2804.000000	0.002074
2803.000000	0.002035
2802.000000	0.002000
2801.000000	0.001972
2800.000000	0.001954
2799.000000	0.001949
2798.000000	0.001960
2797.000000	0.001986
2796.000000	0.002015
2795.000000	0.002035
2794.000000	0.002038
2793.000000	0.002024
2792.000000	0.001997
2791.000000	0.001968
2790.000000	0.001947
2789.000000	0.001937
2788.000000	0.001939
2787.000000	0.001949
2786.000000	0.001965
2785.000000	0.001983
2784.000000	0.002003
2783.000000	0.002017
2782.000000	0.002020
2781.000000	0.002005
2780.000000	0.001978
2779.000000	0.001951
2778.000000	0.001931
2777.000000	0.001919
2776.000000	0.001911
2775.000000	0.001908
2774.000000	0.001914
2773.000000	0.001926
2772.000000	0.001934
2771.000000	0.001935
2770.000000	0.001930
2769.000000	0.001919
2768.000000	0.001901
2767.000000	0.001883
2766.000000	0.001879
2765.000000	0.001891
2764.000000	0.001907
2763.000000	0.001912
2762.000000	0.001910
2761.000000	0.001913
2760.000000	0.001925
2759.000000	0.001929
2758.000000	0.001914
2757.000000	0.001882
2756.000000	0.001848
2755.000000	0.001827
2754.000000	0.001826
2753.000000	0.001844
2752.000000	0.001875
2751.000000	0.001905
2750.000000	0.001928
2749.000000	0.001937
2748.000000	0.001931
2747.000000	0.001909
2746.000000	0.001878
2745.000000	0.001850
2744.000000	0.001837
2743.000000	0.001840
2742.000000	0.001849
2741.000000	0.001857
2740.000000	0.001861
2739.000000	0.001863
2738.000000	0.001870
2737.000000	0.001882
2736.000000	0.001893
2735.000000	0.001897
2734.000000	0.001892
2733.000000	0.001885
2732.000000	0.001884
2731.000000	0.001891
2730.000000	0.001900
2729.000000	0.001900
2728.000000	0.001885
2727.000000	0.001859
2726.000000	0.001836
2725.000000	0.001829
2724.000000	0.001840
2723.000000	0.001857
2722.000000	0.001868
2721.000000	0.001869
2720.000000	0.001861
2719.000000	0.001849
2718.000000	0.001837
2717.000000	0.001829
2716.000000	0.001828
2715.000000	0.001835
2714.000000	0.001846
2713.000000	0.001850
2712.000000	0.001839
2711.000000	0.001811
2710.000000	0.001780
2709.000000	0.001757
2708.000000	0.001748
2707.000000	0.001754
2706.000000	0.001773
2705.000000	0.001802
2704.000000	0.001829
2703.000000	0.001845
2702.000000	0.001849
2701.000000	0.001847
2700.000000	0.001842
2699.000000	0.001830
2698.000000	0.001814
2697.000000	0.001801
2696.000000	0.001800
2695.000000	0.001805
2694.000000	0.001808
2693.000000	0.001805
2692.000000	0.001801
2691.000000	0.001799
2690.000000	0.001796
2689.000000	0.001787
2688.000000	0.001772
2687.000000	0.001764
2686.000000	0.001773
2685.000000	0.001798
2684.000000	0.001822
2683.000000	0.001827
2682.000000	0.001812
2681.000000	0.001792
2680.000000	0.001777
2679.000000	0.001769
2678.000000	0.001765
2677.000000	0.001765
2676.000000	0.001769
2675.000000	0.001770
2674.000000	0.001763
2673.000000	0.001755
2672.000000	0.001760
2671.000000	0.001781
2670.000000	0.001808
2669.000000	0.001826
2668.000000	0.001832
2667.000000	0.001834
2666.000000	0.001838
2665.000000	0.001845
2664.000000	0.001846
2663.000000	0.001839
2662.000000	0.001831
2661.000000	0.001830
2660.000000	0.001838
2659.000000	0.001846
2658.000000	0.001843
2657.000000	0.001831
2656.000000	0.001815
2655.000000	0.001802
2654.000000	0.001790
2653.000000	0.001782
2652.000000	0.001776
2651.000000	0.001772
2650.000000	0.001767
2649.000000	0.001763
2648.000000	0.001759
2647.000000	0.001754
2646.000000	0.001743
2645.000000	0.001725
2644.000000	0.001704
2643.000000	0.001689
2642.000000	0.001690
2641.000000	0.001708
2640.000000	0.001731
2639.000000	0.001746
2638.000000	0.001743
2637.000000	0.001726
2636.000000	0.001707
2635.000000	0.001691
2634.000000	0.001678
2633.000000	0.001662
2632.000000	0.001646
2631.000000	0.001632
2630.000000	0.001623
2629.000000	0.001616
2628.000000	0.001608
2627.000000	0.001595
2626.000000	0.001576
2625.000000	0.001557
2624.000000	0.001548
2623.000000	0.001556
2622.000000	0.001577
2621.000000	0.001597
2620.000000	0.001609
2619.000000	0.001613
2618.000000	0.001614
2617.000000	0.001608
2616.000000	0.001597
2615.000000	0.001588
2614.000000	0.001590
2613.000000	0.001596
2612.000000	0.001587
2611.000000	0.001555
2610.000000	0.001509
2609.000000	0.001465
2608.000000	0.001435
2607.000000	0.001422
2606.000000	0.001430
2605.000000	0.001459
2604.000000	0.001496
2603.000000	0.001517
2602.000000	0.001512
2601.000000	0.001491
2600.000000	0.001470
2599.000000	0.001456
2598.000000	0.001446
2597.000000	0.001436
2596.000000	0.001430
2595.000000	0.001436
2594.000000	0.001457
2593.000000	0.001485
2592.000000	0.001504
2591.000000	0.001501
2590.000000	0.001479
2589.000000	0.001447
2588.000000	0.001413
2587.000000	0.001378
2586.000000	0.001335
2585.000000	0.001292
2584.000000	0.001262
2583.000000	0.001266
2582.000000	0.001310
2581.000000	0.001378
2580.000000	0.001436
2579.000000	0.001459
2578.000000	0.001445
2577.000000	0.001414
2576.000000	0.001383
2575.000000	0.001354
2574.000000	0.001321
2573.000000	0.001289
2572.000000	0.001272
2571.000000	0.001278
2570.000000	0.001308
2569.000000	0.001348
2568.000000	0.001381
2567.000000	0.001392
2566.000000	0.001379
2565.000000	0.001353
2564.000000	0.001327
2563.000000	0.001307
2562.000000	0.001294
2561.000000	0.001284
2560.000000	0.001266
2559.000000	0.001237
2558.000000	0.001209
2557.000000	0.001203
2556.000000	0.001221
2555.000000	0.001243
2554.000000	0.001254
2553.000000	0.001260
2552.000000	0.001281
2551.000000	0.001319
2550.000000	0.001353
2549.000000	0.001367
2548.000000	0.001360
2547.000000	0.001349
2546.000000	0.001344
2545.000000	0.001345
2544.000000	0.001347
2543.000000	0.001346
2542.000000	0.001347
2541.000000	0.001353
2540.000000	0.001355
2539.000000	0.001339
2538.000000	0.001301
2537.000000	0.001259
2536.000000	0.001235
2535.000000	0.001234
2534.000000	0.001246
2533.000000	0.001268
2532.000000	0.001295
2531.000000	0.001315
2530.000000	0.001308
2529.000000	0.001275
2528.000000	0.001242
2527.000000	0.001232
2526.000000	0.001241
2525.000000	0.001243
2524.000000	0.001228
2523.000000	0.001208
2522.000000	0.001201
2521.000000	0.001205
2520.000000	0.001211
2519.000000	0.001212
2518.000000	0.001211
2517.000000	0.001213
2516.000000	0.001218
2515.000000	0.001230
2514.000000	0.001250
2513.000000	0.001271
2512.000000	0.001275
2511.000000	0.001253
2510.000000	0.001213
2509.000000	0.001175
2508.000000	0.001154
2507.000000	0.001155
2506.000000	0.001178
2505.000000	0.001227
2504.000000	0.001298
2503.000000	0.001371
2502.000000	0.001414
2501.000000	0.001401
2500.000000	0.001332
2499.000000	0.001239
2498.000000	0.001161
2497.000000	0.001120
2496.000000	0.001115
2495.000000	0.001131
2494.000000	0.001157
2493.000000	0.001185
2492.000000	0.001217
2491.000000	0.001253
2490.000000	0.001287
2489.000000	0.001300
2488.000000	0.001278
2487.000000	0.001229
2486.000000	0.001178
2485.000000	0.001149
2484.000000	0.001143
2483.000000	0.001146
2482.000000	0.001150
2481.000000	0.001155
2480.000000	0.001165
2479.000000	0.001173
2478.000000	0.001177
2477.000000	0.001176
2476.000000	0.001173
2475.000000	0.001173
2474.000000	0.001180
2473.000000	0.001195
2472.000000	0.001214
2471.000000	0.001230
2470.000000	0.001235
2469.000000	0.001225
2468.000000	0.001203
2467.000000	0.001176
2466.000000	0.001162
2465.000000	0.001171
2464.000000	0.001195
2463.000000	0.001218
2462.000000	0.001231
2461.000000	0.001240
2460.000000	0.001252
2459.000000	0.001266
2458.000000	0.001277
2457.000000	0.001290
2456.000000	0.001306
2455.000000	0.001320
2454.000000	0.001322
2453.000000	0.001305
2452.000000	0.001271
2451.000000	0.001231
2450.000000	0.001198
2449.000000	0.001184
2448.000000	0.001186
2447.000000	0.001194
2446.000000	0.001204
2445.000000	0.001218
2444.000000	0.001237
2443.000000	0.001251
2442.000000	0.001254
2441.000000	0.001250
2440.000000	0.001245
2439.000000	0.001230
2438.000000	0.001189
2437.000000	0.001125
2436.000000	0.001072
2435.000000	0.001073
2434.000000	0.001131
2433.000000	0.001205
2432.000000	0.001244
2431.000000	0.001229
2430.000000	0.001186
2429.000000	0.001155
2428.000000	0.001153
2427.000000	0.001172
2426.000000	0.001192
2425.000000	0.001203
2424.000000	0.001204
2423.000000	0.001200
2422.000000	0.001192
2421.000000	0.001176
2420.000000	0.001153
2419.000000	0.001126
2418.000000	0.001098
2417.000000	0.001071
2416.000000	0.001053
2415.000000	0.001056
2414.000000	0.001084
2413.000000	0.001124
2412.000000	0.001152
2411.000000	0.001160
2410.000000	0.001160
2409.000000	0.001160
2408.000000	0.001156
2407.000000	0.001143
2406.000000	0.001123
2405.000000	0.001103
2404.000000	0.001086
2403.000000	0.001071
2402.000000	0.001062
2401.000000	0.001060
2400.000000	0.001052
2399.000000	0.001030
2398.000000	0.001005
2397.000000	0.001004
2396.000000	0.001038
2395.000000	0.001089
2394.000000	0.001131
2393.000000	0.001149
2392.000000	0.001141
2391.000000	0.001115
2390.000000	0.001083
2389.000000	0.001056
2388.000000	0.001037
2387.000000	0.001027
2386.000000	0.001031
2385.000000	0.001051
2384.000000	0.001076
2383.000000	0.001088
2382.000000	0.001081
2381.000000	0.001062
2380.000000	0.001033
2379.000000	0.000994
2378.000000	0.000955
2377.000000	0.000946
2376.000000	0.000985
2375.000000	0.001060
2374.000000	0.001127
2373.000000	0.001154
2372.000000	0.001138
2371.000000	0.001107
2370.000000	0.001090
2369.000000	0.001090
2368.000000	0.001093
2367.000000	0.001090
2366.000000	0.001087
2365.000000	0.001088
2364.000000	0.001095
2363.000000	0.001108
2362.000000	0.001130
2361.000000	0.001158
2360.000000	0.001177
2359.000000	0.001186
2358.000000	0.001195
2357.000000	0.001210
2356.000000	0.001230
2355.000000	0.001245
2354.000000	0.001220
2353.000000	0.001135
2352.000000	0.001042
2351.000000	0.001025
2350.000000	0.001107
2349.000000	0.001234
2348.000000	0.001335
2347.000000	0.001354
2346.000000	0.001306
2345.000000	0.001264
2344.000000	0.001281
2343.000000	0.001326
2342.000000	0.001344
2341.000000	0.001314
2340.000000	0.001253
2339.000000	0.001199
2338.000000	0.001174
2337.000000	0.001194
2336.000000	0.001265
2335.000000	0.001361
2334.000000	0.001424
2333.000000	0.001417
2332.000000	0.001362
2331.000000	0.001322
2330.000000	0.001326
2329.000000	0.001358
2328.000000	0.001390
2327.000000	0.001420
2326.000000	0.001445
2325.000000	0.001459
2324.000000	0.001455
2323.000000	0.001434
2322.000000	0.001408
2321.000000	0.001387
2320.000000	0.001375
2319.000000	0.001381
2318.000000	0.001411
2317.000000	0.001464
2316.000000	0.001514
2315.000000	0.001529
2314.000000	0.001497
2313.000000	0.001441
2312.000000	0.001391
2311.000000	0.001353
2310.000000	0.001318
2309.000000	0.001282
2308.000000	0.001258
2307.000000	0.001256
2306.000000	0.001278
2305.000000	0.001315
2304.000000	0.001349
2303.000000	0.001365
2302.000000	0.001365
2301.000000	0.001374
2300.000000	0.001408
2299.000000	0.001450
2298.000000	0.001459
2297.000000	0.001418
2296.000000	0.001348
2295.000000	0.001287
2294.000000	0.001265
2293.000000	0.001287
2292.000000	0.001339
2291.000000	0.001394
2290.000000	0.001429
2289.000000	0.001454
2288.000000	0.001494
2287.000000	0.001551
2286.000000	0.001589
2285.000000	0.001572
2284.000000	0.001510
2283.000000	0.001448
2282.000000	0.001416
2281.000000	0.001413
2280.000000	0.001418
2279.000000	0.001407
2278.000000	0.001367
2277.000000	0.001300
2276.000000	0.001236
2275.000000	0.001213
2274.000000	0.001245
2273.000000	0.001306
2272.000000	0.001347
2271.000000	0.001337
2270.000000	0.001287
2269.000000	0.001235
2268.000000	0.001207
2267.000000	0.001195
2266.000000	0.001171
2265.000000	0.001124
2264.000000	0.001071
2263.000000	0.001041
2262.000000	0.001059
2261.000000	0.001131
2260.000000	0.001239
2259.000000	0.001339
2258.000000	0.001384
2257.000000	0.001354
2256.000000	0.001276
2255.000000	0.001194
2254.000000	0.001139
2253.000000	0.001114
2252.000000	0.001112
2251.000000	0.001129
2250.000000	0.001159
2249.000000	0.001190
2248.000000	0.001202
2247.000000	0.001187
2246.000000	0.001146
2245.000000	0.001084
2244.000000	0.001006
2243.000000	0.000925
2242.000000	0.000867
2241.000000	0.000855
2240.000000	0.000899
2239.000000	0.000986
2238.000000	0.001092
2237.000000	0.001186
2236.000000	0.001236
2235.000000	0.001232
2234.000000	0.001201
2233.000000	0.001184
2232.000000	0.001190
2231.000000	0.001178
2230.000000	0.001103
2229.000000	0.000976
2228.000000	0.000858
2227.000000	0.000810
2226.000000	0.000857
2225.000000	0.000979
2224.000000	0.001134
2223.000000	0.001263
2222.000000	0.001316
2221.000000	0.001287
2220.000000	0.001211
2219.000000	0.001132
2218.000000	0.001066
2217.000000	0.001003
2216.000000	0.000938
2215.000000	0.000877
2214.000000	0.000824
2213.000000	0.000781
2212.000000	0.000765
2211.000000	0.000801
2210.000000	0.000879
2209.000000	0.000945
2208.000000	0.000950
2207.000000	0.000909
2206.000000	0.000892
2205.000000	0.000942
2204.000000	0.001023
2203.000000	0.001068
2202.000000	0.001060
2201.000000	0.001048
2200.000000	0.001076
2199.000000	0.001127
2198.000000	0.001131
2197.000000	0.001044
2196.000000	0.000899
2195.000000	0.000786
2194.000000	0.000779
2193.000000	0.000872
2192.000000	0.000992
2191.000000	0.001067
2190.000000	0.001081
2189.000000	0.001061
2188.000000	0.001034
2187.000000	0.001011
2186.000000	0.001009
2185.000000	0.001050
2184.000000	0.001136
2183.000000	0.001229
2182.000000	0.001271
2181.000000	0.001231
2180.000000	0.001136
2179.000000	0.001049
2178.000000	0.001014
2177.000000	0.001018
2176.000000	0.001012
2175.000000	0.000959
2174.000000	0.000872
2173.000000	0.000790
2172.000000	0.000755
2171.000000	0.000796
2170.000000	0.000907
2169.000000	0.001030
2168.000000	0.001080
2167.000000	0.001024
2166.000000	0.000898
2165.000000	0.000758
2164.000000	0.000638
2163.000000	0.000576
2162.000000	0.000599
2161.000000	0.000640
2160.000000	0.000533
2159.000000	0.000198
2158.000000	-0.000201
2157.000000	-0.000433
2156.000000	-0.000460
2155.000000	-0.000395
2154.000000	-0.000295
2153.000000	-0.000145
2152.000000	0.000024
2151.000000	0.000137
2150.000000	0.000165
2149.000000	0.000125
2148.000000	0.000014
2147.000000	-0.000174
2146.000000	-0.000353
2145.000000	-0.000378
2144.000000	-0.000215
2143.000000	0.000005
2142.000000	0.000148
2141.000000	0.000207
2140.000000	0.000262
2139.000000	0.000366
2138.000000	0.000511
2137.000000	0.000679
2136.000000	0.000837
2135.000000	0.000932
2134.000000	0.000927
2133.000000	0.000840
2132.000000	0.000730
2131.000000	0.000639
2130.000000	0.000590
2129.000000	0.000605
2128.000000	0.000695
2127.000000	0.000823
2126.000000	0.000917
2125.000000	0.000928
2124.000000	0.000869
2123.000000	0.000810
2122.000000	0.000814
2121.000000	0.000884
2120.000000	0.000958
2119.000000	0.000974
2118.000000	0.000942
2117.000000	0.000925
2116.000000	0.000959
2115.000000	0.001001
2114.000000	0.000983
2113.000000	0.000892
2112.000000	0.000782
2111.000000	0.000714
2110.000000	0.000715
2109.000000	0.000787
2108.000000	0.000913
2107.000000	0.001053
2106.000000	0.001139
2105.000000	0.001116
2104.000000	0.000988
2103.000000	0.000822
2102.000000	0.000705
2101.000000	0.000685
2100.000000	0.000749
2099.000000	0.000857
2098.000000	0.000976
2097.000000	0.001081
2096.000000	0.001130
2095.000000	0.001080
2094.000000	0.000942
2093.000000	0.000791
2092.000000	0.000715
2091.000000	0.000747
2090.000000	0.000862
2089.000000	0.000997
2088.000000	0.001085
2087.000000	0.001083
2086.000000	0.001001
2085.000000	0.000901
2084.000000	0.000843
2083.000000	0.000840
2082.000000	0.000876
2081.000000	0.000933
2080.000000	0.001002
2079.000000	0.001063
2078.000000	0.001095
2077.000000	0.001091
2076.000000	0.001049
2075.000000	0.000967
2074.000000	0.000867
2073.000000	0.000820
2072.000000	0.000884
2071.000000	0.001025
2070.000000	0.001134
2069.000000	0.001132
2068.000000	0.001036
2067.000000	0.000908
2066.000000	0.000775
2065.000000	0.000625
2064.000000	0.000462
2063.000000	0.000328
2062.000000	0.000278
2061.000000	0.000328
2060.000000	0.000454
2059.000000	0.000598
2058.000000	0.000702
2057.000000	0.000730
2056.000000	0.000692
2055.000000	0.000632
2054.000000	0.000607
2053.000000	0.000646
2052.000000	0.000738
2051.000000	0.000833
2050.000000	0.000873
2049.000000	0.000842
2048.000000	0.000800
2047.000000	0.000829
2046.000000	0.000932
2045.000000	0.001004
2044.000000	0.000949
2043.000000	0.000805
2042.000000	0.000714
2041.000000	0.000759
2040.000000	0.000879
2039.000000	0.000974
2038.000000	0.001024
2037.000000	0.001061
2036.000000	0.001056
2035.000000	0.000941
2034.000000	0.000752
2033.000000	0.000634
2032.000000	0.000651
2031.000000	0.000682
2030.000000	0.000581
2029.000000	0.000382
2028.000000	0.000255
2027.000000	0.000274
2026.000000	0.000342
2025.000000	0.000340
2024.000000	0.000282
2023.000000	0.000271
2022.000000	0.000342
2021.000000	0.000412
2020.000000	0.000374
2019.000000	0.000209
2018.000000	-0.000001
2017.000000	-0.000149
2016.000000	-0.000197
2015.000000	-0.000188
2014.000000	-0.000183
2013.000000	-0.000189
2012.000000	-0.000157
2011.000000	-0.000037
2010.000000	0.000136
2009.000000	0.000259
2008.000000	0.000267
2007.000000	0.000221
2006.000000	0.000219
2005.000000	0.000257
2004.000000	0.000237
2003.000000	0.000131
2002.000000	0.000057
2001.000000	0.000146
2000.000000	0.000374
1999.000000	0.000588
1998.000000	0.000652
1997.000000	0.000554
1996.000000	0.000382
1995.000000	0.000247
1994.000000	0.000209
1993.000000	0.000234
1992.000000	0.000224
1991.000000	0.000131
1990.000000	0.000037
1989.000000	0.000061
1988.000000	0.000215
1987.000000	0.000381
1986.000000	0.000446
1985.000000	0.000395
1984.000000	0.000306
1983.000000	0.000269
1982.000000	0.000329
1981.000000	0.000453
1980.000000	0.000555
1979.000000	0.000567
1978.000000	0.000517
1977.000000	0.000485
1976.000000	0.000493
1975.000000	0.000462
1974.000000	0.000320
1973.000000	0.000106
1972.000000	-0.000064
1971.000000	-0.000105
1970.000000	-0.000047
1969.000000	-0.000008
1968.000000	-0.000077
1967.000000	-0.000205
1966.000000	-0.000262
1965.000000	-0.000182
1964.000000	-0.000035
1963.000000	0.000086
1962.000000	0.000155
1961.000000	0.000184
1960.000000	0.000159
1959.000000	0.000073
1958.000000	-0.000022
1957.000000	-0.000065
1956.000000	-0.000064
1955.000000	-0.000075
1954.000000	-0.000109
1953.000000	-0.000118
1952.000000	-0.000065
1951.000000	0.000029
1950.000000	0.000124
1949.000000	0.000190
1948.000000	0.000206
1947.000000	0.000178
1946.000000	0.000158
1945.000000	0.000210
1944.000000	0.000333
1943.000000	0.000445
1942.000000	0.000476
1941.000000	0.000437
1940.000000	0.000380
1939.000000	0.000327
1938.000000	0.000275
1937.000000	0.000226
1936.000000	0.000197
1935.000000	0.000197
1934.000000	0.000226
1933.000000	0.000272
1932.000000	0.000317
1931.000000	0.000336
1930.000000	0.000316
1929.000000	0.000260
1928.000000	0.000179
1927.000000	0.000098
1926.000000	0.000064
1925.000000	0.000112
1924.000000	0.000226
1923.000000	0.000341
1922.000000	0.000402
1921.000000	0.000395
1920.000000	0.000335
1919.000000	0.000256
1918.000000	0.000217
1917.000000	0.000261
1916.000000	0.000346
1915.000000	0.000400
1914.000000	0.000405
1913.000000	0.000399
1912.000000	0.000410
1911.000000	0.000412
1910.000000	0.000378
1909.000000	0.000318
1908.000000	0.000252
1907.000000	0.000177
1906.000000	0.000092
1905.000000	0.000024
1904.000000	0.000003
1903.000000	0.000035
1902.000000	0.000116
1901.000000	0.000227
1900.000000	0.000322
1899.000000	0.000353
1898.000000	0.000314
1897.000000	0.000255
1896.000000	0.000228
1895.000000	0.000237
1894.000000	0.000250
1893.000000	0.000240
1892.000000	0.000196
1891.000000	0.000133
1890.000000	0.000097
1889.000000	0.000136
1888.000000	0.000231
1887.000000	0.000314
1886.000000	0.000345
1885.000000	0.000336
1884.000000	0.000314
1883.000000	0.000289
1882.000000	0.000259
1881.000000	0.000231
1880.000000	0.000210
1879.000000	0.000193
1878.000000	0.000181
1877.000000	0.000183
1876.000000	0.000200
1875.000000	0.000215
1874.000000	0.000217
1873.000000	0.000214
1872.000000	0.000209
1871.000000	0.000194
1870.000000	0.000165
1869.000000	0.000138
1868.000000	0.000127
1867.000000	0.000120
1866.000000	0.000114
1865.000000	0.000120
1864.000000	0.000128
1863.000000	0.000123
1862.000000	0.000114
1861.000000	0.000129
1860.000000	0.000171
1859.000000	0.000205
1858.000000	0.000210
1857.000000	0.000204
1856.000000	0.000208
1855.000000	0.000223
1854.000000	0.000228
1853.000000	0.000214
1852.000000	0.000177
1851.000000	0.000128
1850.000000	0.000087
1849.000000	0.000063
1848.000000	0.000046
1847.000000	0.000025
1846.000000	0.000008
1845.000000	0.000023
1844.000000	0.000074
1843.000000	0.000124
1842.000000	0.000147
1841.000000	0.000149
1840.000000	0.000141
1839.000000	0.000140
1838.000000	0.000153
1837.000000	0.000173
1836.000000	0.000168
1835.000000	0.000123
1834.000000	0.000063
1833.000000	0.000024
1832.000000	0.000013
1831.000000	0.000006
1830.000000	-0.000021
1829.000000	-0.000052
1828.000000	-0.000056
1827.000000	-0.000032
1826.000000	-0.000004
1825.000000	0.000007
1824.000000	0.000002
1823.000000	-0.000006
1822.000000	0.000005
1821.000000	0.000039
1820.000000	0.000076
1819.000000	0.000079
1818.000000	0.000040
1817.000000	0.000001
1816.000000	-0.000010
1815.000000	-0.000008
1814.000000	-0.000015
1813.000000	-0.000017
1812.000000	0.000013
1811.000000	0.000056
1810.000000	0.000071
1809.000000	0.000057
1808.000000	0.000035
1807.000000	0.000007
1806.000000	-0.000021
1805.000000	-0.000031
1804.000000	-0.000022
1803.000000	-0.000015
1802.000000	-0.000025
1801.000000	-0.000035
1800.000000	-0.000026
1799.000000	-0.000019
1798.000000	-0.000029
1797.000000	-0.000037
1796.000000	-0.000034
1795.000000	-0.000037
1794.000000	-0.000054
1793.000000	-0.000063
1792.000000	-0.000043
1791.000000	-0.000028
1790.000000	-0.000045
1789.000000	-0.000070
1788.000000	-0.000083
1787.000000	-0.000088
1786.000000	-0.000089
1785.000000	-0.000077
1784.000000	-0.000051
1783.000000	-0.000025
1782.000000	-0.000013
1781.000000	-0.000015
1780.000000	-0.000020
1779.000000	-0.000029
1778.000000	-0.000037
1777.000000	-0.000042
1776.000000	-0.000054
1775.000000	-0.000080
1774.000000	-0.000116
1773.000000	-0.000141
1772.000000	-0.000126
1771.000000	-0.000089
1770.000000	-0.000066
1769.000000	-0.000065
1768.000000	-0.000067
1767.000000	-0.000057
1766.000000	-0.000035
1765.000000	0.000001
1764.000000	0.000054
1763.000000	0.000114
1762.000000	0.000156
1761.000000	0.000173
1760.000000	0.000188
1759.000000	0.000220
1758.000000	0.000273
1757.000000	0.000340
1756.000000	0.000407
1755.000000	0.000457
1754.000000	0.000486
1753.000000	0.000509
1752.000000	0.000568
1751.000000	0.000696
1750.000000	0.000874
1749.000000	0.001048
1748.000000	0.001198
1747.000000	0.001323
1746.000000	0.001415
1745.000000	0.001467
1744.000000	0.001490
1743.000000	0.001491
1742.000000	0.001458
1741.000000	0.001391
1740.000000	0.001315
1739.000000	0.001253
1738.000000	0.001191
1737.000000	0.001104
1736.000000	0.000976
1735.000000	0.000814
1734.000000	0.000672
1733.000000	0.000604
1732.000000	0.000592
1731.000000	0.000597
1730.000000	0.000591
1729.000000	0.000559
1728.000000	0.000511
1727.000000	0.000471
1726.000000	0.000447
1725.000000	0.000420
1724.000000	0.000375
1723.000000	0.000319
1722.000000	0.000269
1721.000000	0.000241
1720.000000	0.000240
1719.000000	0.000252
1718.000000	0.000249
1717.000000	0.000240
1716.000000	0.000238
1715.000000	0.000220
1714.000000	0.000207
1713.000000	0.000238
1712.000000	0.000304
1711.000000	0.000360
1710.000000	0.000375
1709.000000	0.000359
1708.000000	0.000346
1707.000000	0.000364
1706.000000	0.000415
1705.000000	0.000483
1704.000000	0.000528
1703.000000	0.000519
1702.000000	0.000464
1701.000000	0.000412
1700.000000	0.000410
1699.000000	0.000409
1698.000000	0.000401
1697.000000	0.000453
1696.000000	0.000588
1695.000000	0.000709
1694.000000	0.000762
1693.000000	0.000801
1692.000000	0.000853
1691.000000	0.000902
1690.000000	0.000934
1689.000000	0.000967
1688.000000	0.001013
1687.000000	0.001063
1686.000000	0.001100
1685.000000	0.001143
1684.000000	0.001215
1683.000000	0.001271
1682.000000	0.001301
1681.000000	0.001334
1680.000000	0.001378
1679.000000	0.001426
1678.000000	0.001474
1677.000000	0.001530
1676.000000	0.001602
1675.000000	0.001685
1674.000000	0.001755
1673.000000	0.001801
1672.000000	0.001840
1671.000000	0.001884
1670.000000	0.001948
1669.000000	0.002025
1668.000000	0.002097
1667.000000	0.002166
1666.000000	0.002233
1665.000000	0.002294
1664.000000	0.002350
1663.000000	0.002409
1662.000000	0.002473
1661.000000	0.002526
1660.000000	0.002555
1659.000000	0.002574
1658.000000	0.002604
1657.000000	0.002650
1656.000000	0.002695
1655.000000	0.002736
1654.000000	0.002803
1653.000000	0.002914
1652.000000	0.002961
1651.000000	0.002962
1650.000000	0.002963
1649.000000	0.002962
1648.000000	0.002954
1647.000000	0.002949
1646.000000	0.002943
1645.000000	0.002938
1644.000000	0.002945
1643.000000	0.002968
1642.000000	0.003003
1641.000000	0.003042
1640.000000	0.003066
1639.000000	0.003058
1638.000000	0.003024
1637.000000	0.002995
1636.000000	0.002994
1635.000000	0.003014
1634.000000	0.003020
1633.000000	0.003017
1632.000000	0.003004
1631.000000	0.002986
1630.000000	0.002984
1629.000000	0.003011
1628.000000	0.003044
1627.000000	0.003054
1626.000000	0.003043
1625.000000	0.003018
1624.000000	0.002980
1623.000000	0.002936
1622.000000	0.002907
1621.000000	0.002891
1620.000000	0.002874
1619.000000	0.002850
1618.000000	0.002831
1617.000000	0.002817
1616.000000	0.002783
1615.000000	0.002736
1614.000000	0.002720
1613.000000	0.002737
1612.000000	0.002758
1611.000000	0.002770
1610.000000	0.002789
1609.000000	0.002814
1608.000000	0.002821
1607.000000	0.002806
1606.000000	0.002800
1605.000000	0.002814
1604.000000	0.002830
1603.000000	0.002835
1602.000000	0.002833
1601.000000	0.002828
1600.000000	0.002819
1599.000000	0.002811
1598.000000	0.002809
1597.000000	0.002807
1596.000000	0.002799
1595.000000	0.002793
1594.000000	0.002804
1593.000000	0.002821
1592.000000	0.002815
1591.000000	0.002779
1590.000000	0.002742
1589.000000	0.002725
1588.000000	0.002722
1587.000000	0.002723
1586.000000	0.002730
1585.000000	0.002740
1584.000000	0.002737
1583.000000	0.002724
1582.000000	0.002718
1581.000000	0.002713
1580.000000	0.002690
1579.000000	0.002649
1578.000000	0.002619
1577.000000	0.002611
1576.000000	0.002599
1575.000000	0.002572
1574.000000	0.002558
1573.000000	0.002556
1572.000000	0.002542
1571.000000	0.002501
1570.000000	0.002443
1569.000000	0.002382
1568.000000	0.002328
1567.000000	0.002304
1566.000000	0.002313
1565.000000	0.002330
1564.000000	0.002332
1563.000000	0.002326
1562.000000	0.002333
1561.000000	0.002355
1560.000000	0.002345
1559.000000	0.002287
1558.000000	0.002247
1557.000000	0.002206
1556.000000	0.002180
1555.000000	0.002172
1554.000000	0.002173
1553.000000	0.002170
1552.000000	0.002173
1551.000000	0.002185
1550.000000	0.002201
1549.000000	0.002209
1548.000000	0.002207
1547.000000	0.002203
1546.000000	0.002206
1545.000000	0.002218
1544.000000	0.002236
1543.000000	0.002241
1542.000000	0.002218
1541.000000	0.002198
1540.000000	0.002203
1539.000000	0.002183
1538.000000	0.002129
1537.000000	0.002087
1536.000000	0.002061
1535.000000	0.002026
1534.000000	0.001971
1533.000000	0.001912
1532.000000	0.001868
1531.000000	0.001830
1530.000000	0.001796
1529.000000	0.001775
1528.000000	0.001761
1527.000000	0.001727
1526.000000	0.001658
1525.000000	0.001577
1524.000000	0.001510
1523.000000	0.001442
1522.000000	0.001361
1521.000000	0.001304
1520.000000	0.001288
1519.000000	0.001280
1518.000000	0.001252
1517.000000	0.001213
1516.000000	0.001188
1515.000000	0.001175
1514.000000	0.001156
1513.000000	0.001127
1512.000000	0.001095
1511.000000	0.001055
1510.000000	0.000992
1509.000000	0.000902
1508.000000	0.000824
1507.000000	0.000806
1506.000000	0.000806
1505.000000	0.000778
1504.000000	0.000774
1503.000000	0.000793
1502.000000	0.000810
1501.000000	0.000819
1500.000000	0.000820
1499.000000	0.000805
1498.000000	0.000753
1497.000000	0.000692
1496.000000	0.000671
1495.000000	0.000678
1494.000000	0.000676
1493.000000	0.000670
1492.000000	0.000679
1491.000000	0.000699
1490.000000	0.000719
1489.000000	0.000757
1488.000000	0.000816
1487.000000	0.000855
1486.000000	0.000871
1485.000000	0.000898
1484.000000	0.000941
1483.000000	0.000990
1482.000000	0.001033
1481.000000	0.001082
1480.000000	0.001146
1479.000000	0.001212
1478.000000	0.001271
1477.000000	0.001329
1476.000000	0.001396
1475.000000	0.001448
1474.000000	0.001480
1473.000000	0.001541
1472.000000	0.001676
1471.000000	0.001833
1470.000000	0.001957
1469.000000	0.002065
1468.000000	0.002183
1467.000000	0.002302
1466.000000	0.002388
1465.000000	0.002421
1464.000000	0.002426
1463.000000	0.002441
1462.000000	0.002484
1461.000000	0.002556
1460.000000	0.002647
1459.000000	0.002734
1458.000000	0.002786
1457.000000	0.002806
1456.000000	0.002843
1455.000000	0.002911
1454.000000	0.002988
1453.000000	0.003053
1452.000000	0.003111
1451.000000	0.003164
1450.000000	0.003207
1449.000000	0.003242
1448.000000	0.003288
1447.000000	0.003341
1446.000000	0.003380
1445.000000	0.003400
1444.000000	0.003416
1443.000000	0.003443
1442.000000	0.003481
1441.000000	0.003522
1440.000000	0.003562
1439.000000	0.003604
1438.000000	0.003639
1437.000000	0.003659
1436.000000	0.003677
1435.000000	0.003710
1434.000000	0.003751
1433.000000	0.003797
1432.000000	0.003848
1431.000000	0.003906
1430.000000	0.003960
1429.000000	0.003998
1428.000000	0.004031
1427.000000	0.004075
1426.000000	0.004128
1425.000000	0.004163
1424.000000	0.004168
1423.000000	0.004169
1422.000000	0.004181
1421.000000	0.004192
1420.000000	0.004192
1419.000000	0.004196
1418.000000	0.004213
1417.000000	0.004234
1416.000000	0.004257
1415.000000	0.004276
1414.000000	0.004285
1413.000000	0.004285
1412.000000	0.004287
1411.000000	0.004304
1410.000000	0.004335
1409.000000	0.004366
1408.000000	0.004391
1407.000000	0.004399
1406.000000	0.004378
1405.000000	0.004326
1404.000000	0.004275
1403.000000	0.004261
1402.000000	0.004278
1401.000000	0.004292
1400.000000	0.004268
1399.000000	0.004208
1398.000000	0.004146
1397.000000	0.004116
1396.000000	0.004126
1395.000000	0.004160
1394.000000	0.004180
1393.000000	0.004154
1392.000000	0.004103
1391.000000	0.004056
1390.000000	0.004021
1389.000000	0.003990
1388.000000	0.003955
1387.000000	0.003923
1386.000000	0.003898
1385.000000	0.003871
1384.000000	0.003832
1383.000000	0.003784
1382.000000	0.003742
1381.000000	0.003721
1380.000000	0.003711
1379.000000	0.003698
1378.000000	0.003679
1377.000000	0.003663
1376.000000	0.003647
1375.000000	0.003617
1374.000000	0.003567
1373.000000	0.003499
1372.000000	0.003429
1371.000000	0.003376
1370.000000	0.003345
1369.000000	0.003320
1368.000000	0.003276
1367.000000	0.003211
1366.000000	0.003148
1365.000000	0.003099
1364.000000	0.003057
1363.000000	0.003010
1362.000000	0.002964
1361.000000	0.002930
1360.000000	0.002900
1359.000000	0.002860
1358.000000	0.002812
1357.000000	0.002761
1356.000000	0.002715
1355.000000	0.002676
1354.000000	0.002654
1353.000000	0.002649
1352.000000	0.002651
1351.000000	0.002638
1350.000000	0.002609
1349.000000	0.002574
1348.000000	0.002535
1347.000000	0.002489
1346.000000	0.002443
1345.000000	0.002409
1344.000000	0.002393
1343.000000	0.002386
1342.000000	0.002369
1341.000000	0.002327
1340.000000	0.002261
1339.000000	0.002200
1338.000000	0.002174
1337.000000	0.002181
1336.000000	0.002192
1335.000000	0.002184
1334.000000	0.002163
1333.000000	0.002144
1332.000000	0.002134
1331.000000	0.002127
1330.000000	0.002121
1329.000000	0.002119
1328.000000	0.002120
1327.000000	0.002117
1326.000000	0.002104
1325.000000	0.002081
1324.000000	0.002056
1323.000000	0.002043
1322.000000	0.002043
1321.000000	0.002042
1320.000000	0.002028
1319.000000	0.002008
1318.000000	0.001995
1317.000000	0.001996
1316.000000	0.002004
1315.000000	0.002010
1314.000000	0.002005
1313.000000	0.001981
1312.000000	0.001938
1311.000000	0.001892
1310.000000	0.001865
1309.000000	0.001860
1308.000000	0.001860
1307.000000	0.001845
1306.000000	0.001815
1305.000000	0.001779
1304.000000	0.001746
1303.000000	0.001718
1302.000000	0.001691
1301.000000	0.001660
1300.000000	0.001624
1299.000000	0.001591
1298.000000	0.001563
1297.000000	0.001535
1296.000000	0.001495
1295.000000	0.001447
1294.000000	0.001402
1293.000000	0.001372
1292.000000	0.001350
1291.000000	0.001326
1290.000000	0.001293
1289.000000	0.001255
1288.000000	0.001224
1287.000000	0.001207
1286.000000	0.001204
1285.000000	0.001205
1284.000000	0.001197
1283.000000	0.001181
1282.000000	0.001159
1281.000000	0.001133
1280.000000	0.001099
1279.000000	0.001062
1278.000000	0.001032
1277.000000	0.001013
1276.000000	0.000999
1275.000000	0.000984
1274.000000	0.000967
1273.000000	0.000946
1272.000000	0.000919
1271.000000	0.000897
1270.000000	0.000890
1269.000000	0.000900
1268.000000	0.000914
1267.000000	0.000922
1266.000000	0.000927
1265.000000	0.000933
1264.000000	0.000936
1263.000000	0.000935
1262.000000	0.000937
1261.000000	0.000953
1260.000000	0.000985
1259.000000	0.001020
1258.000000	0.001042
1257.000000	0.001044
1256.000000	0.001033
1255.000000	0.001020
1254.000000	0.001011
1253.000000	0.001005
1252.000000	0.000996
1251.000000	0.000978
1250.000000	0.000955
1249.000000	0.000932
1248.000000	0.000919
1247.000000	0.000919
1246.000000	0.000927
1245.000000	0.000934
1244.000000	0.000931
1243.000000	0.000918
1242.000000	0.000898
1241.000000	0.000873
1240.000000	0.000852
1239.000000	0.000840
1238.000000	0.000837
1237.000000	0.000835
1236.000000	0.000821
1235.000000	0.000797
1234.000000	0.000769
1233.000000	0.000745
1232.000000	0.000725
1231.000000	0.000703
1230.000000	0.000672
1229.000000	0.000629
1228.000000	0.000583
1227.000000	0.000546
1226.000000	0.000521
1225.000000	0.000496
1224.000000	0.000460
1223.000000	0.000416
1222.000000	0.000378
1221.000000	0.000348
1220.000000	0.000316
1219.000000	0.000275
1218.000000	0.000230
1217.000000	0.000196
1216.000000	0.000177
1215.000000	0.000171
1214.000000	0.000168
1213.000000	0.000164
1212.000000	0.000161
1211.000000	0.000164
1210.000000	0.000177
1209.000000	0.000199
1208.000000	0.000229
1207.000000	0.000263
1206.000000	0.000293
1205.000000	0.000315
1204.000000	0.000333
1203.000000	0.000357
1202.000000	0.000396
1201.000000	0.000441
1200.000000	0.000478
1199.000000	0.000493
1198.000000	0.000487
1197.000000	0.000470
1196.000000	0.000447
1195.000000	0.000415
1194.000000	0.000368
1193.000000	0.000307
1192.000000	0.000244
1191.000000	0.000190
1190.000000	0.000139
1189.000000	0.000085
1188.000000	0.000032
1187.000000	-0.000007
1186.000000	-0.000023
1185.000000	-0.000018
1184.000000	-0.000001
1183.000000	0.000023
1182.000000	0.000053
1181.000000	0.000089
1180.000000	0.000138
1179.000000	0.000201
1178.000000	0.000272
1177.000000	0.000337
1176.000000	0.000398
1175.000000	0.000470
1174.000000	0.000564
1173.000000	0.000670
1172.000000	0.000773
1171.000000	0.000871
1170.000000	0.000977
1169.000000	0.001100
1168.000000	0.001229
1167.000000	0.001350
1166.000000	0.001467
1165.000000	0.001592
1164.000000	0.001733
1163.000000	0.001883
1162.000000	0.002030
1161.000000	0.002173
1160.000000	0.002316
1159.000000	0.002453
1158.000000	0.002569
1157.000000	0.002657
1156.000000	0.002731
1155.000000	0.002813
1154.000000	0.002906
1153.000000	0.002983
1152.000000	0.003020
1151.000000	0.003032
1150.000000	0.003050
1149.000000	0.003091
1148.000000	0.003134
1147.000000	0.003159
1146.000000	0.003166
1145.000000	0.003173
1144.000000	0.003180
1143.000000	0.003169
1142.000000	0.003129
1141.000000	0.003071
1140.000000	0.003025
1139.000000	0.003014
1138.000000	0.003031
1137.000000	0.003050
1136.000000	0.003040
1135.000000	0.002994
1134.000000	0.002928
1133.000000	0.002867
1132.000000	0.002826
1131.000000	0.002824
1130.000000	0.002879
1129.000000	0.002993
1128.000000	0.003137
1127.000000	0.003271
1126.000000	0.003379
1125.000000	0.003470
1124.000000	0.003555
1123.000000	0.003622
1122.000000	0.003647
1121.000000	0.003633
1120.000000	0.003608
1119.000000	0.003602
1118.000000	0.003622
1117.000000	0.003645
1116.000000	0.003653
1115.000000	0.003652
1114.000000	0.003665
1113.000000	0.003707
1112.000000	0.003771
1111.000000	0.003840
1110.000000	0.003906
1109.000000	0.003965
1108.000000	0.004007
1107.000000	0.004023
1106.000000	0.004022
1105.000000	0.004032
1104.000000	0.004082
1103.000000	0.004178
1102.000000	0.004305
1101.000000	0.004439
1100.000000	0.004561
1099.000000	0.004663
1098.000000	0.004752
1097.000000	0.004836
1096.000000	0.004924
1095.000000	0.005023
1094.000000	0.005136
1093.000000	0.005254
1092.000000	0.005358
1091.000000	0.005434
1090.000000	0.005487
1089.000000	0.005532
1088.000000	0.005579
1087.000000	0.005629
1086.000000	0.005684
1085.000000	0.005746
1084.000000	0.005804
1083.000000	0.005842
1082.000000	0.005856
1081.000000	0.005865
1080.000000	0.005888
1079.000000	0.005932
1078.000000	0.005982
1077.000000	0.006019
1076.000000	0.006027
1075.000000	0.006003
1074.000000	0.005964
1073.000000	0.005924
1072.000000	0.005887
1071.000000	0.005846
1070.000000	0.005809
1069.000000	0.005795
1068.000000	0.005813
1067.000000	0.005842
1066.000000	0.005855
1065.000000	0.005844
1064.000000	0.005819
1063.000000	0.005787
1062.000000	0.005752
1061.000000	0.005721
1060.000000	0.005713
1059.000000	0.005736
1058.000000	0.005775
1057.000000	0.005811
1056.000000	0.005845
1055.000000	0.005898
1054.000000	0.005979
1053.000000	0.006064
1052.000000	0.006123
1051.000000	0.006155
1050.000000	0.006186
1049.000000	0.006239
1048.000000	0.006307
1047.000000	0.006363
1046.000000	0.006400
1045.000000	0.006434
1044.000000	0.006484
1043.000000	0.006556
1042.000000	0.006643
1041.000000	0.006737
1040.000000	0.006837
1039.000000	0.006940
1038.000000	0.007034
1037.000000	0.007108
1036.000000	0.007157
1035.000000	0.007189
1034.000000	0.007216
1033.000000	0.007251
1032.000000	0.007303
1031.000000	0.007380
1030.000000	0.007479
1029.000000	0.007580
1028.000000	0.007659
1027.000000	0.007703
1026.000000	0.007720
1025.000000	0.007722
1024.000000	0.007715
1023.000000	0.007696
1022.000000	0.007670
1021.000000	0.007649
1020.000000	0.007649
1019.000000	0.007674
1018.000000	0.007710
1017.000000	0.007732
1016.000000	0.007729
1015.000000	0.007720
1014.000000	0.007734
1013.000000	0.007775
1012.000000	0.007813
1011.000000	0.007822
1010.000000	0.007797
1009.000000	0.007750
1008.000000	0.007688
1007.000000	0.007621
1006.000000	0.007566
1005.000000	0.007539
1004.000000	0.007529
1003.000000	0.007516
1002.000000	0.007494
1001.000000	0.007473
1000.000000	0.007452
999.000000	0.007426
998.000000	0.007398
997.000000	0.007386
996.000000	0.007402
995.000000	0.007429
994.000000	0.007442
993.000000	0.007428
992.000000	0.007390
991.000000	0.007335
990.000000	0.007275
989.000000	0.007227
988.000000	0.007206
987.000000	0.007208
986.000000	0.007217
985.000000	0.007209
984.000000	0.007169
983.000000	0.007088
982.000000	0.006971
981.000000	0.006837
980.000000	0.006713
979.000000	0.006613
978.000000	0.006519
977.000000	0.006406
976.000000	0.006266
975.000000	0.006126
974.000000	0.006011
973.000000	0.005917
972.000000	0.005817
971.000000	0.005704
970.000000	0.005594
969.000000	0.005495
968.000000	0.005390
967.000000	0.005258
966.000000	0.005102
965.000000	0.004945
964.000000	0.004801
963.000000	0.004678
962.000000	0.004578
961.000000	0.004500
960.000000	0.004434
959.000000	0.004366
958.000000	0.004291
957.000000	0.004205
956.000000	0.004104
955.000000	0.003995
954.000000	0.003897
953.000000	0.003821
952.000000	0.003749
951.000000	0.003661
950.000000	0.003558
949.000000	0.003458
948.000000	0.003368
947.000000	0.003282
946.000000	0.003188
945.000000	0.003084
944.000000	0.002966
943.000000	0.002833
942.000000	0.002702
941.000000	0.002591
940.000000	0.002505
939.000000	0.002438
938.000000	0.002386
937.000000	0.002352
936.000000	0.002322
935.000000	0.002270
934.000000	0.002188
933.000000	0.002102
932.000000	0.002036
931.000000	0.001992
930.000000	0.001947
929.000000	0.001889
928.000000	0.001825
927.000000	0.001767
926.000000	0.001722
925.000000	0.001691
924.000000	0.001663
923.000000	0.001632
922.000000	0.001593
921.000000	0.001552
920.000000	0.001514
919.000000	0.001481
918.000000	0.001461
917.000000	0.001464
916.000000	0.001487
915.000000	0.001505
914.000000	0.001488
913.000000	0.001430
912.000000	0.001362
911.000000	0.001329
910.000000	0.001360
909.000000	0.001449
908.000000	0.001563
907.000000	0.001653
906.000000	0.001687
905.000000	0.001669
904.000000	0.001627
903.000000	0.001593
902.000000	0.001579
901.000000	0.001573
900.000000	0.001558
899.000000	0.001519
898.000000	0.001453
897.000000	0.001370
896.000000	0.001298
895.000000	0.001260
894.000000	0.001251
893.000000	0.001245
892.000000	0.001218
891.000000	0.001170
890.000000	0.001109
889.000000	0.001040
888.000000	0.000975
887.000000	0.000935
886.000000	0.000930
885.000000	0.000939
884.000000	0.000926
883.000000	0.000894
882.000000	0.000884
881.000000	0.000924
880.000000	0.001001
879.000000	0.001082
878.000000	0.001162
877.000000	0.001253
876.000000	0.001350
875.000000	0.001420
874.000000	0.001426
873.000000	0.001358
872.000000	0.001230
871.000000	0.001077
870.000000	0.000932
869.000000	0.000798
868.000000	0.000658
867.000000	0.000511
866.000000	0.000378
865.000000	0.000283
864.000000	0.000212
863.000000	0.000144
862.000000	0.000076
861.000000	0.000023
860.000000	-0.000010
859.000000	-0.000024
858.000000	-0.000015
857.000000	0.000025
856.000000	0.000081
855.000000	0.000115
854.000000	0.000101
853.000000	0.000044
852.000000	-0.000037
851.000000	-0.000117
850.000000	-0.000167
849.000000	-0.000164
848.000000	-0.000125
847.000000	-0.000090
846.000000	-0.000079
845.000000	-0.000071
844.000000	-0.000044
843.000000	-0.000001
842.000000	0.000055
841.000000	0.000139
840.000000	0.000259
839.000000	0.000388
838.000000	0.000480
837.000000	0.000511
836.000000	0.000487
835.000000	0.000433
834.000000	0.000379
833.000000	0.000348
832.000000	0.000340
831.000000	0.000327
830.000000	0.000281
829.000000	0.000208
828.000000	0.000137
827.000000	0.000096
826.000000	0.000088
825.000000	0.000101
824.000000	0.000122
823.000000	0.000131
822.000000	0.000114
821.000000	0.000068
820.000000	-0.000003
819.000000	-0.000088
818.000000	-0.000168
817.000000	-0.000215
816.000000	-0.000208
815.000000	-0.000158
814.000000	-0.000095
813.000000	-0.000044
812.000000	-0.000008
811.000000	0.000022
810.000000	0.000049
809.000000	0.000066
808.000000	0.000060
807.000000	0.000030
806.000000	-0.000006
805.000000	-0.000029
804.000000	-0.000041
803.000000	-0.000063
802.000000	-0.000092
801.000000	-0.000097
800.000000	-0.000055
799.000000	0.000003
798.000000	0.000022
797.000000	-0.000015
796.000000	-0.000063
795.000000	-0.000067
794.000000	-0.000010
793.000000	0.000084
792.000000	0.000178
791.000000	0.000248
790.000000	0.000284
789.000000	0.000285
788.000000	0.000259
787.000000	0.000220
786.000000	0.000183
785.000000	0.000161
784.000000	0.000166
783.000000	0.000200
782.000000	0.000261
781.000000	0.000338
780.000000	0.000412
779.000000	0.000457
778.000000	0.000459
777.000000	0.000429
776.000000	0.000403
775.000000	0.000407
774.000000	0.000434
773.000000	0.000450
772.000000	0.000431
771.000000	0.000386
770.000000	0.000346
769.000000	0.000331
768.000000	0.000338
767.000000	0.000342
766.000000	0.000319
765.000000	0.000263
764.000000	0.000189
763.000000	0.000127
762.000000	0.000100
761.000000	0.000111
760.000000	0.000144
759.000000	0.000182
758.000000	0.000219
757.000000	0.000260
756.000000	0.000296
755.000000	0.000303
754.000000	0.000260
753.000000	0.000186
752.000000	0.000127
751.000000	0.000114
750.000000	0.000124
749.000000	0.000107
748.000000	0.000044
747.000000	-0.000031
746.000000	-0.000068
745.000000	-0.000054
744.000000	-0.000019
743.000000	0.000004
742.000000	0.000001
741.000000	-0.000024
740.000000	-0.000059
739.000000	-0.000090
738.000000	-0.000099
737.000000	-0.000089
736.000000	-0.000078
735.000000	-0.000085
734.000000	-0.000105
733.000000	-0.000123
732.000000	-0.000124
731.000000	-0.000110
730.000000	-0.000087
729.000000	-0.000058
728.000000	-0.000023
727.000000	0.000010
726.000000	0.000020
725.000000	-0.000004
724.000000	-0.000056
723.000000	-0.000107
722.000000	-0.000122
721.000000	-0.000091
720.000000	-0.000043
719.000000	-0.000028
718.000000	-0.000072
717.000000	-0.000152
716.000000	-0.000202
715.000000	-0.000171
714.000000	-0.000073
713.000000	0.000026
712.000000	0.000072
711.000000	0.000069
710.000000	0.000048
709.000000	0.000014
708.000000	-0.000049
707.000000	-0.000128
706.000000	-0.000177
705.000000	-0.000164
704.000000	-0.000109
703.000000	-0.000057
702.000000	-0.000028
701.000000	-0.000022
700.000000	-0.000040
699.000000	-0.000082
698.000000	-0.000124
697.000000	-0.000127
696.000000	-0.000086
695.000000	-0.000033
694.000000	0.000000
693.000000	0.000006
692.000000	-0.000003
691.000000	-0.000020
690.000000	-0.000041
689.000000	-0.000054
688.000000	-0.000037
687.000000	0.000028
686.000000	0.000144
685.000000	0.000313
684.000000	0.000547
683.000000	0.000844
682.000000	0.001148
681.000000	0.001370
680.000000	0.001467
679.000000	0.001479
678.000000	0.001469
677.000000	0.001462
676.000000	0.001434
675.000000	0.001353
674.000000	0.001213
673.000000	0.001021
672.000000	0.000779
671.000000	0.000490
670.000000	0.000159
669.000000	-0.000158
668.000000	-0.000273
667.000000	-0.000047
666.000000	0.000169
665.000000	0.000261
664.000000	0.000349
663.000000	0.000456
662.000000	0.000535
661.000000	0.000574
660.000000	0.000624
659.000000	0.000727
658.000000	0.000853
657.000000	0.000934
656.000000	0.000916
655.000000	0.000795
654.000000	0.000623
653.000000	0.000465
652.000000	0.000325
651.000000	0.000180
650.000000	0.000059
649.000000	0.000026
648.000000	0.000096
647.000000	0.000224
646.000000	0.000378
645.000000	0.000534
644.000000	0.000624
643.000000	0.000569
642.000000	0.000386
641.000000	0.000185
640.000000	0.000047
639.000000	-0.000025
638.000000	-0.000038
637.000000	0.000027
636.000000	0.000143
635.000000	0.000218
634.000000	0.000197
633.000000	0.000128
632.000000	0.000087
631.000000	0.000081
630.000000	0.000062
629.000000	0.000017
628.000000	-0.000030
627.000000	-0.000058
626.000000	-0.000065
625.000000	-0.000057
624.000000	-0.000059
623.000000	-0.000090
622.000000	-0.000136
621.000000	-0.000159
620.000000	-0.000144
619.000000	-0.000110
618.000000	-0.000065
617.000000	0.000011
616.000000	0.000126
615.000000	0.000248
614.000000	0.000350
613.000000	0.000442
612.000000	0.000538
611.000000	0.000622
610.000000	0.000675
609.000000	0.000707
608.000000	0.000730
607.000000	0.000746
606.000000	0.000772
605.000000	0.000844
604.000000	0.000969
603.000000	0.001096
602.000000	0.001164
601.000000	0.001155
600.000000	0.001096
599.000000	0.001036
598.000000	0.001013
597.000000	0.001038
596.000000	0.001082
595.000000	0.001113
594.000000	0.001136
593.000000	0.001169
592.000000	0.001194
591.000000	0.001171
590.000000	0.001094
589.000000	0.000988
588.000000	0.000860
587.000000	0.000710
586.000000	0.000572
585.000000	0.000497
584.000000	0.000478
583.000000	0.000453
582.000000	0.000386
581.000000	0.000303
580.000000	0.000232
579.000000	0.000166
578.000000	0.000102
577.000000	0.000063
576.000000	0.000072
575.000000	0.000122
574.000000	0.000203
573.000000	0.000304
572.000000	0.000402
571.000000	0.000464
570.000000	0.000500
569.000000	0.000542
568.000000	0.000578
567.000000	0.000544
566.000000	0.000423
565.000000	0.000291
564.000000	0.000234
563.000000	0.000266
562.000000	0.000351
561.000000	0.000460
560.000000	0.000564
559.000000	0.000619
558.000000	0.000608
557.000000	0.000567
556.000000	0.000542
555.000000	0.000529
554.000000	0.000513
553.000000	0.000509
552.000000	0.000538
551.000000	0.000582
550.000000	0.000600
549.000000	0.000578
548.000000	0.000542
547.000000	0.000530
546.000000	0.000581
545.000000	0.000708
544.000000	0.000858
543.000000	0.000943
542.000000	0.000919
541.000000	0.000832
540.000000	0.000758
539.000000	0.000729
538.000000	0.000725
537.000000	0.000710
536.000000	0.000672
535.000000	0.000658
534.000000	0.000743
533.000000	0.000924
532.000000	0.001045
531.000000	0.000953
530.000000	0.000718
529.000000	0.000553
528.000000	0.000520
527.000000	0.000462
526.000000	0.000301
525.000000	0.000252
524.000000	0.000536
523.000000	0.001044
522.000000	0.001446
521.000000	0.001534
520.000000	0.001337
519.000000	0.000977
518.000000	0.000564
517.000000	0.000236
516.000000	0.000121
515.000000	0.000204
514.000000	0.000344
513.000000	0.000440
512.000000	0.000508
511.000000	0.000580
510.000000	0.000616
509.000000	0.000555
508.000000	0.000393
507.000000	0.000205
506.000000	0.000106
505.000000	0.000145
504.000000	0.000265
503.000000	0.000351
502.000000	0.000365
501.000000	0.000366
500.000000	0.000374
499.000000	0.000322
498.000000	0.000186
497.000000	0.000064
496.000000	0.000059
495.000000	0.000121
494.000000	0.000138
493.000000	0.000099
492.000000	0.000065
491.000000	0.000055
490.000000	0.000030
489.000000	-0.000004
488.000000	-0.000022
487.000000	-0.000065
486.000000	-0.000176
485.000000	-0.000258
484.000000	-0.000127
483.000000	0.000224
482.000000	0.000543
481.000000	0.000551
480.000000	0.000234
479.000000	-0.000152
478.000000	-0.000329
477.000000	-0.000224
476.000000	0.000026
475.000000	0.000258
474.000000	0.000421
473.000000	0.000556
472.000000	0.000666
471.000000	0.000686
470.000000	0.000570
469.000000	0.000360
468.000000	0.000145
467.000000	-0.000011
466.000000	-0.000089
465.000000	-0.000088
464.000000	-0.000028
463.000000	0.000027
462.000000	0.000004
461.000000	-0.000117
460.000000	-0.000297
459.000000	-0.000484
458.000000	-0.000604
457.000000	-0.000528
456.000000	-0.000172
455.000000	0.000381
454.000000	0.000938
453.000000	0.001282
452.000000	0.000926
451.000000	0.000807
450.000000	0.000660
