PE IR       SUBTECH     SPECTRUM    ASCII       PEDS        4.00        
   -1
P3-Bleu040_1.ASC
23/06/13
11:55:15.00
23/06/13
12:04:49.00
uco
Sample 040 By uco Date Tuesday, June 13 2023
450.000000
#HDR
-1
-1
#GR
cm-1
A
1.0
0.0
4000.000000
-1.000000
3551
8
0.002613
-0.001158
#DATA
4000.000000	-0.000486
3999.000000	-0.000469
3998.000000	-0.000460
3997.000000	-0.000462
3996.000000	-0.000470
3995.000000	-0.000479
3994.000000	-0.000487
3993.000000	-0.000495
3992.000000	-0.000502
3991.000000	-0.000503
3990.000000	-0.000493
3989.000000	-0.000472
3988.000000	-0.000448
3987.000000	-0.000429
3986.000000	-0.000419
3985.000000	-0.000416
3984.000000	-0.000417
3983.000000	-0.000418
3982.000000	-0.000419
3981.000000	-0.000422
3980.000000	-0.000429
3979.000000	-0.000442
3978.000000	-0.000458
3977.000000	-0.000471
3976.000000	-0.000474
3975.000000	-0.000463
3974.000000	-0.000440
3973.000000	-0.000408
3972.000000	-0.000374
3971.000000	-0.000345
3970.000000	-0.000327
3969.000000	-0.000320
3968.000000	-0.000318
3967.000000	-0.000310
3966.000000	-0.000293
3965.000000	-0.000272
3964.000000	-0.000263
3963.000000	-0.000276
3962.000000	-0.000308
3961.000000	-0.000348
3960.000000	-0.000381
3959.000000	-0.000402
3958.000000	-0.000408
3957.000000	-0.000402
3956.000000	-0.000387
3955.000000	-0.000370
3954.000000	-0.000356
3953.000000	-0.000345
3952.000000	-0.000339
3951.000000	-0.000336
3950.000000	-0.000345
3949.000000	-0.000368
3948.000000	-0.000401
3947.000000	-0.000426
3946.000000	-0.000425
3945.000000	-0.000395
3944.000000	-0.000345
3943.000000	-0.000299
3942.000000	-0.000276
3941.000000	-0.000279
3940.000000	-0.000295
3939.000000	-0.000308
3938.000000	-0.000315
3937.000000	-0.000323
3936.000000	-0.000340
3935.000000	-0.000360
3934.000000	-0.000367
3933.000000	-0.000348
3932.000000	-0.000312
3931.000000	-0.000279
3930.000000	-0.000263
3929.000000	-0.000262
3928.000000	-0.000259
3927.000000	-0.000249
3926.000000	-0.000240
3925.000000	-0.000250
3924.000000	-0.000282
3923.000000	-0.000323
3922.000000	-0.000360
3921.000000	-0.000391
3920.000000	-0.000417
3919.000000	-0.000437
3918.000000	-0.000441
3917.000000	-0.000423
3916.000000	-0.000388
3915.000000	-0.000349
3914.000000	-0.000312
3913.000000	-0.000276
3912.000000	-0.000241
3911.000000	-0.000212
3910.000000	-0.000192
3909.000000	-0.000184
3908.000000	-0.000188
3907.000000	-0.000205
3906.000000	-0.000242
3905.000000	-0.000308
3904.000000	-0.000397
3903.000000	-0.000476
3902.000000	-0.000510
3901.000000	-0.000492
3900.000000	-0.000441
3899.000000	-0.000384
3898.000000	-0.000341
3897.000000	-0.000321
3896.000000	-0.000327
3895.000000	-0.000349
3894.000000	-0.000369
3893.000000	-0.000371
3892.000000	-0.000357
3891.000000	-0.000343
3890.000000	-0.000343
3889.000000	-0.000364
3888.000000	-0.000395
3887.000000	-0.000412
3886.000000	-0.000401
3885.000000	-0.000373
3884.000000	-0.000338
3883.000000	-0.000296
3882.000000	-0.000247
3881.000000	-0.000211
3880.000000	-0.000215
3879.000000	-0.000248
3878.000000	-0.000274
3877.000000	-0.000268
3876.000000	-0.000226
3875.000000	-0.000171
3874.000000	-0.000143
3873.000000	-0.000163
3872.000000	-0.000215
3871.000000	-0.000274
3870.000000	-0.000318
3869.000000	-0.000335
3868.000000	-0.000318
3867.000000	-0.000274
3866.000000	-0.000223
3865.000000	-0.000193
3864.000000	-0.000211
3863.000000	-0.000272
3862.000000	-0.000335
3861.000000	-0.000371
3860.000000	-0.000378
3859.000000	-0.000373
3858.000000	-0.000371
3857.000000	-0.000379
3856.000000	-0.000383
3855.000000	-0.000361
3854.000000	-0.000347
3853.000000	-0.000379
3852.000000	-0.000407
3851.000000	-0.000392
3850.000000	-0.000352
3849.000000	-0.000302
3848.000000	-0.000253
3847.000000	-0.000210
3846.000000	-0.000177
3845.000000	-0.000155
3844.000000	-0.000149
3843.000000	-0.000161
3842.000000	-0.000187
3841.000000	-0.000217
3840.000000	-0.000244
3839.000000	-0.000266
3838.000000	-0.000276
3837.000000	-0.000266
3836.000000	-0.000238
3835.000000	-0.000210
3834.000000	-0.000198
3833.000000	-0.000209
3832.000000	-0.000235
3831.000000	-0.000265
3830.000000	-0.000289
3829.000000	-0.000297
3828.000000	-0.000283
3827.000000	-0.000253
3826.000000	-0.000225
3825.000000	-0.000216
3824.000000	-0.000217
3823.000000	-0.000195
3822.000000	-0.000146
3821.000000	-0.000121
3820.000000	-0.000151
3819.000000	-0.000211
3818.000000	-0.000262
3817.000000	-0.000287
3816.000000	-0.000279
3815.000000	-0.000249
3814.000000	-0.000211
3813.000000	-0.000184
3812.000000	-0.000181
3811.000000	-0.000207
3810.000000	-0.000252
3809.000000	-0.000291
3808.000000	-0.000300
3807.000000	-0.000276
3806.000000	-0.000243
3805.000000	-0.000219
3804.000000	-0.000204
3803.000000	-0.000184
3802.000000	-0.000164
3801.000000	-0.000159
3800.000000	-0.000169
3799.000000	-0.000177
3798.000000	-0.000183
3797.000000	-0.000191
3796.000000	-0.000207
3795.000000	-0.000223
3794.000000	-0.000228
3793.000000	-0.000220
3792.000000	-0.000200
3791.000000	-0.000170
3790.000000	-0.000131
3789.000000	-0.000085
3788.000000	-0.000036
3787.000000	0.000009
3786.000000	0.000037
3785.000000	0.000036
3784.000000	0.000006
3783.000000	-0.000038
3782.000000	-0.000081
3781.000000	-0.000117
3780.000000	-0.000147
3779.000000	-0.000169
3778.000000	-0.000175
3777.000000	-0.000164
3776.000000	-0.000147
3775.000000	-0.000136
3774.000000	-0.000141
3773.000000	-0.000165
3772.000000	-0.000204
3771.000000	-0.000242
3770.000000	-0.000266
3769.000000	-0.000274
3768.000000	-0.000268
3767.000000	-0.000256
3766.000000	-0.000239
3765.000000	-0.000217
3764.000000	-0.000195
3763.000000	-0.000177
3762.000000	-0.000167
3761.000000	-0.000158
3760.000000	-0.000152
3759.000000	-0.000159
3758.000000	-0.000186
3757.000000	-0.000227
3756.000000	-0.000272
3755.000000	-0.000311
3754.000000	-0.000344
3753.000000	-0.000385
3752.000000	-0.000448
3751.000000	-0.000521
3750.000000	-0.000555
3749.000000	-0.000537
3748.000000	-0.000510
3747.000000	-0.000506
3746.000000	-0.000505
3745.000000	-0.000467
3744.000000	-0.000386
3743.000000	-0.000302
3742.000000	-0.000265
3741.000000	-0.000293
3740.000000	-0.000359
3739.000000	-0.000430
3738.000000	-0.000475
3737.000000	-0.000483
3736.000000	-0.000469
3735.000000	-0.000460
3734.000000	-0.000470
3733.000000	-0.000483
3732.000000	-0.000473
3731.000000	-0.000441
3730.000000	-0.000407
3729.000000	-0.000385
3728.000000	-0.000367
3727.000000	-0.000339
3726.000000	-0.000302
3725.000000	-0.000266
3724.000000	-0.000235
3723.000000	-0.000202
3722.000000	-0.000173
3721.000000	-0.000165
3720.000000	-0.000183
3719.000000	-0.000222
3718.000000	-0.000266
3717.000000	-0.000303
3716.000000	-0.000328
3715.000000	-0.000332
3714.000000	-0.000304
3713.000000	-0.000241
3712.000000	-0.000173
3711.000000	-0.000147
3710.000000	-0.000170
3709.000000	-0.000213
3708.000000	-0.000240
3707.000000	-0.000235
3706.000000	-0.000213
3705.000000	-0.000201
3704.000000	-0.000213
3703.000000	-0.000247
3702.000000	-0.000285
3701.000000	-0.000308
3700.000000	-0.000302
3699.000000	-0.000273
3698.000000	-0.000238
3697.000000	-0.000211
3696.000000	-0.000199
3695.000000	-0.000197
3694.000000	-0.000197
3693.000000	-0.000189
3692.000000	-0.000173
3691.000000	-0.000164
3690.000000	-0.000183
3689.000000	-0.000215
3688.000000	-0.000222
3687.000000	-0.000200
3686.000000	-0.000187
3685.000000	-0.000199
3684.000000	-0.000221
3683.000000	-0.000226
3682.000000	-0.000198
3681.000000	-0.000155
3680.000000	-0.000127
3679.000000	-0.000129
3678.000000	-0.000151
3677.000000	-0.000167
3676.000000	-0.000175
3675.000000	-0.000194
3674.000000	-0.000228
3673.000000	-0.000266
3672.000000	-0.000301
3671.000000	-0.000318
3670.000000	-0.000321
3669.000000	-0.000318
3668.000000	-0.000302
3667.000000	-0.000268
3666.000000	-0.000228
3665.000000	-0.000191
3664.000000	-0.000160
3663.000000	-0.000132
3662.000000	-0.000109
3661.000000	-0.000104
3660.000000	-0.000124
3659.000000	-0.000162
3658.000000	-0.000198
3657.000000	-0.000221
3656.000000	-0.000232
3655.000000	-0.000245
3654.000000	-0.000271
3653.000000	-0.000310
3652.000000	-0.000343
3651.000000	-0.000352
3650.000000	-0.000347
3649.000000	-0.000342
3648.000000	-0.000318
3647.000000	-0.000272
3646.000000	-0.000226
3645.000000	-0.000194
3644.000000	-0.000172
3643.000000	-0.000148
3642.000000	-0.000123
3641.000000	-0.000112
3640.000000	-0.000121
3639.000000	-0.000142
3638.000000	-0.000167
3637.000000	-0.000192
3636.000000	-0.000216
3635.000000	-0.000239
3634.000000	-0.000266
3633.000000	-0.000313
3632.000000	-0.000380
3631.000000	-0.000440
3630.000000	-0.000465
3629.000000	-0.000460
3628.000000	-0.000446
3627.000000	-0.000423
3626.000000	-0.000392
3625.000000	-0.000356
3624.000000	-0.000310
3623.000000	-0.000250
3622.000000	-0.000188
3621.000000	-0.000142
3620.000000	-0.000127
3619.000000	-0.000147
3618.000000	-0.000181
3617.000000	-0.000208
3616.000000	-0.000225
3615.000000	-0.000237
3614.000000	-0.000254
3613.000000	-0.000285
3612.000000	-0.000326
3611.000000	-0.000351
3610.000000	-0.000340
3609.000000	-0.000293
3608.000000	-0.000235
3607.000000	-0.000194
3606.000000	-0.000180
3605.000000	-0.000182
3604.000000	-0.000183
3603.000000	-0.000168
3602.000000	-0.000137
3601.000000	-0.000098
3600.000000	-0.000064
3599.000000	-0.000039
3598.000000	-0.000017
3597.000000	0.000011
3596.000000	0.000040
3595.000000	0.000056
3594.000000	0.000036
3593.000000	-0.000019
3592.000000	-0.000090
3591.000000	-0.000148
3590.000000	-0.000172
3589.000000	-0.000163
3588.000000	-0.000145
3587.000000	-0.000134
3586.000000	-0.000131
3585.000000	-0.000124
3584.000000	-0.000108
3583.000000	-0.000081
3582.000000	-0.000052
3581.000000	-0.000030
3580.000000	-0.000021
3579.000000	-0.000015
3578.000000	-0.000001
3577.000000	0.000020
3576.000000	0.000035
3575.000000	0.000039
3574.000000	0.000034
3573.000000	0.000027
3572.000000	0.000020
3571.000000	0.000013
3570.000000	0.000010
3569.000000	0.000018
3568.000000	0.000043
3567.000000	0.000086
3566.000000	0.000136
3565.000000	0.000168
3564.000000	0.000170
3563.000000	0.000151
3562.000000	0.000132
3561.000000	0.000128
3560.000000	0.000139
3559.000000	0.000149
3558.000000	0.000146
3557.000000	0.000133
3556.000000	0.000124
3555.000000	0.000131
3554.000000	0.000157
3553.000000	0.000190
3552.000000	0.000218
3551.000000	0.000234
3550.000000	0.000235
3549.000000	0.000222
3548.000000	0.000206
3547.000000	0.000202
3546.000000	0.000215
3545.000000	0.000234
3544.000000	0.000245
3543.000000	0.000248
3542.000000	0.000247
3541.000000	0.000243
3540.000000	0.000239
3539.000000	0.000239
3538.000000	0.000246
3537.000000	0.000257
3536.000000	0.000268
3535.000000	0.000278
3534.000000	0.000286
3533.000000	0.000287
3532.000000	0.000282
3531.000000	0.000274
3530.000000	0.000265
3529.000000	0.000253
3528.000000	0.000235
3527.000000	0.000218
3526.000000	0.000211
3525.000000	0.000221
3524.000000	0.000246
3523.000000	0.000282
3522.000000	0.000317
3521.000000	0.000342
3520.000000	0.000356
3519.000000	0.000365
3518.000000	0.000369
3517.000000	0.000359
3516.000000	0.000333
3515.000000	0.000303
3514.000000	0.000287
3513.000000	0.000295
3512.000000	0.000325
3511.000000	0.000361
3510.000000	0.000386
3509.000000	0.000392
3508.000000	0.000389
3507.000000	0.000396
3506.000000	0.000420
3505.000000	0.000450
3504.000000	0.000472
3503.000000	0.000478
3502.000000	0.000469
3501.000000	0.000450
3500.000000	0.000428
3499.000000	0.000415
3498.000000	0.000417
3497.000000	0.000428
3496.000000	0.000437
3495.000000	0.000436
3494.000000	0.000425
3493.000000	0.000409
3492.000000	0.000399
3491.000000	0.000404
3490.000000	0.000416
3489.000000	0.000419
3488.000000	0.000404
3487.000000	0.000377
3486.000000	0.000356
3485.000000	0.000354
3484.000000	0.000374
3483.000000	0.000413
3482.000000	0.000460
3481.000000	0.000497
3480.000000	0.000514
3479.000000	0.000509
3478.000000	0.000487
3477.000000	0.000459
3476.000000	0.000443
3475.000000	0.000452
3474.000000	0.000482
3473.000000	0.000513
3472.000000	0.000528
3471.000000	0.000527
3470.000000	0.000515
3469.000000	0.000496
3468.000000	0.000474
3467.000000	0.000452
3466.000000	0.000434
3465.000000	0.000421
3464.000000	0.000417
3463.000000	0.000425
3462.000000	0.000439
3461.000000	0.000446
3460.000000	0.000447
3459.000000	0.000455
3458.000000	0.000482
3457.000000	0.000525
3456.000000	0.000565
3455.000000	0.000587
3454.000000	0.000589
3453.000000	0.000578
3452.000000	0.000566
3451.000000	0.000565
3450.000000	0.000581
3449.000000	0.000601
3448.000000	0.000611
3447.000000	0.000602
3446.000000	0.000579
3445.000000	0.000560
3444.000000	0.000562
3443.000000	0.000590
3442.000000	0.000628
3441.000000	0.000657
3440.000000	0.000666
3439.000000	0.000659
3438.000000	0.000647
3437.000000	0.000633
3436.000000	0.000616
3435.000000	0.000605
3434.000000	0.000606
3433.000000	0.000617
3432.000000	0.000631
3431.000000	0.000644
3430.000000	0.000662
3429.000000	0.000680
3428.000000	0.000694
3427.000000	0.000695
3426.000000	0.000685
3425.000000	0.000665
3424.000000	0.000645
3423.000000	0.000634
3422.000000	0.000640
3421.000000	0.000657
3420.000000	0.000674
3419.000000	0.000683
3418.000000	0.000683
3417.000000	0.000681
3416.000000	0.000683
3415.000000	0.000694
3414.000000	0.000709
3413.000000	0.000714
3412.000000	0.000704
3411.000000	0.000685
3410.000000	0.000673
3409.000000	0.000678
3408.000000	0.000702
3407.000000	0.000739
3406.000000	0.000775
3405.000000	0.000794
3404.000000	0.000787
3403.000000	0.000759
3402.000000	0.000725
3401.000000	0.000701
3400.000000	0.000695
3399.000000	0.000710
3398.000000	0.000739
3397.000000	0.000767
3396.000000	0.000781
3395.000000	0.000780
3394.000000	0.000772
3393.000000	0.000766
3392.000000	0.000764
3391.000000	0.000763
3390.000000	0.000757
3389.000000	0.000749
3388.000000	0.000747
3387.000000	0.000756
3386.000000	0.000772
3385.000000	0.000782
3384.000000	0.000782
3383.000000	0.000777
3382.000000	0.000773
3381.000000	0.000771
3380.000000	0.000767
3379.000000	0.000765
3378.000000	0.000767
3377.000000	0.000773
3376.000000	0.000780
3375.000000	0.000788
3374.000000	0.000803
3373.000000	0.000824
3372.000000	0.000850
3371.000000	0.000869
3370.000000	0.000872
3369.000000	0.000859
3368.000000	0.000843
3367.000000	0.000838
3366.000000	0.000843
3365.000000	0.000847
3364.000000	0.000840
3363.000000	0.000822
3362.000000	0.000804
3361.000000	0.000796
3360.000000	0.000803
3359.000000	0.000823
3358.000000	0.000852
3357.000000	0.000881
3356.000000	0.000904
3355.000000	0.000917
3354.000000	0.000916
3353.000000	0.000897
3352.000000	0.000871
3351.000000	0.000853
3350.000000	0.000848
3349.000000	0.000853
3348.000000	0.000866
3347.000000	0.000885
3346.000000	0.000904
3345.000000	0.000917
3344.000000	0.000929
3343.000000	0.000948
3342.000000	0.000975
3341.000000	0.000993
3340.000000	0.000988
3339.000000	0.000960
3338.000000	0.000925
3337.000000	0.000896
3336.000000	0.000883
3335.000000	0.000888
3334.000000	0.000907
3333.000000	0.000928
3332.000000	0.000940
3331.000000	0.000938
3330.000000	0.000924
3329.000000	0.000907
3328.000000	0.000897
3327.000000	0.000897
3326.000000	0.000895
3325.000000	0.000882
3324.000000	0.000863
3323.000000	0.000855
3322.000000	0.000869
3321.000000	0.000898
3320.000000	0.000929
3319.000000	0.000955
3318.000000	0.000971
3317.000000	0.000976
3316.000000	0.000975
3315.000000	0.000974
3314.000000	0.000976
3313.000000	0.000977
3312.000000	0.000976
3311.000000	0.000972
3310.000000	0.000962
3309.000000	0.000947
3308.000000	0.000930
3307.000000	0.000925
3306.000000	0.000941
3305.000000	0.000976
3304.000000	0.001018
3303.000000	0.001051
3302.000000	0.001062
3301.000000	0.001046
3300.000000	0.001015
3299.000000	0.000989
3298.000000	0.000978
3297.000000	0.000981
3296.000000	0.000984
3295.000000	0.000981
3294.000000	0.000972
3293.000000	0.000963
3292.000000	0.000963
3291.000000	0.000976
3290.000000	0.000998
3289.000000	0.001017
3288.000000	0.001029
3287.000000	0.001036
3286.000000	0.001042
3285.000000	0.001044
3284.000000	0.001040
3283.000000	0.001032
3282.000000	0.001028
3281.000000	0.001027
3280.000000	0.001025
3279.000000	0.001017
3278.000000	0.001003
3277.000000	0.000987
3276.000000	0.000973
3275.000000	0.000965
3274.000000	0.000960
3273.000000	0.000954
3272.000000	0.000950
3271.000000	0.000953
3270.000000	0.000967
3269.000000	0.000988
3268.000000	0.001006
3267.000000	0.001014
3266.000000	0.001007
3265.000000	0.000990
3264.000000	0.000972
3263.000000	0.000960
3262.000000	0.000951
3261.000000	0.000939
3260.000000	0.000922
3259.000000	0.000909
3258.000000	0.000907
3257.000000	0.000913
3256.000000	0.000921
3255.000000	0.000926
3254.000000	0.000924
3253.000000	0.000920
3252.000000	0.000919
3251.000000	0.000925
3250.000000	0.000930
3249.000000	0.000925
3248.000000	0.000913
3247.000000	0.000904
3246.000000	0.000903
3245.000000	0.000907
3244.000000	0.000919
3243.000000	0.000940
3242.000000	0.000965
3241.000000	0.000974
3240.000000	0.000964
3239.000000	0.000944
3238.000000	0.000925
3237.000000	0.000905
3236.000000	0.000879
3235.000000	0.000852
3234.000000	0.000834
3233.000000	0.000833
3232.000000	0.000846
3231.000000	0.000859
3230.000000	0.000861
3229.000000	0.000848
3228.000000	0.000834
3227.000000	0.000837
3226.000000	0.000858
3225.000000	0.000879
3224.000000	0.000885
3223.000000	0.000874
3222.000000	0.000859
3221.000000	0.000851
3220.000000	0.000857
3219.000000	0.000871
3218.000000	0.000879
3217.000000	0.000871
3216.000000	0.000844
3215.000000	0.000812
3214.000000	0.000792
3213.000000	0.000792
3212.000000	0.000810
3211.000000	0.000839
3210.000000	0.000868
3209.000000	0.000889
3208.000000	0.000898
3207.000000	0.000896
3206.000000	0.000885
3205.000000	0.000867
3204.000000	0.000852
3203.000000	0.000853
3202.000000	0.000867
3201.000000	0.000878
3200.000000	0.000876
3199.000000	0.000867
3198.000000	0.000859
3197.000000	0.000852
3196.000000	0.000844
3195.000000	0.000842
3194.000000	0.000854
3193.000000	0.000874
3192.000000	0.000887
3191.000000	0.000883
3190.000000	0.000865
3189.000000	0.000845
3188.000000	0.000832
3187.000000	0.000829
3186.000000	0.000833
3185.000000	0.000843
3184.000000	0.000857
3183.000000	0.000874
3182.000000	0.000884
3181.000000	0.000884
3180.000000	0.000876
3179.000000	0.000867
3178.000000	0.000861
3177.000000	0.000852
3176.000000	0.000840
3175.000000	0.000824
3174.000000	0.000806
3173.000000	0.000789
3172.000000	0.000776
3171.000000	0.000776
3170.000000	0.000792
3169.000000	0.000815
3168.000000	0.000834
3167.000000	0.000849
3166.000000	0.000863
3165.000000	0.000877
3164.000000	0.000884
3163.000000	0.000881
3162.000000	0.000869
3161.000000	0.000853
3160.000000	0.000838
3159.000000	0.000829
3158.000000	0.000830
3157.000000	0.000840
3156.000000	0.000855
3155.000000	0.000869
3154.000000	0.000875
3153.000000	0.000868
3152.000000	0.000846
3151.000000	0.000816
3150.000000	0.000787
3149.000000	0.000768
3148.000000	0.000765
3147.000000	0.000774
3146.000000	0.000788
3145.000000	0.000796
3144.000000	0.000792
3143.000000	0.000779
3142.000000	0.000771
3141.000000	0.000777
3140.000000	0.000799
3139.000000	0.000820
3138.000000	0.000821
3137.000000	0.000794
3136.000000	0.000753
3135.000000	0.000722
3134.000000	0.000710
3133.000000	0.000712
3132.000000	0.000716
3131.000000	0.000715
3130.000000	0.000707
3129.000000	0.000692
3128.000000	0.000677
3127.000000	0.000675
3126.000000	0.000691
3125.000000	0.000716
3124.000000	0.000732
3123.000000	0.000723
3122.000000	0.000690
3121.000000	0.000646
3120.000000	0.000610
3119.000000	0.000591
3118.000000	0.000588
3117.000000	0.000592
3116.000000	0.000601
3115.000000	0.000618
3114.000000	0.000644
3113.000000	0.000669
3112.000000	0.000683
3111.000000	0.000685
3110.000000	0.000686
3109.000000	0.000697
3108.000000	0.000713
3107.000000	0.000716
3106.000000	0.000698
3105.000000	0.000670
3104.000000	0.000654
3103.000000	0.000663
3102.000000	0.000690
3101.000000	0.000716
3100.000000	0.000731
3099.000000	0.000728
3098.000000	0.000704
3097.000000	0.000660
3096.000000	0.000611
3095.000000	0.000574
3094.000000	0.000559
3093.000000	0.000562
3092.000000	0.000574
3091.000000	0.000591
3090.000000	0.000612
3089.000000	0.000632
3088.000000	0.000644
3087.000000	0.000645
3086.000000	0.000641
3085.000000	0.000638
3084.000000	0.000639
3083.000000	0.000641
3082.000000	0.000642
3081.000000	0.000637
3080.000000	0.000633
3079.000000	0.000637
3078.000000	0.000658
3077.000000	0.000692
3076.000000	0.000726
3075.000000	0.000741
3074.000000	0.000726
3073.000000	0.000688
3072.000000	0.000649
3071.000000	0.000629
3070.000000	0.000632
3069.000000	0.000646
3068.000000	0.000659
3067.000000	0.000663
3066.000000	0.000656
3065.000000	0.000638
3064.000000	0.000616
3063.000000	0.000603
3062.000000	0.000605
3061.000000	0.000622
3060.000000	0.000645
3059.000000	0.000665
3058.000000	0.000675
3057.000000	0.000671
3056.000000	0.000654
3055.000000	0.000638
3054.000000	0.000633
3053.000000	0.000642
3052.000000	0.000654
3051.000000	0.000659
3050.000000	0.000659
3049.000000	0.000664
3048.000000	0.000676
3047.000000	0.000689
3046.000000	0.000691
3045.000000	0.000683
3044.000000	0.000667
3043.000000	0.000645
3042.000000	0.000619
3041.000000	0.000597
3040.000000	0.000595
3039.000000	0.000618
3038.000000	0.000650
3037.000000	0.000668
3036.000000	0.000664
3035.000000	0.000649
3034.000000	0.000643
3033.000000	0.000658
3032.000000	0.000692
3031.000000	0.000732
3030.000000	0.000755
3029.000000	0.000749
3028.000000	0.000721
3027.000000	0.000694
3026.000000	0.000685
3025.000000	0.000701
3024.000000	0.000732
3023.000000	0.000763
3022.000000	0.000771
3021.000000	0.000749
3020.000000	0.000712
3019.000000	0.000687
3018.000000	0.000698
3017.000000	0.000743
3016.000000	0.000805
3015.000000	0.000861
3014.000000	0.000897
3013.000000	0.000908
3012.000000	0.000897
3011.000000	0.000875
3010.000000	0.000854
3009.000000	0.000839
3008.000000	0.000836
3007.000000	0.000845
3006.000000	0.000862
3005.000000	0.000878
3004.000000	0.000887
3003.000000	0.000888
3002.000000	0.000887
3001.000000	0.000887
3000.000000	0.000889
2999.000000	0.000894
2998.000000	0.000904
2997.000000	0.000919
2996.000000	0.000940
2995.000000	0.000968
2994.000000	0.001003
2993.000000	0.001041
2992.000000	0.001077
2991.000000	0.001107
2990.000000	0.001132
2989.000000	0.001154
2988.000000	0.001173
2987.000000	0.001184
2986.000000	0.001182
2985.000000	0.001170
2984.000000	0.001161
2983.000000	0.001166
2982.000000	0.001181
2981.000000	0.001192
2980.000000	0.001193
2979.000000	0.001195
2978.000000	0.001216
2977.000000	0.001259
2976.000000	0.001315
2975.000000	0.001372
2974.000000	0.001421
2973.000000	0.001460
2972.000000	0.001495
2971.000000	0.001533
2970.000000	0.001577
2969.000000	0.001618
2968.000000	0.001644
2967.000000	0.001657
2966.000000	0.001670
2965.000000	0.001698
2964.000000	0.001744
2963.000000	0.001794
2962.000000	0.001834
2961.000000	0.001860
2960.000000	0.001880
2959.000000	0.001902
2958.000000	0.001928
2957.000000	0.001955
2956.000000	0.001981
2955.000000	0.002003
2954.000000	0.002022
2953.000000	0.002034
2952.000000	0.002042
2951.000000	0.002051
2950.000000	0.002061
2949.000000	0.002070
2948.000000	0.002072
2947.000000	0.002063
2946.000000	0.002044
2945.000000	0.002019
2944.000000	0.001998
2943.000000	0.001987
2942.000000	0.001981
2941.000000	0.001974
2940.000000	0.001963
2939.000000	0.001954
2938.000000	0.001958
2937.000000	0.001979
2936.000000	0.002013
2935.000000	0.002055
2934.000000	0.002096
2933.000000	0.002137
2932.000000	0.002179
2931.000000	0.002225
2930.000000	0.002277
2929.000000	0.002335
2928.000000	0.002400
2927.000000	0.002465
2926.000000	0.002520
2925.000000	0.002550
2924.000000	0.002554
2923.000000	0.002545
2922.000000	0.002540
2921.000000	0.002541
2920.000000	0.002533
2919.000000	0.002507
2918.000000	0.002463
2917.000000	0.002418
2916.000000	0.002382
2915.000000	0.002358
2914.000000	0.002343
2913.000000	0.002331
2912.000000	0.002315
2911.000000	0.002286
2910.000000	0.002242
2909.000000	0.002193
2908.000000	0.002153
2907.000000	0.002126
2906.000000	0.002104
2905.000000	0.002079
2904.000000	0.002055
2903.000000	0.002042
2902.000000	0.002037
2901.000000	0.002031
2900.000000	0.002012
2899.000000	0.001981
2898.000000	0.001943
2897.000000	0.001900
2896.000000	0.001854
2895.000000	0.001808
2894.000000	0.001769
2893.000000	0.001743
2892.000000	0.001729
2891.000000	0.001720
2890.000000	0.001707
2889.000000	0.001687
2888.000000	0.001665
2887.000000	0.001650
2886.000000	0.001646
2885.000000	0.001647
2884.000000	0.001646
2883.000000	0.001650
2882.000000	0.001669
2881.000000	0.001707
2880.000000	0.001752
2879.000000	0.001784
2878.000000	0.001792
2877.000000	0.001781
2876.000000	0.001766
2875.000000	0.001753
2874.000000	0.001741
2873.000000	0.001724
2872.000000	0.001707
2871.000000	0.001701
2870.000000	0.001709
2869.000000	0.001725
2868.000000	0.001739
2867.000000	0.001748
2866.000000	0.001751
2865.000000	0.001751
2864.000000	0.001749
2863.000000	0.001745
2862.000000	0.001739
2861.000000	0.001730
2860.000000	0.001718
2859.000000	0.001704
2858.000000	0.001687
2857.000000	0.001671
2856.000000	0.001661
2855.000000	0.001659
2854.000000	0.001663
2853.000000	0.001663
2852.000000	0.001649
2851.000000	0.001620
2850.000000	0.001582
2849.000000	0.001552
2848.000000	0.001535
2847.000000	0.001527
2846.000000	0.001517
2845.000000	0.001502
2844.000000	0.001487
2843.000000	0.001478
2842.000000	0.001470
2841.000000	0.001458
2840.000000	0.001443
2839.000000	0.001427
2838.000000	0.001412
2837.000000	0.001391
2836.000000	0.001361
2835.000000	0.001328
2834.000000	0.001297
2833.000000	0.001273
2832.000000	0.001256
2831.000000	0.001244
2830.000000	0.001236
2829.000000	0.001226
2828.000000	0.001211
2827.000000	0.001191
2826.000000	0.001170
2825.000000	0.001151
2824.000000	0.001129
2823.000000	0.001101
2822.000000	0.001064
2821.000000	0.001023
2820.000000	0.000986
2819.000000	0.000964
2818.000000	0.000961
2817.000000	0.000976
2816.000000	0.001000
2815.000000	0.001021
2814.000000	0.001033
2813.000000	0.001032
2812.000000	0.001014
2811.000000	0.000984
2810.000000	0.000956
2809.000000	0.000949
2808.000000	0.000967
2807.000000	0.000995
2806.000000	0.001012
2805.000000	0.001010
2804.000000	0.000995
2803.000000	0.000978
2802.000000	0.000965
2801.000000	0.000956
2800.000000	0.000949
2799.000000	0.000946
2798.000000	0.000947
2797.000000	0.000955
2796.000000	0.000974
2795.000000	0.000997
2794.000000	0.001013
2793.000000	0.001006
2792.000000	0.000976
2791.000000	0.000933
2790.000000	0.000897
2789.000000	0.000880
2788.000000	0.000884
2787.000000	0.000904
2786.000000	0.000928
2785.000000	0.000949
2784.000000	0.000963
2783.000000	0.000971
2782.000000	0.000973
2781.000000	0.000969
2780.000000	0.000956
2779.000000	0.000929
2778.000000	0.000892
2777.000000	0.000857
2776.000000	0.000835
2775.000000	0.000834
2774.000000	0.000850
2773.000000	0.000869
2772.000000	0.000879
2771.000000	0.000877
2770.000000	0.000866
2769.000000	0.000854
2768.000000	0.000841
2767.000000	0.000825
2766.000000	0.000811
2765.000000	0.000809
2764.000000	0.000828
2763.000000	0.000865
2762.000000	0.000907
2761.000000	0.000941
2760.000000	0.000955
2759.000000	0.000946
2758.000000	0.000918
2757.000000	0.000886
2756.000000	0.000865
2755.000000	0.000865
2754.000000	0.000885
2753.000000	0.000921
2752.000000	0.000963
2751.000000	0.000999
2750.000000	0.001020
2749.000000	0.001023
2748.000000	0.001013
2747.000000	0.000994
2746.000000	0.000967
2745.000000	0.000938
2744.000000	0.000913
2743.000000	0.000894
2742.000000	0.000881
2741.000000	0.000870
2740.000000	0.000862
2739.000000	0.000861
2738.000000	0.000869
2737.000000	0.000884
2736.000000	0.000902
2735.000000	0.000919
2734.000000	0.000937
2733.000000	0.000957
2732.000000	0.000976
2731.000000	0.000989
2730.000000	0.000994
2729.000000	0.000992
2728.000000	0.000984
2727.000000	0.000967
2726.000000	0.000942
2725.000000	0.000915
2724.000000	0.000894
2723.000000	0.000885
2722.000000	0.000888
2721.000000	0.000905
2720.000000	0.000931
2719.000000	0.000953
2718.000000	0.000960
2717.000000	0.000952
2716.000000	0.000943
2715.000000	0.000941
2714.000000	0.000945
2713.000000	0.000945
2712.000000	0.000933
2711.000000	0.000912
2710.000000	0.000892
2709.000000	0.000883
2708.000000	0.000891
2707.000000	0.000910
2706.000000	0.000933
2705.000000	0.000948
2704.000000	0.000951
2703.000000	0.000938
2702.000000	0.000913
2701.000000	0.000885
2700.000000	0.000867
2699.000000	0.000866
2698.000000	0.000875
2697.000000	0.000883
2696.000000	0.000888
2695.000000	0.000895
2694.000000	0.000907
2693.000000	0.000920
2692.000000	0.000926
2691.000000	0.000921
2690.000000	0.000911
2689.000000	0.000901
2688.000000	0.000894
2687.000000	0.000895
2686.000000	0.000909
2685.000000	0.000937
2684.000000	0.000968
2683.000000	0.000986
2682.000000	0.000986
2681.000000	0.000971
2680.000000	0.000949
2679.000000	0.000927
2678.000000	0.000913
2677.000000	0.000909
2676.000000	0.000911
2675.000000	0.000913
2674.000000	0.000913
2673.000000	0.000916
2672.000000	0.000925
2671.000000	0.000938
2670.000000	0.000946
2669.000000	0.000947
2668.000000	0.000945
2667.000000	0.000950
2666.000000	0.000967
2665.000000	0.000986
2664.000000	0.000993
2663.000000	0.000979
2662.000000	0.000958
2661.000000	0.000949
2660.000000	0.000956
2659.000000	0.000970
2658.000000	0.000977
2657.000000	0.000977
2656.000000	0.000975
2655.000000	0.000971
2654.000000	0.000960
2653.000000	0.000939
2652.000000	0.000910
2651.000000	0.000879
2650.000000	0.000850
2649.000000	0.000831
2648.000000	0.000824
2647.000000	0.000825
2646.000000	0.000827
2645.000000	0.000826
2644.000000	0.000819
2643.000000	0.000807
2642.000000	0.000796
2641.000000	0.000791
2640.000000	0.000793
2639.000000	0.000798
2638.000000	0.000800
2637.000000	0.000797
2636.000000	0.000785
2635.000000	0.000761
2634.000000	0.000733
2633.000000	0.000712
2632.000000	0.000705
2631.000000	0.000703
2630.000000	0.000695
2629.000000	0.000683
2628.000000	0.000675
2627.000000	0.000671
2626.000000	0.000659
2625.000000	0.000634
2624.000000	0.000604
2623.000000	0.000588
2622.000000	0.000595
2621.000000	0.000621
2620.000000	0.000651
2619.000000	0.000672
2618.000000	0.000678
2617.000000	0.000674
2616.000000	0.000674
2615.000000	0.000684
2614.000000	0.000699
2613.000000	0.000703
2612.000000	0.000682
2611.000000	0.000640
2610.000000	0.000598
2609.000000	0.000576
2608.000000	0.000574
2607.000000	0.000578
2606.000000	0.000582
2605.000000	0.000588
2604.000000	0.000595
2603.000000	0.000592
2602.000000	0.000579
2601.000000	0.000564
2600.000000	0.000554
2599.000000	0.000549
2598.000000	0.000547
2597.000000	0.000545
2596.000000	0.000541
2595.000000	0.000535
2594.000000	0.000531
2593.000000	0.000536
2592.000000	0.000545
2591.000000	0.000541
2590.000000	0.000517
2589.000000	0.000480
2588.000000	0.000445
2587.000000	0.000417
2586.000000	0.000391
2585.000000	0.000367
2584.000000	0.000350
2583.000000	0.000348
2582.000000	0.000374
2581.000000	0.000427
2580.000000	0.000486
2579.000000	0.000518
2578.000000	0.000514
2577.000000	0.000495
2576.000000	0.000481
2575.000000	0.000468
2574.000000	0.000449
2573.000000	0.000434
2572.000000	0.000438
2571.000000	0.000466
2570.000000	0.000500
2569.000000	0.000521
2568.000000	0.000518
2567.000000	0.000487
2566.000000	0.000444
2565.000000	0.000415
2564.000000	0.000423
2563.000000	0.000463
2562.000000	0.000506
2561.000000	0.000521
2560.000000	0.000492
2559.000000	0.000432
2558.000000	0.000375
2557.000000	0.000356
2556.000000	0.000370
2555.000000	0.000389
2554.000000	0.000401
2553.000000	0.000425
2552.000000	0.000474
2551.000000	0.000525
2550.000000	0.000543
2549.000000	0.000519
2548.000000	0.000471
2547.000000	0.000414
2546.000000	0.000357
2545.000000	0.000317
2544.000000	0.000315
2543.000000	0.000356
2542.000000	0.000423
2541.000000	0.000488
2540.000000	0.000524
2539.000000	0.000517
2538.000000	0.000475
2537.000000	0.000432
2536.000000	0.000414
2535.000000	0.000419
2534.000000	0.000424
2533.000000	0.000427
2532.000000	0.000437
2531.000000	0.000455
2530.000000	0.000464
2529.000000	0.000459
2528.000000	0.000452
2527.000000	0.000450
2526.000000	0.000446
2525.000000	0.000427
2524.000000	0.000396
2523.000000	0.000367
2522.000000	0.000350
2521.000000	0.000341
2520.000000	0.000327
2519.000000	0.000304
2518.000000	0.000282
2517.000000	0.000277
2516.000000	0.000295
2515.000000	0.000326
2514.000000	0.000359
2513.000000	0.000391
2512.000000	0.000419
2511.000000	0.000432
2510.000000	0.000427
2509.000000	0.000408
2508.000000	0.000384
2507.000000	0.000362
2506.000000	0.000361
2505.000000	0.000408
2504.000000	0.000506
2503.000000	0.000609
2502.000000	0.000656
2501.000000	0.000623
2500.000000	0.000539
2499.000000	0.000439
2498.000000	0.000349
2497.000000	0.000286
2496.000000	0.000263
2495.000000	0.000280
2494.000000	0.000314
2493.000000	0.000342
2492.000000	0.000362
2491.000000	0.000383
2490.000000	0.000413
2489.000000	0.000444
2488.000000	0.000456
2487.000000	0.000434
2486.000000	0.000380
2485.000000	0.000319
2484.000000	0.000277
2483.000000	0.000269
2482.000000	0.000294
2481.000000	0.000335
2480.000000	0.000370
2479.000000	0.000385
2478.000000	0.000386
2477.000000	0.000391
2476.000000	0.000404
2475.000000	0.000411
2474.000000	0.000397
2473.000000	0.000368
2472.000000	0.000347
2471.000000	0.000347
2470.000000	0.000368
2469.000000	0.000401
2468.000000	0.000434
2467.000000	0.000458
2466.000000	0.000467
2465.000000	0.000464
2464.000000	0.000456
2463.000000	0.000449
2462.000000	0.000450
2461.000000	0.000459
2460.000000	0.000466
2459.000000	0.000462
2458.000000	0.000454
2457.000000	0.000458
2456.000000	0.000473
2455.000000	0.000479
2454.000000	0.000462
2453.000000	0.000434
2452.000000	0.000404
2451.000000	0.000371
2450.000000	0.000335
2449.000000	0.000314
2448.000000	0.000325
2447.000000	0.000361
2446.000000	0.000400
2445.000000	0.000430
2444.000000	0.000441
2443.000000	0.000426
2442.000000	0.000394
2441.000000	0.000372
2440.000000	0.000381
2439.000000	0.000398
2438.000000	0.000384
2437.000000	0.000337
2436.000000	0.000295
2435.000000	0.000294
2434.000000	0.000337
2433.000000	0.000396
2432.000000	0.000435
2431.000000	0.000433
2430.000000	0.000395
2429.000000	0.000357
2428.000000	0.000352
2427.000000	0.000380
2426.000000	0.000410
2425.000000	0.000421
2424.000000	0.000422
2423.000000	0.000427
2422.000000	0.000435
2421.000000	0.000435
2420.000000	0.000422
2419.000000	0.000408
2418.000000	0.000402
2417.000000	0.000397
2416.000000	0.000385
2415.000000	0.000367
2414.000000	0.000357
2413.000000	0.000367
2412.000000	0.000391
2411.000000	0.000414
2410.000000	0.000428
2409.000000	0.000439
2408.000000	0.000442
2407.000000	0.000429
2406.000000	0.000395
2405.000000	0.000351
2404.000000	0.000308
2403.000000	0.000267
2402.000000	0.000231
2401.000000	0.000211
2400.000000	0.000213
2399.000000	0.000235
2398.000000	0.000267
2397.000000	0.000307
2396.000000	0.000348
2395.000000	0.000378
2394.000000	0.000386
2393.000000	0.000376
2392.000000	0.000360
2391.000000	0.000349
2390.000000	0.000340
2389.000000	0.000322
2388.000000	0.000286
2387.000000	0.000240
2386.000000	0.000212
2385.000000	0.000217
2384.000000	0.000237
2383.000000	0.000230
2382.000000	0.000184
2381.000000	0.000121
2380.000000	0.000065
2379.000000	0.000020
2378.000000	-0.000015
2377.000000	-0.000023
2376.000000	0.000014
2375.000000	0.000086
2374.000000	0.000152
2373.000000	0.000186
2372.000000	0.000191
2371.000000	0.000195
2370.000000	0.000217
2369.000000	0.000243
2368.000000	0.000243
2367.000000	0.000203
2366.000000	0.000148
2365.000000	0.000118
2364.000000	0.000132
2363.000000	0.000177
2362.000000	0.000221
2361.000000	0.000244
2360.000000	0.000243
2359.000000	0.000231
2358.000000	0.000231
2357.000000	0.000248
2356.000000	0.000282
2355.000000	0.000321
2354.000000	0.000326
2353.000000	0.000276
2352.000000	0.000221
2351.000000	0.000229
2350.000000	0.000297
2349.000000	0.000375
2348.000000	0.000409
2347.000000	0.000377
2346.000000	0.000322
2345.000000	0.000316
2344.000000	0.000378
2343.000000	0.000442
2342.000000	0.000457
2341.000000	0.000426
2340.000000	0.000387
2339.000000	0.000365
2338.000000	0.000362
2337.000000	0.000382
2336.000000	0.000425
2335.000000	0.000468
2334.000000	0.000465
2333.000000	0.000397
2332.000000	0.000307
2331.000000	0.000263
2330.000000	0.000281
2329.000000	0.000341
2328.000000	0.000411
2327.000000	0.000480
2326.000000	0.000543
2325.000000	0.000594
2324.000000	0.000624
2323.000000	0.000621
2322.000000	0.000595
2321.000000	0.000575
2320.000000	0.000585
2319.000000	0.000628
2318.000000	0.000681
2317.000000	0.000732
2316.000000	0.000761
2315.000000	0.000749
2314.000000	0.000693
2313.000000	0.000631
2312.000000	0.000599
2311.000000	0.000596
2310.000000	0.000587
2309.000000	0.000561
2308.000000	0.000533
2307.000000	0.000522
2306.000000	0.000524
2305.000000	0.000533
2304.000000	0.000542
2303.000000	0.000541
2302.000000	0.000534
2301.000000	0.000539
2300.000000	0.000567
2299.000000	0.000603
2298.000000	0.000615
2297.000000	0.000594
2296.000000	0.000557
2295.000000	0.000523
2294.000000	0.000510
2293.000000	0.000536
2292.000000	0.000607
2291.000000	0.000692
2290.000000	0.000748
2289.000000	0.000769
2288.000000	0.000780
2287.000000	0.000794
2286.000000	0.000796
2285.000000	0.000776
2284.000000	0.000754
2283.000000	0.000752
2282.000000	0.000764
2281.000000	0.000766
2280.000000	0.000733
2279.000000	0.000663
2278.000000	0.000577
2277.000000	0.000509
2276.000000	0.000480
2275.000000	0.000485
2274.000000	0.000509
2273.000000	0.000548
2272.000000	0.000595
2271.000000	0.000620
2270.000000	0.000609
2269.000000	0.000591
2268.000000	0.000609
2267.000000	0.000663
2266.000000	0.000696
2265.000000	0.000665
2264.000000	0.000585
2263.000000	0.000503
2262.000000	0.000455
2261.000000	0.000445
2260.000000	0.000446
2259.000000	0.000422
2258.000000	0.000362
2257.000000	0.000283
2256.000000	0.000214
2255.000000	0.000170
2254.000000	0.000162
2253.000000	0.000198
2252.000000	0.000261
2251.000000	0.000306
2250.000000	0.000307
2249.000000	0.000290
2248.000000	0.000299
2247.000000	0.000339
2246.000000	0.000380
2245.000000	0.000405
2244.000000	0.000426
2243.000000	0.000455
2242.000000	0.000485
2241.000000	0.000498
2240.000000	0.000483
2239.000000	0.000444
2238.000000	0.000417
2237.000000	0.000438
2236.000000	0.000501
2235.000000	0.000557
2234.000000	0.000568
2233.000000	0.000546
2232.000000	0.000517
2231.000000	0.000474
2230.000000	0.000397
2229.000000	0.000292
2228.000000	0.000196
2227.000000	0.000156
2226.000000	0.000211
2225.000000	0.000369
2224.000000	0.000569
2223.000000	0.000707
2222.000000	0.000738
2221.000000	0.000705
2220.000000	0.000658
2219.000000	0.000594
2218.000000	0.000490
2217.000000	0.000367
2216.000000	0.000257
2215.000000	0.000172
2214.000000	0.000130
2213.000000	0.000174
2212.000000	0.000310
2211.000000	0.000446
2210.000000	0.000478
2209.000000	0.000403
2208.000000	0.000302
2207.000000	0.000234
2206.000000	0.000202
2205.000000	0.000198
2204.000000	0.000232
2203.000000	0.000314
2202.000000	0.000432
2201.000000	0.000554
2200.000000	0.000616
2199.000000	0.000561
2198.000000	0.000413
2197.000000	0.000276
2196.000000	0.000229
2195.000000	0.000260
2194.000000	0.000316
2193.000000	0.000378
2192.000000	0.000430
2191.000000	0.000436
2190.000000	0.000402
2189.000000	0.000414
2188.000000	0.000532
2187.000000	0.000702
2186.000000	0.000822
2185.000000	0.000861
2184.000000	0.000836
2183.000000	0.000732
2182.000000	0.000536
2181.000000	0.000322
2180.000000	0.000215
2179.000000	0.000255
2178.000000	0.000371
2177.000000	0.000464
2176.000000	0.000483
2175.000000	0.000438
2174.000000	0.000397
2173.000000	0.000437
2172.000000	0.000553
2171.000000	0.000647
2170.000000	0.000639
2169.000000	0.000555
2168.000000	0.000470
2167.000000	0.000421
2166.000000	0.000406
2165.000000	0.000422
2164.000000	0.000457
2163.000000	0.000479
2162.000000	0.000481
2161.000000	0.000468
2160.000000	0.000374
2159.000000	0.000098
2158.000000	-0.000294
2157.000000	-0.000567
2156.000000	-0.000603
2155.000000	-0.000520
2154.000000	-0.000459
2153.000000	-0.000433
2152.000000	-0.000413
2151.000000	-0.000409
2150.000000	-0.000425
2149.000000	-0.000417
2148.000000	-0.000382
2147.000000	-0.000399
2146.000000	-0.000500
2145.000000	-0.000600
2144.000000	-0.000603
2143.000000	-0.000523
2142.000000	-0.000436
2141.000000	-0.000372
2140.000000	-0.000325
2139.000000	-0.000296
2138.000000	-0.000269
2137.000000	-0.000187
2136.000000	-0.000028
2135.000000	0.000135
2134.000000	0.000212
2133.000000	0.000182
2132.000000	0.000093
2131.000000	-0.000010
2130.000000	-0.000091
2129.000000	-0.000112
2128.000000	-0.000053
2127.000000	0.000057
2126.000000	0.000159
2125.000000	0.000202
2124.000000	0.000165
2123.000000	0.000072
2122.000000	0.000001
2121.000000	0.000032
2120.000000	0.000159
2119.000000	0.000300
2118.000000	0.000388
2117.000000	0.000423
2116.000000	0.000416
2115.000000	0.000346
2114.000000	0.000215
2113.000000	0.000090
2112.000000	0.000036
2111.000000	0.000039
2110.000000	0.000045
2109.000000	0.000050
2108.000000	0.000092
2107.000000	0.000181
2106.000000	0.000276
2105.000000	0.000328
2104.000000	0.000322
2103.000000	0.000278
2102.000000	0.000250
2101.000000	0.000278
2100.000000	0.000335
2099.000000	0.000348
2098.000000	0.000292
2097.000000	0.000233
2096.000000	0.000225
2095.000000	0.000230
2094.000000	0.000180
2093.000000	0.000090
2092.000000	0.000052
2091.000000	0.000131
2090.000000	0.000305
2089.000000	0.000494
2088.000000	0.000613
2087.000000	0.000623
2086.000000	0.000560
2085.000000	0.000501
2084.000000	0.000483
2083.000000	0.000472
2082.000000	0.000423
2081.000000	0.000341
2080.000000	0.000261
2079.000000	0.000199
2078.000000	0.000163
2077.000000	0.000167
2076.000000	0.000205
2075.000000	0.000230
2074.000000	0.000217
2073.000000	0.000194
2072.000000	0.000201
2071.000000	0.000231
2070.000000	0.000258
2069.000000	0.000283
2068.000000	0.000307
2067.000000	0.000309
2066.000000	0.000283
2065.000000	0.000274
2064.000000	0.000308
2063.000000	0.000349
2062.000000	0.000354
2061.000000	0.000333
2060.000000	0.000320
2059.000000	0.000307
2058.000000	0.000274
2057.000000	0.000238
2056.000000	0.000230
2055.000000	0.000244
2054.000000	0.000271
2053.000000	0.000330
2052.000000	0.000420
2051.000000	0.000475
2050.000000	0.000423
2049.000000	0.000280
2048.000000	0.000157
2047.000000	0.000168
2046.000000	0.000353
2045.000000	0.000646
2044.000000	0.000892
2043.000000	0.000968
2042.000000	0.000904
2041.000000	0.000829
2040.000000	0.000767
2039.000000	0.000619
2038.000000	0.000368
2037.000000	0.000150
2036.000000	0.000033
2035.000000	-0.000093
2034.000000	-0.000300
2033.000000	-0.000438
2032.000000	-0.000375
2031.000000	-0.000228
2030.000000	-0.000178
2029.000000	-0.000177
2028.000000	-0.000062
2027.000000	0.000142
2026.000000	0.000246
2025.000000	0.000169
2024.000000	0.000026
2023.000000	-0.000040
2022.000000	0.000010
2021.000000	0.000112
2020.000000	0.000142
2019.000000	-0.000006
2018.000000	-0.000286
2017.000000	-0.000497
2016.000000	-0.000520
2015.000000	-0.000449
2014.000000	-0.000413
2013.000000	-0.000369
2012.000000	-0.000203
2011.000000	0.000057
2010.000000	0.000254
2009.000000	0.000288
2008.000000	0.000205
2007.000000	0.000135
2006.000000	0.000178
2005.000000	0.000323
2004.000000	0.000446
2003.000000	0.000434
2002.000000	0.000326
2001.000000	0.000268
2000.000000	0.000314
1999.000000	0.000362
1998.000000	0.000317
1997.000000	0.000199
1996.000000	0.000075
1995.000000	-0.000047
1994.000000	-0.000161
1993.000000	-0.000204
1992.000000	-0.000127
1991.000000	0.000028
1990.000000	0.000193
1989.000000	0.000342
1988.000000	0.000441
1987.000000	0.000426
1986.000000	0.000300
1985.000000	0.000172
1984.000000	0.000149
1983.000000	0.000237
1982.000000	0.000400
1981.000000	0.000605
1980.000000	0.000775
1979.000000	0.000797
1978.000000	0.000653
1977.000000	0.000458
1976.000000	0.000289
1975.000000	0.000091
1974.000000	-0.000147
1973.000000	-0.000294
1972.000000	-0.000266
1971.000000	-0.000161
1970.000000	-0.000125
1969.000000	-0.000199
1968.000000	-0.000346
1967.000000	-0.000536
1966.000000	-0.000698
1965.000000	-0.000718
1964.000000	-0.000584
1963.000000	-0.000424
1962.000000	-0.000354
1961.000000	-0.000362
1960.000000	-0.000377
1959.000000	-0.000362
1958.000000	-0.000295
1957.000000	-0.000155
1956.000000	0.000004
1955.000000	0.000071
1954.000000	0.000016
1953.000000	-0.000066
1952.000000	-0.000081
1951.000000	-0.000045
1950.000000	-0.000009
1949.000000	0.000030
1948.000000	0.000078
1947.000000	0.000102
1946.000000	0.000090
1945.000000	0.000093
1944.000000	0.000149
1943.000000	0.000212
1942.000000	0.000230
1941.000000	0.000216
1940.000000	0.000202
1939.000000	0.000182
1938.000000	0.000145
1937.000000	0.000101
1936.000000	0.000052
1935.000000	-0.000016
1934.000000	-0.000071
1933.000000	-0.000046
1932.000000	0.000062
1931.000000	0.000158
1930.000000	0.000168
1929.000000	0.000123
1928.000000	0.000088
1927.000000	0.000081
1926.000000	0.000092
1925.000000	0.000129
1924.000000	0.000174
1923.000000	0.000174
1922.000000	0.000113
1921.000000	0.000041
1920.000000	-0.000008
1919.000000	-0.000039
1918.000000	-0.000029
1917.000000	0.000068
1916.000000	0.000218
1915.000000	0.000307
1914.000000	0.000296
1913.000000	0.000258
1912.000000	0.000266
1911.000000	0.000286
1910.000000	0.000253
1909.000000	0.000177
1908.000000	0.000106
1907.000000	0.000045
1906.000000	-0.000015
1905.000000	-0.000048
1904.000000	-0.000023
1903.000000	0.000038
1902.000000	0.000099
1901.000000	0.000157
1900.000000	0.000210
1899.000000	0.000232
1898.000000	0.000201
1897.000000	0.000146
1896.000000	0.000104
1895.000000	0.000069
1894.000000	0.000030
1893.000000	-0.000000
1892.000000	-0.000020
1891.000000	-0.000053
1890.000000	-0.000103
1889.000000	-0.000129
1888.000000	-0.000109
1887.000000	-0.000076
1886.000000	-0.000052
1885.000000	-0.000025
1884.000000	0.000012
1883.000000	0.000032
1882.000000	0.000026
1881.000000	0.000015
1880.000000	0.000015
1879.000000	0.000010
1878.000000	-0.000011
1877.000000	-0.000035
1876.000000	-0.000060
1875.000000	-0.000107
1874.000000	-0.000171
1873.000000	-0.000206
1872.000000	-0.000186
1871.000000	-0.000137
1870.000000	-0.000091
1869.000000	-0.000044
1868.000000	-0.000005
1867.000000	-0.000013
1866.000000	-0.000059
1865.000000	-0.000087
1864.000000	-0.000076
1863.000000	-0.000059
1862.000000	-0.000053
1861.000000	-0.000019
1860.000000	0.000060
1859.000000	0.000139
1858.000000	0.000170
1857.000000	0.000162
1856.000000	0.000143
1855.000000	0.000127
1854.000000	0.000114
1853.000000	0.000109
1852.000000	0.000095
1851.000000	0.000049
1850.000000	-0.000019
1849.000000	-0.000066
1848.000000	-0.000072
1847.000000	-0.000067
1846.000000	-0.000072
1845.000000	-0.000070
1844.000000	-0.000046
1843.000000	-0.000032
1842.000000	-0.000038
1841.000000	-0.000036
1840.000000	-0.000008
1839.000000	0.000032
1838.000000	0.000061
1837.000000	0.000076
1836.000000	0.000069
1835.000000	0.000022
1834.000000	-0.000051
1833.000000	-0.000108
1832.000000	-0.000118
1831.000000	-0.000100
1830.000000	-0.000091
1829.000000	-0.000092
1828.000000	-0.000087
1827.000000	-0.000086
1826.000000	-0.000098
1825.000000	-0.000103
1824.000000	-0.000088
1823.000000	-0.000083
1822.000000	-0.000108
1821.000000	-0.000145
1820.000000	-0.000169
1819.000000	-0.000188
1818.000000	-0.000207
1817.000000	-0.000199
1816.000000	-0.000158
1815.000000	-0.000135
1814.000000	-0.000162
1813.000000	-0.000194
1812.000000	-0.000171
1811.000000	-0.000106
1810.000000	-0.000056
1809.000000	-0.000030
1808.000000	-0.000017
1807.000000	-0.000034
1806.000000	-0.000082
1805.000000	-0.000123
1804.000000	-0.000131
1803.000000	-0.000138
1802.000000	-0.000173
1801.000000	-0.000206
1800.000000	-0.000199
1799.000000	-0.000180
1798.000000	-0.000183
1797.000000	-0.000186
1796.000000	-0.000170
1795.000000	-0.000156
1794.000000	-0.000167
1793.000000	-0.000178
1792.000000	-0.000153
1791.000000	-0.000120
1790.000000	-0.000120
1789.000000	-0.000137
1788.000000	-0.000148
1787.000000	-0.000160
1786.000000	-0.000176
1785.000000	-0.000171
1784.000000	-0.000136
1783.000000	-0.000099
1782.000000	-0.000085
1781.000000	-0.000090
1780.000000	-0.000104
1779.000000	-0.000131
1778.000000	-0.000171
1777.000000	-0.000204
1776.000000	-0.000225
1775.000000	-0.000249
1774.000000	-0.000287
1773.000000	-0.000319
1772.000000	-0.000303
1771.000000	-0.000244
1770.000000	-0.000194
1769.000000	-0.000167
1768.000000	-0.000143
1767.000000	-0.000115
1766.000000	-0.000094
1765.000000	-0.000072
1764.000000	-0.000039
1763.000000	-0.000003
1762.000000	0.000016
1761.000000	0.000024
1760.000000	0.000051
1759.000000	0.000099
1758.000000	0.000158
1757.000000	0.000216
1756.000000	0.000259
1755.000000	0.000270
1754.000000	0.000249
1753.000000	0.000228
1752.000000	0.000259
1751.000000	0.000371
1750.000000	0.000527
1749.000000	0.000670
1748.000000	0.000781
1747.000000	0.000865
1746.000000	0.000916
1745.000000	0.000939
1744.000000	0.000959
1743.000000	0.000977
1742.000000	0.000969
1741.000000	0.000928
1740.000000	0.000883
1739.000000	0.000846
1738.000000	0.000790
1737.000000	0.000695
1736.000000	0.000573
1735.000000	0.000438
1734.000000	0.000332
1733.000000	0.000294
1732.000000	0.000294
1731.000000	0.000295
1730.000000	0.000294
1729.000000	0.000286
1728.000000	0.000267
1727.000000	0.000244
1726.000000	0.000228
1725.000000	0.000216
1724.000000	0.000194
1723.000000	0.000147
1722.000000	0.000084
1721.000000	0.000035
1720.000000	0.000028
1719.000000	0.000049
1718.000000	0.000057
1717.000000	0.000074
1716.000000	0.000112
1715.000000	0.000115
1714.000000	0.000097
1713.000000	0.000112
1712.000000	0.000153
1711.000000	0.000175
1710.000000	0.000162
1709.000000	0.000145
1708.000000	0.000149
1707.000000	0.000163
1706.000000	0.000167
1705.000000	0.000183
1704.000000	0.000211
1703.000000	0.000208
1702.000000	0.000164
1701.000000	0.000117
1700.000000	0.000103
1699.000000	0.000064
1698.000000	0.000007
1697.000000	0.000037
1696.000000	0.000187
1695.000000	0.000308
1694.000000	0.000312
1693.000000	0.000286
1692.000000	0.000295
1691.000000	0.000322
1690.000000	0.000333
1689.000000	0.000328
1688.000000	0.000329
1687.000000	0.000340
1686.000000	0.000366
1685.000000	0.000439
1684.000000	0.000550
1683.000000	0.000607
1682.000000	0.000595
1681.000000	0.000584
1680.000000	0.000606
1679.000000	0.000634
1678.000000	0.000641
1677.000000	0.000644
1676.000000	0.000671
1675.000000	0.000714
1674.000000	0.000733
1673.000000	0.000717
1672.000000	0.000701
1671.000000	0.000711
1670.000000	0.000758
1669.000000	0.000834
1668.000000	0.000900
1667.000000	0.000935
1666.000000	0.000945
1665.000000	0.000955
1664.000000	0.000991
1663.000000	0.001042
1662.000000	0.001079
1661.000000	0.001081
1660.000000	0.001055
1659.000000	0.001027
1658.000000	0.001025
1657.000000	0.001057
1656.000000	0.001111
1655.000000	0.001182
1654.000000	0.001262
1653.000000	0.001355
1652.000000	0.001395
1651.000000	0.001369
1650.000000	0.001309
1649.000000	0.001265
1648.000000	0.001251
1647.000000	0.001253
1646.000000	0.001253
1645.000000	0.001248
1644.000000	0.001244
1643.000000	0.001232
1642.000000	0.001222
1641.000000	0.001227
1640.000000	0.001238
1639.000000	0.001223
1638.000000	0.001175
1637.000000	0.001132
1636.000000	0.001123
1635.000000	0.001143
1634.000000	0.001151
1633.000000	0.001150
1632.000000	0.001151
1631.000000	0.001158
1630.000000	0.001179
1629.000000	0.001218
1628.000000	0.001251
1627.000000	0.001250
1626.000000	0.001220
1625.000000	0.001182
1624.000000	0.001143
1623.000000	0.001102
1622.000000	0.001078
1621.000000	0.001070
1620.000000	0.001058
1619.000000	0.001031
1618.000000	0.000995
1617.000000	0.000967
1616.000000	0.000945
1615.000000	0.000924
1614.000000	0.000919
1613.000000	0.000933
1612.000000	0.000946
1611.000000	0.000942
1610.000000	0.000938
1609.000000	0.000948
1608.000000	0.000950
1607.000000	0.000926
1606.000000	0.000898
1605.000000	0.000893
1604.000000	0.000909
1603.000000	0.000927
1602.000000	0.000938
1601.000000	0.000938
1600.000000	0.000923
1599.000000	0.000892
1598.000000	0.000853
1597.000000	0.000824
1596.000000	0.000811
1595.000000	0.000811
1594.000000	0.000827
1593.000000	0.000854
1592.000000	0.000866
1591.000000	0.000850
1590.000000	0.000831
1589.000000	0.000837
1588.000000	0.000858
1587.000000	0.000871
1586.000000	0.000870
1585.000000	0.000867
1584.000000	0.000862
1583.000000	0.000857
1582.000000	0.000864
1581.000000	0.000878
1580.000000	0.000876
1579.000000	0.000850
1578.000000	0.000831
1577.000000	0.000844
1576.000000	0.000865
1575.000000	0.000864
1574.000000	0.000842
1573.000000	0.000811
1572.000000	0.000779
1571.000000	0.000742
1570.000000	0.000705
1569.000000	0.000675
1568.000000	0.000655
1567.000000	0.000653
1566.000000	0.000675
1565.000000	0.000708
1564.000000	0.000728
1563.000000	0.000728
1562.000000	0.000730
1561.000000	0.000748
1560.000000	0.000737
1559.000000	0.000663
1558.000000	0.000669
1557.000000	0.000705
1556.000000	0.000719
1555.000000	0.000717
1554.000000	0.000711
1553.000000	0.000712
1552.000000	0.000731
1551.000000	0.000750
1550.000000	0.000749
1549.000000	0.000729
1548.000000	0.000708
1547.000000	0.000695
1546.000000	0.000695
1545.000000	0.000722
1544.000000	0.000782
1543.000000	0.000838
1542.000000	0.000851
1541.000000	0.000847
1540.000000	0.000862
1539.000000	0.000862
1538.000000	0.000835
1537.000000	0.000815
1536.000000	0.000818
1535.000000	0.000824
1534.000000	0.000810
1533.000000	0.000795
1532.000000	0.000801
1531.000000	0.000796
1530.000000	0.000780
1529.000000	0.000786
1528.000000	0.000819
1527.000000	0.000831
1526.000000	0.000784
1525.000000	0.000719
1524.000000	0.000675
1523.000000	0.000623
1522.000000	0.000534
1521.000000	0.000479
1520.000000	0.000505
1519.000000	0.000547
1518.000000	0.000553
1517.000000	0.000540
1516.000000	0.000541
1515.000000	0.000540
1514.000000	0.000519
1513.000000	0.000496
1512.000000	0.000496
1511.000000	0.000498
1510.000000	0.000465
1509.000000	0.000405
1508.000000	0.000358
1507.000000	0.000343
1506.000000	0.000348
1505.000000	0.000370
1504.000000	0.000418
1503.000000	0.000452
1502.000000	0.000453
1501.000000	0.000438
1500.000000	0.000434
1499.000000	0.000431
1498.000000	0.000386
1497.000000	0.000331
1496.000000	0.000331
1495.000000	0.000352
1494.000000	0.000336
1493.000000	0.000300
1492.000000	0.000287
1491.000000	0.000295
1490.000000	0.000306
1489.000000	0.000350
1488.000000	0.000434
1487.000000	0.000481
1486.000000	0.000477
1485.000000	0.000476
1484.000000	0.000501
1483.000000	0.000535
1482.000000	0.000548
1481.000000	0.000557
1480.000000	0.000587
1479.000000	0.000626
1478.000000	0.000655
1477.000000	0.000680
1476.000000	0.000709
1475.000000	0.000703
1474.000000	0.000651
1473.000000	0.000626
1472.000000	0.000715
1471.000000	0.000855
1470.000000	0.000960
1469.000000	0.001044
1468.000000	0.001133
1467.000000	0.001206
1466.000000	0.001230
1465.000000	0.001225
1464.000000	0.001240
1463.000000	0.001273
1462.000000	0.001298
1461.000000	0.001326
1460.000000	0.001372
1459.000000	0.001419
1458.000000	0.001418
1457.000000	0.001391
1456.000000	0.001416
1455.000000	0.001468
1454.000000	0.001494
1453.000000	0.001511
1452.000000	0.001546
1451.000000	0.001590
1450.000000	0.001614
1449.000000	0.001626
1448.000000	0.001643
1447.000000	0.001648
1446.000000	0.001619
1445.000000	0.001581
1444.000000	0.001570
1443.000000	0.001584
1442.000000	0.001595
1441.000000	0.001597
1440.000000	0.001605
1439.000000	0.001620
1438.000000	0.001620
1437.000000	0.001595
1436.000000	0.001573
1435.000000	0.001563
1434.000000	0.001552
1433.000000	0.001555
1432.000000	0.001592
1431.000000	0.001643
1430.000000	0.001667
1429.000000	0.001664
1428.000000	0.001672
1427.000000	0.001694
1426.000000	0.001704
1425.000000	0.001679
1424.000000	0.001636
1423.000000	0.001611
1422.000000	0.001610
1421.000000	0.001622
1420.000000	0.001644
1419.000000	0.001672
1418.000000	0.001688
1417.000000	0.001697
1416.000000	0.001721
1415.000000	0.001748
1414.000000	0.001753
1413.000000	0.001738
1412.000000	0.001727
1411.000000	0.001730
1410.000000	0.001732
1409.000000	0.001736
1408.000000	0.001754
1407.000000	0.001770
1406.000000	0.001755
1405.000000	0.001715
1404.000000	0.001689
1403.000000	0.001691
1402.000000	0.001693
1401.000000	0.001682
1400.000000	0.001656
1399.000000	0.001619
1398.000000	0.001580
1397.000000	0.001563
1396.000000	0.001588
1395.000000	0.001632
1394.000000	0.001650
1393.000000	0.001625
1392.000000	0.001591
1391.000000	0.001566
1390.000000	0.001544
1389.000000	0.001528
1388.000000	0.001527
1387.000000	0.001535
1386.000000	0.001532
1385.000000	0.001520
1384.000000	0.001508
1383.000000	0.001499
1382.000000	0.001494
1381.000000	0.001515
1380.000000	0.001574
1379.000000	0.001648
1378.000000	0.001711
1377.000000	0.001756
1376.000000	0.001776
1375.000000	0.001748
1374.000000	0.001666
1373.000000	0.001571
1372.000000	0.001501
1371.000000	0.001455
1370.000000	0.001424
1369.000000	0.001398
1368.000000	0.001364
1367.000000	0.001311
1366.000000	0.001243
1365.000000	0.001186
1364.000000	0.001149
1363.000000	0.001118
1362.000000	0.001092
1361.000000	0.001093
1360.000000	0.001112
1359.000000	0.001120
1358.000000	0.001109
1357.000000	0.001105
1356.000000	0.001115
1355.000000	0.001113
1354.000000	0.001082
1353.000000	0.001053
1352.000000	0.001048
1351.000000	0.001042
1350.000000	0.001017
1349.000000	0.000988
1348.000000	0.000971
1347.000000	0.000955
1346.000000	0.000933
1345.000000	0.000915
1344.000000	0.000909
1343.000000	0.000900
1342.000000	0.000875
1341.000000	0.000842
1340.000000	0.000811
1339.000000	0.000779
1338.000000	0.000754
1337.000000	0.000749
1336.000000	0.000759
1335.000000	0.000755
1334.000000	0.000728
1333.000000	0.000710
1332.000000	0.000721
1331.000000	0.000738
1330.000000	0.000741
1329.000000	0.000743
1328.000000	0.000761
1327.000000	0.000772
1326.000000	0.000758
1325.000000	0.000725
1324.000000	0.000698
1323.000000	0.000685
1322.000000	0.000684
1321.000000	0.000698
1320.000000	0.000720
1319.000000	0.000731
1318.000000	0.000721
1317.000000	0.000708
1316.000000	0.000706
1315.000000	0.000707
1314.000000	0.000700
1313.000000	0.000694
1312.000000	0.000697
1311.000000	0.000694
1310.000000	0.000676
1309.000000	0.000663
1308.000000	0.000663
1307.000000	0.000655
1306.000000	0.000631
1305.000000	0.000612
1304.000000	0.000616
1303.000000	0.000626
1302.000000	0.000614
1301.000000	0.000588
1300.000000	0.000571
1299.000000	0.000565
1298.000000	0.000563
1297.000000	0.000568
1296.000000	0.000577
1295.000000	0.000573
1294.000000	0.000548
1293.000000	0.000520
1292.000000	0.000499
1291.000000	0.000471
1290.000000	0.000430
1289.000000	0.000401
1288.000000	0.000402
1287.000000	0.000415
1286.000000	0.000418
1285.000000	0.000417
1284.000000	0.000422
1283.000000	0.000423
1282.000000	0.000414
1281.000000	0.000405
1280.000000	0.000402
1279.000000	0.000389
1278.000000	0.000363
1277.000000	0.000349
1276.000000	0.000356
1275.000000	0.000364
1274.000000	0.000357
1273.000000	0.000351
1272.000000	0.000358
1271.000000	0.000363
1270.000000	0.000359
1269.000000	0.000368
1268.000000	0.000402
1267.000000	0.000432
1266.000000	0.000434
1265.000000	0.000425
1264.000000	0.000421
1263.000000	0.000414
1262.000000	0.000398
1261.000000	0.000401
1260.000000	0.000436
1259.000000	0.000476
1258.000000	0.000496
1257.000000	0.000514
1256.000000	0.000548
1255.000000	0.000579
1254.000000	0.000590
1253.000000	0.000596
1252.000000	0.000611
1251.000000	0.000616
1250.000000	0.000596
1249.000000	0.000570
1248.000000	0.000552
1247.000000	0.000525
1246.000000	0.000481
1245.000000	0.000455
1244.000000	0.000473
1243.000000	0.000513
1242.000000	0.000536
1241.000000	0.000532
1240.000000	0.000516
1239.000000	0.000487
1238.000000	0.000452
1237.000000	0.000436
1236.000000	0.000451
1235.000000	0.000472
1234.000000	0.000476
1233.000000	0.000475
1232.000000	0.000482
1231.000000	0.000476
1230.000000	0.000442
1229.000000	0.000403
1228.000000	0.000384
1227.000000	0.000379
1226.000000	0.000373
1225.000000	0.000368
1224.000000	0.000365
1223.000000	0.000341
1222.000000	0.000291
1221.000000	0.000246
1220.000000	0.000230
1219.000000	0.000221
1218.000000	0.000193
1217.000000	0.000158
1216.000000	0.000138
1215.000000	0.000125
1214.000000	0.000111
1213.000000	0.000108
1212.000000	0.000120
1211.000000	0.000123
1210.000000	0.000107
1209.000000	0.000100
1208.000000	0.000122
1207.000000	0.000146
1206.000000	0.000142
1205.000000	0.000123
1204.000000	0.000109
1203.000000	0.000092
1202.000000	0.000064
1201.000000	0.000050
1200.000000	0.000062
1199.000000	0.000075
1198.000000	0.000065
1197.000000	0.000047
1196.000000	0.000040
1195.000000	0.000027
1194.000000	-0.000003
1193.000000	-0.000016
1192.000000	0.000017
1191.000000	0.000069
1190.000000	0.000097
1189.000000	0.000096
1188.000000	0.000082
1187.000000	0.000055
1186.000000	0.000019
1185.000000	0.000005
1184.000000	0.000031
1183.000000	0.000071
1182.000000	0.000094
1181.000000	0.000114
1180.000000	0.000146
1179.000000	0.000178
1178.000000	0.000196
1177.000000	0.000217
1176.000000	0.000252
1175.000000	0.000279
1174.000000	0.000290
1173.000000	0.000318
1172.000000	0.000383
1171.000000	0.000456
1170.000000	0.000505
1169.000000	0.000545
1168.000000	0.000593
1167.000000	0.000627
1166.000000	0.000635
1165.000000	0.000655
1164.000000	0.000713
1163.000000	0.000779
1162.000000	0.000821
1161.000000	0.000859
1160.000000	0.000920
1159.000000	0.000981
1158.000000	0.001014
1157.000000	0.001032
1156.000000	0.001065
1155.000000	0.001104
1154.000000	0.001126
1153.000000	0.001135
1152.000000	0.001138
1151.000000	0.001121
1150.000000	0.001089
1149.000000	0.001076
1148.000000	0.001090
1147.000000	0.001089
1146.000000	0.001055
1145.000000	0.001030
1144.000000	0.001045
1143.000000	0.001064
1142.000000	0.001041
1141.000000	0.000997
1140.000000	0.000970
1139.000000	0.000957
1138.000000	0.000945
1137.000000	0.000951
1136.000000	0.000975
1135.000000	0.000974
1134.000000	0.000922
1133.000000	0.000857
1132.000000	0.000821
1131.000000	0.000805
1130.000000	0.000800
1129.000000	0.000836
1128.000000	0.000918
1127.000000	0.000988
1126.000000	0.001008
1125.000000	0.001012
1124.000000	0.001041
1123.000000	0.001066
1122.000000	0.001055
1121.000000	0.001042
1120.000000	0.001072
1119.000000	0.001126
1118.000000	0.001167
1117.000000	0.001199
1116.000000	0.001234
1115.000000	0.001245
1114.000000	0.001227
1113.000000	0.001233
1112.000000	0.001298
1111.000000	0.001377
1110.000000	0.001413
1109.000000	0.001420
1108.000000	0.001433
1107.000000	0.001433
1106.000000	0.001393
1105.000000	0.001347
1104.000000	0.001345
1103.000000	0.001379
1102.000000	0.001421
1101.000000	0.001477
1100.000000	0.001554
1099.000000	0.001609
1098.000000	0.001611
1097.000000	0.001594
1096.000000	0.001598
1095.000000	0.001612
1094.000000	0.001622
1093.000000	0.001659
1092.000000	0.001737
1091.000000	0.001808
1090.000000	0.001829
1089.000000	0.001829
1088.000000	0.001851
1087.000000	0.001874
1086.000000	0.001871
1085.000000	0.001870
1084.000000	0.001903
1083.000000	0.001947
1082.000000	0.001976
1081.000000	0.002019
1080.000000	0.002100
1079.000000	0.002181
1078.000000	0.002217
1077.000000	0.002221
1076.000000	0.002212
1075.000000	0.002169
1074.000000	0.002088
1073.000000	0.002021
1072.000000	0.002002
1071.000000	0.001994
1070.000000	0.001967
1069.000000	0.001962
1068.000000	0.002009
1067.000000	0.002063
1066.000000	0.002077
1065.000000	0.002080
1064.000000	0.002102
1063.000000	0.002107
1062.000000	0.002058
1061.000000	0.002000
1060.000000	0.001993
1059.000000	0.002018
1058.000000	0.002028
1057.000000	0.002030
1056.000000	0.002052
1055.000000	0.002078
1054.000000	0.002088
1053.000000	0.002101
1052.000000	0.002128
1051.000000	0.002145
1050.000000	0.002151
1049.000000	0.002192
1048.000000	0.002270
1047.000000	0.002314
1046.000000	0.002291
1045.000000	0.002268
1044.000000	0.002302
1043.000000	0.002355
1042.000000	0.002377
1041.000000	0.002384
1040.000000	0.002402
1039.000000	0.002395
1038.000000	0.002346
1037.000000	0.002308
1036.000000	0.002319
1035.000000	0.002340
1034.000000	0.002335
1033.000000	0.002350
1032.000000	0.002429
1031.000000	0.002520
1030.000000	0.002553
1029.000000	0.002543
1028.000000	0.002541
1027.000000	0.002540
1026.000000	0.002519
1025.000000	0.002506
1024.000000	0.002529
1023.000000	0.002554
1022.000000	0.002545
1021.000000	0.002536
1020.000000	0.002564
1019.000000	0.002602
1018.000000	0.002609
1017.000000	0.002594
1016.000000	0.002581
1015.000000	0.002563
1014.000000	0.002546
1013.000000	0.002565
1012.000000	0.002612
1011.000000	0.002613
1010.000000	0.002544
1009.000000	0.002475
1008.000000	0.002457
1007.000000	0.002449
1006.000000	0.002416
1005.000000	0.002397
1004.000000	0.002431
1003.000000	0.002469
1002.000000	0.002464
1001.000000	0.002446
1000.000000	0.002455
999.000000	0.002462
998.000000	0.002443
997.000000	0.002438
996.000000	0.002473
995.000000	0.002498
994.000000	0.002465
993.000000	0.002414
992.000000	0.002394
991.000000	0.002382
990.000000	0.002349
989.000000	0.002332
988.000000	0.002364
987.000000	0.002405
986.000000	0.002402
985.000000	0.002372
984.000000	0.002348
983.000000	0.002307
982.000000	0.002231
981.000000	0.002168
980.000000	0.002158
979.000000	0.002161
978.000000	0.002125
977.000000	0.002069
976.000000	0.002034
975.000000	0.002012
974.000000	0.001980
973.000000	0.001954
972.000000	0.001939
971.000000	0.001894
970.000000	0.001803
969.000000	0.001719
968.000000	0.001685
967.000000	0.001670
966.000000	0.001633
965.000000	0.001591
964.000000	0.001556
963.000000	0.001501
962.000000	0.001424
961.000000	0.001387
960.000000	0.001412
959.000000	0.001426
958.000000	0.001373
957.000000	0.001293
956.000000	0.001244
955.000000	0.001204
954.000000	0.001140
953.000000	0.001085
952.000000	0.001071
951.000000	0.001065
950.000000	0.001035
949.000000	0.001010
948.000000	0.001003
947.000000	0.000961
946.000000	0.000857
945.000000	0.000756
944.000000	0.000723
943.000000	0.000721
942.000000	0.000697
941.000000	0.000665
940.000000	0.000648
939.000000	0.000617
938.000000	0.000555
937.000000	0.000520
936.000000	0.000552
935.000000	0.000596
934.000000	0.000589
933.000000	0.000550
932.000000	0.000520
931.000000	0.000481
930.000000	0.000413
929.000000	0.000356
928.000000	0.000340
927.000000	0.000325
926.000000	0.000282
925.000000	0.000255
924.000000	0.000271
923.000000	0.000280
922.000000	0.000240
921.000000	0.000199
920.000000	0.000205
919.000000	0.000225
918.000000	0.000218
917.000000	0.000219
916.000000	0.000257
915.000000	0.000278
914.000000	0.000229
913.000000	0.000151
912.000000	0.000104
911.000000	0.000078
910.000000	0.000055
909.000000	0.000077
908.000000	0.000167
907.000000	0.000258
906.000000	0.000281
905.000000	0.000257
904.000000	0.000230
903.000000	0.000189
902.000000	0.000136
901.000000	0.000135
900.000000	0.000213
899.000000	0.000285
898.000000	0.000274
897.000000	0.000221
896.000000	0.000208
895.000000	0.000230
894.000000	0.000245
893.000000	0.000251
892.000000	0.000251
891.000000	0.000198
890.000000	0.000077
889.000000	-0.000043
888.000000	-0.000096
887.000000	-0.000109
886.000000	-0.000121
885.000000	-0.000108
884.000000	-0.000047
883.000000	0.000011
882.000000	0.000032
881.000000	0.000060
880.000000	0.000127
879.000000	0.000185
878.000000	0.000206
877.000000	0.000236
876.000000	0.000293
875.000000	0.000303
874.000000	0.000232
873.000000	0.000160
872.000000	0.000150
871.000000	0.000141
870.000000	0.000072
869.000000	-0.000009
868.000000	-0.000050
867.000000	-0.000090
866.000000	-0.000165
865.000000	-0.000216
864.000000	-0.000208
863.000000	-0.000211
862.000000	-0.000280
861.000000	-0.000344
860.000000	-0.000328
859.000000	-0.000276
858.000000	-0.000251
857.000000	-0.000221
856.000000	-0.000148
855.000000	-0.000098
854.000000	-0.000139
853.000000	-0.000233
852.000000	-0.000312
851.000000	-0.000381
850.000000	-0.000455
849.000000	-0.000490
848.000000	-0.000471
847.000000	-0.000464
846.000000	-0.000497
845.000000	-0.000495
844.000000	-0.000410
843.000000	-0.000317
842.000000	-0.000280
841.000000	-0.000246
840.000000	-0.000164
839.000000	-0.000099
838.000000	-0.000114
837.000000	-0.000157
836.000000	-0.000170
835.000000	-0.000187
834.000000	-0.000245
833.000000	-0.000284
832.000000	-0.000267
831.000000	-0.000268
830.000000	-0.000335
829.000000	-0.000385
828.000000	-0.000346
827.000000	-0.000300
826.000000	-0.000337
825.000000	-0.000397
824.000000	-0.000391
823.000000	-0.000361
822.000000	-0.000378
821.000000	-0.000403
820.000000	-0.000392
819.000000	-0.000398
818.000000	-0.000470
817.000000	-0.000537
816.000000	-0.000536
815.000000	-0.000518
814.000000	-0.000538
813.000000	-0.000539
812.000000	-0.000471
811.000000	-0.000401
810.000000	-0.000399
809.000000	-0.000415
808.000000	-0.000393
807.000000	-0.000377
806.000000	-0.000410
805.000000	-0.000435
804.000000	-0.000411
803.000000	-0.000408
802.000000	-0.000465
801.000000	-0.000491
800.000000	-0.000412
799.000000	-0.000313
798.000000	-0.000292
797.000000	-0.000305
796.000000	-0.000274
795.000000	-0.000225
794.000000	-0.000210
793.000000	-0.000193
792.000000	-0.000143
791.000000	-0.000123
790.000000	-0.000176
789.000000	-0.000240
788.000000	-0.000277
787.000000	-0.000343
786.000000	-0.000451
785.000000	-0.000492
784.000000	-0.000413
783.000000	-0.000324
782.000000	-0.000325
781.000000	-0.000341
780.000000	-0.000270
779.000000	-0.000169
778.000000	-0.000142
777.000000	-0.000175
776.000000	-0.000200
775.000000	-0.000223
774.000000	-0.000267
773.000000	-0.000281
772.000000	-0.000241
771.000000	-0.000231
770.000000	-0.000301
769.000000	-0.000364
768.000000	-0.000333
767.000000	-0.000272
766.000000	-0.000282
765.000000	-0.000338
764.000000	-0.000373
763.000000	-0.000409
762.000000	-0.000486
761.000000	-0.000556
760.000000	-0.000560
759.000000	-0.000538
758.000000	-0.000532
757.000000	-0.000494
756.000000	-0.000393
755.000000	-0.000316
754.000000	-0.000344
753.000000	-0.000419
752.000000	-0.000451
751.000000	-0.000457
750.000000	-0.000487
749.000000	-0.000511
748.000000	-0.000492
747.000000	-0.000477
746.000000	-0.000498
745.000000	-0.000485
744.000000	-0.000391
743.000000	-0.000297
742.000000	-0.000289
741.000000	-0.000326
740.000000	-0.000334
739.000000	-0.000336
738.000000	-0.000367
737.000000	-0.000381
736.000000	-0.000348
735.000000	-0.000337
734.000000	-0.000395
733.000000	-0.000449
732.000000	-0.000435
731.000000	-0.000415
730.000000	-0.000455
729.000000	-0.000493
728.000000	-0.000456
727.000000	-0.000399
726.000000	-0.000397
725.000000	-0.000419
724.000000	-0.000417
723.000000	-0.000434
722.000000	-0.000495
721.000000	-0.000516
720.000000	-0.000446
719.000000	-0.000381
718.000000	-0.000409
717.000000	-0.000470
716.000000	-0.000476
715.000000	-0.000467
714.000000	-0.000508
713.000000	-0.000554
712.000000	-0.000532
711.000000	-0.000477
710.000000	-0.000458
709.000000	-0.000455
708.000000	-0.000438
707.000000	-0.000442
706.000000	-0.000477
705.000000	-0.000463
704.000000	-0.000374
703.000000	-0.000316
702.000000	-0.000356
701.000000	-0.000404
700.000000	-0.000384
699.000000	-0.000383
698.000000	-0.000487
697.000000	-0.000607
696.000000	-0.000615
695.000000	-0.000538
694.000000	-0.000470
693.000000	-0.000418
692.000000	-0.000352
691.000000	-0.000327
690.000000	-0.000387
689.000000	-0.000456
688.000000	-0.000440
687.000000	-0.000359
686.000000	-0.000266
685.000000	-0.000140
684.000000	0.000022
683.000000	0.000136
682.000000	0.000157
681.000000	0.000170
680.000000	0.000249
679.000000	0.000328
678.000000	0.000330
677.000000	0.000309
676.000000	0.000316
675.000000	0.000276
674.000000	0.000120
673.000000	-0.000070
672.000000	-0.000219
671.000000	-0.000402
670.000000	-0.000717
669.000000	-0.001075
668.000000	-0.001158
667.000000	-0.000825
666.000000	-0.000488
665.000000	-0.000237
664.000000	0.000011
663.000000	0.000145
662.000000	0.000073
661.000000	-0.000079
660.000000	-0.000153
659.000000	-0.000176
658.000000	-0.000214
657.000000	-0.000197
656.000000	-0.000098
655.000000	-0.000064
654.000000	-0.000183
653.000000	-0.000308
652.000000	-0.000312
651.000000	-0.000291
650.000000	-0.000344
649.000000	-0.000371
648.000000	-0.000288
647.000000	-0.000213
646.000000	-0.000257
645.000000	-0.000335
644.000000	-0.000358
643.000000	-0.000393
642.000000	-0.000489
641.000000	-0.000531
640.000000	-0.000449
639.000000	-0.000366
638.000000	-0.000371
637.000000	-0.000360
636.000000	-0.000259
635.000000	-0.000197
634.000000	-0.000259
633.000000	-0.000316
632.000000	-0.000257
631.000000	-0.000203
630.000000	-0.000273
629.000000	-0.000359
628.000000	-0.000323
627.000000	-0.000226
626.000000	-0.000179
625.000000	-0.000155
624.000000	-0.000122
623.000000	-0.000162
622.000000	-0.000289
621.000000	-0.000349
620.000000	-0.000267
619.000000	-0.000192
618.000000	-0.000250
617.000000	-0.000339
616.000000	-0.000339
615.000000	-0.000317
614.000000	-0.000329
613.000000	-0.000279
612.000000	-0.000138
611.000000	-0.000084
610.000000	-0.000204
609.000000	-0.000307
608.000000	-0.000224
607.000000	-0.000076
606.000000	-0.000025
605.000000	-0.000013
604.000000	0.000039
603.000000	0.000017
602.000000	-0.000162
601.000000	-0.000340
600.000000	-0.000360
599.000000	-0.000305
598.000000	-0.000294
597.000000	-0.000264
596.000000	-0.000145
595.000000	-0.000025
594.000000	0.000039
593.000000	0.000162
592.000000	0.000371
591.000000	0.000465
590.000000	0.000339
589.000000	0.000176
588.000000	0.000140
587.000000	0.000129
586.000000	0.000037
585.000000	-0.000024
584.000000	0.000020
583.000000	0.000006
582.000000	-0.000185
581.000000	-0.000401
580.000000	-0.000492
579.000000	-0.000545
578.000000	-0.000653
577.000000	-0.000693
576.000000	-0.000569
575.000000	-0.000416
574.000000	-0.000337
573.000000	-0.000224
572.000000	-0.000027
571.000000	0.000078
570.000000	0.000012
569.000000	-0.000026
568.000000	0.000068
567.000000	0.000076
566.000000	-0.000142
565.000000	-0.000365
564.000000	-0.000382
563.000000	-0.000315
562.000000	-0.000328
561.000000	-0.000317
560.000000	-0.000180
559.000000	-0.000070
558.000000	-0.000105
557.000000	-0.000123
556.000000	-0.000015
555.000000	0.000020
554.000000	-0.000164
553.000000	-0.000360
552.000000	-0.000365
551.000000	-0.000319
550.000000	-0.000393
549.000000	-0.000462
548.000000	-0.000396
547.000000	-0.000333
546.000000	-0.000364
545.000000	-0.000280
544.000000	0.000025
543.000000	0.000275
542.000000	0.000231
541.000000	0.000088
540.000000	0.000108
539.000000	0.000190
538.000000	0.000124
537.000000	-0.000022
536.000000	-0.000099
535.000000	-0.000161
534.000000	-0.000247
533.000000	-0.000190
532.000000	0.000035
531.000000	0.000135
530.000000	-0.000041
529.000000	-0.000230
528.000000	-0.000213
527.000000	-0.000170
526.000000	-0.000258
525.000000	-0.000229
524.000000	0.000118
523.000000	0.000517
522.000000	0.000663
521.000000	0.000631
520.000000	0.000564
519.000000	0.000322
518.000000	-0.000163
517.000000	-0.000529
516.000000	-0.000465
515.000000	-0.000190
514.000000	-0.000024
513.000000	0.000078
512.000000	0.000230
511.000000	0.000264
510.000000	0.000046
509.000000	-0.000200
508.000000	-0.000264
507.000000	-0.000284
506.000000	-0.000385
505.000000	-0.000381
504.000000	-0.000177
503.000000	-0.000044
502.000000	-0.000137
501.000000	-0.000146
500.000000	0.000106
499.000000	0.000269
498.000000	0.000038
497.000000	-0.000346
496.000000	-0.000530
495.000000	-0.000568
494.000000	-0.000615
493.000000	-0.000551
492.000000	-0.000322
491.000000	-0.000200
490.000000	-0.000287
489.000000	-0.000222
488.000000	0.000167
487.000000	0.000459
486.000000	0.000298
485.000000	-0.000006
484.000000	-0.000013
483.000000	0.000129
482.000000	0.000080
481.000000	-0.000058
480.000000	-0.000050
479.000000	-0.000018
478.000000	-0.000167
477.000000	-0.000361
476.000000	-0.000426
475.000000	-0.000499
474.000000	-0.000656
473.000000	-0.000601
472.000000	-0.000209
471.000000	0.000084
470.000000	-0.000023
469.000000	-0.000229
468.000000	-0.000264
467.000000	-0.000336
466.000000	-0.000581
465.000000	-0.000653
464.000000	-0.000390
463.000000	-0.000230
462.000000	-0.000483
461.000000	-0.000784
460.000000	-0.000775
459.000000	-0.000736
458.000000	-0.000928
457.000000	-0.000895
456.000000	-0.000318
455.000000	0.000247
454.000000	0.000345
453.000000	0.000282
452.000000	0.000445
451.000000	0.000612
450.000000	0.000512
