PE IR       SUBTECH     SPECTRUM    ASCII       PEDS        4.00        
   -1
P3-Bleu012_1.ASC
23/06/13
11:25:02.00
23/06/13
12:04:49.00
uco
Sample 012 By uco Date Tuesday, June 13 2023
450.000000
#HDR
-1
-1
#GR
cm-1
A
1.0
0.0
4000.000000
-1.000000
3551
8
0.002333
-0.001766
#DATA
4000.000000	-0.000267
3999.000000	-0.000268
3998.000000	-0.000266
3997.000000	-0.000261
3996.000000	-0.000251
3995.000000	-0.000235
3994.000000	-0.000219
3993.000000	-0.000215
3992.000000	-0.000227
3991.000000	-0.000248
3990.000000	-0.000266
3989.000000	-0.000272
3988.000000	-0.000269
3987.000000	-0.000264
3986.000000	-0.000259
3985.000000	-0.000253
3984.000000	-0.000244
3983.000000	-0.000230
3982.000000	-0.000217
3981.000000	-0.000211
3980.000000	-0.000216
3979.000000	-0.000236
3978.000000	-0.000263
3977.000000	-0.000289
3976.000000	-0.000305
3975.000000	-0.000307
3974.000000	-0.000295
3973.000000	-0.000270
3972.000000	-0.000239
3971.000000	-0.000211
3970.000000	-0.000190
3969.000000	-0.000176
3968.000000	-0.000160
3967.000000	-0.000137
3966.000000	-0.000108
3965.000000	-0.000082
3964.000000	-0.000069
3963.000000	-0.000074
3962.000000	-0.000097
3961.000000	-0.000134
3960.000000	-0.000178
3959.000000	-0.000219
3958.000000	-0.000244
3957.000000	-0.000248
3956.000000	-0.000236
3955.000000	-0.000219
3954.000000	-0.000209
3953.000000	-0.000209
3952.000000	-0.000217
3951.000000	-0.000228
3950.000000	-0.000238
3949.000000	-0.000245
3948.000000	-0.000247
3947.000000	-0.000243
3946.000000	-0.000234
3945.000000	-0.000221
3944.000000	-0.000205
3943.000000	-0.000184
3942.000000	-0.000165
3941.000000	-0.000155
3940.000000	-0.000159
3939.000000	-0.000173
3938.000000	-0.000187
3937.000000	-0.000194
3936.000000	-0.000195
3935.000000	-0.000187
3934.000000	-0.000170
3933.000000	-0.000147
3932.000000	-0.000132
3931.000000	-0.000138
3930.000000	-0.000165
3929.000000	-0.000198
3928.000000	-0.000217
3927.000000	-0.000212
3926.000000	-0.000198
3925.000000	-0.000192
3924.000000	-0.000208
3923.000000	-0.000238
3922.000000	-0.000266
3921.000000	-0.000281
3920.000000	-0.000284
3919.000000	-0.000279
3918.000000	-0.000269
3917.000000	-0.000251
3916.000000	-0.000223
3915.000000	-0.000193
3914.000000	-0.000172
3913.000000	-0.000167
3912.000000	-0.000176
3911.000000	-0.000185
3910.000000	-0.000183
3909.000000	-0.000168
3908.000000	-0.000147
3907.000000	-0.000130
3906.000000	-0.000128
3905.000000	-0.000146
3904.000000	-0.000180
3903.000000	-0.000218
3902.000000	-0.000250
3901.000000	-0.000266
3900.000000	-0.000261
3899.000000	-0.000231
3898.000000	-0.000189
3897.000000	-0.000154
3896.000000	-0.000139
3895.000000	-0.000143
3894.000000	-0.000162
3893.000000	-0.000186
3892.000000	-0.000204
3891.000000	-0.000208
3890.000000	-0.000204
3889.000000	-0.000209
3888.000000	-0.000229
3887.000000	-0.000249
3886.000000	-0.000251
3885.000000	-0.000239
3884.000000	-0.000229
3883.000000	-0.000229
3882.000000	-0.000231
3881.000000	-0.000226
3880.000000	-0.000215
3879.000000	-0.000199
3878.000000	-0.000187
3877.000000	-0.000181
3876.000000	-0.000177
3875.000000	-0.000168
3874.000000	-0.000159
3873.000000	-0.000162
3872.000000	-0.000186
3871.000000	-0.000219
3870.000000	-0.000240
3869.000000	-0.000234
3868.000000	-0.000217
3867.000000	-0.000204
3866.000000	-0.000194
3865.000000	-0.000185
3864.000000	-0.000183
3863.000000	-0.000190
3862.000000	-0.000200
3861.000000	-0.000208
3860.000000	-0.000217
3859.000000	-0.000230
3858.000000	-0.000243
3857.000000	-0.000251
3856.000000	-0.000254
3855.000000	-0.000255
3854.000000	-0.000268
3853.000000	-0.000291
3852.000000	-0.000296
3851.000000	-0.000283
3850.000000	-0.000265
3849.000000	-0.000240
3848.000000	-0.000214
3847.000000	-0.000196
3846.000000	-0.000186
3845.000000	-0.000180
3844.000000	-0.000174
3843.000000	-0.000171
3842.000000	-0.000174
3841.000000	-0.000184
3840.000000	-0.000194
3839.000000	-0.000197
3838.000000	-0.000189
3837.000000	-0.000176
3836.000000	-0.000165
3835.000000	-0.000160
3834.000000	-0.000163
3833.000000	-0.000170
3832.000000	-0.000177
3831.000000	-0.000184
3830.000000	-0.000192
3829.000000	-0.000201
3828.000000	-0.000206
3827.000000	-0.000198
3826.000000	-0.000179
3825.000000	-0.000164
3824.000000	-0.000162
3823.000000	-0.000158
3822.000000	-0.000139
3821.000000	-0.000115
3820.000000	-0.000105
3819.000000	-0.000121
3818.000000	-0.000149
3817.000000	-0.000165
3816.000000	-0.000145
3815.000000	-0.000098
3814.000000	-0.000063
3813.000000	-0.000059
3812.000000	-0.000080
3811.000000	-0.000113
3810.000000	-0.000153
3809.000000	-0.000191
3808.000000	-0.000211
3807.000000	-0.000197
3806.000000	-0.000164
3805.000000	-0.000143
3804.000000	-0.000147
3803.000000	-0.000155
3802.000000	-0.000142
3801.000000	-0.000108
3800.000000	-0.000083
3799.000000	-0.000091
3798.000000	-0.000125
3797.000000	-0.000154
3796.000000	-0.000161
3795.000000	-0.000147
3794.000000	-0.000131
3793.000000	-0.000127
3792.000000	-0.000130
3791.000000	-0.000127
3790.000000	-0.000107
3789.000000	-0.000072
3788.000000	-0.000034
3787.000000	-0.000008
3786.000000	-0.000003
3785.000000	-0.000010
3784.000000	-0.000016
3783.000000	-0.000015
3782.000000	-0.000018
3781.000000	-0.000034
3780.000000	-0.000063
3779.000000	-0.000091
3778.000000	-0.000108
3777.000000	-0.000117
3776.000000	-0.000126
3775.000000	-0.000134
3774.000000	-0.000138
3773.000000	-0.000141
3772.000000	-0.000151
3771.000000	-0.000161
3770.000000	-0.000162
3769.000000	-0.000153
3768.000000	-0.000141
3767.000000	-0.000131
3766.000000	-0.000121
3765.000000	-0.000107
3764.000000	-0.000093
3763.000000	-0.000090
3762.000000	-0.000095
3761.000000	-0.000101
3760.000000	-0.000104
3759.000000	-0.000111
3758.000000	-0.000129
3757.000000	-0.000152
3756.000000	-0.000169
3755.000000	-0.000174
3754.000000	-0.000173
3753.000000	-0.000185
3752.000000	-0.000226
3751.000000	-0.000284
3750.000000	-0.000314
3749.000000	-0.000304
3748.000000	-0.000287
3747.000000	-0.000289
3746.000000	-0.000291
3745.000000	-0.000257
3744.000000	-0.000181
3743.000000	-0.000121
3742.000000	-0.000131
3741.000000	-0.000194
3740.000000	-0.000258
3739.000000	-0.000292
3738.000000	-0.000300
3737.000000	-0.000297
3736.000000	-0.000294
3735.000000	-0.000286
3734.000000	-0.000267
3733.000000	-0.000242
3732.000000	-0.000215
3731.000000	-0.000197
3730.000000	-0.000189
3729.000000	-0.000187
3728.000000	-0.000178
3727.000000	-0.000156
3726.000000	-0.000133
3725.000000	-0.000126
3724.000000	-0.000131
3723.000000	-0.000129
3722.000000	-0.000111
3721.000000	-0.000086
3720.000000	-0.000071
3719.000000	-0.000070
3718.000000	-0.000079
3717.000000	-0.000091
3716.000000	-0.000103
3715.000000	-0.000114
3714.000000	-0.000114
3713.000000	-0.000096
3712.000000	-0.000069
3711.000000	-0.000055
3710.000000	-0.000062
3709.000000	-0.000081
3708.000000	-0.000094
3707.000000	-0.000090
3706.000000	-0.000081
3705.000000	-0.000087
3704.000000	-0.000123
3703.000000	-0.000182
3702.000000	-0.000241
3701.000000	-0.000274
3700.000000	-0.000270
3699.000000	-0.000239
3698.000000	-0.000196
3697.000000	-0.000154
3696.000000	-0.000125
3695.000000	-0.000113
3694.000000	-0.000113
3693.000000	-0.000114
3692.000000	-0.000111
3691.000000	-0.000114
3690.000000	-0.000135
3689.000000	-0.000165
3688.000000	-0.000174
3687.000000	-0.000166
3686.000000	-0.000165
3685.000000	-0.000172
3684.000000	-0.000169
3683.000000	-0.000137
3682.000000	-0.000087
3681.000000	-0.000043
3680.000000	-0.000031
3679.000000	-0.000056
3678.000000	-0.000110
3677.000000	-0.000175
3676.000000	-0.000222
3675.000000	-0.000231
3674.000000	-0.000213
3673.000000	-0.000200
3672.000000	-0.000203
3671.000000	-0.000205
3670.000000	-0.000196
3669.000000	-0.000188
3668.000000	-0.000191
3667.000000	-0.000202
3666.000000	-0.000207
3665.000000	-0.000198
3664.000000	-0.000174
3663.000000	-0.000141
3662.000000	-0.000113
3661.000000	-0.000099
3660.000000	-0.000101
3659.000000	-0.000108
3658.000000	-0.000111
3657.000000	-0.000107
3656.000000	-0.000104
3655.000000	-0.000115
3654.000000	-0.000148
3653.000000	-0.000201
3652.000000	-0.000253
3651.000000	-0.000291
3650.000000	-0.000314
3649.000000	-0.000324
3648.000000	-0.000302
3647.000000	-0.000249
3646.000000	-0.000194
3645.000000	-0.000158
3644.000000	-0.000141
3643.000000	-0.000131
3642.000000	-0.000117
3641.000000	-0.000098
3640.000000	-0.000083
3639.000000	-0.000074
3638.000000	-0.000073
3637.000000	-0.000084
3636.000000	-0.000111
3635.000000	-0.000148
3634.000000	-0.000187
3633.000000	-0.000224
3632.000000	-0.000259
3631.000000	-0.000286
3630.000000	-0.000294
3629.000000	-0.000280
3628.000000	-0.000251
3627.000000	-0.000225
3626.000000	-0.000216
3625.000000	-0.000214
3624.000000	-0.000204
3623.000000	-0.000185
3622.000000	-0.000177
3621.000000	-0.000192
3620.000000	-0.000223
3619.000000	-0.000245
3618.000000	-0.000245
3617.000000	-0.000237
3616.000000	-0.000235
3615.000000	-0.000232
3614.000000	-0.000220
3613.000000	-0.000205
3612.000000	-0.000205
3611.000000	-0.000225
3610.000000	-0.000251
3609.000000	-0.000262
3608.000000	-0.000252
3607.000000	-0.000231
3606.000000	-0.000218
3605.000000	-0.000224
3604.000000	-0.000240
3603.000000	-0.000251
3602.000000	-0.000245
3601.000000	-0.000224
3600.000000	-0.000191
3599.000000	-0.000152
3598.000000	-0.000107
3597.000000	-0.000060
3596.000000	-0.000022
3595.000000	-0.000004
3594.000000	-0.000011
3593.000000	-0.000042
3592.000000	-0.000086
3591.000000	-0.000130
3590.000000	-0.000166
3589.000000	-0.000188
3588.000000	-0.000196
3587.000000	-0.000188
3586.000000	-0.000170
3585.000000	-0.000153
3584.000000	-0.000146
3583.000000	-0.000145
3582.000000	-0.000146
3581.000000	-0.000147
3580.000000	-0.000145
3579.000000	-0.000135
3578.000000	-0.000119
3577.000000	-0.000108
3576.000000	-0.000110
3575.000000	-0.000119
3574.000000	-0.000124
3573.000000	-0.000116
3572.000000	-0.000099
3571.000000	-0.000078
3570.000000	-0.000058
3569.000000	-0.000038
3568.000000	-0.000011
3567.000000	0.000029
3566.000000	0.000075
3565.000000	0.000100
3564.000000	0.000090
3563.000000	0.000057
3562.000000	0.000021
3561.000000	-0.000007
3560.000000	-0.000028
3559.000000	-0.000046
3558.000000	-0.000063
3557.000000	-0.000074
3556.000000	-0.000074
3555.000000	-0.000058
3554.000000	-0.000030
3553.000000	0.000001
3552.000000	0.000024
3551.000000	0.000035
3550.000000	0.000032
3549.000000	0.000015
3548.000000	-0.000006
3547.000000	-0.000019
3546.000000	-0.000015
3545.000000	0.000003
3544.000000	0.000022
3543.000000	0.000036
3542.000000	0.000041
3541.000000	0.000036
3540.000000	0.000024
3539.000000	0.000016
3538.000000	0.000022
3537.000000	0.000040
3536.000000	0.000064
3535.000000	0.000083
3534.000000	0.000089
3533.000000	0.000083
3532.000000	0.000070
3531.000000	0.000056
3530.000000	0.000038
3529.000000	0.000015
3528.000000	-0.000008
3527.000000	-0.000017
3526.000000	-0.000006
3525.000000	0.000019
3524.000000	0.000050
3523.000000	0.000078
3522.000000	0.000093
3521.000000	0.000089
3520.000000	0.000071
3519.000000	0.000055
3518.000000	0.000053
3517.000000	0.000060
3516.000000	0.000062
3515.000000	0.000051
3514.000000	0.000035
3513.000000	0.000024
3512.000000	0.000028
3511.000000	0.000044
3510.000000	0.000061
3509.000000	0.000067
3508.000000	0.000064
3507.000000	0.000058
3506.000000	0.000054
3505.000000	0.000048
3504.000000	0.000045
3503.000000	0.000056
3502.000000	0.000087
3501.000000	0.000126
3500.000000	0.000156
3499.000000	0.000170
3498.000000	0.000169
3497.000000	0.000156
3496.000000	0.000137
3495.000000	0.000120
3494.000000	0.000110
3493.000000	0.000108
3492.000000	0.000115
3491.000000	0.000131
3490.000000	0.000148
3489.000000	0.000152
3488.000000	0.000133
3487.000000	0.000095
3486.000000	0.000057
3485.000000	0.000035
3484.000000	0.000034
3483.000000	0.000049
3482.000000	0.000070
3481.000000	0.000089
3480.000000	0.000101
3479.000000	0.000106
3478.000000	0.000100
3477.000000	0.000086
3476.000000	0.000081
3475.000000	0.000102
3474.000000	0.000152
3473.000000	0.000206
3472.000000	0.000237
3471.000000	0.000235
3470.000000	0.000209
3469.000000	0.000176
3468.000000	0.000145
3467.000000	0.000116
3466.000000	0.000090
3465.000000	0.000068
3464.000000	0.000059
3463.000000	0.000066
3462.000000	0.000079
3461.000000	0.000083
3460.000000	0.000078
3459.000000	0.000082
3458.000000	0.000108
3457.000000	0.000153
3456.000000	0.000193
3455.000000	0.000211
3454.000000	0.000198
3453.000000	0.000166
3452.000000	0.000139
3451.000000	0.000134
3450.000000	0.000152
3449.000000	0.000175
3448.000000	0.000184
3447.000000	0.000175
3446.000000	0.000157
3445.000000	0.000138
3444.000000	0.000130
3443.000000	0.000141
3442.000000	0.000166
3441.000000	0.000192
3440.000000	0.000206
3439.000000	0.000203
3438.000000	0.000189
3437.000000	0.000170
3436.000000	0.000152
3435.000000	0.000146
3434.000000	0.000153
3433.000000	0.000168
3432.000000	0.000181
3431.000000	0.000191
3430.000000	0.000194
3429.000000	0.000191
3428.000000	0.000188
3427.000000	0.000188
3426.000000	0.000189
3425.000000	0.000180
3424.000000	0.000154
3423.000000	0.000119
3422.000000	0.000093
3421.000000	0.000088
3420.000000	0.000100
3419.000000	0.000121
3418.000000	0.000137
3417.000000	0.000142
3416.000000	0.000141
3415.000000	0.000143
3414.000000	0.000154
3413.000000	0.000168
3412.000000	0.000178
3411.000000	0.000185
3410.000000	0.000191
3409.000000	0.000195
3408.000000	0.000197
3407.000000	0.000201
3406.000000	0.000204
3405.000000	0.000200
3404.000000	0.000189
3403.000000	0.000181
3402.000000	0.000182
3401.000000	0.000192
3400.000000	0.000202
3399.000000	0.000209
3398.000000	0.000216
3397.000000	0.000225
3396.000000	0.000236
3395.000000	0.000250
3394.000000	0.000261
3393.000000	0.000259
3392.000000	0.000236
3391.000000	0.000199
3390.000000	0.000159
3389.000000	0.000125
3388.000000	0.000107
3387.000000	0.000109
3386.000000	0.000131
3385.000000	0.000167
3384.000000	0.000208
3383.000000	0.000249
3382.000000	0.000280
3381.000000	0.000293
3380.000000	0.000285
3379.000000	0.000268
3378.000000	0.000255
3377.000000	0.000250
3376.000000	0.000246
3375.000000	0.000242
3374.000000	0.000243
3373.000000	0.000254
3372.000000	0.000273
3371.000000	0.000289
3370.000000	0.000295
3369.000000	0.000292
3368.000000	0.000286
3367.000000	0.000277
3366.000000	0.000260
3365.000000	0.000231
3364.000000	0.000196
3363.000000	0.000165
3362.000000	0.000146
3361.000000	0.000142
3360.000000	0.000156
3359.000000	0.000182
3358.000000	0.000208
3357.000000	0.000223
3356.000000	0.000232
3355.000000	0.000244
3354.000000	0.000262
3353.000000	0.000272
3352.000000	0.000265
3351.000000	0.000246
3350.000000	0.000229
3349.000000	0.000224
3348.000000	0.000232
3347.000000	0.000249
3346.000000	0.000265
3345.000000	0.000274
3344.000000	0.000282
3343.000000	0.000302
3342.000000	0.000331
3341.000000	0.000354
3340.000000	0.000355
3339.000000	0.000335
3338.000000	0.000306
3337.000000	0.000279
3336.000000	0.000264
3335.000000	0.000265
3334.000000	0.000273
3333.000000	0.000273
3332.000000	0.000261
3331.000000	0.000253
3330.000000	0.000261
3329.000000	0.000280
3328.000000	0.000293
3327.000000	0.000289
3326.000000	0.000275
3325.000000	0.000262
3324.000000	0.000261
3323.000000	0.000276
3322.000000	0.000300
3321.000000	0.000325
3320.000000	0.000345
3319.000000	0.000363
3318.000000	0.000383
3317.000000	0.000403
3316.000000	0.000415
3315.000000	0.000421
3314.000000	0.000424
3313.000000	0.000421
3312.000000	0.000407
3311.000000	0.000382
3310.000000	0.000356
3309.000000	0.000337
3308.000000	0.000327
3307.000000	0.000326
3306.000000	0.000335
3305.000000	0.000354
3304.000000	0.000378
3303.000000	0.000400
3302.000000	0.000410
3301.000000	0.000406
3300.000000	0.000394
3299.000000	0.000378
3298.000000	0.000363
3297.000000	0.000348
3296.000000	0.000340
3295.000000	0.000343
3294.000000	0.000357
3293.000000	0.000374
3292.000000	0.000385
3291.000000	0.000390
3290.000000	0.000388
3289.000000	0.000382
3288.000000	0.000378
3287.000000	0.000377
3286.000000	0.000376
3285.000000	0.000370
3284.000000	0.000362
3283.000000	0.000358
3282.000000	0.000363
3281.000000	0.000374
3280.000000	0.000391
3279.000000	0.000409
3278.000000	0.000421
3277.000000	0.000414
3276.000000	0.000387
3275.000000	0.000350
3274.000000	0.000317
3273.000000	0.000293
3272.000000	0.000280
3271.000000	0.000275
3270.000000	0.000272
3269.000000	0.000265
3268.000000	0.000256
3267.000000	0.000253
3266.000000	0.000259
3265.000000	0.000271
3264.000000	0.000285
3263.000000	0.000301
3262.000000	0.000317
3261.000000	0.000328
3260.000000	0.000328
3259.000000	0.000320
3258.000000	0.000311
3257.000000	0.000306
3256.000000	0.000306
3255.000000	0.000307
3254.000000	0.000309
3253.000000	0.000311
3252.000000	0.000316
3251.000000	0.000327
3250.000000	0.000339
3249.000000	0.000343
3248.000000	0.000338
3247.000000	0.000328
3246.000000	0.000318
3245.000000	0.000313
3244.000000	0.000322
3243.000000	0.000352
3242.000000	0.000391
3241.000000	0.000410
3240.000000	0.000391
3239.000000	0.000346
3238.000000	0.000301
3237.000000	0.000273
3236.000000	0.000258
3235.000000	0.000247
3234.000000	0.000240
3233.000000	0.000246
3232.000000	0.000266
3231.000000	0.000291
3230.000000	0.000304
3229.000000	0.000296
3228.000000	0.000278
3227.000000	0.000265
3226.000000	0.000266
3225.000000	0.000273
3224.000000	0.000274
3223.000000	0.000269
3222.000000	0.000265
3221.000000	0.000265
3220.000000	0.000273
3219.000000	0.000289
3218.000000	0.000308
3217.000000	0.000326
3216.000000	0.000336
3215.000000	0.000336
3214.000000	0.000327
3213.000000	0.000313
3212.000000	0.000302
3211.000000	0.000300
3210.000000	0.000304
3209.000000	0.000309
3208.000000	0.000317
3207.000000	0.000327
3206.000000	0.000333
3205.000000	0.000325
3204.000000	0.000308
3203.000000	0.000302
3202.000000	0.000315
3201.000000	0.000336
3200.000000	0.000346
3199.000000	0.000340
3198.000000	0.000328
3197.000000	0.000320
3196.000000	0.000317
3195.000000	0.000313
3194.000000	0.000308
3193.000000	0.000302
3192.000000	0.000292
3191.000000	0.000277
3190.000000	0.000261
3189.000000	0.000253
3188.000000	0.000258
3187.000000	0.000273
3186.000000	0.000285
3185.000000	0.000290
3184.000000	0.000292
3183.000000	0.000299
3182.000000	0.000314
3181.000000	0.000333
3180.000000	0.000351
3179.000000	0.000362
3178.000000	0.000357
3177.000000	0.000336
3176.000000	0.000308
3175.000000	0.000289
3174.000000	0.000287
3173.000000	0.000295
3172.000000	0.000300
3171.000000	0.000298
3170.000000	0.000294
3169.000000	0.000294
3168.000000	0.000296
3167.000000	0.000300
3166.000000	0.000306
3165.000000	0.000321
3164.000000	0.000349
3163.000000	0.000383
3162.000000	0.000409
3161.000000	0.000414
3160.000000	0.000393
3159.000000	0.000358
3158.000000	0.000322
3157.000000	0.000300
3156.000000	0.000299
3155.000000	0.000318
3154.000000	0.000344
3153.000000	0.000357
3152.000000	0.000345
3151.000000	0.000308
3150.000000	0.000265
3149.000000	0.000236
3148.000000	0.000233
3147.000000	0.000253
3146.000000	0.000279
3145.000000	0.000293
3144.000000	0.000292
3143.000000	0.000284
3142.000000	0.000280
3141.000000	0.000288
3140.000000	0.000302
3139.000000	0.000311
3138.000000	0.000302
3137.000000	0.000276
3136.000000	0.000249
3135.000000	0.000234
3134.000000	0.000231
3133.000000	0.000233
3132.000000	0.000233
3131.000000	0.000234
3130.000000	0.000238
3129.000000	0.000244
3128.000000	0.000252
3127.000000	0.000265
3126.000000	0.000280
3125.000000	0.000287
3124.000000	0.000280
3123.000000	0.000257
3122.000000	0.000230
3121.000000	0.000210
3120.000000	0.000203
3119.000000	0.000207
3118.000000	0.000216
3117.000000	0.000223
3116.000000	0.000230
3115.000000	0.000246
3114.000000	0.000274
3113.000000	0.000304
3112.000000	0.000323
3111.000000	0.000326
3110.000000	0.000320
3109.000000	0.000309
3108.000000	0.000293
3107.000000	0.000269
3106.000000	0.000241
3105.000000	0.000225
3104.000000	0.000231
3103.000000	0.000255
3102.000000	0.000282
3101.000000	0.000299
3100.000000	0.000303
3099.000000	0.000300
3098.000000	0.000287
3097.000000	0.000262
3096.000000	0.000232
3095.000000	0.000211
3094.000000	0.000206
3093.000000	0.000213
3092.000000	0.000224
3091.000000	0.000238
3090.000000	0.000252
3089.000000	0.000262
3088.000000	0.000262
3087.000000	0.000249
3086.000000	0.000229
3085.000000	0.000208
3084.000000	0.000197
3083.000000	0.000197
3082.000000	0.000204
3081.000000	0.000204
3080.000000	0.000192
3079.000000	0.000179
3078.000000	0.000183
3077.000000	0.000212
3076.000000	0.000258
3075.000000	0.000292
3074.000000	0.000294
3073.000000	0.000262
3072.000000	0.000219
3071.000000	0.000191
3070.000000	0.000191
3069.000000	0.000209
3068.000000	0.000235
3067.000000	0.000263
3066.000000	0.000283
3065.000000	0.000286
3064.000000	0.000272
3063.000000	0.000257
3062.000000	0.000258
3061.000000	0.000279
3060.000000	0.000310
3059.000000	0.000336
3058.000000	0.000347
3057.000000	0.000342
3056.000000	0.000327
3055.000000	0.000315
3054.000000	0.000315
3053.000000	0.000323
3052.000000	0.000323
3051.000000	0.000310
3050.000000	0.000291
3049.000000	0.000281
3048.000000	0.000289
3047.000000	0.000309
3046.000000	0.000324
3045.000000	0.000320
3044.000000	0.000290
3043.000000	0.000243
3042.000000	0.000196
3041.000000	0.000169
3040.000000	0.000178
3039.000000	0.000223
3038.000000	0.000281
3037.000000	0.000320
3036.000000	0.000324
3035.000000	0.000302
3034.000000	0.000283
3033.000000	0.000287
3032.000000	0.000317
3031.000000	0.000355
3030.000000	0.000376
3029.000000	0.000367
3028.000000	0.000342
3027.000000	0.000322
3026.000000	0.000321
3025.000000	0.000336
3024.000000	0.000354
3023.000000	0.000363
3022.000000	0.000357
3021.000000	0.000332
3020.000000	0.000299
3019.000000	0.000284
3018.000000	0.000303
3017.000000	0.000351
3016.000000	0.000407
3015.000000	0.000453
3014.000000	0.000487
3013.000000	0.000509
3012.000000	0.000519
3011.000000	0.000520
3010.000000	0.000517
3009.000000	0.000519
3008.000000	0.000529
3007.000000	0.000545
3006.000000	0.000560
3005.000000	0.000568
3004.000000	0.000562
3003.000000	0.000548
3002.000000	0.000535
3001.000000	0.000532
3000.000000	0.000541
2999.000000	0.000555
2998.000000	0.000571
2997.000000	0.000588
2996.000000	0.000607
2995.000000	0.000631
2994.000000	0.000661
2993.000000	0.000696
2992.000000	0.000732
2991.000000	0.000765
2990.000000	0.000790
2989.000000	0.000808
2988.000000	0.000818
2987.000000	0.000819
2986.000000	0.000814
2985.000000	0.000809
2984.000000	0.000814
2983.000000	0.000835
2982.000000	0.000863
2981.000000	0.000887
2980.000000	0.000902
2979.000000	0.000915
2978.000000	0.000937
2977.000000	0.000976
2976.000000	0.001030
2975.000000	0.001094
2974.000000	0.001159
2973.000000	0.001215
2972.000000	0.001255
2971.000000	0.001284
2970.000000	0.001306
2969.000000	0.001323
2968.000000	0.001332
2967.000000	0.001330
2966.000000	0.001324
2965.000000	0.001325
2964.000000	0.001339
2963.000000	0.001364
2962.000000	0.001391
2961.000000	0.001411
2960.000000	0.001424
2959.000000	0.001429
2958.000000	0.001428
2957.000000	0.001422
2956.000000	0.001412
2955.000000	0.001402
2954.000000	0.001392
2953.000000	0.001381
2952.000000	0.001367
2951.000000	0.001349
2950.000000	0.001327
2949.000000	0.001307
2948.000000	0.001294
2947.000000	0.001295
2946.000000	0.001309
2945.000000	0.001335
2944.000000	0.001369
2943.000000	0.001406
2942.000000	0.001435
2941.000000	0.001452
2940.000000	0.001462
2939.000000	0.001483
2938.000000	0.001526
2937.000000	0.001584
2936.000000	0.001638
2935.000000	0.001670
2934.000000	0.001678
2933.000000	0.001676
2932.000000	0.001677
2931.000000	0.001686
2930.000000	0.001701
2929.000000	0.001716
2928.000000	0.001731
2927.000000	0.001741
2926.000000	0.001743
2925.000000	0.001736
2924.000000	0.001730
2923.000000	0.001729
2922.000000	0.001727
2921.000000	0.001707
2920.000000	0.001657
2919.000000	0.001583
2918.000000	0.001506
2917.000000	0.001441
2916.000000	0.001388
2915.000000	0.001341
2914.000000	0.001301
2913.000000	0.001274
2912.000000	0.001265
2911.000000	0.001267
2910.000000	0.001268
2909.000000	0.001263
2908.000000	0.001254
2907.000000	0.001240
2906.000000	0.001216
2905.000000	0.001183
2904.000000	0.001156
2903.000000	0.001149
2902.000000	0.001161
2901.000000	0.001175
2900.000000	0.001172
2899.000000	0.001151
2898.000000	0.001121
2897.000000	0.001093
2896.000000	0.001069
2895.000000	0.001042
2894.000000	0.001010
2893.000000	0.000979
2892.000000	0.000956
2891.000000	0.000942
2890.000000	0.000930
2889.000000	0.000916
2888.000000	0.000900
2887.000000	0.000888
2886.000000	0.000883
2885.000000	0.000883
2884.000000	0.000885
2883.000000	0.000890
2882.000000	0.000901
2881.000000	0.000921
2880.000000	0.000948
2879.000000	0.000975
2878.000000	0.000994
2877.000000	0.001003
2876.000000	0.001005
2875.000000	0.001003
2874.000000	0.001003
2873.000000	0.001005
2872.000000	0.001005
2871.000000	0.001003
2870.000000	0.001002
2869.000000	0.001011
2868.000000	0.001034
2867.000000	0.001063
2866.000000	0.001089
2865.000000	0.001102
2864.000000	0.001107
2863.000000	0.001108
2862.000000	0.001107
2861.000000	0.001105
2860.000000	0.001104
2859.000000	0.001110
2858.000000	0.001121
2857.000000	0.001128
2856.000000	0.001122
2855.000000	0.001107
2854.000000	0.001089
2853.000000	0.001069
2852.000000	0.001038
2851.000000	0.000995
2850.000000	0.000946
2849.000000	0.000908
2848.000000	0.000888
2847.000000	0.000874
2846.000000	0.000849
2845.000000	0.000804
2844.000000	0.000744
2843.000000	0.000688
2842.000000	0.000647
2841.000000	0.000623
2840.000000	0.000607
2839.000000	0.000596
2838.000000	0.000586
2837.000000	0.000577
2836.000000	0.000569
2835.000000	0.000562
2834.000000	0.000559
2833.000000	0.000561
2832.000000	0.000567
2831.000000	0.000571
2830.000000	0.000569
2829.000000	0.000556
2828.000000	0.000535
2827.000000	0.000514
2826.000000	0.000498
2825.000000	0.000490
2824.000000	0.000485
2823.000000	0.000478
2822.000000	0.000468
2821.000000	0.000455
2820.000000	0.000442
2819.000000	0.000433
2818.000000	0.000433
2817.000000	0.000444
2816.000000	0.000462
2815.000000	0.000477
2814.000000	0.000479
2813.000000	0.000469
2812.000000	0.000450
2811.000000	0.000429
2810.000000	0.000419
2809.000000	0.000426
2808.000000	0.000446
2807.000000	0.000461
2806.000000	0.000458
2805.000000	0.000439
2804.000000	0.000418
2803.000000	0.000410
2802.000000	0.000413
2801.000000	0.000416
2800.000000	0.000410
2799.000000	0.000398
2798.000000	0.000391
2797.000000	0.000398
2796.000000	0.000419
2795.000000	0.000442
2794.000000	0.000457
2793.000000	0.000462
2792.000000	0.000458
2791.000000	0.000447
2790.000000	0.000432
2789.000000	0.000420
2788.000000	0.000417
2787.000000	0.000425
2786.000000	0.000443
2785.000000	0.000465
2784.000000	0.000486
2783.000000	0.000500
2782.000000	0.000500
2781.000000	0.000485
2780.000000	0.000461
2779.000000	0.000435
2778.000000	0.000414
2777.000000	0.000400
2776.000000	0.000391
2775.000000	0.000384
2774.000000	0.000380
2773.000000	0.000381
2772.000000	0.000384
2771.000000	0.000386
2770.000000	0.000383
2769.000000	0.000378
2768.000000	0.000372
2767.000000	0.000365
2766.000000	0.000359
2765.000000	0.000359
2764.000000	0.000369
2763.000000	0.000385
2762.000000	0.000405
2761.000000	0.000425
2760.000000	0.000441
2759.000000	0.000445
2758.000000	0.000437
2757.000000	0.000420
2756.000000	0.000405
2755.000000	0.000398
2754.000000	0.000400
2753.000000	0.000409
2752.000000	0.000424
2751.000000	0.000439
2750.000000	0.000449
2749.000000	0.000452
2748.000000	0.000447
2747.000000	0.000433
2746.000000	0.000412
2745.000000	0.000395
2744.000000	0.000389
2743.000000	0.000398
2742.000000	0.000412
2741.000000	0.000424
2740.000000	0.000428
2739.000000	0.000427
2738.000000	0.000423
2737.000000	0.000418
2736.000000	0.000413
2735.000000	0.000413
2734.000000	0.000418
2733.000000	0.000431
2732.000000	0.000449
2731.000000	0.000469
2730.000000	0.000486
2729.000000	0.000493
2728.000000	0.000484
2727.000000	0.000454
2726.000000	0.000413
2725.000000	0.000377
2724.000000	0.000362
2723.000000	0.000370
2722.000000	0.000395
2721.000000	0.000428
2720.000000	0.000459
2719.000000	0.000476
2718.000000	0.000473
2717.000000	0.000457
2716.000000	0.000439
2715.000000	0.000430
2714.000000	0.000431
2713.000000	0.000435
2712.000000	0.000432
2711.000000	0.000420
2710.000000	0.000402
2709.000000	0.000388
2708.000000	0.000384
2707.000000	0.000390
2706.000000	0.000401
2705.000000	0.000415
2704.000000	0.000424
2703.000000	0.000424
2702.000000	0.000418
2701.000000	0.000414
2700.000000	0.000415
2699.000000	0.000417
2698.000000	0.000418
2697.000000	0.000425
2696.000000	0.000440
2695.000000	0.000458
2694.000000	0.000466
2693.000000	0.000459
2692.000000	0.000446
2691.000000	0.000440
2690.000000	0.000443
2689.000000	0.000448
2688.000000	0.000445
2687.000000	0.000433
2686.000000	0.000421
2685.000000	0.000423
2684.000000	0.000443
2683.000000	0.000470
2682.000000	0.000489
2681.000000	0.000488
2680.000000	0.000473
2679.000000	0.000452
2678.000000	0.000439
2677.000000	0.000437
2676.000000	0.000440
2675.000000	0.000436
2674.000000	0.000419
2673.000000	0.000399
2672.000000	0.000391
2671.000000	0.000402
2670.000000	0.000421
2669.000000	0.000438
2668.000000	0.000447
2667.000000	0.000453
2666.000000	0.000463
2665.000000	0.000480
2664.000000	0.000496
2663.000000	0.000502
2662.000000	0.000501
2661.000000	0.000502
2660.000000	0.000512
2659.000000	0.000524
2658.000000	0.000526
2657.000000	0.000517
2656.000000	0.000497
2655.000000	0.000468
2654.000000	0.000436
2653.000000	0.000411
2652.000000	0.000402
2651.000000	0.000404
2650.000000	0.000410
2649.000000	0.000418
2648.000000	0.000432
2647.000000	0.000449
2646.000000	0.000460
2645.000000	0.000459
2644.000000	0.000450
2643.000000	0.000440
2642.000000	0.000432
2641.000000	0.000429
2640.000000	0.000432
2639.000000	0.000434
2638.000000	0.000432
2637.000000	0.000429
2636.000000	0.000435
2635.000000	0.000452
2634.000000	0.000468
2633.000000	0.000470
2632.000000	0.000456
2631.000000	0.000435
2630.000000	0.000415
2629.000000	0.000402
2628.000000	0.000391
2627.000000	0.000374
2626.000000	0.000350
2625.000000	0.000327
2624.000000	0.000318
2623.000000	0.000330
2622.000000	0.000359
2621.000000	0.000395
2620.000000	0.000427
2619.000000	0.000444
2618.000000	0.000441
2617.000000	0.000423
2616.000000	0.000398
2615.000000	0.000375
2614.000000	0.000355
2613.000000	0.000340
2612.000000	0.000327
2611.000000	0.000321
2610.000000	0.000323
2609.000000	0.000336
2608.000000	0.000355
2607.000000	0.000367
2606.000000	0.000366
2605.000000	0.000353
2604.000000	0.000341
2603.000000	0.000335
2602.000000	0.000336
2601.000000	0.000342
2600.000000	0.000349
2599.000000	0.000353
2598.000000	0.000351
2597.000000	0.000340
2596.000000	0.000323
2595.000000	0.000308
2594.000000	0.000312
2593.000000	0.000342
2592.000000	0.000377
2591.000000	0.000381
2590.000000	0.000343
2589.000000	0.000294
2588.000000	0.000265
2587.000000	0.000258
2586.000000	0.000248
2585.000000	0.000228
2584.000000	0.000215
2583.000000	0.000230
2582.000000	0.000274
2581.000000	0.000332
2580.000000	0.000376
2579.000000	0.000386
2578.000000	0.000360
2577.000000	0.000312
2576.000000	0.000264
2575.000000	0.000228
2574.000000	0.000211
2573.000000	0.000218
2572.000000	0.000246
2571.000000	0.000279
2570.000000	0.000310
2569.000000	0.000339
2568.000000	0.000364
2567.000000	0.000370
2566.000000	0.000351
2565.000000	0.000322
2564.000000	0.000312
2563.000000	0.000322
2562.000000	0.000331
2561.000000	0.000318
2560.000000	0.000285
2559.000000	0.000248
2558.000000	0.000222
2557.000000	0.000217
2556.000000	0.000227
2555.000000	0.000242
2554.000000	0.000258
2553.000000	0.000281
2552.000000	0.000313
2551.000000	0.000333
2550.000000	0.000320
2549.000000	0.000281
2548.000000	0.000239
2547.000000	0.000212
2546.000000	0.000199
2545.000000	0.000202
2544.000000	0.000224
2543.000000	0.000263
2542.000000	0.000309
2541.000000	0.000349
2540.000000	0.000369
2539.000000	0.000350
2538.000000	0.000294
2537.000000	0.000231
2536.000000	0.000195
2535.000000	0.000193
2534.000000	0.000204
2533.000000	0.000212
2532.000000	0.000220
2531.000000	0.000232
2530.000000	0.000242
2529.000000	0.000252
2528.000000	0.000272
2527.000000	0.000299
2526.000000	0.000313
2525.000000	0.000293
2524.000000	0.000251
2523.000000	0.000214
2522.000000	0.000204
2521.000000	0.000220
2520.000000	0.000244
2519.000000	0.000259
2518.000000	0.000265
2517.000000	0.000276
2516.000000	0.000299
2515.000000	0.000323
2514.000000	0.000331
2513.000000	0.000324
2512.000000	0.000313
2511.000000	0.000297
2510.000000	0.000270
2509.000000	0.000236
2508.000000	0.000211
2507.000000	0.000209
2506.000000	0.000228
2505.000000	0.000268
2504.000000	0.000327
2503.000000	0.000387
2502.000000	0.000413
2501.000000	0.000384
2500.000000	0.000316
2499.000000	0.000241
2498.000000	0.000179
2497.000000	0.000138
2496.000000	0.000121
2495.000000	0.000131
2494.000000	0.000159
2493.000000	0.000193
2492.000000	0.000223
2491.000000	0.000249
2490.000000	0.000268
2489.000000	0.000268
2488.000000	0.000233
2487.000000	0.000168
2486.000000	0.000095
2485.000000	0.000048
2484.000000	0.000044
2483.000000	0.000071
2482.000000	0.000108
2481.000000	0.000143
2480.000000	0.000168
2479.000000	0.000181
2478.000000	0.000177
2477.000000	0.000169
2476.000000	0.000174
2475.000000	0.000202
2474.000000	0.000239
2473.000000	0.000260
2472.000000	0.000253
2471.000000	0.000226
2470.000000	0.000200
2469.000000	0.000192
2468.000000	0.000197
2467.000000	0.000199
2466.000000	0.000189
2465.000000	0.000174
2464.000000	0.000166
2463.000000	0.000168
2462.000000	0.000177
2461.000000	0.000195
2460.000000	0.000226
2459.000000	0.000269
2458.000000	0.000311
2457.000000	0.000341
2456.000000	0.000349
2455.000000	0.000333
2454.000000	0.000299
2453.000000	0.000264
2452.000000	0.000241
2451.000000	0.000224
2450.000000	0.000206
2449.000000	0.000187
2448.000000	0.000181
2447.000000	0.000196
2446.000000	0.000220
2445.000000	0.000237
2444.000000	0.000239
2443.000000	0.000226
2442.000000	0.000207
2441.000000	0.000192
2440.000000	0.000183
2439.000000	0.000172
2438.000000	0.000152
2437.000000	0.000129
2436.000000	0.000120
2435.000000	0.000136
2434.000000	0.000172
2433.000000	0.000208
2432.000000	0.000224
2431.000000	0.000216
2430.000000	0.000201
2429.000000	0.000202
2428.000000	0.000229
2427.000000	0.000268
2426.000000	0.000299
2425.000000	0.000314
2424.000000	0.000320
2423.000000	0.000317
2422.000000	0.000294
2421.000000	0.000247
2420.000000	0.000192
2419.000000	0.000147
2418.000000	0.000121
2417.000000	0.000110
2416.000000	0.000108
2415.000000	0.000117
2414.000000	0.000139
2413.000000	0.000171
2412.000000	0.000196
2411.000000	0.000208
2410.000000	0.000216
2409.000000	0.000235
2408.000000	0.000260
2407.000000	0.000274
2406.000000	0.000264
2405.000000	0.000237
2404.000000	0.000206
2403.000000	0.000178
2402.000000	0.000151
2401.000000	0.000128
2400.000000	0.000113
2399.000000	0.000114
2398.000000	0.000136
2397.000000	0.000180
2396.000000	0.000233
2395.000000	0.000278
2394.000000	0.000302
2393.000000	0.000302
2392.000000	0.000280
2391.000000	0.000239
2390.000000	0.000182
2389.000000	0.000126
2388.000000	0.000085
2387.000000	0.000072
2386.000000	0.000088
2385.000000	0.000121
2384.000000	0.000150
2383.000000	0.000158
2382.000000	0.000147
2381.000000	0.000129
2380.000000	0.000103
2379.000000	0.000057
2378.000000	-0.000006
2377.000000	-0.000051
2376.000000	-0.000042
2375.000000	0.000021
2374.000000	0.000102
2373.000000	0.000168
2372.000000	0.000205
2371.000000	0.000223
2370.000000	0.000231
2369.000000	0.000220
2368.000000	0.000175
2367.000000	0.000104
2366.000000	0.000038
2365.000000	0.000013
2364.000000	0.000040
2363.000000	0.000102
2362.000000	0.000175
2361.000000	0.000240
2360.000000	0.000275
2359.000000	0.000265
2358.000000	0.000229
2357.000000	0.000198
2356.000000	0.000208
2355.000000	0.000254
2354.000000	0.000288
2353.000000	0.000272
2352.000000	0.000239
2351.000000	0.000263
2350.000000	0.000351
2349.000000	0.000452
2348.000000	0.000501
2347.000000	0.000459
2346.000000	0.000354
2345.000000	0.000268
2344.000000	0.000258
2343.000000	0.000283
2342.000000	0.000290
2341.000000	0.000267
2340.000000	0.000234
2339.000000	0.000214
2338.000000	0.000222
2337.000000	0.000273
2336.000000	0.000357
2335.000000	0.000435
2334.000000	0.000453
2333.000000	0.000397
2332.000000	0.000307
2331.000000	0.000247
2330.000000	0.000233
2329.000000	0.000257
2328.000000	0.000295
2327.000000	0.000338
2326.000000	0.000378
2325.000000	0.000402
2324.000000	0.000394
2323.000000	0.000349
2322.000000	0.000289
2321.000000	0.000249
2320.000000	0.000242
2319.000000	0.000258
2318.000000	0.000284
2317.000000	0.000327
2316.000000	0.000375
2315.000000	0.000398
2314.000000	0.000374
2313.000000	0.000334
2312.000000	0.000309
2311.000000	0.000302
2310.000000	0.000280
2309.000000	0.000238
2308.000000	0.000198
2307.000000	0.000184
2306.000000	0.000198
2305.000000	0.000236
2304.000000	0.000288
2303.000000	0.000330
2302.000000	0.000340
2301.000000	0.000327
2300.000000	0.000311
2299.000000	0.000306
2298.000000	0.000306
2297.000000	0.000310
2296.000000	0.000320
2295.000000	0.000330
2294.000000	0.000333
2293.000000	0.000336
2292.000000	0.000356
2291.000000	0.000391
2290.000000	0.000426
2289.000000	0.000456
2288.000000	0.000488
2287.000000	0.000523
2286.000000	0.000549
2285.000000	0.000569
2284.000000	0.000591
2283.000000	0.000615
2282.000000	0.000629
2281.000000	0.000623
2280.000000	0.000593
2279.000000	0.000534
2278.000000	0.000441
2277.000000	0.000333
2276.000000	0.000242
2275.000000	0.000187
2274.000000	0.000171
2273.000000	0.000193
2272.000000	0.000241
2271.000000	0.000288
2270.000000	0.000312
2269.000000	0.000326
2268.000000	0.000348
2267.000000	0.000368
2266.000000	0.000357
2265.000000	0.000313
2264.000000	0.000271
2263.000000	0.000260
2262.000000	0.000281
2261.000000	0.000319
2260.000000	0.000355
2259.000000	0.000368
2258.000000	0.000351
2257.000000	0.000319
2256.000000	0.000293
2255.000000	0.000283
2254.000000	0.000292
2253.000000	0.000325
2252.000000	0.000368
2251.000000	0.000375
2250.000000	0.000314
2249.000000	0.000218
2248.000000	0.000158
2247.000000	0.000168
2246.000000	0.000231
2245.000000	0.000309
2244.000000	0.000368
2243.000000	0.000369
2242.000000	0.000298
2241.000000	0.000189
2240.000000	0.000099
2239.000000	0.000050
2238.000000	0.000030
2237.000000	0.000031
2236.000000	0.000055
2235.000000	0.000094
2234.000000	0.000137
2233.000000	0.000194
2232.000000	0.000268
2231.000000	0.000320
2230.000000	0.000304
2229.000000	0.000230
2228.000000	0.000170
2227.000000	0.000180
2226.000000	0.000254
2225.000000	0.000351
2224.000000	0.000431
2223.000000	0.000471
2222.000000	0.000468
2221.000000	0.000444
2220.000000	0.000422
2219.000000	0.000399
2218.000000	0.000345
2217.000000	0.000245
2216.000000	0.000112
2215.000000	-0.000016
2214.000000	-0.000082
2213.000000	-0.000040
2212.000000	0.000093
2211.000000	0.000227
2210.000000	0.000272
2209.000000	0.000211
2208.000000	0.000095
2207.000000	-0.000013
2206.000000	-0.000071
2205.000000	-0.000062
2204.000000	-0.000007
2203.000000	0.000050
2202.000000	0.000092
2201.000000	0.000155
2200.000000	0.000260
2199.000000	0.000368
2198.000000	0.000425
2197.000000	0.000427
2196.000000	0.000403
2195.000000	0.000372
2194.000000	0.000357
2193.000000	0.000397
2192.000000	0.000489
2191.000000	0.000557
2190.000000	0.000533
2189.000000	0.000447
2188.000000	0.000391
2187.000000	0.000397
2186.000000	0.000421
2185.000000	0.000427
2184.000000	0.000417
2183.000000	0.000401
2182.000000	0.000385
2181.000000	0.000390
2180.000000	0.000428
2179.000000	0.000468
2178.000000	0.000471
2177.000000	0.000439
2176.000000	0.000393
2175.000000	0.000325
2174.000000	0.000233
2173.000000	0.000166
2172.000000	0.000187
2171.000000	0.000283
2170.000000	0.000377
2169.000000	0.000420
2168.000000	0.000424
2167.000000	0.000414
2166.000000	0.000392
2165.000000	0.000360
2164.000000	0.000344
2163.000000	0.000372
2162.000000	0.000435
2161.000000	0.000454
2160.000000	0.000304
2159.000000	-0.000065
2158.000000	-0.000509
2157.000000	-0.000794
2156.000000	-0.000836
2155.000000	-0.000716
2154.000000	-0.000524
2153.000000	-0.000306
2152.000000	-0.000143
2151.000000	-0.000143
2150.000000	-0.000324
2149.000000	-0.000571
2148.000000	-0.000757
2147.000000	-0.000854
2146.000000	-0.000898
2145.000000	-0.000904
2144.000000	-0.000860
2143.000000	-0.000762
2142.000000	-0.000615
2141.000000	-0.000446
2140.000000	-0.000302
2139.000000	-0.000225
2138.000000	-0.000189
2137.000000	-0.000134
2136.000000	-0.000046
2135.000000	0.000034
2134.000000	0.000087
2133.000000	0.000139
2132.000000	0.000198
2131.000000	0.000228
2130.000000	0.000208
2129.000000	0.000166
2128.000000	0.000143
2127.000000	0.000149
2126.000000	0.000174
2125.000000	0.000203
2124.000000	0.000206
2123.000000	0.000154
2122.000000	0.000063
2121.000000	-0.000009
2120.000000	-0.000020
2119.000000	0.000025
2118.000000	0.000113
2117.000000	0.000233
2116.000000	0.000343
2115.000000	0.000376
2114.000000	0.000319
2113.000000	0.000237
2112.000000	0.000201
2111.000000	0.000222
2110.000000	0.000272
2109.000000	0.000338
2108.000000	0.000403
2107.000000	0.000431
2106.000000	0.000399
2105.000000	0.000328
2104.000000	0.000250
2103.000000	0.000173
2102.000000	0.000109
2101.000000	0.000086
2100.000000	0.000115
2099.000000	0.000158
2098.000000	0.000181
2097.000000	0.000189
2096.000000	0.000190
2095.000000	0.000157
2094.000000	0.000071
2093.000000	-0.000020
2092.000000	-0.000044
2091.000000	0.000018
2090.000000	0.000136
2089.000000	0.000263
2088.000000	0.000345
2087.000000	0.000343
2086.000000	0.000266
2085.000000	0.000169
2084.000000	0.000091
2083.000000	0.000037
2082.000000	0.000019
2081.000000	0.000079
2080.000000	0.000223
2079.000000	0.000375
2078.000000	0.000456
2077.000000	0.000450
2076.000000	0.000375
2075.000000	0.000233
2074.000000	0.000060
2073.000000	-0.000040
2072.000000	0.000005
2071.000000	0.000139
2070.000000	0.000238
2069.000000	0.000256
2068.000000	0.000242
2067.000000	0.000236
2066.000000	0.000217
2065.000000	0.000159
2064.000000	0.000059
2063.000000	-0.000057
2062.000000	-0.000141
2061.000000	-0.000132
2060.000000	-0.000030
2059.000000	0.000079
2058.000000	0.000103
2057.000000	0.000038
2056.000000	-0.000048
2055.000000	-0.000100
2054.000000	-0.000099
2053.000000	-0.000028
2052.000000	0.000100
2051.000000	0.000209
2050.000000	0.000211
2049.000000	0.000106
2048.000000	0.000004
2047.000000	0.000019
2046.000000	0.000168
2045.000000	0.000362
2044.000000	0.000460
2043.000000	0.000394
2042.000000	0.000253
2041.000000	0.000198
2040.000000	0.000277
2039.000000	0.000379
2038.000000	0.000410
2037.000000	0.000399
2036.000000	0.000380
2035.000000	0.000310
2034.000000	0.000187
2033.000000	0.000125
2032.000000	0.000189
2031.000000	0.000265
2030.000000	0.000229
2029.000000	0.000132
2028.000000	0.000095
2027.000000	0.000101
2026.000000	0.000057
2025.000000	-0.000034
2024.000000	-0.000092
2023.000000	-0.000094
2022.000000	-0.000075
2021.000000	-0.000049
2020.000000	-0.000032
2019.000000	-0.000077
2018.000000	-0.000185
2017.000000	-0.000256
2016.000000	-0.000230
2015.000000	-0.000203
2014.000000	-0.000282
2013.000000	-0.000401
2012.000000	-0.000401
2011.000000	-0.000258
2010.000000	-0.000096
2009.000000	-0.000014
2008.000000	0.000010
2007.000000	0.000044
2006.000000	0.000088
2005.000000	0.000075
2004.000000	-0.000050
2003.000000	-0.000230
2002.000000	-0.000307
2001.000000	-0.000173
2000.000000	0.000083
1999.000000	0.000251
1998.000000	0.000231
1997.000000	0.000120
1996.000000	0.000048
1995.000000	0.000032
1994.000000	0.000025
1993.000000	0.000005
1992.000000	-0.000044
1991.000000	-0.000148
1990.000000	-0.000272
1989.000000	-0.000301
1988.000000	-0.000172
1987.000000	0.000040
1986.000000	0.000216
1985.000000	0.000310
1984.000000	0.000331
1983.000000	0.000301
1982.000000	0.000284
1981.000000	0.000369
1980.000000	0.000548
1979.000000	0.000695
1978.000000	0.000720
1977.000000	0.000679
1976.000000	0.000622
1975.000000	0.000486
1974.000000	0.000242
1973.000000	0.000029
1972.000000	-0.000006
1971.000000	0.000102
1970.000000	0.000197
1969.000000	0.000175
1968.000000	0.000025
1967.000000	-0.000216
1966.000000	-0.000454
1965.000000	-0.000571
1964.000000	-0.000540
1963.000000	-0.000452
1962.000000	-0.000383
1961.000000	-0.000310
1960.000000	-0.000197
1959.000000	-0.000073
1958.000000	0.000010
1957.000000	0.000038
1956.000000	0.000002
1955.000000	-0.000121
1954.000000	-0.000309
1953.000000	-0.000472
1952.000000	-0.000528
1951.000000	-0.000473
1950.000000	-0.000336
1949.000000	-0.000152
1948.000000	0.000013
1947.000000	0.000085
1946.000000	0.000067
1945.000000	0.000027
1944.000000	-0.000014
1943.000000	-0.000095
1942.000000	-0.000206
1941.000000	-0.000245
1940.000000	-0.000166
1939.000000	-0.000050
1938.000000	-0.000001
1937.000000	-0.000031
1936.000000	-0.000085
1935.000000	-0.000125
1934.000000	-0.000144
1933.000000	-0.000145
1932.000000	-0.000153
1931.000000	-0.000194
1930.000000	-0.000245
1929.000000	-0.000256
1928.000000	-0.000222
1927.000000	-0.000193
1926.000000	-0.000181
1925.000000	-0.000131
1924.000000	-0.000016
1923.000000	0.000104
1922.000000	0.000158
1921.000000	0.000149
1920.000000	0.000114
1919.000000	0.000075
1918.000000	0.000064
1917.000000	0.000113
1916.000000	0.000186
1915.000000	0.000198
1914.000000	0.000134
1913.000000	0.000081
1912.000000	0.000109
1911.000000	0.000176
1910.000000	0.000190
1909.000000	0.000125
1908.000000	0.000019
1907.000000	-0.000093
1906.000000	-0.000182
1905.000000	-0.000199
1904.000000	-0.000131
1903.000000	-0.000026
1902.000000	0.000055
1901.000000	0.000102
1900.000000	0.000128
1899.000000	0.000128
1898.000000	0.000100
1897.000000	0.000071
1896.000000	0.000066
1895.000000	0.000076
1894.000000	0.000079
1893.000000	0.000070
1892.000000	0.000041
1891.000000	-0.000026
1890.000000	-0.000112
1889.000000	-0.000153
1888.000000	-0.000122
1887.000000	-0.000072
1886.000000	-0.000045
1885.000000	-0.000024
1884.000000	0.000017
1883.000000	0.000065
1882.000000	0.000091
1881.000000	0.000088
1880.000000	0.000059
1879.000000	0.000005
1878.000000	-0.000050
1877.000000	-0.000063
1876.000000	-0.000030
1875.000000	0.000001
1874.000000	-0.000002
1873.000000	-0.000014
1872.000000	-0.000003
1871.000000	0.000029
1870.000000	0.000070
1869.000000	0.000128
1868.000000	0.000185
1867.000000	0.000186
1866.000000	0.000122
1865.000000	0.000052
1864.000000	0.000018
1863.000000	0.000001
1862.000000	-0.000027
1861.000000	-0.000055
1860.000000	-0.000055
1859.000000	-0.000032
1858.000000	-0.000009
1857.000000	0.000015
1856.000000	0.000047
1855.000000	0.000079
1854.000000	0.000099
1853.000000	0.000111
1852.000000	0.000114
1851.000000	0.000099
1850.000000	0.000073
1849.000000	0.000066
1848.000000	0.000085
1847.000000	0.000099
1846.000000	0.000085
1845.000000	0.000064
1844.000000	0.000067
1843.000000	0.000077
1842.000000	0.000075
1841.000000	0.000066
1840.000000	0.000063
1839.000000	0.000067
1838.000000	0.000074
1837.000000	0.000089
1836.000000	0.000103
1835.000000	0.000090
1834.000000	0.000047
1833.000000	0.000006
1832.000000	-0.000007
1831.000000	-0.000003
1830.000000	-0.000005
1829.000000	-0.000009
1828.000000	0.000001
1827.000000	0.000008
1826.000000	-0.000003
1825.000000	-0.000010
1824.000000	0.000014
1823.000000	0.000054
1822.000000	0.000082
1821.000000	0.000096
1820.000000	0.000105
1819.000000	0.000102
1818.000000	0.000085
1817.000000	0.000073
1816.000000	0.000072
1815.000000	0.000057
1814.000000	0.000022
1813.000000	0.000003
1812.000000	0.000029
1811.000000	0.000072
1810.000000	0.000086
1809.000000	0.000075
1808.000000	0.000066
1807.000000	0.000058
1806.000000	0.000039
1805.000000	0.000023
1804.000000	0.000018
1803.000000	0.000014
1802.000000	-0.000001
1801.000000	-0.000006
1800.000000	0.000009
1799.000000	0.000020
1798.000000	0.000011
1797.000000	0.000007
1796.000000	0.000028
1795.000000	0.000058
1794.000000	0.000073
1793.000000	0.000078
1792.000000	0.000086
1791.000000	0.000081
1790.000000	0.000057
1789.000000	0.000040
1788.000000	0.000039
1787.000000	0.000036
1786.000000	0.000020
1785.000000	0.000014
1784.000000	0.000040
1783.000000	0.000078
1782.000000	0.000097
1781.000000	0.000097
1780.000000	0.000097
1779.000000	0.000105
1778.000000	0.000120
1777.000000	0.000143
1776.000000	0.000165
1775.000000	0.000167
1774.000000	0.000140
1773.000000	0.000112
1772.000000	0.000118
1771.000000	0.000149
1770.000000	0.000168
1769.000000	0.000172
1768.000000	0.000182
1767.000000	0.000209
1766.000000	0.000250
1765.000000	0.000296
1764.000000	0.000340
1763.000000	0.000369
1762.000000	0.000383
1761.000000	0.000408
1760.000000	0.000465
1759.000000	0.000540
1758.000000	0.000621
1757.000000	0.000723
1756.000000	0.000852
1755.000000	0.000972
1754.000000	0.001050
1753.000000	0.001104
1752.000000	0.001192
1751.000000	0.001355
1750.000000	0.001577
1749.000000	0.001806
1748.000000	0.002002
1747.000000	0.002138
1746.000000	0.002214
1745.000000	0.002261
1744.000000	0.002305
1743.000000	0.002333
1742.000000	0.002312
1741.000000	0.002237
1740.000000	0.002133
1739.000000	0.002021
1738.000000	0.001903
1737.000000	0.001765
1736.000000	0.001597
1735.000000	0.001398
1734.000000	0.001205
1733.000000	0.001082
1732.000000	0.001023
1731.000000	0.000966
1730.000000	0.000882
1729.000000	0.000785
1728.000000	0.000701
1727.000000	0.000635
1726.000000	0.000583
1725.000000	0.000543
1724.000000	0.000511
1723.000000	0.000473
1722.000000	0.000425
1721.000000	0.000371
1720.000000	0.000323
1719.000000	0.000289
1718.000000	0.000271
1717.000000	0.000288
1716.000000	0.000320
1715.000000	0.000314
1714.000000	0.000284
1713.000000	0.000285
1712.000000	0.000319
1711.000000	0.000346
1710.000000	0.000340
1709.000000	0.000317
1708.000000	0.000301
1707.000000	0.000296
1706.000000	0.000301
1705.000000	0.000331
1704.000000	0.000363
1703.000000	0.000343
1702.000000	0.000265
1701.000000	0.000206
1700.000000	0.000239
1699.000000	0.000290
1698.000000	0.000289
1697.000000	0.000265
1696.000000	0.000268
1695.000000	0.000277
1694.000000	0.000272
1693.000000	0.000274
1692.000000	0.000288
1691.000000	0.000299
1690.000000	0.000301
1689.000000	0.000310
1688.000000	0.000335
1687.000000	0.000358
1686.000000	0.000370
1685.000000	0.000392
1684.000000	0.000423
1683.000000	0.000419
1682.000000	0.000387
1681.000000	0.000358
1680.000000	0.000354
1679.000000	0.000366
1678.000000	0.000377
1677.000000	0.000387
1676.000000	0.000415
1675.000000	0.000458
1674.000000	0.000492
1673.000000	0.000514
1672.000000	0.000530
1671.000000	0.000544
1670.000000	0.000555
1669.000000	0.000565
1668.000000	0.000577
1667.000000	0.000589
1666.000000	0.000596
1665.000000	0.000609
1664.000000	0.000641
1663.000000	0.000683
1662.000000	0.000700
1661.000000	0.000686
1660.000000	0.000652
1659.000000	0.000619
1658.000000	0.000604
1657.000000	0.000614
1656.000000	0.000636
1655.000000	0.000668
1654.000000	0.000722
1653.000000	0.000785
1652.000000	0.000813
1651.000000	0.000837
1650.000000	0.000845
1649.000000	0.000824
1648.000000	0.000782
1647.000000	0.000728
1646.000000	0.000672
1645.000000	0.000642
1644.000000	0.000645
1643.000000	0.000661
1642.000000	0.000682
1641.000000	0.000717
1640.000000	0.000756
1639.000000	0.000767
1638.000000	0.000739
1637.000000	0.000704
1636.000000	0.000690
1635.000000	0.000675
1634.000000	0.000640
1633.000000	0.000605
1632.000000	0.000582
1631.000000	0.000576
1630.000000	0.000595
1629.000000	0.000640
1628.000000	0.000677
1627.000000	0.000678
1626.000000	0.000653
1625.000000	0.000631
1624.000000	0.000620
1623.000000	0.000607
1622.000000	0.000591
1621.000000	0.000585
1620.000000	0.000576
1619.000000	0.000547
1618.000000	0.000502
1617.000000	0.000469
1616.000000	0.000464
1615.000000	0.000479
1614.000000	0.000505
1613.000000	0.000529
1612.000000	0.000535
1611.000000	0.000515
1610.000000	0.000487
1609.000000	0.000480
1608.000000	0.000492
1607.000000	0.000498
1606.000000	0.000492
1605.000000	0.000489
1604.000000	0.000495
1603.000000	0.000496
1602.000000	0.000489
1601.000000	0.000488
1600.000000	0.000504
1599.000000	0.000521
1598.000000	0.000521
1597.000000	0.000505
1596.000000	0.000489
1595.000000	0.000478
1594.000000	0.000475
1593.000000	0.000479
1592.000000	0.000476
1591.000000	0.000455
1590.000000	0.000429
1589.000000	0.000418
1588.000000	0.000422
1587.000000	0.000424
1586.000000	0.000417
1585.000000	0.000416
1584.000000	0.000431
1583.000000	0.000455
1582.000000	0.000479
1581.000000	0.000504
1580.000000	0.000519
1579.000000	0.000516
1578.000000	0.000505
1577.000000	0.000511
1576.000000	0.000528
1575.000000	0.000534
1574.000000	0.000530
1573.000000	0.000524
1572.000000	0.000515
1571.000000	0.000498
1570.000000	0.000468
1569.000000	0.000435
1568.000000	0.000414
1567.000000	0.000414
1566.000000	0.000428
1565.000000	0.000455
1564.000000	0.000485
1563.000000	0.000500
1562.000000	0.000495
1561.000000	0.000496
1560.000000	0.000517
1559.000000	0.000508
1558.000000	0.000474
1557.000000	0.000469
1556.000000	0.000489
1555.000000	0.000501
1554.000000	0.000491
1553.000000	0.000486
1552.000000	0.000505
1551.000000	0.000533
1550.000000	0.000549
1549.000000	0.000554
1548.000000	0.000553
1547.000000	0.000542
1546.000000	0.000524
1545.000000	0.000521
1544.000000	0.000549
1543.000000	0.000578
1542.000000	0.000582
1541.000000	0.000585
1540.000000	0.000608
1539.000000	0.000608
1538.000000	0.000588
1537.000000	0.000581
1536.000000	0.000581
1535.000000	0.000567
1534.000000	0.000534
1533.000000	0.000512
1532.000000	0.000526
1531.000000	0.000550
1530.000000	0.000568
1529.000000	0.000587
1528.000000	0.000605
1527.000000	0.000598
1526.000000	0.000560
1525.000000	0.000529
1524.000000	0.000518
1523.000000	0.000482
1522.000000	0.000397
1521.000000	0.000332
1520.000000	0.000353
1519.000000	0.000409
1518.000000	0.000435
1517.000000	0.000436
1516.000000	0.000444
1515.000000	0.000457
1514.000000	0.000450
1513.000000	0.000433
1512.000000	0.000428
1511.000000	0.000432
1510.000000	0.000423
1509.000000	0.000402
1508.000000	0.000385
1507.000000	0.000360
1506.000000	0.000308
1505.000000	0.000284
1504.000000	0.000318
1503.000000	0.000357
1502.000000	0.000374
1501.000000	0.000392
1500.000000	0.000430
1499.000000	0.000458
1498.000000	0.000432
1497.000000	0.000377
1496.000000	0.000353
1495.000000	0.000358
1494.000000	0.000357
1493.000000	0.000353
1492.000000	0.000359
1491.000000	0.000368
1490.000000	0.000367
1489.000000	0.000386
1488.000000	0.000431
1487.000000	0.000449
1486.000000	0.000427
1485.000000	0.000411
1484.000000	0.000432
1483.000000	0.000473
1482.000000	0.000498
1481.000000	0.000512
1480.000000	0.000534
1479.000000	0.000564
1478.000000	0.000591
1477.000000	0.000614
1476.000000	0.000634
1475.000000	0.000627
1474.000000	0.000597
1473.000000	0.000604
1472.000000	0.000683
1471.000000	0.000772
1470.000000	0.000820
1469.000000	0.000850
1468.000000	0.000893
1467.000000	0.000935
1466.000000	0.000945
1465.000000	0.000919
1464.000000	0.000886
1463.000000	0.000863
1462.000000	0.000847
1461.000000	0.000845
1460.000000	0.000859
1459.000000	0.000865
1458.000000	0.000834
1457.000000	0.000793
1456.000000	0.000804
1455.000000	0.000848
1454.000000	0.000872
1453.000000	0.000871
1452.000000	0.000873
1451.000000	0.000881
1450.000000	0.000884
1449.000000	0.000890
1448.000000	0.000913
1447.000000	0.000931
1446.000000	0.000914
1445.000000	0.000877
1444.000000	0.000846
1443.000000	0.000821
1442.000000	0.000798
1441.000000	0.000787
1440.000000	0.000796
1439.000000	0.000806
1438.000000	0.000795
1437.000000	0.000771
1436.000000	0.000766
1435.000000	0.000776
1434.000000	0.000775
1433.000000	0.000773
1432.000000	0.000789
1431.000000	0.000819
1430.000000	0.000833
1429.000000	0.000830
1428.000000	0.000837
1427.000000	0.000857
1426.000000	0.000874
1425.000000	0.000883
1424.000000	0.000892
1423.000000	0.000905
1422.000000	0.000906
1421.000000	0.000902
1420.000000	0.000908
1419.000000	0.000918
1418.000000	0.000906
1417.000000	0.000884
1416.000000	0.000879
1415.000000	0.000882
1414.000000	0.000875
1413.000000	0.000864
1412.000000	0.000862
1411.000000	0.000870
1410.000000	0.000877
1409.000000	0.000889
1408.000000	0.000915
1407.000000	0.000936
1406.000000	0.000925
1405.000000	0.000892
1404.000000	0.000874
1403.000000	0.000874
1402.000000	0.000867
1401.000000	0.000845
1400.000000	0.000820
1399.000000	0.000802
1398.000000	0.000798
1397.000000	0.000821
1396.000000	0.000877
1395.000000	0.000942
1394.000000	0.000973
1393.000000	0.000964
1392.000000	0.000949
1391.000000	0.000937
1390.000000	0.000923
1389.000000	0.000915
1388.000000	0.000931
1387.000000	0.000961
1386.000000	0.000978
1385.000000	0.000971
1384.000000	0.000946
1383.000000	0.000906
1382.000000	0.000862
1381.000000	0.000834
1380.000000	0.000826
1379.000000	0.000822
1378.000000	0.000814
1377.000000	0.000811
1376.000000	0.000815
1375.000000	0.000810
1374.000000	0.000780
1373.000000	0.000743
1372.000000	0.000717
1371.000000	0.000702
1370.000000	0.000697
1369.000000	0.000704
1368.000000	0.000711
1367.000000	0.000699
1366.000000	0.000672
1365.000000	0.000660
1364.000000	0.000673
1363.000000	0.000683
1362.000000	0.000671
1361.000000	0.000650
1360.000000	0.000634
1359.000000	0.000613
1358.000000	0.000586
1357.000000	0.000573
1356.000000	0.000584
1355.000000	0.000594
1354.000000	0.000590
1353.000000	0.000590
1352.000000	0.000609
1351.000000	0.000621
1350.000000	0.000610
1349.000000	0.000588
1348.000000	0.000574
1347.000000	0.000567
1346.000000	0.000561
1345.000000	0.000566
1344.000000	0.000581
1343.000000	0.000583
1342.000000	0.000560
1341.000000	0.000528
1340.000000	0.000502
1339.000000	0.000480
1338.000000	0.000464
1337.000000	0.000468
1336.000000	0.000485
1335.000000	0.000487
1334.000000	0.000470
1333.000000	0.000467
1332.000000	0.000491
1331.000000	0.000513
1330.000000	0.000506
1329.000000	0.000494
1328.000000	0.000505
1327.000000	0.000528
1326.000000	0.000535
1325.000000	0.000531
1324.000000	0.000532
1323.000000	0.000540
1322.000000	0.000541
1321.000000	0.000534
1320.000000	0.000522
1319.000000	0.000505
1318.000000	0.000489
1317.000000	0.000494
1316.000000	0.000522
1315.000000	0.000547
1314.000000	0.000553
1313.000000	0.000558
1312.000000	0.000571
1311.000000	0.000574
1310.000000	0.000559
1309.000000	0.000553
1308.000000	0.000566
1307.000000	0.000571
1306.000000	0.000548
1305.000000	0.000521
1304.000000	0.000525
1303.000000	0.000547
1302.000000	0.000553
1301.000000	0.000534
1300.000000	0.000506
1299.000000	0.000481
1298.000000	0.000464
1297.000000	0.000463
1296.000000	0.000473
1295.000000	0.000474
1294.000000	0.000463
1293.000000	0.000456
1292.000000	0.000463
1291.000000	0.000463
1290.000000	0.000447
1289.000000	0.000434
1288.000000	0.000442
1287.000000	0.000458
1286.000000	0.000468
1285.000000	0.000482
1284.000000	0.000502
1283.000000	0.000508
1282.000000	0.000490
1281.000000	0.000471
1280.000000	0.000469
1279.000000	0.000468
1278.000000	0.000458
1277.000000	0.000456
1276.000000	0.000474
1275.000000	0.000494
1274.000000	0.000500
1273.000000	0.000505
1272.000000	0.000521
1271.000000	0.000533
1270.000000	0.000537
1269.000000	0.000553
1268.000000	0.000594
1267.000000	0.000627
1266.000000	0.000627
1265.000000	0.000613
1264.000000	0.000608
1263.000000	0.000606
1262.000000	0.000602
1261.000000	0.000624
1260.000000	0.000682
1259.000000	0.000740
1258.000000	0.000762
1257.000000	0.000763
1256.000000	0.000769
1255.000000	0.000780
1254.000000	0.000789
1253.000000	0.000808
1252.000000	0.000836
1251.000000	0.000845
1250.000000	0.000821
1249.000000	0.000800
1248.000000	0.000810
1247.000000	0.000834
1246.000000	0.000843
1245.000000	0.000845
1244.000000	0.000856
1243.000000	0.000868
1242.000000	0.000863
1241.000000	0.000853
1240.000000	0.000853
1239.000000	0.000851
1238.000000	0.000835
1237.000000	0.000817
1236.000000	0.000812
1235.000000	0.000804
1234.000000	0.000782
1233.000000	0.000767
1232.000000	0.000774
1231.000000	0.000783
1230.000000	0.000770
1229.000000	0.000743
1228.000000	0.000721
1227.000000	0.000706
1226.000000	0.000693
1225.000000	0.000691
1224.000000	0.000694
1223.000000	0.000674
1222.000000	0.000629
1221.000000	0.000593
1220.000000	0.000584
1219.000000	0.000575
1218.000000	0.000544
1217.000000	0.000516
1216.000000	0.000512
1215.000000	0.000515
1214.000000	0.000508
1213.000000	0.000505
1212.000000	0.000519
1211.000000	0.000522
1210.000000	0.000498
1209.000000	0.000474
1208.000000	0.000474
1207.000000	0.000480
1206.000000	0.000470
1205.000000	0.000466
1204.000000	0.000486
1203.000000	0.000510
1202.000000	0.000511
1201.000000	0.000502
1200.000000	0.000501
1199.000000	0.000499
1198.000000	0.000485
1197.000000	0.000483
1196.000000	0.000512
1195.000000	0.000545
1194.000000	0.000557
1193.000000	0.000567
1192.000000	0.000601
1191.000000	0.000645
1190.000000	0.000674
1189.000000	0.000690
1188.000000	0.000708
1187.000000	0.000720
1186.000000	0.000725
1185.000000	0.000741
1184.000000	0.000775
1183.000000	0.000802
1182.000000	0.000813
1181.000000	0.000840
1180.000000	0.000900
1179.000000	0.000963
1178.000000	0.001000
1177.000000	0.001032
1176.000000	0.001077
1175.000000	0.001115
1174.000000	0.001126
1173.000000	0.001131
1172.000000	0.001151
1171.000000	0.001172
1170.000000	0.001182
1169.000000	0.001195
1168.000000	0.001217
1167.000000	0.001218
1166.000000	0.001195
1165.000000	0.001195
1164.000000	0.001242
1163.000000	0.001290
1162.000000	0.001298
1161.000000	0.001292
1160.000000	0.001306
1159.000000	0.001321
1158.000000	0.001298
1157.000000	0.001251
1156.000000	0.001215
1155.000000	0.001191
1154.000000	0.001163
1153.000000	0.001133
1152.000000	0.001100
1151.000000	0.001049
1150.000000	0.000987
1149.000000	0.000950
1148.000000	0.000942
1147.000000	0.000917
1146.000000	0.000858
1145.000000	0.000805
1144.000000	0.000782
1143.000000	0.000755
1142.000000	0.000694
1141.000000	0.000635
1140.000000	0.000612
1139.000000	0.000603
1138.000000	0.000579
1137.000000	0.000561
1136.000000	0.000563
1135.000000	0.000552
1134.000000	0.000502
1133.000000	0.000447
1132.000000	0.000423
1131.000000	0.000415
1130.000000	0.000403
1129.000000	0.000409
1128.000000	0.000439
1127.000000	0.000454
1126.000000	0.000434
1125.000000	0.000421
1124.000000	0.000445
1123.000000	0.000471
1122.000000	0.000462
1121.000000	0.000452
1120.000000	0.000483
1119.000000	0.000540
1118.000000	0.000585
1117.000000	0.000622
1116.000000	0.000653
1115.000000	0.000654
1114.000000	0.000629
1113.000000	0.000637
1112.000000	0.000706
1111.000000	0.000788
1110.000000	0.000836
1109.000000	0.000866
1108.000000	0.000898
1107.000000	0.000895
1106.000000	0.000833
1105.000000	0.000766
1104.000000	0.000749
1103.000000	0.000772
1102.000000	0.000808
1101.000000	0.000862
1100.000000	0.000930
1099.000000	0.000959
1098.000000	0.000925
1097.000000	0.000878
1096.000000	0.000864
1095.000000	0.000857
1094.000000	0.000830
1093.000000	0.000821
1092.000000	0.000857
1091.000000	0.000893
1090.000000	0.000886
1089.000000	0.000869
1088.000000	0.000875
1087.000000	0.000872
1086.000000	0.000831
1085.000000	0.000793
1084.000000	0.000804
1083.000000	0.000840
1082.000000	0.000866
1081.000000	0.000903
1080.000000	0.000965
1079.000000	0.001007
1078.000000	0.000995
1077.000000	0.000969
1076.000000	0.000968
1075.000000	0.000955
1074.000000	0.000899
1073.000000	0.000843
1072.000000	0.000837
1071.000000	0.000850
1070.000000	0.000845
1069.000000	0.000848
1068.000000	0.000887
1067.000000	0.000914
1066.000000	0.000881
1065.000000	0.000819
1064.000000	0.000783
1063.000000	0.000761
1062.000000	0.000728
1061.000000	0.000713
1060.000000	0.000747
1059.000000	0.000789
1058.000000	0.000785
1057.000000	0.000756
1056.000000	0.000751
1055.000000	0.000770
1054.000000	0.000792
1053.000000	0.000819
1052.000000	0.000852
1051.000000	0.000860
1050.000000	0.000842
1049.000000	0.000853
1048.000000	0.000906
1047.000000	0.000924
1046.000000	0.000856
1045.000000	0.000763
1044.000000	0.000723
1043.000000	0.000733
1042.000000	0.000751
1041.000000	0.000776
1040.000000	0.000814
1039.000000	0.000834
1038.000000	0.000822
1037.000000	0.000814
1036.000000	0.000815
1035.000000	0.000774
1034.000000	0.000681
1033.000000	0.000623
1032.000000	0.000665
1031.000000	0.000754
1030.000000	0.000808
1029.000000	0.000827
1028.000000	0.000848
1027.000000	0.000855
1026.000000	0.000826
1025.000000	0.000796
1024.000000	0.000802
1023.000000	0.000819
1022.000000	0.000816
1021.000000	0.000815
1020.000000	0.000833
1019.000000	0.000833
1018.000000	0.000792
1017.000000	0.000754
1016.000000	0.000752
1015.000000	0.000753
1014.000000	0.000731
1013.000000	0.000716
1012.000000	0.000729
1011.000000	0.000727
1010.000000	0.000685
1009.000000	0.000649
1008.000000	0.000653
1007.000000	0.000654
1006.000000	0.000620
1005.000000	0.000592
1004.000000	0.000610
1003.000000	0.000629
1002.000000	0.000605
1001.000000	0.000566
1000.000000	0.000552
999.000000	0.000540
998.000000	0.000513
997.000000	0.000509
996.000000	0.000554
995.000000	0.000593
994.000000	0.000581
993.000000	0.000554
992.000000	0.000558
991.000000	0.000570
990.000000	0.000558
989.000000	0.000556
988.000000	0.000590
987.000000	0.000626
986.000000	0.000623
985.000000	0.000611
984.000000	0.000617
983.000000	0.000607
982.000000	0.000551
981.000000	0.000494
980.000000	0.000480
979.000000	0.000478
978.000000	0.000445
977.000000	0.000408
976.000000	0.000406
975.000000	0.000426
974.000000	0.000438
973.000000	0.000453
972.000000	0.000472
971.000000	0.000458
970.000000	0.000401
969.000000	0.000361
968.000000	0.000367
967.000000	0.000376
966.000000	0.000356
965.000000	0.000348
964.000000	0.000382
963.000000	0.000410
962.000000	0.000399
961.000000	0.000390
960.000000	0.000420
959.000000	0.000440
958.000000	0.000406
957.000000	0.000355
956.000000	0.000333
955.000000	0.000318
954.000000	0.000281
953.000000	0.000253
952.000000	0.000263
951.000000	0.000276
950.000000	0.000266
949.000000	0.000268
948.000000	0.000300
947.000000	0.000307
946.000000	0.000257
945.000000	0.000210
944.000000	0.000220
943.000000	0.000250
942.000000	0.000250
941.000000	0.000239
940.000000	0.000243
939.000000	0.000236
938.000000	0.000206
937.000000	0.000207
936.000000	0.000261
935.000000	0.000297
934.000000	0.000258
933.000000	0.000192
932.000000	0.000166
931.000000	0.000163
930.000000	0.000142
929.000000	0.000128
928.000000	0.000148
927.000000	0.000156
926.000000	0.000115
925.000000	0.000071
924.000000	0.000078
923.000000	0.000102
922.000000	0.000099
921.000000	0.000091
920.000000	0.000109
919.000000	0.000120
918.000000	0.000094
917.000000	0.000071
916.000000	0.000085
915.000000	0.000096
914.000000	0.000064
913.000000	0.000025
912.000000	0.000022
911.000000	0.000027
910.000000	0.000019
909.000000	0.000041
908.000000	0.000115
907.000000	0.000174
906.000000	0.000162
905.000000	0.000122
904.000000	0.000114
903.000000	0.000117
902.000000	0.000105
901.000000	0.000116
900.000000	0.000177
899.000000	0.000224
898.000000	0.000202
897.000000	0.000158
896.000000	0.000156
895.000000	0.000175
894.000000	0.000170
893.000000	0.000165
892.000000	0.000184
891.000000	0.000181
890.000000	0.000118
889.000000	0.000050
888.000000	0.000036
887.000000	0.000050
886.000000	0.000048
885.000000	0.000048
884.000000	0.000072
883.000000	0.000075
882.000000	0.000030
881.000000	-0.000009
880.000000	0.000009
879.000000	0.000048
878.000000	0.000071
877.000000	0.000113
876.000000	0.000190
875.000000	0.000245
874.000000	0.000239
873.000000	0.000220
872.000000	0.000221
871.000000	0.000192
870.000000	0.000103
869.000000	0.000020
868.000000	-0.000016
867.000000	-0.000057
866.000000	-0.000131
865.000000	-0.000166
864.000000	-0.000121
863.000000	-0.000069
862.000000	-0.000078
861.000000	-0.000100
860.000000	-0.000080
859.000000	-0.000058
858.000000	-0.000072
857.000000	-0.000070
856.000000	-0.000019
855.000000	0.000011
854.000000	-0.000039
853.000000	-0.000114
852.000000	-0.000152
851.000000	-0.000178
850.000000	-0.000216
849.000000	-0.000214
848.000000	-0.000155
847.000000	-0.000130
846.000000	-0.000195
845.000000	-0.000272
844.000000	-0.000273
843.000000	-0.000230
842.000000	-0.000196
841.000000	-0.000139
840.000000	-0.000047
839.000000	0.000002
838.000000	-0.000039
837.000000	-0.000081
836.000000	-0.000047
835.000000	-0.000006
834.000000	-0.000036
833.000000	-0.000089
832.000000	-0.000102
831.000000	-0.000129
830.000000	-0.000231
829.000000	-0.000337
828.000000	-0.000346
827.000000	-0.000287
826.000000	-0.000243
825.000000	-0.000211
824.000000	-0.000156
823.000000	-0.000112
822.000000	-0.000116
821.000000	-0.000124
820.000000	-0.000118
819.000000	-0.000161
818.000000	-0.000272
817.000000	-0.000350
816.000000	-0.000327
815.000000	-0.000282
814.000000	-0.000288
813.000000	-0.000294
812.000000	-0.000236
811.000000	-0.000175
810.000000	-0.000183
809.000000	-0.000221
808.000000	-0.000223
807.000000	-0.000213
806.000000	-0.000223
805.000000	-0.000214
804.000000	-0.000180
803.000000	-0.000197
802.000000	-0.000283
801.000000	-0.000319
800.000000	-0.000232
799.000000	-0.000129
798.000000	-0.000125
797.000000	-0.000180
796.000000	-0.000200
795.000000	-0.000188
794.000000	-0.000180
793.000000	-0.000151
792.000000	-0.000088
791.000000	-0.000062
790.000000	-0.000105
789.000000	-0.000141
788.000000	-0.000125
787.000000	-0.000132
786.000000	-0.000209
785.000000	-0.000274
784.000000	-0.000261
783.000000	-0.000224
782.000000	-0.000211
781.000000	-0.000153
780.000000	-0.000009
779.000000	0.000110
778.000000	0.000096
777.000000	0.000002
776.000000	-0.000069
775.000000	-0.000117
774.000000	-0.000182
773.000000	-0.000231
772.000000	-0.000228
771.000000	-0.000225
770.000000	-0.000255
769.000000	-0.000247
768.000000	-0.000155
767.000000	-0.000067
766.000000	-0.000075
765.000000	-0.000141
764.000000	-0.000191
763.000000	-0.000238
762.000000	-0.000305
761.000000	-0.000337
760.000000	-0.000301
759.000000	-0.000258
758.000000	-0.000253
757.000000	-0.000219
756.000000	-0.000115
755.000000	-0.000031
754.000000	-0.000051
753.000000	-0.000113
752.000000	-0.000118
751.000000	-0.000084
750.000000	-0.000072
749.000000	-0.000078
748.000000	-0.000090
747.000000	-0.000150
746.000000	-0.000258
745.000000	-0.000310
744.000000	-0.000238
743.000000	-0.000121
742.000000	-0.000058
741.000000	-0.000046
740.000000	-0.000059
739.000000	-0.000127
738.000000	-0.000235
737.000000	-0.000275
736.000000	-0.000202
735.000000	-0.000113
734.000000	-0.000092
733.000000	-0.000089
732.000000	-0.000054
731.000000	-0.000043
730.000000	-0.000093
729.000000	-0.000112
728.000000	-0.000039
727.000000	0.000036
726.000000	0.000018
725.000000	-0.000035
724.000000	-0.000042
723.000000	-0.000039
722.000000	-0.000085
721.000000	-0.000136
720.000000	-0.000144
719.000000	-0.000166
718.000000	-0.000240
717.000000	-0.000285
716.000000	-0.000238
715.000000	-0.000170
714.000000	-0.000160
713.000000	-0.000163
712.000000	-0.000121
711.000000	-0.000082
710.000000	-0.000097
709.000000	-0.000115
708.000000	-0.000095
707.000000	-0.000097
706.000000	-0.000159
705.000000	-0.000201
704.000000	-0.000175
703.000000	-0.000159
702.000000	-0.000203
701.000000	-0.000225
700.000000	-0.000171
699.000000	-0.000131
698.000000	-0.000178
697.000000	-0.000224
696.000000	-0.000189
695.000000	-0.000152
694.000000	-0.000207
693.000000	-0.000296
692.000000	-0.000323
691.000000	-0.000317
690.000000	-0.000331
689.000000	-0.000322
688.000000	-0.000247
687.000000	-0.000173
686.000000	-0.000149
685.000000	-0.000114
684.000000	-0.000037
683.000000	-0.000010
682.000000	-0.000077
681.000000	-0.000128
680.000000	-0.000071
679.000000	0.000014
678.000000	0.000038
677.000000	0.000057
676.000000	0.000141
675.000000	0.000204
674.000000	0.000161
673.000000	0.000079
672.000000	0.000034
671.000000	-0.000044
670.000000	-0.000231
669.000000	-0.000434
668.000000	-0.000447
667.000000	-0.000291
666.000000	-0.000215
665.000000	-0.000173
664.000000	-0.000075
663.000000	-0.000006
662.000000	-0.000038
661.000000	-0.000084
660.000000	-0.000050
659.000000	0.000004
658.000000	0.000012
657.000000	0.000050
656.000000	0.000167
655.000000	0.000230
654.000000	0.000145
653.000000	0.000032
652.000000	0.000006
651.000000	-0.000010
650.000000	-0.000097
649.000000	-0.000159
648.000000	-0.000103
647.000000	-0.000016
646.000000	0.000017
645.000000	0.000057
644.000000	0.000134
643.000000	0.000133
642.000000	0.000013
641.000000	-0.000063
640.000000	0.000011
639.000000	0.000107
638.000000	0.000104
637.000000	0.000090
636.000000	0.000152
635.000000	0.000184
634.000000	0.000096
633.000000	0.000016
632.000000	0.000059
631.000000	0.000119
630.000000	0.000064
629.000000	-0.000022
628.000000	-0.000011
627.000000	0.000051
626.000000	0.000066
625.000000	0.000059
624.000000	0.000054
623.000000	-0.000039
622.000000	-0.000224
621.000000	-0.000323
620.000000	-0.000233
619.000000	-0.000096
618.000000	-0.000058
617.000000	-0.000056
616.000000	-0.000009
615.000000	-0.000001
614.000000	-0.000066
613.000000	-0.000055
612.000000	0.000104
611.000000	0.000215
610.000000	0.000127
609.000000	-0.000016
608.000000	-0.000032
607.000000	0.000004
606.000000	-0.000047
605.000000	-0.000118
604.000000	-0.000108
603.000000	-0.000106
602.000000	-0.000206
601.000000	-0.000293
600.000000	-0.000244
599.000000	-0.000151
598.000000	-0.000138
597.000000	-0.000140
596.000000	-0.000077
595.000000	-0.000034
594.000000	-0.000076
593.000000	-0.000078
592.000000	0.000054
591.000000	0.000196
590.000000	0.000228
589.000000	0.000221
588.000000	0.000233
587.000000	0.000163
586.000000	-0.000004
585.000000	-0.000071
584.000000	0.000050
583.000000	0.000154
582.000000	0.000076
581.000000	-0.000048
580.000000	-0.000076
579.000000	-0.000121
578.000000	-0.000293
577.000000	-0.000432
576.000000	-0.000373
575.000000	-0.000222
574.000000	-0.000134
573.000000	-0.000047
572.000000	0.000096
571.000000	0.000165
570.000000	0.000082
569.000000	0.000013
568.000000	0.000059
567.000000	0.000055
566.000000	-0.000099
565.000000	-0.000200
564.000000	-0.000085
563.000000	0.000074
562.000000	0.000079
561.000000	0.000027
560.000000	0.000076
559.000000	0.000151
558.000000	0.000154
557.000000	0.000169
556.000000	0.000227
555.000000	0.000147
554.000000	-0.000117
553.000000	-0.000290
552.000000	-0.000197
551.000000	-0.000044
550.000000	-0.000050
549.000000	-0.000104
548.000000	-0.000055
547.000000	-0.000024
546.000000	-0.000112
545.000000	-0.000135
544.000000	0.000032
543.000000	0.000184
542.000000	0.000138
541.000000	0.000044
540.000000	0.000069
539.000000	0.000092
538.000000	-0.000004
537.000000	-0.000064
536.000000	0.000032
535.000000	0.000120
534.000000	0.000074
533.000000	0.000049
532.000000	0.000120
531.000000	0.000070
530.000000	-0.000188
529.000000	-0.000356
528.000000	-0.000244
527.000000	-0.000111
526.000000	-0.000195
525.000000	-0.000261
524.000000	-0.000044
523.000000	0.000272
522.000000	0.000421
521.000000	0.000469
520.000000	0.000527
519.000000	0.000411
518.000000	0.000012
517.000000	-0.000339
516.000000	-0.000337
515.000000	-0.000172
514.000000	-0.000127
513.000000	-0.000108
512.000000	0.000054
511.000000	0.000217
510.000000	0.000202
509.000000	0.000135
508.000000	0.000161
507.000000	0.000137
506.000000	-0.000039
505.000000	-0.000155
504.000000	-0.000082
503.000000	-0.000050
502.000000	-0.000192
501.000000	-0.000216
500.000000	0.000055
499.000000	0.000305
498.000000	0.000240
497.000000	0.000042
496.000000	-0.000020
495.000000	-0.000026
494.000000	-0.000100
493.000000	-0.000063
492.000000	0.000193
491.000000	0.000402
490.000000	0.000385
489.000000	0.000390
488.000000	0.000556
487.000000	0.000562
486.000000	0.000203
485.000000	-0.000116
484.000000	0.000046
483.000000	0.000458
482.000000	0.000619
481.000000	0.000463
480.000000	0.000181
479.000000	-0.000206
478.000000	-0.000663
477.000000	-0.000904
476.000000	-0.000807
475.000000	-0.000678
474.000000	-0.000727
473.000000	-0.000672
472.000000	-0.000316
471.000000	-0.000058
470.000000	-0.000251
469.000000	-0.000655
468.000000	-0.000973
467.000000	-0.001300
466.000000	-0.001677
465.000000	-0.001766
464.000000	-0.001425
463.000000	-0.001085
462.000000	-0.001087
461.000000	-0.001142
460.000000	-0.000915
459.000000	-0.000623
458.000000	-0.000537
457.000000	-0.000377
456.000000	0.000044
455.000000	0.000275
454.000000	0.000020
453.000000	-0.000334
452.000000	-0.000573
451.000000	-0.000344
450.000000	-0.000234
