PE IR       SUBTECH     SPECTRUM    ASCII       PEDS        4.00        
   -1
P3-Bleu038_1.ASC
23/06/13
11:53:08.00
23/06/13
12:04:49.00
uco
Sample 038 By uco Date Tuesday, June 13 2023
450.000000
#HDR
-1
-1
#GR
cm-1
A
1.0
0.0
4000.000000
-1.000000
3551
8
0.030110
-0.000414
#DATA
4000.000000	0.000111
3999.000000	0.000120
3998.000000	0.000129
3997.000000	0.000140
3996.000000	0.000153
3995.000000	0.000167
3994.000000	0.000176
3993.000000	0.000173
3992.000000	0.000159
3991.000000	0.000143
3990.000000	0.000133
3989.000000	0.000133
3988.000000	0.000141
3987.000000	0.000152
3986.000000	0.000163
3985.000000	0.000171
3984.000000	0.000174
3983.000000	0.000170
3982.000000	0.000162
3981.000000	0.000149
3980.000000	0.000138
3979.000000	0.000130
3978.000000	0.000130
3977.000000	0.000139
3976.000000	0.000157
3975.000000	0.000176
3974.000000	0.000192
3973.000000	0.000200
3972.000000	0.000200
3971.000000	0.000197
3970.000000	0.000198
3969.000000	0.000209
3968.000000	0.000234
3967.000000	0.000269
3966.000000	0.000305
3965.000000	0.000328
3964.000000	0.000329
3963.000000	0.000301
3962.000000	0.000251
3961.000000	0.000194
3960.000000	0.000146
3959.000000	0.000122
3958.000000	0.000131
3957.000000	0.000168
3956.000000	0.000213
3955.000000	0.000245
3954.000000	0.000253
3953.000000	0.000243
3952.000000	0.000230
3951.000000	0.000221
3950.000000	0.000215
3949.000000	0.000208
3948.000000	0.000204
3947.000000	0.000208
3946.000000	0.000219
3945.000000	0.000231
3944.000000	0.000244
3943.000000	0.000262
3942.000000	0.000286
3941.000000	0.000309
3940.000000	0.000321
3939.000000	0.000322
3938.000000	0.000318
3937.000000	0.000310
3936.000000	0.000294
3935.000000	0.000270
3934.000000	0.000245
3933.000000	0.000233
3932.000000	0.000241
3931.000000	0.000260
3930.000000	0.000280
3929.000000	0.000296
3928.000000	0.000313
3927.000000	0.000334
3926.000000	0.000349
3925.000000	0.000349
3924.000000	0.000332
3923.000000	0.000303
3922.000000	0.000270
3921.000000	0.000236
3920.000000	0.000201
3919.000000	0.000167
3918.000000	0.000149
3917.000000	0.000162
3916.000000	0.000205
3915.000000	0.000259
3914.000000	0.000305
3913.000000	0.000337
3912.000000	0.000359
3911.000000	0.000375
3910.000000	0.000386
3909.000000	0.000391
3908.000000	0.000386
3907.000000	0.000360
3906.000000	0.000300
3905.000000	0.000205
3904.000000	0.000096
3903.000000	0.000016
3902.000000	-0.000005
3901.000000	0.000029
3900.000000	0.000094
3899.000000	0.000163
3898.000000	0.000216
3897.000000	0.000251
3896.000000	0.000269
3895.000000	0.000274
3894.000000	0.000272
3893.000000	0.000265
3892.000000	0.000263
3891.000000	0.000270
3890.000000	0.000281
3889.000000	0.000277
3888.000000	0.000254
3887.000000	0.000233
3886.000000	0.000238
3885.000000	0.000267
3884.000000	0.000286
3883.000000	0.000277
3882.000000	0.000255
3881.000000	0.000245
3880.000000	0.000255
3879.000000	0.000282
3878.000000	0.000313
3877.000000	0.000333
3876.000000	0.000346
3875.000000	0.000358
3874.000000	0.000369
3873.000000	0.000367
3872.000000	0.000344
3871.000000	0.000308
3870.000000	0.000287
3869.000000	0.000292
3868.000000	0.000307
3867.000000	0.000310
3866.000000	0.000301
3865.000000	0.000288
3864.000000	0.000265
3863.000000	0.000232
3862.000000	0.000208
3861.000000	0.000205
3860.000000	0.000223
3859.000000	0.000259
3858.000000	0.000311
3857.000000	0.000376
3856.000000	0.000430
3855.000000	0.000448
3854.000000	0.000415
3853.000000	0.000362
3852.000000	0.000334
3851.000000	0.000326
3850.000000	0.000315
3849.000000	0.000308
3848.000000	0.000311
3847.000000	0.000322
3846.000000	0.000336
3845.000000	0.000348
3844.000000	0.000348
3843.000000	0.000336
3842.000000	0.000318
3841.000000	0.000308
3840.000000	0.000314
3839.000000	0.000325
3838.000000	0.000324
3837.000000	0.000310
3836.000000	0.000294
3835.000000	0.000286
3834.000000	0.000288
3833.000000	0.000297
3832.000000	0.000308
3831.000000	0.000318
3830.000000	0.000322
3829.000000	0.000325
3828.000000	0.000333
3827.000000	0.000355
3826.000000	0.000385
3825.000000	0.000406
3824.000000	0.000402
3823.000000	0.000383
3822.000000	0.000375
3821.000000	0.000385
3820.000000	0.000402
3819.000000	0.000409
3818.000000	0.000400
3817.000000	0.000383
3816.000000	0.000380
3815.000000	0.000393
3814.000000	0.000402
3813.000000	0.000401
3812.000000	0.000399
3811.000000	0.000406
3810.000000	0.000413
3809.000000	0.000408
3808.000000	0.000397
3807.000000	0.000396
3806.000000	0.000408
3805.000000	0.000414
3804.000000	0.000398
3803.000000	0.000373
3802.000000	0.000364
3801.000000	0.000388
3800.000000	0.000422
3799.000000	0.000438
3798.000000	0.000430
3797.000000	0.000412
3796.000000	0.000402
3795.000000	0.000405
3794.000000	0.000417
3793.000000	0.000426
3792.000000	0.000433
3791.000000	0.000438
3790.000000	0.000446
3789.000000	0.000457
3788.000000	0.000470
3787.000000	0.000477
3786.000000	0.000476
3785.000000	0.000467
3784.000000	0.000458
3783.000000	0.000451
3782.000000	0.000440
3781.000000	0.000428
3780.000000	0.000416
3779.000000	0.000406
3778.000000	0.000399
3777.000000	0.000393
3776.000000	0.000387
3775.000000	0.000384
3774.000000	0.000386
3773.000000	0.000386
3772.000000	0.000372
3771.000000	0.000347
3770.000000	0.000324
3769.000000	0.000310
3768.000000	0.000305
3767.000000	0.000308
3766.000000	0.000324
3765.000000	0.000353
3764.000000	0.000379
3763.000000	0.000382
3762.000000	0.000366
3761.000000	0.000360
3760.000000	0.000386
3759.000000	0.000429
3758.000000	0.000460
3757.000000	0.000464
3756.000000	0.000441
3755.000000	0.000393
3754.000000	0.000319
3753.000000	0.000218
3752.000000	0.000107
3751.000000	0.000023
3750.000000	0.000012
3749.000000	0.000075
3748.000000	0.000156
3747.000000	0.000206
3746.000000	0.000229
3745.000000	0.000272
3744.000000	0.000361
3743.000000	0.000437
3742.000000	0.000432
3741.000000	0.000356
3740.000000	0.000264
3739.000000	0.000188
3738.000000	0.000132
3737.000000	0.000102
3736.000000	0.000100
3735.000000	0.000105
3734.000000	0.000089
3733.000000	0.000065
3732.000000	0.000069
3731.000000	0.000113
3730.000000	0.000171
3729.000000	0.000216
3728.000000	0.000242
3727.000000	0.000261
3726.000000	0.000281
3725.000000	0.000302
3724.000000	0.000324
3723.000000	0.000349
3722.000000	0.000370
3721.000000	0.000380
3720.000000	0.000376
3719.000000	0.000363
3718.000000	0.000352
3717.000000	0.000348
3716.000000	0.000344
3715.000000	0.000334
3714.000000	0.000323
3713.000000	0.000327
3712.000000	0.000348
3711.000000	0.000361
3710.000000	0.000348
3709.000000	0.000322
3708.000000	0.000306
3707.000000	0.000314
3706.000000	0.000343
3705.000000	0.000374
3704.000000	0.000391
3703.000000	0.000389
3702.000000	0.000381
3701.000000	0.000388
3700.000000	0.000417
3699.000000	0.000456
3698.000000	0.000488
3697.000000	0.000513
3696.000000	0.000532
3695.000000	0.000541
3694.000000	0.000541
3693.000000	0.000542
3692.000000	0.000547
3691.000000	0.000541
3690.000000	0.000507
3689.000000	0.000463
3688.000000	0.000452
3687.000000	0.000470
3686.000000	0.000482
3685.000000	0.000479
3684.000000	0.000478
3683.000000	0.000488
3682.000000	0.000502
3681.000000	0.000514
3680.000000	0.000524
3679.000000	0.000535
3678.000000	0.000544
3677.000000	0.000551
3676.000000	0.000566
3675.000000	0.000583
3674.000000	0.000589
3673.000000	0.000580
3672.000000	0.000569
3671.000000	0.000580
3670.000000	0.000620
3669.000000	0.000661
3668.000000	0.000681
3667.000000	0.000686
3666.000000	0.000691
3665.000000	0.000707
3664.000000	0.000735
3663.000000	0.000771
3662.000000	0.000805
3661.000000	0.000829
3660.000000	0.000836
3659.000000	0.000828
3658.000000	0.000817
3657.000000	0.000826
3656.000000	0.000862
3655.000000	0.000896
3654.000000	0.000897
3653.000000	0.000861
3652.000000	0.000817
3651.000000	0.000790
3650.000000	0.000778
3649.000000	0.000773
3648.000000	0.000805
3647.000000	0.000891
3646.000000	0.001003
3645.000000	0.001109
3644.000000	0.001195
3643.000000	0.001260
3642.000000	0.001309
3641.000000	0.001336
3640.000000	0.001343
3639.000000	0.001343
3638.000000	0.001346
3637.000000	0.001349
3636.000000	0.001346
3635.000000	0.001338
3634.000000	0.001333
3633.000000	0.001332
3632.000000	0.001327
3631.000000	0.001326
3630.000000	0.001350
3629.000000	0.001408
3628.000000	0.001469
3627.000000	0.001505
3626.000000	0.001521
3625.000000	0.001541
3624.000000	0.001585
3623.000000	0.001645
3622.000000	0.001699
3621.000000	0.001727
3620.000000	0.001734
3619.000000	0.001733
3618.000000	0.001741
3617.000000	0.001768
3616.000000	0.001808
3615.000000	0.001852
3614.000000	0.001892
3613.000000	0.001913
3612.000000	0.001905
3611.000000	0.001886
3610.000000	0.001890
3609.000000	0.001948
3608.000000	0.002052
3607.000000	0.002152
3606.000000	0.002216
3605.000000	0.002244
3604.000000	0.002261
3603.000000	0.002285
3602.000000	0.002329
3601.000000	0.002396
3600.000000	0.002479
3599.000000	0.002562
3598.000000	0.002635
3597.000000	0.002701
3596.000000	0.002766
3595.000000	0.002831
3594.000000	0.002880
3593.000000	0.002903
3592.000000	0.002904
3591.000000	0.002897
3590.000000	0.002903
3589.000000	0.002939
3588.000000	0.003000
3587.000000	0.003067
3586.000000	0.003125
3585.000000	0.003176
3584.000000	0.003229
3583.000000	0.003294
3582.000000	0.003369
3581.000000	0.003445
3580.000000	0.003516
3579.000000	0.003580
3578.000000	0.003643
3577.000000	0.003708
3576.000000	0.003768
3575.000000	0.003818
3574.000000	0.003861
3573.000000	0.003903
3572.000000	0.003948
3571.000000	0.003992
3570.000000	0.004036
3569.000000	0.004089
3568.000000	0.004168
3567.000000	0.004277
3566.000000	0.004394
3565.000000	0.004481
3564.000000	0.004528
3563.000000	0.004550
3562.000000	0.004577
3561.000000	0.004627
3560.000000	0.004693
3559.000000	0.004760
3558.000000	0.004819
3557.000000	0.004870
3556.000000	0.004917
3555.000000	0.004966
3554.000000	0.005025
3553.000000	0.005098
3552.000000	0.005181
3551.000000	0.005256
3550.000000	0.005312
3549.000000	0.005351
3548.000000	0.005388
3547.000000	0.005439
3546.000000	0.005510
3545.000000	0.005595
3544.000000	0.005680
3543.000000	0.005752
3542.000000	0.005808
3541.000000	0.005849
3540.000000	0.005886
3539.000000	0.005932
3538.000000	0.006000
3537.000000	0.006088
3536.000000	0.006183
3535.000000	0.006267
3534.000000	0.006330
3533.000000	0.006377
3532.000000	0.006414
3531.000000	0.006447
3530.000000	0.006475
3529.000000	0.006500
3528.000000	0.006527
3527.000000	0.006565
3526.000000	0.006619
3525.000000	0.006693
3524.000000	0.006783
3523.000000	0.006873
3522.000000	0.006948
3521.000000	0.006998
3520.000000	0.007030
3519.000000	0.007056
3518.000000	0.007087
3517.000000	0.007125
3516.000000	0.007164
3515.000000	0.007200
3514.000000	0.007230
3513.000000	0.007259
3512.000000	0.007292
3511.000000	0.007339
3510.000000	0.007398
3509.000000	0.007461
3508.000000	0.007514
3507.000000	0.007547
3506.000000	0.007562
3505.000000	0.007571
3504.000000	0.007592
3503.000000	0.007640
3502.000000	0.007712
3501.000000	0.007792
3500.000000	0.007869
3499.000000	0.007941
3498.000000	0.008014
3497.000000	0.008084
3496.000000	0.008145
3495.000000	0.008188
3494.000000	0.008218
3493.000000	0.008242
3492.000000	0.008274
3491.000000	0.008319
3490.000000	0.008378
3489.000000	0.008441
3488.000000	0.008494
3487.000000	0.008526
3486.000000	0.008539
3485.000000	0.008546
3484.000000	0.008566
3483.000000	0.008608
3482.000000	0.008668
3481.000000	0.008726
3480.000000	0.008773
3479.000000	0.008810
3478.000000	0.008848
3477.000000	0.008894
3476.000000	0.008947
3475.000000	0.009006
3474.000000	0.009069
3473.000000	0.009136
3472.000000	0.009196
3471.000000	0.009241
3470.000000	0.009266
3469.000000	0.009276
3468.000000	0.009286
3467.000000	0.009306
3466.000000	0.009339
3465.000000	0.009386
3464.000000	0.009442
3463.000000	0.009503
3462.000000	0.009560
3461.000000	0.009606
3460.000000	0.009640
3459.000000	0.009674
3458.000000	0.009720
3457.000000	0.009782
3456.000000	0.009845
3455.000000	0.009894
3454.000000	0.009923
3453.000000	0.009943
3452.000000	0.009969
3451.000000	0.010012
3450.000000	0.010068
3449.000000	0.010128
3448.000000	0.010183
3447.000000	0.010227
3446.000000	0.010259
3445.000000	0.010284
3444.000000	0.010315
3443.000000	0.010363
3442.000000	0.010426
3441.000000	0.010492
3440.000000	0.010546
3439.000000	0.010588
3438.000000	0.010625
3437.000000	0.010661
3436.000000	0.010695
3435.000000	0.010728
3434.000000	0.010763
3433.000000	0.010804
3432.000000	0.010851
3431.000000	0.010901
3430.000000	0.010949
3429.000000	0.010988
3428.000000	0.011015
3427.000000	0.011034
3426.000000	0.011051
3425.000000	0.011067
3424.000000	0.011083
3423.000000	0.011107
3422.000000	0.011155
3421.000000	0.011234
3420.000000	0.011331
3419.000000	0.011417
3418.000000	0.011476
3417.000000	0.011511
3416.000000	0.011538
3415.000000	0.011571
3414.000000	0.011611
3413.000000	0.011650
3412.000000	0.011682
3411.000000	0.011712
3410.000000	0.011744
3409.000000	0.011783
3408.000000	0.011830
3407.000000	0.011887
3406.000000	0.011954
3405.000000	0.012018
3404.000000	0.012060
3403.000000	0.012073
3402.000000	0.012069
3401.000000	0.012069
3400.000000	0.012089
3399.000000	0.012136
3398.000000	0.012198
3397.000000	0.012255
3396.000000	0.012296
3395.000000	0.012326
3394.000000	0.012357
3393.000000	0.012390
3392.000000	0.012410
3391.000000	0.012410
3390.000000	0.012404
3389.000000	0.012416
3388.000000	0.012456
3387.000000	0.012515
3386.000000	0.012572
3385.000000	0.012617
3384.000000	0.012651
3383.000000	0.012683
3382.000000	0.012717
3381.000000	0.012749
3380.000000	0.012770
3379.000000	0.012784
3378.000000	0.012802
3377.000000	0.012831
3376.000000	0.012866
3375.000000	0.012899
3374.000000	0.012934
3373.000000	0.012975
3372.000000	0.013015
3371.000000	0.013036
3370.000000	0.013030
3369.000000	0.013009
3368.000000	0.012999
3367.000000	0.013017
3366.000000	0.013059
3365.000000	0.013108
3364.000000	0.013145
3363.000000	0.013169
3362.000000	0.013189
3361.000000	0.013213
3360.000000	0.013243
3359.000000	0.013272
3358.000000	0.013293
3357.000000	0.013314
3356.000000	0.013344
3355.000000	0.013386
3354.000000	0.013428
3353.000000	0.013455
3352.000000	0.013461
3351.000000	0.013454
3350.000000	0.013449
3349.000000	0.013459
3348.000000	0.013484
3347.000000	0.013516
3346.000000	0.013544
3345.000000	0.013564
3344.000000	0.013584
3343.000000	0.013610
3342.000000	0.013641
3341.000000	0.013664
3340.000000	0.013673
3339.000000	0.013672
3338.000000	0.013678
3337.000000	0.013699
3336.000000	0.013732
3335.000000	0.013767
3334.000000	0.013799
3333.000000	0.013828
3332.000000	0.013850
3331.000000	0.013859
3330.000000	0.013857
3329.000000	0.013849
3328.000000	0.013844
3327.000000	0.013845
3326.000000	0.013854
3325.000000	0.013867
3324.000000	0.013887
3323.000000	0.013913
3322.000000	0.013944
3321.000000	0.013976
3320.000000	0.014008
3319.000000	0.014039
3318.000000	0.014066
3317.000000	0.014084
3316.000000	0.014093
3315.000000	0.014099
3314.000000	0.014110
3313.000000	0.014124
3312.000000	0.014130
3311.000000	0.014125
3310.000000	0.014117
3309.000000	0.014116
3308.000000	0.014125
3307.000000	0.014139
3306.000000	0.014155
3305.000000	0.014172
3304.000000	0.014187
3303.000000	0.014195
3302.000000	0.014193
3301.000000	0.014185
3300.000000	0.014180
3299.000000	0.014183
3298.000000	0.014192
3297.000000	0.014200
3296.000000	0.014199
3295.000000	0.014186
3294.000000	0.014168
3293.000000	0.014156
3292.000000	0.014160
3291.000000	0.014184
3290.000000	0.014216
3289.000000	0.014242
3288.000000	0.014255
3287.000000	0.014261
3286.000000	0.014269
3285.000000	0.014279
3284.000000	0.014286
3283.000000	0.014285
3282.000000	0.014273
3281.000000	0.014252
3280.000000	0.014225
3279.000000	0.014193
3278.000000	0.014156
3277.000000	0.014119
3276.000000	0.014088
3275.000000	0.014063
3274.000000	0.014044
3273.000000	0.014028
3272.000000	0.014018
3271.000000	0.014021
3270.000000	0.014037
3269.000000	0.014055
3268.000000	0.014068
3267.000000	0.014073
3266.000000	0.014077
3265.000000	0.014078
3264.000000	0.014071
3263.000000	0.014057
3262.000000	0.014038
3261.000000	0.014017
3260.000000	0.013993
3259.000000	0.013965
3258.000000	0.013938
3257.000000	0.013916
3256.000000	0.013900
3255.000000	0.013888
3254.000000	0.013877
3253.000000	0.013864
3252.000000	0.013847
3251.000000	0.013825
3250.000000	0.013800
3249.000000	0.013776
3248.000000	0.013757
3247.000000	0.013743
3246.000000	0.013730
3245.000000	0.013714
3244.000000	0.013695
3243.000000	0.013675
3242.000000	0.013654
3241.000000	0.013623
3240.000000	0.013575
3239.000000	0.013520
3238.000000	0.013474
3237.000000	0.013446
3236.000000	0.013429
3235.000000	0.013414
3234.000000	0.013399
3233.000000	0.013392
3232.000000	0.013393
3231.000000	0.013389
3230.000000	0.013372
3229.000000	0.013338
3228.000000	0.013298
3227.000000	0.013263
3226.000000	0.013238
3225.000000	0.013221
3224.000000	0.013203
3223.000000	0.013177
3222.000000	0.013148
3221.000000	0.013127
3220.000000	0.013120
3219.000000	0.013122
3218.000000	0.013117
3217.000000	0.013089
3216.000000	0.013038
3215.000000	0.012979
3214.000000	0.012934
3213.000000	0.012912
3212.000000	0.012905
3211.000000	0.012900
3210.000000	0.012891
3209.000000	0.012878
3208.000000	0.012861
3207.000000	0.012841
3206.000000	0.012814
3205.000000	0.012785
3204.000000	0.012761
3203.000000	0.012746
3202.000000	0.012732
3201.000000	0.012704
3200.000000	0.012651
3199.000000	0.012584
3198.000000	0.012520
3197.000000	0.012472
3196.000000	0.012441
3195.000000	0.012422
3194.000000	0.012413
3193.000000	0.012411
3192.000000	0.012401
3191.000000	0.012373
3190.000000	0.012328
3189.000000	0.012279
3188.000000	0.012235
3187.000000	0.012197
3186.000000	0.012162
3185.000000	0.012129
3184.000000	0.012105
3183.000000	0.012091
3182.000000	0.012078
3181.000000	0.012053
3180.000000	0.012015
3179.000000	0.011967
3178.000000	0.011917
3177.000000	0.011869
3176.000000	0.011820
3175.000000	0.011773
3174.000000	0.011730
3173.000000	0.011693
3172.000000	0.011657
3171.000000	0.011623
3170.000000	0.011594
3169.000000	0.011571
3168.000000	0.011547
3167.000000	0.011516
3166.000000	0.011481
3165.000000	0.011449
3164.000000	0.011424
3163.000000	0.011401
3162.000000	0.011376
3161.000000	0.011346
3160.000000	0.011313
3159.000000	0.011275
3158.000000	0.011233
3157.000000	0.011190
3156.000000	0.011148
3155.000000	0.011110
3154.000000	0.011072
3153.000000	0.011032
3152.000000	0.010987
3151.000000	0.010935
3150.000000	0.010879
3149.000000	0.010829
3148.000000	0.010793
3147.000000	0.010772
3146.000000	0.010757
3145.000000	0.010731
3144.000000	0.010685
3143.000000	0.010625
3142.000000	0.010565
3141.000000	0.010518
3140.000000	0.010487
3139.000000	0.010463
3138.000000	0.010434
3137.000000	0.010392
3136.000000	0.010339
3135.000000	0.010287
3134.000000	0.010248
3133.000000	0.010227
3132.000000	0.010217
3131.000000	0.010205
3130.000000	0.010184
3129.000000	0.010155
3128.000000	0.010125
3127.000000	0.010094
3126.000000	0.010059
3125.000000	0.010014
3124.000000	0.009960
3123.000000	0.009905
3122.000000	0.009858
3121.000000	0.009826
3120.000000	0.009805
3119.000000	0.009786
3118.000000	0.009765
3117.000000	0.009740
3116.000000	0.009715
3115.000000	0.009694
3114.000000	0.009677
3113.000000	0.009658
3112.000000	0.009632
3111.000000	0.009602
3110.000000	0.009574
3109.000000	0.009554
3108.000000	0.009534
3107.000000	0.009504
3106.000000	0.009460
3105.000000	0.009413
3104.000000	0.009371
3103.000000	0.009336
3102.000000	0.009307
3101.000000	0.009285
3100.000000	0.009274
3099.000000	0.009268
3098.000000	0.009254
3097.000000	0.009223
3096.000000	0.009177
3095.000000	0.009125
3094.000000	0.009081
3093.000000	0.009052
3092.000000	0.009036
3091.000000	0.009026
3090.000000	0.009014
3089.000000	0.008993
3088.000000	0.008964
3087.000000	0.008929
3086.000000	0.008895
3085.000000	0.008861
3084.000000	0.008828
3083.000000	0.008793
3082.000000	0.008758
3081.000000	0.008724
3080.000000	0.008691
3079.000000	0.008662
3078.000000	0.008643
3077.000000	0.008636
3076.000000	0.008636
3075.000000	0.008631
3074.000000	0.008612
3073.000000	0.008579
3072.000000	0.008540
3071.000000	0.008506
3070.000000	0.008483
3069.000000	0.008473
3068.000000	0.008471
3067.000000	0.008464
3066.000000	0.008440
3065.000000	0.008400
3064.000000	0.008351
3063.000000	0.008306
3062.000000	0.008266
3061.000000	0.008233
3060.000000	0.008205
3059.000000	0.008179
3058.000000	0.008152
3057.000000	0.008118
3056.000000	0.008076
3055.000000	0.008037
3054.000000	0.008011
3053.000000	0.007998
3052.000000	0.007983
3051.000000	0.007955
3050.000000	0.007913
3049.000000	0.007870
3048.000000	0.007833
3047.000000	0.007802
3046.000000	0.007775
3045.000000	0.007749
3044.000000	0.007720
3043.000000	0.007686
3042.000000	0.007648
3041.000000	0.007617
3040.000000	0.007602
3039.000000	0.007600
3038.000000	0.007597
3037.000000	0.007577
3036.000000	0.007540
3035.000000	0.007497
3034.000000	0.007466
3033.000000	0.007459
3032.000000	0.007479
3031.000000	0.007511
3030.000000	0.007528
3029.000000	0.007510
3028.000000	0.007460
3027.000000	0.007403
3026.000000	0.007366
3025.000000	0.007355
3024.000000	0.007355
3023.000000	0.007342
3022.000000	0.007303
3021.000000	0.007244
3020.000000	0.007186
3019.000000	0.007150
3018.000000	0.007142
3017.000000	0.007154
3016.000000	0.007174
3015.000000	0.007195
3014.000000	0.007210
3013.000000	0.007213
3012.000000	0.007200
3011.000000	0.007179
3010.000000	0.007161
3009.000000	0.007157
3008.000000	0.007166
3007.000000	0.007179
3006.000000	0.007187
3005.000000	0.007187
3004.000000	0.007180
3003.000000	0.007171
3002.000000	0.007161
3001.000000	0.007154
3000.000000	0.007154
2999.000000	0.007165
2998.000000	0.007185
2997.000000	0.007211
2996.000000	0.007237
2995.000000	0.007268
2994.000000	0.007307
2993.000000	0.007357
2992.000000	0.007411
2991.000000	0.007464
2990.000000	0.007514
2989.000000	0.007559
2988.000000	0.007596
2987.000000	0.007619
2986.000000	0.007629
2985.000000	0.007637
2984.000000	0.007657
2983.000000	0.007694
2982.000000	0.007744
2981.000000	0.007791
2980.000000	0.007826
2979.000000	0.007860
2978.000000	0.007912
2977.000000	0.007996
2976.000000	0.008101
2975.000000	0.008212
2974.000000	0.008322
2973.000000	0.008434
2972.000000	0.008550
2971.000000	0.008662
2970.000000	0.008760
2969.000000	0.008843
2968.000000	0.008916
2967.000000	0.008991
2966.000000	0.009073
2965.000000	0.009168
2964.000000	0.009276
2963.000000	0.009393
2962.000000	0.009509
2961.000000	0.009616
2960.000000	0.009707
2959.000000	0.009783
2958.000000	0.009852
2957.000000	0.009922
2956.000000	0.009996
2955.000000	0.010070
2954.000000	0.010137
2953.000000	0.010197
2952.000000	0.010252
2951.000000	0.010307
2950.000000	0.010363
2949.000000	0.010417
2948.000000	0.010464
2947.000000	0.010504
2946.000000	0.010541
2945.000000	0.010585
2944.000000	0.010646
2943.000000	0.010727
2942.000000	0.010825
2941.000000	0.010928
2940.000000	0.011030
2939.000000	0.011130
2938.000000	0.011235
2937.000000	0.011348
2936.000000	0.011460
2935.000000	0.011568
2934.000000	0.011672
2933.000000	0.011783
2932.000000	0.011904
2931.000000	0.012029
2930.000000	0.012146
2929.000000	0.012247
2928.000000	0.012333
2927.000000	0.012406
2926.000000	0.012473
2925.000000	0.012539
2924.000000	0.012600
2923.000000	0.012645
2922.000000	0.012664
2921.000000	0.012650
2920.000000	0.012605
2919.000000	0.012536
2918.000000	0.012450
2917.000000	0.012350
2916.000000	0.012241
2915.000000	0.012122
2914.000000	0.011995
2913.000000	0.011865
2912.000000	0.011740
2911.000000	0.011622
2910.000000	0.011513
2909.000000	0.011410
2908.000000	0.011319
2907.000000	0.011239
2906.000000	0.011165
2905.000000	0.011094
2904.000000	0.011028
2903.000000	0.010970
2902.000000	0.010915
2901.000000	0.010853
2900.000000	0.010779
2899.000000	0.010701
2898.000000	0.010626
2897.000000	0.010553
2896.000000	0.010476
2895.000000	0.010393
2894.000000	0.010308
2893.000000	0.010231
2892.000000	0.010167
2891.000000	0.010119
2890.000000	0.010083
2889.000000	0.010049
2888.000000	0.010007
2887.000000	0.009958
2886.000000	0.009911
2885.000000	0.009875
2884.000000	0.009850
2883.000000	0.009833
2882.000000	0.009824
2881.000000	0.009825
2880.000000	0.009836
2879.000000	0.009852
2878.000000	0.009864
2877.000000	0.009867
2876.000000	0.009861
2875.000000	0.009851
2874.000000	0.009844
2873.000000	0.009838
2872.000000	0.009828
2871.000000	0.009810
2870.000000	0.009785
2869.000000	0.009762
2868.000000	0.009745
2867.000000	0.009730
2866.000000	0.009708
2865.000000	0.009680
2864.000000	0.009656
2863.000000	0.009645
2862.000000	0.009645
2861.000000	0.009645
2860.000000	0.009647
2859.000000	0.009665
2858.000000	0.009707
2857.000000	0.009761
2856.000000	0.009805
2855.000000	0.009827
2854.000000	0.009829
2853.000000	0.009816
2852.000000	0.009783
2851.000000	0.009724
2850.000000	0.009642
2849.000000	0.009546
2848.000000	0.009442
2847.000000	0.009334
2846.000000	0.009216
2845.000000	0.009084
2844.000000	0.008940
2843.000000	0.008795
2842.000000	0.008660
2841.000000	0.008540
2840.000000	0.008431
2839.000000	0.008333
2838.000000	0.008241
2837.000000	0.008154
2836.000000	0.008069
2835.000000	0.007993
2834.000000	0.007932
2833.000000	0.007886
2832.000000	0.007848
2831.000000	0.007809
2830.000000	0.007765
2829.000000	0.007715
2828.000000	0.007655
2827.000000	0.007586
2826.000000	0.007520
2825.000000	0.007468
2824.000000	0.007428
2823.000000	0.007387
2822.000000	0.007337
2821.000000	0.007285
2820.000000	0.007244
2819.000000	0.007222
2818.000000	0.007214
2817.000000	0.007205
2816.000000	0.007189
2815.000000	0.007165
2814.000000	0.007138
2813.000000	0.007108
2812.000000	0.007073
2811.000000	0.007031
2810.000000	0.006986
2809.000000	0.006949
2808.000000	0.006926
2807.000000	0.006914
2806.000000	0.006899
2805.000000	0.006870
2804.000000	0.006831
2803.000000	0.006796
2802.000000	0.006774
2801.000000	0.006758
2800.000000	0.006742
2799.000000	0.006729
2798.000000	0.006726
2797.000000	0.006732
2796.000000	0.006737
2795.000000	0.006730
2794.000000	0.006714
2793.000000	0.006692
2792.000000	0.006667
2791.000000	0.006637
2790.000000	0.006601
2789.000000	0.006566
2788.000000	0.006541
2787.000000	0.006535
2786.000000	0.006545
2785.000000	0.006559
2784.000000	0.006566
2783.000000	0.006562
2782.000000	0.006548
2781.000000	0.006523
2780.000000	0.006482
2779.000000	0.006432
2778.000000	0.006386
2777.000000	0.006353
2776.000000	0.006338
2775.000000	0.006338
2774.000000	0.006347
2773.000000	0.006351
2772.000000	0.006338
2771.000000	0.006307
2770.000000	0.006273
2769.000000	0.006250
2768.000000	0.006237
2767.000000	0.006229
2766.000000	0.006223
2765.000000	0.006220
2764.000000	0.006220
2763.000000	0.006220
2762.000000	0.006223
2761.000000	0.006234
2760.000000	0.006247
2759.000000	0.006252
2758.000000	0.006241
2757.000000	0.006217
2756.000000	0.006188
2755.000000	0.006164
2754.000000	0.006151
2753.000000	0.006152
2752.000000	0.006163
2751.000000	0.006179
2750.000000	0.006191
2749.000000	0.006192
2748.000000	0.006173
2747.000000	0.006133
2746.000000	0.006085
2745.000000	0.006047
2744.000000	0.006031
2743.000000	0.006033
2742.000000	0.006043
2741.000000	0.006049
2740.000000	0.006049
2739.000000	0.006044
2738.000000	0.006040
2737.000000	0.006034
2736.000000	0.006025
2735.000000	0.006015
2734.000000	0.006009
2733.000000	0.006014
2732.000000	0.006026
2731.000000	0.006041
2730.000000	0.006049
2729.000000	0.006044
2728.000000	0.006023
2727.000000	0.005988
2726.000000	0.005953
2725.000000	0.005929
2724.000000	0.005920
2723.000000	0.005921
2722.000000	0.005927
2721.000000	0.005933
2720.000000	0.005936
2719.000000	0.005930
2718.000000	0.005912
2717.000000	0.005891
2716.000000	0.005878
2715.000000	0.005874
2714.000000	0.005871
2713.000000	0.005858
2712.000000	0.005830
2711.000000	0.005797
2710.000000	0.005774
2709.000000	0.005766
2708.000000	0.005766
2707.000000	0.005770
2706.000000	0.005777
2705.000000	0.005787
2704.000000	0.005793
2703.000000	0.005785
2702.000000	0.005765
2701.000000	0.005740
2700.000000	0.005718
2699.000000	0.005703
2698.000000	0.005695
2697.000000	0.005697
2696.000000	0.005705
2695.000000	0.005711
2694.000000	0.005712
2693.000000	0.005708
2692.000000	0.005702
2691.000000	0.005697
2690.000000	0.005691
2689.000000	0.005680
2688.000000	0.005663
2687.000000	0.005649
2686.000000	0.005648
2685.000000	0.005664
2684.000000	0.005687
2683.000000	0.005704
2682.000000	0.005709
2681.000000	0.005702
2680.000000	0.005686
2679.000000	0.005660
2678.000000	0.005631
2677.000000	0.005608
2676.000000	0.005594
2675.000000	0.005586
2674.000000	0.005577
2673.000000	0.005567
2672.000000	0.005560
2671.000000	0.005562
2670.000000	0.005569
2669.000000	0.005575
2668.000000	0.005575
2667.000000	0.005573
2666.000000	0.005575
2665.000000	0.005578
2664.000000	0.005577
2663.000000	0.005570
2662.000000	0.005560
2661.000000	0.005555
2660.000000	0.005554
2659.000000	0.005552
2658.000000	0.005543
2657.000000	0.005528
2656.000000	0.005505
2655.000000	0.005480
2654.000000	0.005458
2653.000000	0.005443
2652.000000	0.005429
2651.000000	0.005406
2650.000000	0.005369
2649.000000	0.005324
2648.000000	0.005286
2647.000000	0.005265
2646.000000	0.005258
2645.000000	0.005254
2644.000000	0.005244
2643.000000	0.005225
2642.000000	0.005201
2641.000000	0.005181
2640.000000	0.005168
2639.000000	0.005160
2638.000000	0.005154
2637.000000	0.005144
2636.000000	0.005129
2635.000000	0.005109
2634.000000	0.005083
2633.000000	0.005055
2632.000000	0.005025
2631.000000	0.004993
2630.000000	0.004962
2629.000000	0.004936
2628.000000	0.004914
2627.000000	0.004894
2626.000000	0.004872
2625.000000	0.004851
2624.000000	0.004835
2623.000000	0.004831
2622.000000	0.004838
2621.000000	0.004852
2620.000000	0.004861
2619.000000	0.004856
2618.000000	0.004833
2617.000000	0.004795
2616.000000	0.004754
2615.000000	0.004723
2614.000000	0.004708
2613.000000	0.004697
2612.000000	0.004673
2611.000000	0.004634
2610.000000	0.004600
2609.000000	0.004589
2608.000000	0.004596
2607.000000	0.004600
2606.000000	0.004588
2605.000000	0.004564
2604.000000	0.004544
2603.000000	0.004535
2602.000000	0.004534
2601.000000	0.004536
2600.000000	0.004536
2599.000000	0.004537
2598.000000	0.004545
2597.000000	0.004557
2596.000000	0.004563
2595.000000	0.004553
2594.000000	0.004532
2593.000000	0.004510
2592.000000	0.004486
2591.000000	0.004452
2590.000000	0.004406
2589.000000	0.004356
2588.000000	0.004315
2587.000000	0.004287
2586.000000	0.004274
2585.000000	0.004277
2584.000000	0.004294
2583.000000	0.004327
2582.000000	0.004373
2581.000000	0.004420
2580.000000	0.004449
2579.000000	0.004447
2578.000000	0.004421
2577.000000	0.004387
2576.000000	0.004352
2575.000000	0.004307
2574.000000	0.004253
2573.000000	0.004211
2572.000000	0.004207
2571.000000	0.004243
2570.000000	0.004292
2569.000000	0.004318
2568.000000	0.004306
2567.000000	0.004270
2566.000000	0.004237
2565.000000	0.004228
2564.000000	0.004238
2563.000000	0.004253
2562.000000	0.004258
2561.000000	0.004247
2560.000000	0.004221
2559.000000	0.004187
2558.000000	0.004158
2557.000000	0.004138
2556.000000	0.004125
2555.000000	0.004115
2554.000000	0.004114
2553.000000	0.004135
2552.000000	0.004174
2551.000000	0.004219
2550.000000	0.004254
2549.000000	0.004271
2548.000000	0.004265
2547.000000	0.004237
2546.000000	0.004198
2545.000000	0.004166
2544.000000	0.004154
2543.000000	0.004166
2542.000000	0.004205
2541.000000	0.004260
2540.000000	0.004303
2539.000000	0.004305
2538.000000	0.004257
2537.000000	0.004187
2536.000000	0.004131
2535.000000	0.004108
2534.000000	0.004109
2533.000000	0.004112
2532.000000	0.004102
2531.000000	0.004074
2530.000000	0.004037
2529.000000	0.004005
2528.000000	0.003992
2527.000000	0.003998
2526.000000	0.004017
2525.000000	0.004034
2524.000000	0.004038
2523.000000	0.004026
2522.000000	0.004007
2521.000000	0.003993
2520.000000	0.003982
2519.000000	0.003975
2518.000000	0.003977
2517.000000	0.003999
2516.000000	0.004037
2515.000000	0.004069
2514.000000	0.004076
2513.000000	0.004058
2512.000000	0.004027
2511.000000	0.003995
2510.000000	0.003965
2509.000000	0.003941
2508.000000	0.003926
2507.000000	0.003927
2506.000000	0.003957
2505.000000	0.004026
2504.000000	0.004124
2503.000000	0.004213
2502.000000	0.004249
2501.000000	0.004212
2500.000000	0.004123
2499.000000	0.004019
2498.000000	0.003929
2497.000000	0.003864
2496.000000	0.003827
2495.000000	0.003820
2494.000000	0.003840
2493.000000	0.003880
2492.000000	0.003922
2491.000000	0.003951
2490.000000	0.003951
2489.000000	0.003918
2488.000000	0.003862
2487.000000	0.003805
2486.000000	0.003764
2485.000000	0.003741
2484.000000	0.003723
2483.000000	0.003710
2482.000000	0.003716
2481.000000	0.003749
2480.000000	0.003794
2479.000000	0.003831
2478.000000	0.003855
2477.000000	0.003875
2476.000000	0.003892
2475.000000	0.003898
2474.000000	0.003881
2473.000000	0.003844
2472.000000	0.003805
2471.000000	0.003788
2470.000000	0.003805
2469.000000	0.003842
2468.000000	0.003875
2467.000000	0.003890
2466.000000	0.003896
2465.000000	0.003901
2464.000000	0.003901
2463.000000	0.003888
2462.000000	0.003874
2461.000000	0.003874
2460.000000	0.003888
2459.000000	0.003903
2458.000000	0.003915
2457.000000	0.003934
2456.000000	0.003960
2455.000000	0.003973
2454.000000	0.003956
2453.000000	0.003917
2452.000000	0.003877
2451.000000	0.003852
2450.000000	0.003843
2449.000000	0.003839
2448.000000	0.003832
2447.000000	0.003821
2446.000000	0.003809
2445.000000	0.003803
2444.000000	0.003798
2443.000000	0.003786
2442.000000	0.003769
2441.000000	0.003755
2440.000000	0.003753
2439.000000	0.003757
2438.000000	0.003752
2437.000000	0.003732
2436.000000	0.003709
2435.000000	0.003704
2434.000000	0.003732
2433.000000	0.003777
2432.000000	0.003808
2431.000000	0.003806
2430.000000	0.003787
2429.000000	0.003779
2428.000000	0.003785
2427.000000	0.003788
2426.000000	0.003780
2425.000000	0.003771
2424.000000	0.003773
2423.000000	0.003778
2422.000000	0.003774
2421.000000	0.003757
2420.000000	0.003737
2419.000000	0.003724
2418.000000	0.003717
2417.000000	0.003709
2416.000000	0.003695
2415.000000	0.003686
2414.000000	0.003691
2413.000000	0.003714
2412.000000	0.003747
2411.000000	0.003782
2410.000000	0.003807
2409.000000	0.003807
2408.000000	0.003774
2407.000000	0.003722
2406.000000	0.003676
2405.000000	0.003649
2404.000000	0.003633
2403.000000	0.003610
2402.000000	0.003578
2401.000000	0.003552
2400.000000	0.003540
2399.000000	0.003545
2398.000000	0.003567
2397.000000	0.003605
2396.000000	0.003650
2395.000000	0.003688
2394.000000	0.003712
2393.000000	0.003722
2392.000000	0.003722
2391.000000	0.003711
2390.000000	0.003693
2389.000000	0.003670
2388.000000	0.003639
2387.000000	0.003605
2386.000000	0.003578
2385.000000	0.003561
2384.000000	0.003537
2383.000000	0.003491
2382.000000	0.003431
2381.000000	0.003382
2380.000000	0.003356
2379.000000	0.003348
2378.000000	0.003345
2377.000000	0.003352
2376.000000	0.003375
2375.000000	0.003410
2374.000000	0.003443
2373.000000	0.003457
2372.000000	0.003458
2371.000000	0.003469
2370.000000	0.003508
2369.000000	0.003552
2368.000000	0.003563
2367.000000	0.003533
2366.000000	0.003496
2365.000000	0.003487
2364.000000	0.003508
2363.000000	0.003538
2362.000000	0.003561
2361.000000	0.003574
2360.000000	0.003574
2359.000000	0.003567
2358.000000	0.003567
2357.000000	0.003565
2356.000000	0.003576
2355.000000	0.003599
2354.000000	0.003605
2353.000000	0.003570
2352.000000	0.003557
2351.000000	0.003647
2350.000000	0.003809
2349.000000	0.003949
2348.000000	0.003976
2347.000000	0.003868
2346.000000	0.003713
2345.000000	0.003641
2344.000000	0.003687
2343.000000	0.003741
2342.000000	0.003744
2341.000000	0.003715
2340.000000	0.003696
2339.000000	0.003693
2338.000000	0.003691
2337.000000	0.003700
2336.000000	0.003739
2335.000000	0.003802
2334.000000	0.003830
2333.000000	0.003794
2332.000000	0.003726
2331.000000	0.003710
2330.000000	0.003749
2329.000000	0.003817
2328.000000	0.003865
2327.000000	0.003907
2326.000000	0.003959
2325.000000	0.004022
2324.000000	0.004071
2323.000000	0.004077
2322.000000	0.004039
2321.000000	0.003991
2320.000000	0.003963
2319.000000	0.003971
2318.000000	0.003999
2317.000000	0.004037
2316.000000	0.004050
2315.000000	0.004018
2314.000000	0.003930
2313.000000	0.003832
2312.000000	0.003768
2311.000000	0.003756
2310.000000	0.003755
2309.000000	0.003729
2308.000000	0.003668
2307.000000	0.003605
2306.000000	0.003573
2305.000000	0.003589
2304.000000	0.003631
2303.000000	0.003667
2302.000000	0.003672
2301.000000	0.003656
2300.000000	0.003631
2299.000000	0.003608
2298.000000	0.003575
2297.000000	0.003533
2296.000000	0.003492
2295.000000	0.003477
2294.000000	0.003502
2293.000000	0.003569
2292.000000	0.003658
2291.000000	0.003743
2290.000000	0.003808
2289.000000	0.003852
2288.000000	0.003881
2287.000000	0.003894
2286.000000	0.003887
2285.000000	0.003864
2284.000000	0.003843
2283.000000	0.003835
2282.000000	0.003839
2281.000000	0.003836
2280.000000	0.003811
2279.000000	0.003755
2278.000000	0.003672
2277.000000	0.003577
2276.000000	0.003492
2275.000000	0.003445
2274.000000	0.003454
2273.000000	0.003501
2272.000000	0.003540
2271.000000	0.003537
2270.000000	0.003499
2269.000000	0.003465
2268.000000	0.003460
2267.000000	0.003477
2266.000000	0.003489
2265.000000	0.003475
2264.000000	0.003429
2263.000000	0.003372
2262.000000	0.003350
2261.000000	0.003391
2260.000000	0.003471
2259.000000	0.003524
2258.000000	0.003501
2257.000000	0.003406
2256.000000	0.003284
2255.000000	0.003181
2254.000000	0.003128
2253.000000	0.003137
2252.000000	0.003190
2251.000000	0.003244
2250.000000	0.003251
2249.000000	0.003201
2248.000000	0.003129
2247.000000	0.003089
2246.000000	0.003104
2245.000000	0.003142
2244.000000	0.003151
2243.000000	0.003111
2242.000000	0.003055
2241.000000	0.003027
2240.000000	0.003036
2239.000000	0.003064
2238.000000	0.003086
2237.000000	0.003084
2236.000000	0.003047
2235.000000	0.002992
2234.000000	0.002963
2233.000000	0.002987
2232.000000	0.003029
2231.000000	0.003024
2230.000000	0.002948
2229.000000	0.002825
2228.000000	0.002695
2227.000000	0.002597
2226.000000	0.002576
2225.000000	0.002659
2224.000000	0.002810
2223.000000	0.002944
2222.000000	0.003006
2221.000000	0.003013
2220.000000	0.003010
2219.000000	0.003008
2218.000000	0.002989
2217.000000	0.002932
2216.000000	0.002830
2215.000000	0.002702
2214.000000	0.002596
2213.000000	0.002564
2212.000000	0.002608
2211.000000	0.002673
2210.000000	0.002708
2209.000000	0.002707
2208.000000	0.002705
2207.000000	0.002715
2206.000000	0.002712
2205.000000	0.002654
2204.000000	0.002545
2203.000000	0.002459
2202.000000	0.002482
2201.000000	0.002624
2200.000000	0.002787
2199.000000	0.002870
2198.000000	0.002855
2197.000000	0.002790
2196.000000	0.002704
2195.000000	0.002596
2194.000000	0.002499
2193.000000	0.002485
2192.000000	0.002585
2191.000000	0.002747
2190.000000	0.002882
2189.000000	0.002940
2188.000000	0.002928
2187.000000	0.002875
2186.000000	0.002807
2185.000000	0.002732
2184.000000	0.002641
2183.000000	0.002523
2182.000000	0.002373
2181.000000	0.002211
2180.000000	0.002089
2179.000000	0.002089
2178.000000	0.002248
2177.000000	0.002487
2176.000000	0.002638
2175.000000	0.002608
2174.000000	0.002478
2173.000000	0.002401
2172.000000	0.002438
2171.000000	0.002534
2170.000000	0.002593
2169.000000	0.002551
2168.000000	0.002401
2167.000000	0.002224
2166.000000	0.002143
2165.000000	0.002210
2164.000000	0.002341
2163.000000	0.002420
2162.000000	0.002407
2161.000000	0.002284
2160.000000	0.001983
2159.000000	0.001484
2158.000000	0.000959
2157.000000	0.000651
2156.000000	0.000626
2155.000000	0.000793
2154.000000	0.001049
2153.000000	0.001294
2152.000000	0.001401
2151.000000	0.001329
2150.000000	0.001204
2149.000000	0.001182
2148.000000	0.001254
2147.000000	0.001291
2146.000000	0.001250
2145.000000	0.001231
2144.000000	0.001310
2143.000000	0.001436
2142.000000	0.001524
2141.000000	0.001555
2140.000000	0.001579
2139.000000	0.001652
2138.000000	0.001803
2137.000000	0.002000
2136.000000	0.002159
2135.000000	0.002217
2134.000000	0.002207
2133.000000	0.002204
2132.000000	0.002235
2131.000000	0.002270
2130.000000	0.002296
2129.000000	0.002322
2128.000000	0.002348
2127.000000	0.002367
2126.000000	0.002396
2125.000000	0.002459
2124.000000	0.002542
2123.000000	0.002613
2122.000000	0.002676
2121.000000	0.002767
2120.000000	0.002887
2119.000000	0.002992
2118.000000	0.003052
2117.000000	0.003078
2116.000000	0.003080
2115.000000	0.003043
2114.000000	0.002967
2113.000000	0.002879
2112.000000	0.002807
2111.000000	0.002751
2110.000000	0.002720
2109.000000	0.002749
2108.000000	0.002851
2107.000000	0.002982
2106.000000	0.003079
2105.000000	0.003102
2104.000000	0.003051
2103.000000	0.002957
2102.000000	0.002873
2101.000000	0.002845
2100.000000	0.002865
2099.000000	0.002879
2098.000000	0.002845
2097.000000	0.002765
2096.000000	0.002662
2095.000000	0.002557
2094.000000	0.002472
2093.000000	0.002428
2092.000000	0.002430
2091.000000	0.002466
2090.000000	0.002531
2089.000000	0.002614
2088.000000	0.002680
2087.000000	0.002699
2086.000000	0.002689
2085.000000	0.002692
2084.000000	0.002707
2083.000000	0.002694
2082.000000	0.002643
2081.000000	0.002599
2080.000000	0.002593
2079.000000	0.002609
2078.000000	0.002625
2077.000000	0.002630
2076.000000	0.002601
2075.000000	0.002502
2074.000000	0.002348
2073.000000	0.002226
2072.000000	0.002204
2071.000000	0.002257
2070.000000	0.002308
2069.000000	0.002312
2068.000000	0.002262
2067.000000	0.002152
2066.000000	0.001997
2065.000000	0.001860
2064.000000	0.001809
2063.000000	0.001858
2062.000000	0.001963
2061.000000	0.002069
2060.000000	0.002134
2059.000000	0.002140
2058.000000	0.002101
2057.000000	0.002038
2056.000000	0.001960
2055.000000	0.001879
2054.000000	0.001851
2053.000000	0.001930
2052.000000	0.002092
2051.000000	0.002220
2050.000000	0.002212
2049.000000	0.002076
2048.000000	0.001916
2047.000000	0.001822
2046.000000	0.001793
2045.000000	0.001754
2044.000000	0.001627
2043.000000	0.001411
2042.000000	0.001198
2041.000000	0.001072
2040.000000	0.001012
2039.000000	0.000943
2038.000000	0.000866
2037.000000	0.000834
2036.000000	0.000830
2035.000000	0.000773
2034.000000	0.000663
2033.000000	0.000604
2032.000000	0.000640
2031.000000	0.000699
2030.000000	0.000739
2029.000000	0.000817
2028.000000	0.000954
2027.000000	0.001054
2026.000000	0.001028
2025.000000	0.000930
2024.000000	0.000881
2023.000000	0.000923
2022.000000	0.000992
2021.000000	0.000983
2020.000000	0.000824
2019.000000	0.000523
2018.000000	0.000190
2017.000000	-0.000039
2016.000000	-0.000135
2015.000000	-0.000162
2014.000000	-0.000143
2013.000000	-0.000024
2012.000000	0.000212
2011.000000	0.000477
2010.000000	0.000646
2009.000000	0.000649
2008.000000	0.000503
2007.000000	0.000318
2006.000000	0.000231
2005.000000	0.000264
2004.000000	0.000303
2003.000000	0.000270
2002.000000	0.000264
2001.000000	0.000432
2000.000000	0.000741
1999.000000	0.001001
1998.000000	0.001079
1997.000000	0.001012
1996.000000	0.000894
1995.000000	0.000776
1994.000000	0.000692
1993.000000	0.000673
1992.000000	0.000686
1991.000000	0.000657
1990.000000	0.000585
1989.000000	0.000566
1988.000000	0.000659
1987.000000	0.000806
1986.000000	0.000919
1985.000000	0.000972
1984.000000	0.001005
1983.000000	0.001072
1982.000000	0.001208
1981.000000	0.001364
1980.000000	0.001384
1979.000000	0.001152
1978.000000	0.000775
1977.000000	0.000512
1976.000000	0.000450
1975.000000	0.000403
1974.000000	0.000207
1973.000000	-0.000043
1972.000000	-0.000147
1971.000000	-0.000052
1970.000000	0.000127
1969.000000	0.000251
1968.000000	0.000265
1967.000000	0.000192
1966.000000	0.000099
1965.000000	0.000044
1964.000000	0.000036
1963.000000	0.000054
1962.000000	0.000089
1961.000000	0.000140
1960.000000	0.000189
1959.000000	0.000223
1958.000000	0.000262
1957.000000	0.000330
1956.000000	0.000413
1955.000000	0.000488
1954.000000	0.000567
1953.000000	0.000665
1952.000000	0.000750
1951.000000	0.000783
1950.000000	0.000792
1949.000000	0.000834
1948.000000	0.000912
1947.000000	0.000981
1946.000000	0.001015
1945.000000	0.001019
1944.000000	0.000995
1943.000000	0.000954
1942.000000	0.000955
1941.000000	0.001047
1940.000000	0.001185
1939.000000	0.001269
1938.000000	0.001254
1937.000000	0.001173
1936.000000	0.001084
1935.000000	0.001023
1934.000000	0.001010
1933.000000	0.001049
1932.000000	0.001113
1931.000000	0.001157
1930.000000	0.001171
1929.000000	0.001161
1928.000000	0.001113
1927.000000	0.001027
1926.000000	0.000957
1925.000000	0.000970
1924.000000	0.001063
1923.000000	0.001165
1922.000000	0.001224
1921.000000	0.001232
1920.000000	0.001193
1919.000000	0.001127
1918.000000	0.001113
1917.000000	0.001219
1916.000000	0.001377
1915.000000	0.001460
1914.000000	0.001437
1913.000000	0.001391
1912.000000	0.001386
1911.000000	0.001394
1910.000000	0.001361
1909.000000	0.001279
1908.000000	0.001172
1907.000000	0.001053
1906.000000	0.000946
1905.000000	0.000900
1904.000000	0.000939
1903.000000	0.001031
1902.000000	0.001136
1901.000000	0.001225
1900.000000	0.001279
1899.000000	0.001287
1898.000000	0.001266
1897.000000	0.001247
1896.000000	0.001230
1895.000000	0.001195
1894.000000	0.001144
1893.000000	0.001103
1892.000000	0.001065
1891.000000	0.001006
1890.000000	0.000942
1889.000000	0.000922
1888.000000	0.000957
1887.000000	0.001014
1886.000000	0.001072
1885.000000	0.001126
1884.000000	0.001155
1883.000000	0.001138
1882.000000	0.001099
1881.000000	0.001082
1880.000000	0.001083
1879.000000	0.001065
1878.000000	0.001026
1877.000000	0.001004
1876.000000	0.001005
1875.000000	0.000996
1874.000000	0.000968
1873.000000	0.000951
1872.000000	0.000959
1871.000000	0.000964
1870.000000	0.000948
1869.000000	0.000934
1868.000000	0.000928
1867.000000	0.000895
1866.000000	0.000839
1865.000000	0.000800
1864.000000	0.000786
1863.000000	0.000769
1862.000000	0.000746
1861.000000	0.000753
1860.000000	0.000801
1859.000000	0.000849
1858.000000	0.000870
1857.000000	0.000877
1856.000000	0.000882
1855.000000	0.000874
1854.000000	0.000849
1853.000000	0.000825
1852.000000	0.000805
1851.000000	0.000772
1850.000000	0.000721
1849.000000	0.000674
1848.000000	0.000641
1847.000000	0.000609
1846.000000	0.000566
1845.000000	0.000525
1844.000000	0.000497
1843.000000	0.000475
1842.000000	0.000475
1841.000000	0.000512
1840.000000	0.000571
1839.000000	0.000619
1838.000000	0.000640
1837.000000	0.000640
1836.000000	0.000623
1835.000000	0.000593
1834.000000	0.000574
1833.000000	0.000588
1832.000000	0.000620
1831.000000	0.000628
1830.000000	0.000591
1829.000000	0.000548
1828.000000	0.000532
1827.000000	0.000523
1826.000000	0.000488
1825.000000	0.000440
1824.000000	0.000409
1823.000000	0.000391
1822.000000	0.000372
1821.000000	0.000359
1820.000000	0.000361
1819.000000	0.000364
1818.000000	0.000359
1817.000000	0.000364
1816.000000	0.000377
1815.000000	0.000369
1814.000000	0.000336
1813.000000	0.000324
1812.000000	0.000371
1811.000000	0.000443
1810.000000	0.000484
1809.000000	0.000496
1808.000000	0.000495
1807.000000	0.000468
1806.000000	0.000414
1805.000000	0.000368
1804.000000	0.000348
1803.000000	0.000330
1802.000000	0.000298
1801.000000	0.000284
1800.000000	0.000305
1799.000000	0.000317
1798.000000	0.000301
1797.000000	0.000297
1796.000000	0.000328
1795.000000	0.000356
1794.000000	0.000330
1793.000000	0.000258
1792.000000	0.000195
1791.000000	0.000159
1790.000000	0.000142
1789.000000	0.000150
1788.000000	0.000177
1787.000000	0.000195
1786.000000	0.000191
1785.000000	0.000191
1784.000000	0.000214
1783.000000	0.000241
1782.000000	0.000241
1781.000000	0.000212
1780.000000	0.000177
1779.000000	0.000152
1778.000000	0.000143
1777.000000	0.000153
1776.000000	0.000169
1775.000000	0.000168
1774.000000	0.000133
1773.000000	0.000081
1772.000000	0.000063
1771.000000	0.000083
1770.000000	0.000101
1769.000000	0.000100
1768.000000	0.000098
1767.000000	0.000118
1766.000000	0.000165
1765.000000	0.000236
1764.000000	0.000310
1763.000000	0.000358
1762.000000	0.000365
1761.000000	0.000360
1760.000000	0.000389
1759.000000	0.000457
1758.000000	0.000544
1757.000000	0.000647
1756.000000	0.000769
1755.000000	0.000888
1754.000000	0.000973
1753.000000	0.001020
1752.000000	0.001082
1751.000000	0.001221
1750.000000	0.001437
1749.000000	0.001664
1748.000000	0.001859
1747.000000	0.002014
1746.000000	0.002127
1745.000000	0.002204
1744.000000	0.002260
1743.000000	0.002299
1742.000000	0.002302
1741.000000	0.002257
1740.000000	0.002182
1739.000000	0.002114
1738.000000	0.002060
1737.000000	0.001993
1736.000000	0.001863
1735.000000	0.001645
1734.000000	0.001428
1733.000000	0.001325
1732.000000	0.001327
1731.000000	0.001352
1730.000000	0.001355
1729.000000	0.001336
1728.000000	0.001310
1727.000000	0.001292
1726.000000	0.001277
1725.000000	0.001251
1724.000000	0.001209
1723.000000	0.001164
1722.000000	0.001143
1721.000000	0.001164
1720.000000	0.001203
1719.000000	0.001209
1718.000000	0.001156
1717.000000	0.001125
1716.000000	0.001168
1715.000000	0.001229
1714.000000	0.001283
1713.000000	0.001353
1712.000000	0.001425
1711.000000	0.001476
1710.000000	0.001508
1709.000000	0.001546
1708.000000	0.001603
1707.000000	0.001660
1706.000000	0.001725
1705.000000	0.001835
1704.000000	0.001962
1703.000000	0.002030
1702.000000	0.002022
1701.000000	0.002031
1700.000000	0.002163
1699.000000	0.002311
1698.000000	0.002426
1697.000000	0.002596
1696.000000	0.002865
1695.000000	0.003108
1694.000000	0.003258
1693.000000	0.003395
1692.000000	0.003552
1691.000000	0.003712
1690.000000	0.003871
1689.000000	0.004041
1688.000000	0.004214
1687.000000	0.004355
1686.000000	0.004470
1685.000000	0.004650
1684.000000	0.004946
1683.000000	0.005193
1682.000000	0.005339
1681.000000	0.005481
1680.000000	0.005666
1679.000000	0.005867
1678.000000	0.006046
1677.000000	0.006219
1676.000000	0.006435
1675.000000	0.006694
1674.000000	0.006919
1673.000000	0.007084
1672.000000	0.007235
1671.000000	0.007421
1670.000000	0.007672
1669.000000	0.007960
1668.000000	0.008208
1667.000000	0.008395
1666.000000	0.008538
1665.000000	0.008675
1664.000000	0.008845
1663.000000	0.009063
1662.000000	0.009290
1661.000000	0.009476
1660.000000	0.009615
1659.000000	0.009733
1658.000000	0.009845
1657.000000	0.009950
1656.000000	0.010032
1655.000000	0.010125
1654.000000	0.010365
1653.000000	0.010791
1652.000000	0.011013
1651.000000	0.011003
1650.000000	0.010937
1649.000000	0.010880
1648.000000	0.010880
1647.000000	0.010971
1646.000000	0.011096
1645.000000	0.011172
1644.000000	0.011205
1643.000000	0.011216
1642.000000	0.011227
1641.000000	0.011257
1640.000000	0.011290
1639.000000	0.011284
1638.000000	0.011240
1637.000000	0.011226
1636.000000	0.011309
1635.000000	0.011419
1634.000000	0.011446
1633.000000	0.011418
1632.000000	0.011376
1631.000000	0.011337
1630.000000	0.011324
1629.000000	0.011348
1628.000000	0.011376
1627.000000	0.011370
1626.000000	0.011337
1625.000000	0.011310
1624.000000	0.011305
1623.000000	0.011305
1622.000000	0.011286
1621.000000	0.011240
1620.000000	0.011170
1619.000000	0.011086
1618.000000	0.011019
1617.000000	0.010996
1616.000000	0.010982
1615.000000	0.010946
1614.000000	0.010916
1613.000000	0.010903
1612.000000	0.010892
1611.000000	0.010874
1610.000000	0.010867
1609.000000	0.010878
1608.000000	0.010885
1607.000000	0.010871
1606.000000	0.010841
1605.000000	0.010813
1604.000000	0.010794
1603.000000	0.010786
1602.000000	0.010787
1601.000000	0.010792
1600.000000	0.010790
1599.000000	0.010776
1598.000000	0.010746
1597.000000	0.010699
1596.000000	0.010645
1595.000000	0.010598
1594.000000	0.010569
1593.000000	0.010544
1592.000000	0.010493
1591.000000	0.010411
1590.000000	0.010325
1589.000000	0.010257
1588.000000	0.010197
1587.000000	0.010133
1586.000000	0.010070
1585.000000	0.010015
1584.000000	0.009961
1583.000000	0.009913
1582.000000	0.009876
1581.000000	0.009842
1580.000000	0.009785
1579.000000	0.009698
1578.000000	0.009605
1577.000000	0.009538
1576.000000	0.009486
1575.000000	0.009414
1574.000000	0.009321
1573.000000	0.009208
1572.000000	0.009071
1571.000000	0.008917
1570.000000	0.008773
1569.000000	0.008642
1568.000000	0.008514
1567.000000	0.008416
1566.000000	0.008364
1565.000000	0.008343
1564.000000	0.008317
1563.000000	0.008263
1562.000000	0.008177
1561.000000	0.008060
1560.000000	0.007924
1559.000000	0.007875
1558.000000	0.007933
1557.000000	0.007931
1556.000000	0.007904
1555.000000	0.007891
1554.000000	0.007889
1553.000000	0.007885
1552.000000	0.007880
1551.000000	0.007882
1550.000000	0.007891
1549.000000	0.007896
1548.000000	0.007886
1547.000000	0.007870
1546.000000	0.007875
1545.000000	0.007928
1544.000000	0.008017
1543.000000	0.008076
1542.000000	0.008060
1541.000000	0.008034
1540.000000	0.008068
1539.000000	0.008060
1538.000000	0.007942
1537.000000	0.007779
1536.000000	0.007595
1535.000000	0.007378
1534.000000	0.007138
1533.000000	0.006918
1532.000000	0.006725
1531.000000	0.006528
1530.000000	0.006327
1529.000000	0.006151
1528.000000	0.006001
1527.000000	0.005846
1526.000000	0.005670
1525.000000	0.005507
1524.000000	0.005371
1523.000000	0.005215
1522.000000	0.005021
1521.000000	0.004860
1520.000000	0.004770
1519.000000	0.004700
1518.000000	0.004604
1517.000000	0.004500
1516.000000	0.004414
1515.000000	0.004322
1514.000000	0.004201
1513.000000	0.004074
1512.000000	0.003971
1511.000000	0.003884
1510.000000	0.003781
1509.000000	0.003651
1508.000000	0.003531
1507.000000	0.003455
1506.000000	0.003372
1505.000000	0.003279
1504.000000	0.003249
1503.000000	0.003245
1502.000000	0.003223
1501.000000	0.003196
1500.000000	0.003184
1499.000000	0.003163
1498.000000	0.003094
1497.000000	0.003029
1496.000000	0.003051
1495.000000	0.003122
1494.000000	0.003163
1493.000000	0.003166
1492.000000	0.003159
1491.000000	0.003172
1490.000000	0.003237
1489.000000	0.003388
1488.000000	0.003582
1487.000000	0.003725
1486.000000	0.003816
1485.000000	0.003912
1484.000000	0.004045
1483.000000	0.004216
1482.000000	0.004419
1481.000000	0.004650
1480.000000	0.004876
1479.000000	0.005064
1478.000000	0.005230
1477.000000	0.005422
1476.000000	0.005647
1475.000000	0.005860
1474.000000	0.006084
1473.000000	0.006428
1472.000000	0.006902
1471.000000	0.007335
1470.000000	0.007655
1469.000000	0.007928
1468.000000	0.008206
1467.000000	0.008483
1466.000000	0.008753
1465.000000	0.009034
1464.000000	0.009307
1463.000000	0.009517
1462.000000	0.009660
1461.000000	0.009787
1460.000000	0.009936
1459.000000	0.010125
1458.000000	0.010387
1457.000000	0.010743
1456.000000	0.011083
1455.000000	0.011306
1454.000000	0.011458
1453.000000	0.011614
1452.000000	0.011803
1451.000000	0.012000
1450.000000	0.012182
1449.000000	0.012373
1448.000000	0.012598
1447.000000	0.012820
1446.000000	0.012991
1445.000000	0.013130
1444.000000	0.013283
1443.000000	0.013453
1442.000000	0.013618
1441.000000	0.013764
1440.000000	0.013889
1439.000000	0.014008
1438.000000	0.014160
1437.000000	0.014394
1436.000000	0.014669
1435.000000	0.014876
1434.000000	0.014998
1433.000000	0.015110
1432.000000	0.015262
1431.000000	0.015453
1430.000000	0.015642
1429.000000	0.015803
1428.000000	0.015931
1427.000000	0.016032
1426.000000	0.016123
1425.000000	0.016222
1424.000000	0.016323
1423.000000	0.016396
1422.000000	0.016426
1421.000000	0.016457
1420.000000	0.016566
1419.000000	0.016783
1418.000000	0.017005
1417.000000	0.017142
1416.000000	0.017214
1415.000000	0.017251
1414.000000	0.017266
1413.000000	0.017276
1412.000000	0.017300
1411.000000	0.017343
1410.000000	0.017392
1409.000000	0.017437
1408.000000	0.017474
1407.000000	0.017499
1406.000000	0.017523
1405.000000	0.017557
1404.000000	0.017593
1403.000000	0.017601
1402.000000	0.017575
1401.000000	0.017539
1400.000000	0.017516
1399.000000	0.017498
1398.000000	0.017460
1397.000000	0.017410
1396.000000	0.017382
1395.000000	0.017387
1394.000000	0.017380
1393.000000	0.017311
1392.000000	0.017189
1391.000000	0.017039
1390.000000	0.016868
1389.000000	0.016691
1388.000000	0.016536
1387.000000	0.016426
1386.000000	0.016345
1385.000000	0.016244
1384.000000	0.016102
1383.000000	0.015936
1382.000000	0.015784
1381.000000	0.015668
1380.000000	0.015571
1379.000000	0.015473
1378.000000	0.015375
1377.000000	0.015283
1376.000000	0.015184
1375.000000	0.015064
1374.000000	0.014926
1373.000000	0.014776
1372.000000	0.014611
1371.000000	0.014444
1370.000000	0.014300
1369.000000	0.014180
1368.000000	0.014057
1367.000000	0.013908
1366.000000	0.013741
1365.000000	0.013575
1364.000000	0.013419
1363.000000	0.013271
1362.000000	0.013134
1361.000000	0.012999
1360.000000	0.012853
1359.000000	0.012695
1358.000000	0.012539
1357.000000	0.012392
1356.000000	0.012247
1355.000000	0.012098
1354.000000	0.011954
1353.000000	0.011823
1352.000000	0.011694
1351.000000	0.011550
1350.000000	0.011403
1349.000000	0.011265
1348.000000	0.011133
1347.000000	0.011006
1346.000000	0.010892
1345.000000	0.010793
1344.000000	0.010693
1343.000000	0.010576
1342.000000	0.010447
1341.000000	0.010316
1340.000000	0.010190
1339.000000	0.010082
1338.000000	0.010000
1337.000000	0.009933
1336.000000	0.009852
1335.000000	0.009748
1334.000000	0.009642
1333.000000	0.009557
1332.000000	0.009489
1331.000000	0.009420
1330.000000	0.009345
1329.000000	0.009274
1328.000000	0.009207
1327.000000	0.009143
1326.000000	0.009079
1325.000000	0.009010
1324.000000	0.008930
1323.000000	0.008846
1322.000000	0.008772
1321.000000	0.008706
1320.000000	0.008631
1319.000000	0.008542
1318.000000	0.008455
1317.000000	0.008389
1316.000000	0.008339
1315.000000	0.008295
1314.000000	0.008249
1313.000000	0.008193
1312.000000	0.008119
1311.000000	0.008025
1310.000000	0.007928
1309.000000	0.007843
1308.000000	0.007765
1307.000000	0.007678
1306.000000	0.007574
1305.000000	0.007453
1304.000000	0.007323
1303.000000	0.007188
1302.000000	0.007052
1301.000000	0.006915
1300.000000	0.006780
1299.000000	0.006655
1298.000000	0.006546
1297.000000	0.006439
1296.000000	0.006314
1295.000000	0.006163
1294.000000	0.006000
1293.000000	0.005842
1292.000000	0.005690
1291.000000	0.005541
1290.000000	0.005396
1289.000000	0.005258
1288.000000	0.005128
1287.000000	0.005010
1286.000000	0.004904
1285.000000	0.004811
1284.000000	0.004725
1283.000000	0.004649
1282.000000	0.004580
1281.000000	0.004510
1280.000000	0.004422
1279.000000	0.004318
1278.000000	0.004213
1277.000000	0.004114
1276.000000	0.004019
1275.000000	0.003923
1274.000000	0.003835
1273.000000	0.003764
1272.000000	0.003705
1271.000000	0.003650
1270.000000	0.003603
1269.000000	0.003571
1268.000000	0.003553
1267.000000	0.003538
1266.000000	0.003512
1265.000000	0.003471
1264.000000	0.003424
1263.000000	0.003388
1262.000000	0.003377
1261.000000	0.003391
1260.000000	0.003413
1259.000000	0.003429
1258.000000	0.003433
1257.000000	0.003426
1256.000000	0.003406
1255.000000	0.003372
1254.000000	0.003338
1253.000000	0.003316
1252.000000	0.003306
1251.000000	0.003287
1250.000000	0.003244
1249.000000	0.003183
1248.000000	0.003127
1247.000000	0.003091
1246.000000	0.003072
1245.000000	0.003055
1244.000000	0.003030
1243.000000	0.002991
1242.000000	0.002935
1241.000000	0.002870
1240.000000	0.002812
1239.000000	0.002771
1238.000000	0.002738
1237.000000	0.002695
1236.000000	0.002634
1235.000000	0.002561
1234.000000	0.002481
1233.000000	0.002398
1232.000000	0.002311
1231.000000	0.002225
1230.000000	0.002132
1229.000000	0.002028
1228.000000	0.001920
1227.000000	0.001826
1226.000000	0.001750
1225.000000	0.001677
1224.000000	0.001589
1223.000000	0.001492
1222.000000	0.001403
1221.000000	0.001325
1220.000000	0.001255
1219.000000	0.001188
1218.000000	0.001125
1217.000000	0.001068
1216.000000	0.001017
1215.000000	0.000982
1214.000000	0.000971
1213.000000	0.000984
1212.000000	0.001008
1211.000000	0.001037
1210.000000	0.001075
1209.000000	0.001126
1208.000000	0.001193
1207.000000	0.001272
1206.000000	0.001360
1205.000000	0.001458
1204.000000	0.001568
1203.000000	0.001685
1202.000000	0.001795
1201.000000	0.001885
1200.000000	0.001946
1199.000000	0.001975
1198.000000	0.001968
1197.000000	0.001922
1196.000000	0.001834
1195.000000	0.001703
1194.000000	0.001530
1193.000000	0.001318
1192.000000	0.001086
1191.000000	0.000849
1190.000000	0.000621
1189.000000	0.000406
1188.000000	0.000213
1187.000000	0.000059
1186.000000	-0.000039
1185.000000	-0.000080
1184.000000	-0.000067
1183.000000	-0.000004
1182.000000	0.000100
1181.000000	0.000234
1180.000000	0.000396
1179.000000	0.000588
1178.000000	0.000805
1177.000000	0.001040
1176.000000	0.001291
1175.000000	0.001565
1174.000000	0.001870
1173.000000	0.002204
1172.000000	0.002564
1171.000000	0.002957
1170.000000	0.003389
1169.000000	0.003855
1168.000000	0.004336
1167.000000	0.004819
1166.000000	0.005303
1165.000000	0.005797
1164.000000	0.006310
1163.000000	0.006843
1162.000000	0.007384
1161.000000	0.007922
1160.000000	0.008448
1159.000000	0.008959
1158.000000	0.009441
1157.000000	0.009881
1156.000000	0.010279
1155.000000	0.010653
1154.000000	0.011011
1153.000000	0.011336
1152.000000	0.011592
1151.000000	0.011774
1150.000000	0.011910
1149.000000	0.012030
1148.000000	0.012129
1147.000000	0.012185
1146.000000	0.012200
1145.000000	0.012192
1144.000000	0.012170
1143.000000	0.012130
1142.000000	0.012075
1141.000000	0.012016
1140.000000	0.011966
1139.000000	0.011932
1138.000000	0.011913
1137.000000	0.011900
1136.000000	0.011877
1135.000000	0.011835
1134.000000	0.011779
1133.000000	0.011734
1132.000000	0.011731
1131.000000	0.011812
1130.000000	0.012016
1129.000000	0.012352
1128.000000	0.012774
1127.000000	0.013208
1126.000000	0.013598
1125.000000	0.013920
1124.000000	0.014162
1123.000000	0.014321
1122.000000	0.014402
1121.000000	0.014430
1120.000000	0.014424
1119.000000	0.014409
1118.000000	0.014410
1117.000000	0.014437
1116.000000	0.014477
1115.000000	0.014508
1114.000000	0.014533
1113.000000	0.014579
1112.000000	0.014664
1111.000000	0.014778
1110.000000	0.014899
1109.000000	0.015011
1108.000000	0.015108
1107.000000	0.015198
1106.000000	0.015301
1105.000000	0.015439
1104.000000	0.015621
1103.000000	0.015854
1102.000000	0.016150
1101.000000	0.016504
1100.000000	0.016888
1099.000000	0.017266
1098.000000	0.017632
1097.000000	0.018009
1096.000000	0.018413
1095.000000	0.018838
1094.000000	0.019265
1093.000000	0.019671
1092.000000	0.020030
1091.000000	0.020333
1090.000000	0.020594
1089.000000	0.020824
1088.000000	0.021004
1087.000000	0.021112
1086.000000	0.021167
1085.000000	0.021217
1084.000000	0.021295
1083.000000	0.021396
1082.000000	0.021508
1081.000000	0.021616
1080.000000	0.021694
1079.000000	0.021725
1078.000000	0.021723
1077.000000	0.021723
1076.000000	0.021727
1075.000000	0.021715
1074.000000	0.021684
1073.000000	0.021661
1072.000000	0.021664
1071.000000	0.021691
1070.000000	0.021737
1069.000000	0.021803
1068.000000	0.021868
1067.000000	0.021898
1066.000000	0.021888
1065.000000	0.021870
1064.000000	0.021867
1063.000000	0.021876
1062.000000	0.021887
1061.000000	0.021916
1060.000000	0.021977
1059.000000	0.022065
1058.000000	0.022158
1057.000000	0.022243
1056.000000	0.022319
1055.000000	0.022401
1054.000000	0.022513
1053.000000	0.022662
1052.000000	0.022824
1051.000000	0.022977
1050.000000	0.023142
1049.000000	0.023358
1048.000000	0.023622
1047.000000	0.023891
1046.000000	0.024139
1045.000000	0.024380
1044.000000	0.024632
1043.000000	0.024892
1042.000000	0.025159
1041.000000	0.025452
1040.000000	0.025778
1039.000000	0.026128
1038.000000	0.026487
1037.000000	0.026840
1036.000000	0.027166
1035.000000	0.027441
1034.000000	0.027675
1033.000000	0.027904
1032.000000	0.028146
1031.000000	0.028389
1030.000000	0.028617
1029.000000	0.028826
1028.000000	0.028999
1027.000000	0.029113
1026.000000	0.029181
1025.000000	0.029245
1024.000000	0.029332
1023.000000	0.029422
1022.000000	0.029493
1021.000000	0.029554
1020.000000	0.029623
1019.000000	0.029707
1018.000000	0.029801
1017.000000	0.029898
1016.000000	0.029984
1015.000000	0.030046
1014.000000	0.030086
1013.000000	0.030110
1012.000000	0.030099
1011.000000	0.030030
1010.000000	0.029915
1009.000000	0.029797
1008.000000	0.029698
1007.000000	0.029605
1006.000000	0.029513
1005.000000	0.029436
1004.000000	0.029382
1003.000000	0.029334
1002.000000	0.029277
1001.000000	0.029222
1000.000000	0.029169
999.000000	0.029109
998.000000	0.029046
997.000000	0.029007
996.000000	0.028995
995.000000	0.028972
994.000000	0.028901
993.000000	0.028792
992.000000	0.028679
991.000000	0.028578
990.000000	0.028483
989.000000	0.028386
988.000000	0.028283
987.000000	0.028159
986.000000	0.028002
985.000000	0.027800
984.000000	0.027542
983.000000	0.027220
982.000000	0.026849
981.000000	0.026468
980.000000	0.026110
979.000000	0.025777
978.000000	0.025446
977.000000	0.025085
976.000000	0.024675
975.000000	0.024222
974.000000	0.023758
973.000000	0.023313
972.000000	0.022878
971.000000	0.022422
970.000000	0.021932
969.000000	0.021421
968.000000	0.020900
967.000000	0.020371
966.000000	0.019846
965.000000	0.019342
964.000000	0.018860
963.000000	0.018384
962.000000	0.017919
961.000000	0.017489
960.000000	0.017100
959.000000	0.016722
958.000000	0.016332
957.000000	0.015948
956.000000	0.015595
955.000000	0.015266
954.000000	0.014932
953.000000	0.014576
952.000000	0.014206
951.000000	0.013837
950.000000	0.013480
949.000000	0.013133
948.000000	0.012785
947.000000	0.012419
946.000000	0.012038
945.000000	0.011665
944.000000	0.011319
943.000000	0.010981
942.000000	0.010620
941.000000	0.010234
940.000000	0.009858
939.000000	0.009527
938.000000	0.009253
937.000000	0.009023
936.000000	0.008814
935.000000	0.008601
934.000000	0.008373
933.000000	0.008142
932.000000	0.007927
931.000000	0.007729
930.000000	0.007534
929.000000	0.007331
928.000000	0.007128
927.000000	0.006938
926.000000	0.006764
925.000000	0.006609
924.000000	0.006474
923.000000	0.006354
922.000000	0.006236
921.000000	0.006111
920.000000	0.005993
919.000000	0.005906
918.000000	0.005863
917.000000	0.005851
916.000000	0.005843
915.000000	0.005814
914.000000	0.005763
913.000000	0.005712
912.000000	0.005699
911.000000	0.005752
910.000000	0.005868
909.000000	0.006009
908.000000	0.006135
907.000000	0.006220
906.000000	0.006258
905.000000	0.006252
904.000000	0.006220
903.000000	0.006185
902.000000	0.006161
901.000000	0.006130
900.000000	0.006057
899.000000	0.005915
898.000000	0.005709
897.000000	0.005464
896.000000	0.005201
895.000000	0.004939
894.000000	0.004685
893.000000	0.004441
892.000000	0.004201
891.000000	0.003956
890.000000	0.003708
889.000000	0.003470
888.000000	0.003264
887.000000	0.003121
886.000000	0.003057
885.000000	0.003049
884.000000	0.003058
883.000000	0.003067
882.000000	0.003102
881.000000	0.003195
880.000000	0.003361
879.000000	0.003594
878.000000	0.003883
877.000000	0.004194
876.000000	0.004454
875.000000	0.004576
874.000000	0.004507
873.000000	0.004244
872.000000	0.003821
871.000000	0.003299
870.000000	0.002760
869.000000	0.002271
868.000000	0.001851
867.000000	0.001492
866.000000	0.001196
865.000000	0.000975
864.000000	0.000819
863.000000	0.000689
862.000000	0.000562
861.000000	0.000456
860.000000	0.000395
859.000000	0.000369
858.000000	0.000350
857.000000	0.000327
856.000000	0.000311
855.000000	0.000303
854.000000	0.000284
853.000000	0.000227
852.000000	0.000129
851.000000	0.000029
850.000000	-0.000023
849.000000	-0.000005
848.000000	0.000059
847.000000	0.000127
846.000000	0.000186
845.000000	0.000256
844.000000	0.000360
843.000000	0.000514
842.000000	0.000730
841.000000	0.001013
840.000000	0.001328
839.000000	0.001607
838.000000	0.001789
837.000000	0.001854
836.000000	0.001823
835.000000	0.001736
834.000000	0.001635
833.000000	0.001548
832.000000	0.001469
831.000000	0.001366
830.000000	0.001218
829.000000	0.001035
828.000000	0.000847
827.000000	0.000683
826.000000	0.000552
825.000000	0.000455
824.000000	0.000373
823.000000	0.000288
822.000000	0.000193
821.000000	0.000097
820.000000	0.000015
819.000000	-0.000044
818.000000	-0.000066
817.000000	-0.000039
816.000000	0.000027
815.000000	0.000102
814.000000	0.000165
813.000000	0.000215
812.000000	0.000256
811.000000	0.000290
810.000000	0.000320
809.000000	0.000353
808.000000	0.000380
807.000000	0.000384
806.000000	0.000368
805.000000	0.000355
804.000000	0.000357
803.000000	0.000370
802.000000	0.000404
801.000000	0.000483
800.000000	0.000614
799.000000	0.000754
798.000000	0.000854
797.000000	0.000904
796.000000	0.000931
795.000000	0.000973
794.000000	0.001055
793.000000	0.001187
792.000000	0.001342
791.000000	0.001468
790.000000	0.001538
789.000000	0.001570
788.000000	0.001601
787.000000	0.001648
786.000000	0.001719
785.000000	0.001829
784.000000	0.001975
783.000000	0.002125
782.000000	0.002256
781.000000	0.002379
780.000000	0.002508
779.000000	0.002619
778.000000	0.002672
777.000000	0.002662
776.000000	0.002629
775.000000	0.002600
774.000000	0.002566
773.000000	0.002504
772.000000	0.002407
771.000000	0.002298
770.000000	0.002212
769.000000	0.002174
768.000000	0.002170
767.000000	0.002153
766.000000	0.002088
765.000000	0.001994
764.000000	0.001917
763.000000	0.001867
762.000000	0.001817
761.000000	0.001741
760.000000	0.001650
759.000000	0.001582
758.000000	0.001570
757.000000	0.001618
756.000000	0.001685
755.000000	0.001704
754.000000	0.001636
753.000000	0.001515
752.000000	0.001404
751.000000	0.001328
750.000000	0.001258
749.000000	0.001166
748.000000	0.001060
747.000000	0.000962
746.000000	0.000879
745.000000	0.000802
744.000000	0.000726
743.000000	0.000652
742.000000	0.000576
741.000000	0.000502
740.000000	0.000434
739.000000	0.000372
738.000000	0.000305
737.000000	0.000230
736.000000	0.000150
735.000000	0.000076
734.000000	0.000018
733.000000	-0.000012
732.000000	-0.000006
731.000000	0.000031
730.000000	0.000086
729.000000	0.000161
728.000000	0.000263
727.000000	0.000374
726.000000	0.000460
725.000000	0.000501
724.000000	0.000509
723.000000	0.000513
722.000000	0.000532
721.000000	0.000578
720.000000	0.000638
719.000000	0.000680
718.000000	0.000687
717.000000	0.000691
716.000000	0.000752
715.000000	0.000889
714.000000	0.001045
713.000000	0.001139
712.000000	0.001155
711.000000	0.001143
710.000000	0.001150
709.000000	0.001169
708.000000	0.001163
707.000000	0.001119
706.000000	0.001071
705.000000	0.001063
704.000000	0.001099
703.000000	0.001137
702.000000	0.001128
701.000000	0.001056
700.000000	0.000948
699.000000	0.000849
698.000000	0.000813
697.000000	0.000890
696.000000	0.001100
695.000000	0.001427
694.000000	0.001803
693.000000	0.002138
692.000000	0.002346
691.000000	0.002388
690.000000	0.002297
689.000000	0.002186
688.000000	0.002206
687.000000	0.002493
686.000000	0.003105
685.000000	0.004013
684.000000	0.005114
683.000000	0.006251
682.000000	0.007240
681.000000	0.007925
680.000000	0.008242
679.000000	0.008237
678.000000	0.007992
677.000000	0.007573
676.000000	0.007031
675.000000	0.006417
674.000000	0.005771
673.000000	0.005138
672.000000	0.004568
671.000000	0.004086
670.000000	0.003678
669.000000	0.003341
668.000000	0.003201
667.000000	0.003287
666.000000	0.003249
665.000000	0.003131
664.000000	0.003127
663.000000	0.003257
662.000000	0.003435
661.000000	0.003594
660.000000	0.003734
659.000000	0.003860
658.000000	0.003934
657.000000	0.003917
656.000000	0.003787
655.000000	0.003521
654.000000	0.003137
653.000000	0.002716
652.000000	0.002337
651.000000	0.002040
650.000000	0.001863
649.000000	0.001853
648.000000	0.002016
647.000000	0.002287
646.000000	0.002579
645.000000	0.002813
644.000000	0.002910
643.000000	0.002818
642.000000	0.002575
641.000000	0.002296
640.000000	0.002064
639.000000	0.001882
638.000000	0.001727
637.000000	0.001609
636.000000	0.001539
635.000000	0.001507
634.000000	0.001509
633.000000	0.001550
632.000000	0.001596
631.000000	0.001582
630.000000	0.001487
629.000000	0.001375
628.000000	0.001311
627.000000	0.001294
626.000000	0.001304
625.000000	0.001335
624.000000	0.001367
623.000000	0.001368
622.000000	0.001345
621.000000	0.001369
620.000000	0.001509
619.000000	0.001763
618.000000	0.002075
617.000000	0.002369
616.000000	0.002558
615.000000	0.002597
614.000000	0.002562
613.000000	0.002602
612.000000	0.002782
611.000000	0.003018
610.000000	0.003218
609.000000	0.003414
608.000000	0.003669
607.000000	0.003947
606.000000	0.004157
605.000000	0.004283
604.000000	0.004375
603.000000	0.004436
602.000000	0.004440
601.000000	0.004423
600.000000	0.004466
599.000000	0.004593
598.000000	0.004732
597.000000	0.004810
596.000000	0.004816
595.000000	0.004786
594.000000	0.004750
593.000000	0.004720
592.000000	0.004674
591.000000	0.004559
590.000000	0.004342
589.000000	0.004047
588.000000	0.003724
587.000000	0.003413
586.000000	0.003153
585.000000	0.002987
584.000000	0.002908
583.000000	0.002843
582.000000	0.002726
581.000000	0.002579
580.000000	0.002466
579.000000	0.002399
578.000000	0.002333
577.000000	0.002261
576.000000	0.002228
575.000000	0.002266
574.000000	0.002347
573.000000	0.002420
572.000000	0.002450
571.000000	0.002412
570.000000	0.002303
569.000000	0.002165
568.000000	0.002056
567.000000	0.001999
566.000000	0.001995
565.000000	0.002073
564.000000	0.002265
563.000000	0.002526
562.000000	0.002743
561.000000	0.002858
560.000000	0.002922
559.000000	0.003016
558.000000	0.003158
557.000000	0.003320
556.000000	0.003469
555.000000	0.003568
554.000000	0.003600
553.000000	0.003617
552.000000	0.003703
551.000000	0.003865
550.000000	0.004007
549.000000	0.004037
548.000000	0.003977
547.000000	0.003917
546.000000	0.003917
545.000000	0.003961
544.000000	0.004001
543.000000	0.004018
542.000000	0.004042
541.000000	0.004120
540.000000	0.004260
539.000000	0.004397
538.000000	0.004452
537.000000	0.004408
536.000000	0.004316
535.000000	0.004242
534.000000	0.004227
533.000000	0.004276
532.000000	0.004325
531.000000	0.004266
530.000000	0.004060
529.000000	0.003792
528.000000	0.003567
527.000000	0.003417
526.000000	0.003344
525.000000	0.003395
524.000000	0.003611
523.000000	0.003911
522.000000	0.004127
521.000000	0.004122
520.000000	0.003863
519.000000	0.003405
518.000000	0.002891
517.000000	0.002519
516.000000	0.002405
515.000000	0.002466
514.000000	0.002508
513.000000	0.002435
512.000000	0.002290
511.000000	0.002135
510.000000	0.001980
509.000000	0.001818
508.000000	0.001661
507.000000	0.001539
506.000000	0.001478
505.000000	0.001469
504.000000	0.001450
503.000000	0.001334
502.000000	0.001111
501.000000	0.000886
500.000000	0.000733
499.000000	0.000612
498.000000	0.000462
497.000000	0.000308
496.000000	0.000225
495.000000	0.000237
494.000000	0.000325
493.000000	0.000456
492.000000	0.000546
491.000000	0.000501
490.000000	0.000348
489.000000	0.000250
488.000000	0.000293
487.000000	0.000361
486.000000	0.000320
485.000000	0.000239
484.000000	0.000289
483.000000	0.000458
482.000000	0.000562
481.000000	0.000522
480.000000	0.000456
479.000000	0.000506
478.000000	0.000671
477.000000	0.000873
476.000000	0.001079
475.000000	0.001286
474.000000	0.001475
473.000000	0.001635
472.000000	0.001764
471.000000	0.001818
470.000000	0.001724
469.000000	0.001518
468.000000	0.001371
467.000000	0.001391
466.000000	0.001452
465.000000	0.001355
464.000000	0.001063
463.000000	0.000721
462.000000	0.000476
461.000000	0.000322
460.000000	0.000139
459.000000	-0.000135
458.000000	-0.000394
457.000000	-0.000414
456.000000	-0.000154
455.000000	0.000152
454.000000	0.000296
453.000000	0.000290
452.000000	0.000257
451.000000	0.000230
450.000000	0.000108
