PE IR       SUBTECH     SPECTRUM    ASCII       PEDS        4.00        
   -1
P3-Bleu043_1.ASC
23/06/13
11:58:00.00
23/06/13
12:04:49.00
uco
Sample 043 By uco Date Tuesday, June 13 2023
450.000000
#HDR
-1
-1
#GR
cm-1
A
1.0
0.0
4000.000000
-1.000000
3551
8
0.031486
-0.000876
#DATA
4000.000000	-0.000461
3999.000000	-0.000446
3998.000000	-0.000430
3997.000000	-0.000416
3996.000000	-0.000404
3995.000000	-0.000396
3994.000000	-0.000396
3993.000000	-0.000406
3992.000000	-0.000424
3991.000000	-0.000440
3990.000000	-0.000443
3989.000000	-0.000432
3988.000000	-0.000418
3987.000000	-0.000410
3986.000000	-0.000413
3985.000000	-0.000422
3984.000000	-0.000428
3983.000000	-0.000427
3982.000000	-0.000422
3981.000000	-0.000416
3980.000000	-0.000413
3979.000000	-0.000418
3978.000000	-0.000429
3977.000000	-0.000444
3976.000000	-0.000456
3975.000000	-0.000459
3974.000000	-0.000445
3973.000000	-0.000418
3972.000000	-0.000384
3971.000000	-0.000355
3970.000000	-0.000342
3969.000000	-0.000344
3968.000000	-0.000351
3967.000000	-0.000347
3966.000000	-0.000322
3965.000000	-0.000283
3964.000000	-0.000248
3963.000000	-0.000237
3962.000000	-0.000254
3961.000000	-0.000287
3960.000000	-0.000321
3959.000000	-0.000347
3958.000000	-0.000364
3957.000000	-0.000375
3956.000000	-0.000380
3955.000000	-0.000380
3954.000000	-0.000375
3953.000000	-0.000367
3952.000000	-0.000356
3951.000000	-0.000349
3950.000000	-0.000354
3949.000000	-0.000372
3948.000000	-0.000395
3947.000000	-0.000409
3946.000000	-0.000403
3945.000000	-0.000383
3944.000000	-0.000354
3943.000000	-0.000324
3942.000000	-0.000304
3941.000000	-0.000300
3940.000000	-0.000311
3939.000000	-0.000325
3938.000000	-0.000328
3937.000000	-0.000318
3936.000000	-0.000308
3935.000000	-0.000304
3934.000000	-0.000305
3933.000000	-0.000301
3932.000000	-0.000289
3931.000000	-0.000275
3930.000000	-0.000267
3929.000000	-0.000265
3928.000000	-0.000261
3927.000000	-0.000255
3926.000000	-0.000253
3925.000000	-0.000258
3924.000000	-0.000271
3923.000000	-0.000291
3922.000000	-0.000315
3921.000000	-0.000343
3920.000000	-0.000373
3919.000000	-0.000400
3918.000000	-0.000413
3917.000000	-0.000400
3916.000000	-0.000359
3915.000000	-0.000302
3914.000000	-0.000248
3913.000000	-0.000206
3912.000000	-0.000180
3911.000000	-0.000169
3910.000000	-0.000165
3909.000000	-0.000162
3908.000000	-0.000154
3907.000000	-0.000149
3906.000000	-0.000165
3905.000000	-0.000221
3904.000000	-0.000310
3903.000000	-0.000394
3902.000000	-0.000433
3901.000000	-0.000420
3900.000000	-0.000371
3899.000000	-0.000310
3898.000000	-0.000260
3897.000000	-0.000231
3896.000000	-0.000224
3895.000000	-0.000230
3894.000000	-0.000244
3893.000000	-0.000258
3892.000000	-0.000267
3891.000000	-0.000266
3890.000000	-0.000264
3889.000000	-0.000279
3888.000000	-0.000317
3887.000000	-0.000360
3886.000000	-0.000379
3885.000000	-0.000367
3884.000000	-0.000344
3883.000000	-0.000331
3882.000000	-0.000326
3881.000000	-0.000323
3880.000000	-0.000319
3879.000000	-0.000314
3878.000000	-0.000307
3877.000000	-0.000296
3876.000000	-0.000272
3875.000000	-0.000228
3874.000000	-0.000181
3873.000000	-0.000162
3872.000000	-0.000192
3871.000000	-0.000251
3870.000000	-0.000295
3869.000000	-0.000295
3868.000000	-0.000270
3867.000000	-0.000255
3866.000000	-0.000261
3865.000000	-0.000277
3864.000000	-0.000298
3863.000000	-0.000311
3862.000000	-0.000307
3861.000000	-0.000287
3860.000000	-0.000259
3859.000000	-0.000226
3858.000000	-0.000180
3857.000000	-0.000123
3856.000000	-0.000078
3855.000000	-0.000078
3854.000000	-0.000146
3853.000000	-0.000236
3852.000000	-0.000279
3851.000000	-0.000281
3850.000000	-0.000278
3849.000000	-0.000274
3848.000000	-0.000268
3847.000000	-0.000260
3846.000000	-0.000250
3845.000000	-0.000242
3844.000000	-0.000239
3843.000000	-0.000243
3842.000000	-0.000250
3841.000000	-0.000257
3840.000000	-0.000256
3839.000000	-0.000250
3838.000000	-0.000243
3837.000000	-0.000238
3836.000000	-0.000240
3835.000000	-0.000249
3834.000000	-0.000263
3833.000000	-0.000277
3832.000000	-0.000280
3831.000000	-0.000269
3830.000000	-0.000246
3829.000000	-0.000221
3828.000000	-0.000196
3827.000000	-0.000174
3826.000000	-0.000157
3825.000000	-0.000157
3824.000000	-0.000184
3823.000000	-0.000226
3822.000000	-0.000260
3821.000000	-0.000270
3820.000000	-0.000265
3819.000000	-0.000269
3818.000000	-0.000294
3817.000000	-0.000325
3816.000000	-0.000321
3815.000000	-0.000268
3814.000000	-0.000199
3813.000000	-0.000153
3812.000000	-0.000141
3811.000000	-0.000157
3810.000000	-0.000194
3809.000000	-0.000238
3808.000000	-0.000268
3807.000000	-0.000262
3806.000000	-0.000237
3805.000000	-0.000229
3804.000000	-0.000256
3803.000000	-0.000295
3802.000000	-0.000306
3801.000000	-0.000268
3800.000000	-0.000216
3799.000000	-0.000187
3798.000000	-0.000193
3797.000000	-0.000217
3796.000000	-0.000237
3795.000000	-0.000240
3794.000000	-0.000228
3793.000000	-0.000211
3792.000000	-0.000189
3791.000000	-0.000162
3790.000000	-0.000127
3789.000000	-0.000090
3788.000000	-0.000063
3787.000000	-0.000052
3786.000000	-0.000060
3785.000000	-0.000078
3784.000000	-0.000091
3783.000000	-0.000099
3782.000000	-0.000111
3781.000000	-0.000137
3780.000000	-0.000172
3779.000000	-0.000197
3778.000000	-0.000198
3777.000000	-0.000180
3776.000000	-0.000159
3775.000000	-0.000142
3774.000000	-0.000138
3773.000000	-0.000153
3772.000000	-0.000192
3771.000000	-0.000234
3770.000000	-0.000254
3769.000000	-0.000248
3768.000000	-0.000236
3767.000000	-0.000235
3766.000000	-0.000243
3765.000000	-0.000243
3764.000000	-0.000225
3763.000000	-0.000200
3762.000000	-0.000177
3761.000000	-0.000161
3760.000000	-0.000155
3759.000000	-0.000169
3758.000000	-0.000198
3757.000000	-0.000230
3756.000000	-0.000254
3755.000000	-0.000273
3754.000000	-0.000297
3753.000000	-0.000340
3752.000000	-0.000406
3751.000000	-0.000478
3750.000000	-0.000512
3749.000000	-0.000492
3748.000000	-0.000450
3747.000000	-0.000416
3746.000000	-0.000390
3745.000000	-0.000342
3744.000000	-0.000264
3743.000000	-0.000211
3742.000000	-0.000235
3741.000000	-0.000321
3740.000000	-0.000413
3739.000000	-0.000482
3738.000000	-0.000527
3737.000000	-0.000547
3736.000000	-0.000529
3735.000000	-0.000473
3734.000000	-0.000410
3733.000000	-0.000364
3732.000000	-0.000334
3731.000000	-0.000311
3730.000000	-0.000297
3729.000000	-0.000294
3728.000000	-0.000292
3727.000000	-0.000281
3726.000000	-0.000271
3725.000000	-0.000279
3724.000000	-0.000306
3723.000000	-0.000323
3722.000000	-0.000318
3721.000000	-0.000297
3720.000000	-0.000273
3719.000000	-0.000256
3718.000000	-0.000246
3717.000000	-0.000241
3716.000000	-0.000237
3715.000000	-0.000227
3714.000000	-0.000205
3713.000000	-0.000169
3712.000000	-0.000135
3711.000000	-0.000127
3710.000000	-0.000146
3709.000000	-0.000175
3708.000000	-0.000190
3707.000000	-0.000178
3706.000000	-0.000153
3705.000000	-0.000140
3704.000000	-0.000157
3703.000000	-0.000194
3702.000000	-0.000219
3701.000000	-0.000205
3700.000000	-0.000152
3699.000000	-0.000089
3698.000000	-0.000042
3697.000000	-0.000021
3696.000000	-0.000020
3695.000000	-0.000033
3694.000000	-0.000052
3693.000000	-0.000067
3692.000000	-0.000080
3691.000000	-0.000105
3690.000000	-0.000154
3689.000000	-0.000204
3688.000000	-0.000217
3687.000000	-0.000197
3686.000000	-0.000179
3685.000000	-0.000173
3684.000000	-0.000163
3683.000000	-0.000139
3682.000000	-0.000102
3681.000000	-0.000065
3680.000000	-0.000034
3679.000000	-0.000009
3678.000000	-0.000005
3677.000000	-0.000027
3676.000000	-0.000061
3675.000000	-0.000083
3674.000000	-0.000092
3673.000000	-0.000104
3672.000000	-0.000112
3671.000000	-0.000083
3670.000000	-0.000009
3669.000000	0.000071
3668.000000	0.000121
3667.000000	0.000144
3666.000000	0.000160
3665.000000	0.000182
3664.000000	0.000215
3663.000000	0.000258
3662.000000	0.000307
3661.000000	0.000348
3660.000000	0.000370
3659.000000	0.000368
3658.000000	0.000354
3657.000000	0.000345
3656.000000	0.000356
3655.000000	0.000379
3654.000000	0.000390
3653.000000	0.000372
3652.000000	0.000335
3651.000000	0.000294
3650.000000	0.000265
3649.000000	0.000261
3648.000000	0.000302
3647.000000	0.000379
3646.000000	0.000461
3645.000000	0.000529
3644.000000	0.000583
3643.000000	0.000631
3642.000000	0.000674
3641.000000	0.000706
3640.000000	0.000725
3639.000000	0.000745
3638.000000	0.000776
3637.000000	0.000809
3636.000000	0.000834
3635.000000	0.000848
3634.000000	0.000857
3633.000000	0.000859
3632.000000	0.000847
3631.000000	0.000827
3630.000000	0.000823
3629.000000	0.000863
3628.000000	0.000946
3627.000000	0.001029
3626.000000	0.001086
3625.000000	0.001123
3624.000000	0.001158
3623.000000	0.001204
3622.000000	0.001258
3621.000000	0.001308
3620.000000	0.001349
3619.000000	0.001378
3618.000000	0.001400
3617.000000	0.001415
3616.000000	0.001428
3615.000000	0.001449
3614.000000	0.001481
3613.000000	0.001511
3612.000000	0.001526
3611.000000	0.001535
3610.000000	0.001563
3609.000000	0.001632
3608.000000	0.001732
3607.000000	0.001826
3606.000000	0.001890
3605.000000	0.001927
3604.000000	0.001952
3603.000000	0.001979
3602.000000	0.002013
3601.000000	0.002053
3600.000000	0.002099
3599.000000	0.002153
3598.000000	0.002217
3597.000000	0.002295
3596.000000	0.002381
3595.000000	0.002468
3594.000000	0.002537
3593.000000	0.002573
3592.000000	0.002577
3591.000000	0.002564
3590.000000	0.002557
3589.000000	0.002576
3588.000000	0.002635
3587.000000	0.002727
3586.000000	0.002826
3585.000000	0.002911
3584.000000	0.002983
3583.000000	0.003056
3582.000000	0.003134
3581.000000	0.003215
3580.000000	0.003296
3579.000000	0.003376
3578.000000	0.003448
3577.000000	0.003499
3576.000000	0.003525
3575.000000	0.003543
3574.000000	0.003578
3573.000000	0.003640
3572.000000	0.003717
3571.000000	0.003788
3570.000000	0.003840
3569.000000	0.003881
3568.000000	0.003935
3567.000000	0.004028
3566.000000	0.004146
3565.000000	0.004246
3564.000000	0.004309
3563.000000	0.004354
3562.000000	0.004405
3561.000000	0.004469
3560.000000	0.004533
3559.000000	0.004588
3558.000000	0.004634
3557.000000	0.004682
3556.000000	0.004741
3555.000000	0.004817
3554.000000	0.004906
3553.000000	0.004998
3552.000000	0.005082
3551.000000	0.005150
3550.000000	0.005199
3549.000000	0.005240
3548.000000	0.005287
3547.000000	0.005353
3546.000000	0.005435
3545.000000	0.005518
3544.000000	0.005592
3543.000000	0.005660
3542.000000	0.005728
3541.000000	0.005794
3540.000000	0.005858
3539.000000	0.005920
3538.000000	0.005988
3537.000000	0.006059
3536.000000	0.006127
3535.000000	0.006189
3534.000000	0.006247
3533.000000	0.006302
3532.000000	0.006354
3531.000000	0.006406
3530.000000	0.006458
3529.000000	0.006508
3528.000000	0.006554
3527.000000	0.006598
3526.000000	0.006646
3525.000000	0.006702
3524.000000	0.006773
3523.000000	0.006859
3522.000000	0.006950
3521.000000	0.007028
3520.000000	0.007085
3519.000000	0.007127
3518.000000	0.007169
3517.000000	0.007215
3516.000000	0.007258
3515.000000	0.007292
3514.000000	0.007318
3513.000000	0.007344
3512.000000	0.007384
3511.000000	0.007443
3510.000000	0.007516
3509.000000	0.007588
3508.000000	0.007645
3507.000000	0.007683
3506.000000	0.007708
3505.000000	0.007734
3504.000000	0.007777
3503.000000	0.007846
3502.000000	0.007934
3501.000000	0.008020
3500.000000	0.008095
3499.000000	0.008162
3498.000000	0.008232
3497.000000	0.008306
3496.000000	0.008376
3495.000000	0.008435
3494.000000	0.008482
3493.000000	0.008518
3492.000000	0.008555
3491.000000	0.008606
3490.000000	0.008666
3489.000000	0.008720
3488.000000	0.008752
3487.000000	0.008763
3486.000000	0.008767
3485.000000	0.008782
3484.000000	0.008821
3483.000000	0.008885
3482.000000	0.008963
3481.000000	0.009037
3480.000000	0.009097
3479.000000	0.009146
3478.000000	0.009190
3477.000000	0.009233
3476.000000	0.009284
3475.000000	0.009347
3474.000000	0.009422
3473.000000	0.009497
3472.000000	0.009561
3471.000000	0.009611
3470.000000	0.009651
3469.000000	0.009685
3468.000000	0.009714
3467.000000	0.009741
3466.000000	0.009765
3465.000000	0.009788
3464.000000	0.009821
3463.000000	0.009870
3462.000000	0.009932
3461.000000	0.009995
3460.000000	0.010050
3459.000000	0.010101
3458.000000	0.010158
3457.000000	0.010218
3456.000000	0.010274
3455.000000	0.010318
3454.000000	0.010352
3453.000000	0.010382
3452.000000	0.010414
3451.000000	0.010454
3450.000000	0.010502
3449.000000	0.010551
3448.000000	0.010597
3447.000000	0.010638
3446.000000	0.010674
3445.000000	0.010707
3444.000000	0.010749
3443.000000	0.010813
3442.000000	0.010901
3441.000000	0.010995
3440.000000	0.011072
3439.000000	0.011124
3438.000000	0.011163
3437.000000	0.011198
3436.000000	0.011232
3435.000000	0.011265
3434.000000	0.011298
3433.000000	0.011337
3432.000000	0.011380
3431.000000	0.011427
3430.000000	0.011471
3429.000000	0.011506
3428.000000	0.011532
3427.000000	0.011557
3426.000000	0.011591
3425.000000	0.011633
3424.000000	0.011680
3423.000000	0.011732
3422.000000	0.011792
3421.000000	0.011858
3420.000000	0.011920
3419.000000	0.011972
3418.000000	0.012020
3417.000000	0.012074
3416.000000	0.012141
3415.000000	0.012217
3414.000000	0.012283
3413.000000	0.012323
3412.000000	0.012340
3411.000000	0.012352
3410.000000	0.012375
3409.000000	0.012409
3408.000000	0.012452
3407.000000	0.012502
3406.000000	0.012560
3405.000000	0.012614
3404.000000	0.012651
3403.000000	0.012671
3402.000000	0.012680
3401.000000	0.012691
3400.000000	0.012711
3399.000000	0.012745
3398.000000	0.012789
3397.000000	0.012835
3396.000000	0.012873
3395.000000	0.012907
3394.000000	0.012945
3393.000000	0.012988
3392.000000	0.013024
3391.000000	0.013044
3390.000000	0.013051
3389.000000	0.013057
3388.000000	0.013073
3387.000000	0.013107
3386.000000	0.013155
3385.000000	0.013216
3384.000000	0.013286
3383.000000	0.013359
3382.000000	0.013419
3381.000000	0.013450
3380.000000	0.013456
3379.000000	0.013458
3378.000000	0.013474
3377.000000	0.013502
3376.000000	0.013528
3375.000000	0.013543
3374.000000	0.013556
3373.000000	0.013581
3372.000000	0.013620
3371.000000	0.013667
3370.000000	0.013708
3369.000000	0.013739
3368.000000	0.013763
3367.000000	0.013788
3366.000000	0.013815
3365.000000	0.013838
3364.000000	0.013850
3363.000000	0.013847
3362.000000	0.013833
3361.000000	0.013819
3360.000000	0.013817
3359.000000	0.013833
3358.000000	0.013862
3357.000000	0.013893
3356.000000	0.013925
3355.000000	0.013960
3354.000000	0.013994
3353.000000	0.014020
3352.000000	0.014040
3351.000000	0.014062
3350.000000	0.014091
3349.000000	0.014124
3348.000000	0.014155
3347.000000	0.014183
3346.000000	0.014205
3345.000000	0.014222
3344.000000	0.014239
3343.000000	0.014269
3342.000000	0.014310
3341.000000	0.014348
3340.000000	0.014367
3339.000000	0.014367
3338.000000	0.014360
3337.000000	0.014362
3336.000000	0.014384
3335.000000	0.014423
3334.000000	0.014465
3333.000000	0.014492
3332.000000	0.014499
3331.000000	0.014503
3330.000000	0.014517
3329.000000	0.014539
3328.000000	0.014558
3327.000000	0.014567
3326.000000	0.014573
3325.000000	0.014583
3324.000000	0.014603
3323.000000	0.014633
3322.000000	0.014665
3321.000000	0.014690
3320.000000	0.014711
3319.000000	0.014736
3318.000000	0.014769
3317.000000	0.014803
3316.000000	0.014827
3315.000000	0.014840
3314.000000	0.014842
3313.000000	0.014832
3312.000000	0.014813
3311.000000	0.014790
3310.000000	0.014770
3309.000000	0.014754
3308.000000	0.014744
3307.000000	0.014747
3306.000000	0.014770
3305.000000	0.014808
3304.000000	0.014849
3303.000000	0.014879
3302.000000	0.014890
3301.000000	0.014880
3300.000000	0.014856
3299.000000	0.014837
3298.000000	0.014838
3297.000000	0.014860
3296.000000	0.014889
3295.000000	0.014908
3294.000000	0.014907
3293.000000	0.014891
3292.000000	0.014877
3291.000000	0.014879
3290.000000	0.014894
3289.000000	0.014906
3288.000000	0.014904
3287.000000	0.014897
3286.000000	0.014899
3285.000000	0.014911
3284.000000	0.014925
3283.000000	0.014930
3282.000000	0.014921
3281.000000	0.014906
3280.000000	0.014893
3279.000000	0.014889
3278.000000	0.014887
3277.000000	0.014871
3276.000000	0.014834
3275.000000	0.014786
3274.000000	0.014745
3273.000000	0.014715
3272.000000	0.014694
3271.000000	0.014680
3270.000000	0.014673
3269.000000	0.014674
3268.000000	0.014681
3267.000000	0.014691
3266.000000	0.014699
3265.000000	0.014698
3264.000000	0.014688
3263.000000	0.014674
3262.000000	0.014662
3261.000000	0.014648
3260.000000	0.014627
3259.000000	0.014601
3258.000000	0.014581
3257.000000	0.014572
3256.000000	0.014569
3255.000000	0.014561
3254.000000	0.014544
3253.000000	0.014518
3252.000000	0.014489
3251.000000	0.014458
3250.000000	0.014427
3249.000000	0.014398
3248.000000	0.014375
3247.000000	0.014358
3246.000000	0.014336
3245.000000	0.014305
3244.000000	0.014274
3243.000000	0.014256
3242.000000	0.014256
3241.000000	0.014258
3240.000000	0.014248
3239.000000	0.014222
3238.000000	0.014186
3237.000000	0.014141
3236.000000	0.014087
3235.000000	0.014029
3234.000000	0.013984
3233.000000	0.013960
3232.000000	0.013954
3231.000000	0.013952
3230.000000	0.013936
3229.000000	0.013902
3228.000000	0.013863
3227.000000	0.013835
3226.000000	0.013825
3225.000000	0.013820
3224.000000	0.013806
3223.000000	0.013780
3222.000000	0.013744
3221.000000	0.013705
3220.000000	0.013670
3219.000000	0.013645
3218.000000	0.013626
3217.000000	0.013606
3216.000000	0.013574
3215.000000	0.013531
3214.000000	0.013484
3213.000000	0.013440
3212.000000	0.013402
3211.000000	0.013370
3210.000000	0.013349
3209.000000	0.013340
3208.000000	0.013341
3207.000000	0.013338
3206.000000	0.013312
3205.000000	0.013260
3204.000000	0.013199
3203.000000	0.013155
3202.000000	0.013134
3201.000000	0.013120
3200.000000	0.013096
3199.000000	0.013060
3198.000000	0.013024
3197.000000	0.012993
3196.000000	0.012962
3195.000000	0.012930
3194.000000	0.012900
3193.000000	0.012877
3192.000000	0.012858
3191.000000	0.012834
3190.000000	0.012796
3189.000000	0.012747
3188.000000	0.012699
3187.000000	0.012660
3186.000000	0.012626
3185.000000	0.012592
3184.000000	0.012563
3183.000000	0.012545
3182.000000	0.012538
3181.000000	0.012529
3180.000000	0.012508
3179.000000	0.012474
3178.000000	0.012426
3177.000000	0.012362
3176.000000	0.012286
3175.000000	0.012214
3174.000000	0.012164
3173.000000	0.012135
3172.000000	0.012117
3171.000000	0.012099
3170.000000	0.012076
3169.000000	0.012044
3168.000000	0.011998
3167.000000	0.011940
3166.000000	0.011877
3165.000000	0.011820
3164.000000	0.011777
3163.000000	0.011747
3162.000000	0.011726
3161.000000	0.011704
3160.000000	0.011676
3159.000000	0.011641
3158.000000	0.011601
3157.000000	0.011554
3156.000000	0.011503
3155.000000	0.011453
3154.000000	0.011408
3153.000000	0.011368
3152.000000	0.011322
3151.000000	0.011262
3150.000000	0.011192
3149.000000	0.011130
3148.000000	0.011088
3147.000000	0.011067
3146.000000	0.011048
3145.000000	0.011009
3144.000000	0.010947
3143.000000	0.010878
3142.000000	0.010825
3141.000000	0.010800
3140.000000	0.010794
3139.000000	0.010789
3138.000000	0.010769
3137.000000	0.010730
3136.000000	0.010679
3135.000000	0.010628
3134.000000	0.010584
3133.000000	0.010549
3132.000000	0.010519
3131.000000	0.010489
3130.000000	0.010452
3129.000000	0.010410
3128.000000	0.010369
3127.000000	0.010333
3126.000000	0.010297
3125.000000	0.010253
3124.000000	0.010194
3123.000000	0.010123
3122.000000	0.010051
3121.000000	0.009990
3120.000000	0.009946
3119.000000	0.009915
3118.000000	0.009884
3117.000000	0.009849
3116.000000	0.009815
3115.000000	0.009792
3114.000000	0.009783
3113.000000	0.009781
3112.000000	0.009772
3111.000000	0.009754
3110.000000	0.009729
3109.000000	0.009705
3108.000000	0.009677
3107.000000	0.009638
3106.000000	0.009586
3105.000000	0.009532
3104.000000	0.009489
3103.000000	0.009461
3102.000000	0.009439
3101.000000	0.009414
3100.000000	0.009389
3099.000000	0.009363
3098.000000	0.009328
3097.000000	0.009273
3096.000000	0.009204
3095.000000	0.009143
3094.000000	0.009102
3093.000000	0.009083
3092.000000	0.009073
3091.000000	0.009063
3090.000000	0.009044
3089.000000	0.009012
3088.000000	0.008965
3087.000000	0.008914
3086.000000	0.008867
3085.000000	0.008827
3084.000000	0.008795
3083.000000	0.008768
3082.000000	0.008744
3081.000000	0.008716
3080.000000	0.008686
3079.000000	0.008661
3078.000000	0.008652
3077.000000	0.008662
3076.000000	0.008681
3075.000000	0.008689
3074.000000	0.008670
3073.000000	0.008622
3072.000000	0.008561
3071.000000	0.008510
3070.000000	0.008477
3069.000000	0.008453
3068.000000	0.008424
3067.000000	0.008383
3066.000000	0.008333
3065.000000	0.008282
3064.000000	0.008239
3063.000000	0.008208
3062.000000	0.008189
3061.000000	0.008174
3060.000000	0.008156
3059.000000	0.008135
3058.000000	0.008112
3057.000000	0.008085
3056.000000	0.008050
3055.000000	0.008009
3054.000000	0.007966
3053.000000	0.007924
3052.000000	0.007883
3051.000000	0.007849
3050.000000	0.007822
3049.000000	0.007798
3048.000000	0.007765
3047.000000	0.007717
3046.000000	0.007663
3045.000000	0.007615
3044.000000	0.007573
3043.000000	0.007530
3042.000000	0.007483
3041.000000	0.007444
3040.000000	0.007428
3039.000000	0.007438
3038.000000	0.007454
3037.000000	0.007449
3036.000000	0.007413
3035.000000	0.007358
3034.000000	0.007306
3033.000000	0.007277
3032.000000	0.007273
3031.000000	0.007283
3030.000000	0.007288
3029.000000	0.007273
3028.000000	0.007240
3027.000000	0.007203
3026.000000	0.007175
3025.000000	0.007160
3024.000000	0.007155
3023.000000	0.007146
3022.000000	0.007123
3021.000000	0.007079
3020.000000	0.007020
3019.000000	0.006965
3018.000000	0.006933
3017.000000	0.006933
3016.000000	0.006958
3015.000000	0.006993
3014.000000	0.007020
3013.000000	0.007030
3012.000000	0.007019
3011.000000	0.006994
3010.000000	0.006967
3009.000000	0.006953
3008.000000	0.006958
3007.000000	0.006979
3006.000000	0.007001
3005.000000	0.007010
3004.000000	0.007003
3003.000000	0.006983
3002.000000	0.006960
3001.000000	0.006941
3000.000000	0.006931
2999.000000	0.006934
2998.000000	0.006949
2997.000000	0.006969
2996.000000	0.006990
2995.000000	0.007012
2994.000000	0.007041
2993.000000	0.007081
2992.000000	0.007132
2991.000000	0.007187
2990.000000	0.007237
2989.000000	0.007276
2988.000000	0.007301
2987.000000	0.007316
2986.000000	0.007331
2985.000000	0.007358
2984.000000	0.007403
2983.000000	0.007457
2982.000000	0.007503
2981.000000	0.007536
2980.000000	0.007564
2979.000000	0.007610
2978.000000	0.007683
2977.000000	0.007776
2976.000000	0.007871
2975.000000	0.007955
2974.000000	0.008032
2973.000000	0.008116
2972.000000	0.008217
2971.000000	0.008329
2970.000000	0.008433
2969.000000	0.008512
2968.000000	0.008567
2967.000000	0.008614
2966.000000	0.008670
2965.000000	0.008746
2964.000000	0.008843
2963.000000	0.008954
2962.000000	0.009066
2961.000000	0.009168
2960.000000	0.009252
2959.000000	0.009321
2958.000000	0.009386
2957.000000	0.009451
2956.000000	0.009520
2955.000000	0.009590
2954.000000	0.009660
2953.000000	0.009729
2952.000000	0.009789
2951.000000	0.009835
2950.000000	0.009870
2949.000000	0.009906
2948.000000	0.009953
2947.000000	0.010015
2946.000000	0.010092
2945.000000	0.010187
2944.000000	0.010304
2943.000000	0.010434
2942.000000	0.010561
2941.000000	0.010671
2940.000000	0.010762
2939.000000	0.010849
2938.000000	0.010946
2937.000000	0.011056
2936.000000	0.011170
2935.000000	0.011272
2934.000000	0.011358
2933.000000	0.011435
2932.000000	0.011512
2931.000000	0.011595
2930.000000	0.011678
2929.000000	0.011758
2928.000000	0.011832
2927.000000	0.011901
2926.000000	0.011959
2925.000000	0.012003
2924.000000	0.012032
2923.000000	0.012049
2922.000000	0.012054
2921.000000	0.012045
2920.000000	0.012020
2919.000000	0.011975
2918.000000	0.011913
2917.000000	0.011836
2916.000000	0.011745
2915.000000	0.011640
2914.000000	0.011523
2913.000000	0.011407
2912.000000	0.011301
2911.000000	0.011202
2910.000000	0.011099
2909.000000	0.010993
2908.000000	0.010898
2907.000000	0.010826
2906.000000	0.010774
2905.000000	0.010727
2904.000000	0.010680
2903.000000	0.010636
2902.000000	0.010591
2901.000000	0.010538
2900.000000	0.010471
2899.000000	0.010398
2898.000000	0.010324
2897.000000	0.010250
2896.000000	0.010179
2895.000000	0.010116
2894.000000	0.010068
2893.000000	0.010034
2892.000000	0.010007
2891.000000	0.009977
2890.000000	0.009935
2889.000000	0.009878
2888.000000	0.009816
2887.000000	0.009763
2886.000000	0.009730
2885.000000	0.009708
2884.000000	0.009682
2883.000000	0.009651
2882.000000	0.009632
2881.000000	0.009634
2880.000000	0.009653
2879.000000	0.009668
2878.000000	0.009666
2877.000000	0.009649
2876.000000	0.009626
2875.000000	0.009602
2874.000000	0.009582
2873.000000	0.009564
2872.000000	0.009547
2871.000000	0.009530
2870.000000	0.009512
2869.000000	0.009492
2868.000000	0.009470
2867.000000	0.009441
2866.000000	0.009405
2865.000000	0.009367
2864.000000	0.009340
2863.000000	0.009330
2862.000000	0.009333
2861.000000	0.009337
2860.000000	0.009340
2859.000000	0.009349
2858.000000	0.009369
2857.000000	0.009396
2856.000000	0.009421
2855.000000	0.009437
2854.000000	0.009444
2853.000000	0.009442
2852.000000	0.009424
2851.000000	0.009381
2850.000000	0.009310
2849.000000	0.009215
2848.000000	0.009104
2847.000000	0.008982
2846.000000	0.008849
2845.000000	0.008708
2844.000000	0.008566
2843.000000	0.008434
2842.000000	0.008315
2841.000000	0.008205
2840.000000	0.008097
2839.000000	0.007994
2838.000000	0.007900
2837.000000	0.007818
2836.000000	0.007743
2835.000000	0.007674
2834.000000	0.007616
2833.000000	0.007571
2832.000000	0.007534
2831.000000	0.007497
2830.000000	0.007454
2829.000000	0.007406
2828.000000	0.007355
2827.000000	0.007303
2826.000000	0.007251
2825.000000	0.007198
2824.000000	0.007145
2823.000000	0.007091
2822.000000	0.007038
2821.000000	0.006995
2820.000000	0.006964
2819.000000	0.006942
2818.000000	0.006921
2817.000000	0.006896
2816.000000	0.006869
2815.000000	0.006847
2814.000000	0.006832
2813.000000	0.006818
2812.000000	0.006794
2811.000000	0.006754
2810.000000	0.006710
2809.000000	0.006678
2808.000000	0.006665
2807.000000	0.006661
2806.000000	0.006644
2805.000000	0.006613
2804.000000	0.006579
2803.000000	0.006555
2802.000000	0.006540
2801.000000	0.006521
2800.000000	0.006494
2799.000000	0.006468
2798.000000	0.006454
2797.000000	0.006455
2796.000000	0.006462
2795.000000	0.006464
2794.000000	0.006455
2793.000000	0.006434
2792.000000	0.006401
2791.000000	0.006359
2790.000000	0.006315
2789.000000	0.006278
2788.000000	0.006256
2787.000000	0.006249
2786.000000	0.006252
2785.000000	0.006259
2784.000000	0.006269
2783.000000	0.006278
2782.000000	0.006279
2781.000000	0.006260
2780.000000	0.006217
2779.000000	0.006163
2778.000000	0.006114
2777.000000	0.006083
2776.000000	0.006072
2775.000000	0.006077
2774.000000	0.006093
2773.000000	0.006107
2772.000000	0.006106
2771.000000	0.006086
2770.000000	0.006058
2769.000000	0.006031
2768.000000	0.006008
2767.000000	0.005987
2766.000000	0.005968
2765.000000	0.005953
2764.000000	0.005942
2763.000000	0.005934
2762.000000	0.005930
2761.000000	0.005932
2760.000000	0.005934
2759.000000	0.005924
2758.000000	0.005895
2757.000000	0.005858
2756.000000	0.005829
2755.000000	0.005818
2754.000000	0.005824
2753.000000	0.005844
2752.000000	0.005872
2751.000000	0.005902
2750.000000	0.005924
2749.000000	0.005925
2748.000000	0.005900
2747.000000	0.005853
2746.000000	0.005798
2745.000000	0.005756
2744.000000	0.005738
2743.000000	0.005738
2742.000000	0.005744
2741.000000	0.005744
2740.000000	0.005739
2739.000000	0.005732
2738.000000	0.005726
2737.000000	0.005720
2736.000000	0.005712
2735.000000	0.005705
2734.000000	0.005705
2733.000000	0.005715
2732.000000	0.005731
2731.000000	0.005743
2730.000000	0.005739
2729.000000	0.005717
2728.000000	0.005681
2727.000000	0.005644
2726.000000	0.005617
2725.000000	0.005607
2724.000000	0.005608
2723.000000	0.005612
2722.000000	0.005614
2721.000000	0.005615
2720.000000	0.005613
2719.000000	0.005601
2718.000000	0.005578
2717.000000	0.005550
2716.000000	0.005531
2715.000000	0.005529
2714.000000	0.005538
2713.000000	0.005544
2712.000000	0.005540
2711.000000	0.005529
2710.000000	0.005520
2709.000000	0.005514
2708.000000	0.005506
2707.000000	0.005494
2706.000000	0.005483
2705.000000	0.005481
2704.000000	0.005482
2703.000000	0.005476
2702.000000	0.005455
2701.000000	0.005429
2700.000000	0.005411
2699.000000	0.005406
2698.000000	0.005409
2697.000000	0.005411
2696.000000	0.005409
2695.000000	0.005404
2694.000000	0.005401
2693.000000	0.005404
2692.000000	0.005409
2691.000000	0.005409
2690.000000	0.005398
2689.000000	0.005376
2688.000000	0.005347
2687.000000	0.005321
2686.000000	0.005307
2685.000000	0.005313
2684.000000	0.005333
2683.000000	0.005355
2682.000000	0.005365
2681.000000	0.005355
2680.000000	0.005328
2679.000000	0.005296
2678.000000	0.005274
2677.000000	0.005270
2676.000000	0.005276
2675.000000	0.005273
2674.000000	0.005254
2673.000000	0.005227
2672.000000	0.005209
2671.000000	0.005207
2670.000000	0.005217
2669.000000	0.005228
2668.000000	0.005233
2667.000000	0.005230
2666.000000	0.005223
2665.000000	0.005215
2664.000000	0.005209
2663.000000	0.005208
2662.000000	0.005215
2661.000000	0.005232
2660.000000	0.005254
2659.000000	0.005269
2658.000000	0.005269
2657.000000	0.005251
2656.000000	0.005220
2655.000000	0.005181
2654.000000	0.005139
2653.000000	0.005103
2652.000000	0.005073
2651.000000	0.005045
2650.000000	0.005012
2649.000000	0.004979
2648.000000	0.004958
2647.000000	0.004953
2646.000000	0.004949
2645.000000	0.004932
2644.000000	0.004896
2643.000000	0.004855
2642.000000	0.004824
2641.000000	0.004808
2640.000000	0.004802
2639.000000	0.004797
2638.000000	0.004787
2637.000000	0.004770
2636.000000	0.004745
2635.000000	0.004715
2634.000000	0.004685
2633.000000	0.004655
2632.000000	0.004618
2631.000000	0.004569
2630.000000	0.004512
2629.000000	0.004464
2628.000000	0.004436
2627.000000	0.004426
2626.000000	0.004423
2625.000000	0.004420
2624.000000	0.004417
2623.000000	0.004420
2622.000000	0.004427
2621.000000	0.004433
2620.000000	0.004431
2619.000000	0.004416
2618.000000	0.004391
2617.000000	0.004363
2616.000000	0.004344
2615.000000	0.004344
2614.000000	0.004359
2613.000000	0.004370
2612.000000	0.004359
2611.000000	0.004323
2610.000000	0.004279
2609.000000	0.004241
2608.000000	0.004207
2607.000000	0.004175
2606.000000	0.004150
2605.000000	0.004142
2604.000000	0.004145
2603.000000	0.004144
2602.000000	0.004136
2601.000000	0.004129
2600.000000	0.004130
2599.000000	0.004132
2598.000000	0.004120
2597.000000	0.004087
2596.000000	0.004038
2595.000000	0.003990
2594.000000	0.003969
2593.000000	0.003983
2592.000000	0.004013
2591.000000	0.004028
2590.000000	0.004015
2589.000000	0.003985
2588.000000	0.003948
2587.000000	0.003902
2586.000000	0.003848
2585.000000	0.003799
2584.000000	0.003772
2583.000000	0.003781
2582.000000	0.003827
2581.000000	0.003890
2580.000000	0.003940
2579.000000	0.003948
2578.000000	0.003915
2577.000000	0.003863
2576.000000	0.003805
2575.000000	0.003744
2574.000000	0.003695
2573.000000	0.003682
2572.000000	0.003710
2571.000000	0.003755
2570.000000	0.003793
2569.000000	0.003821
2568.000000	0.003840
2567.000000	0.003846
2566.000000	0.003836
2565.000000	0.003819
2564.000000	0.003805
2563.000000	0.003786
2562.000000	0.003759
2561.000000	0.003724
2560.000000	0.003684
2559.000000	0.003638
2558.000000	0.003601
2557.000000	0.003595
2556.000000	0.003621
2555.000000	0.003651
2554.000000	0.003662
2553.000000	0.003668
2552.000000	0.003690
2551.000000	0.003719
2550.000000	0.003721
2549.000000	0.003682
2548.000000	0.003619
2547.000000	0.003562
2546.000000	0.003529
2545.000000	0.003525
2544.000000	0.003541
2543.000000	0.003558
2542.000000	0.003565
2541.000000	0.003564
2540.000000	0.003559
2539.000000	0.003546
2538.000000	0.003525
2537.000000	0.003508
2536.000000	0.003505
2535.000000	0.003508
2534.000000	0.003502
2533.000000	0.003484
2532.000000	0.003463
2531.000000	0.003448
2530.000000	0.003444
2529.000000	0.003460
2528.000000	0.003496
2527.000000	0.003535
2526.000000	0.003555
2525.000000	0.003542
2524.000000	0.003507
2523.000000	0.003474
2522.000000	0.003467
2521.000000	0.003492
2520.000000	0.003525
2519.000000	0.003534
2518.000000	0.003514
2517.000000	0.003491
2516.000000	0.003492
2515.000000	0.003514
2514.000000	0.003536
2513.000000	0.003545
2512.000000	0.003542
2511.000000	0.003529
2510.000000	0.003508
2509.000000	0.003480
2508.000000	0.003445
2507.000000	0.003406
2506.000000	0.003385
2505.000000	0.003412
2504.000000	0.003496
2503.000000	0.003594
2502.000000	0.003639
2501.000000	0.003603
2500.000000	0.003516
2499.000000	0.003430
2498.000000	0.003376
2497.000000	0.003350
2496.000000	0.003338
2495.000000	0.003330
2494.000000	0.003332
2493.000000	0.003346
2492.000000	0.003366
2491.000000	0.003385
2490.000000	0.003401
2489.000000	0.003417
2488.000000	0.003418
2487.000000	0.003389
2486.000000	0.003333
2485.000000	0.003274
2484.000000	0.003233
2483.000000	0.003211
2482.000000	0.003205
2481.000000	0.003217
2480.000000	0.003247
2479.000000	0.003281
2478.000000	0.003308
2477.000000	0.003328
2476.000000	0.003346
2475.000000	0.003353
2474.000000	0.003342
2473.000000	0.003310
2472.000000	0.003266
2471.000000	0.003222
2470.000000	0.003189
2469.000000	0.003172
2468.000000	0.003167
2467.000000	0.003162
2466.000000	0.003158
2465.000000	0.003167
2464.000000	0.003194
2463.000000	0.003229
2462.000000	0.003259
2461.000000	0.003282
2460.000000	0.003300
2459.000000	0.003312
2458.000000	0.003322
2457.000000	0.003346
2456.000000	0.003386
2455.000000	0.003427
2454.000000	0.003446
2453.000000	0.003430
2452.000000	0.003381
2451.000000	0.003309
2450.000000	0.003240
2449.000000	0.003202
2448.000000	0.003203
2447.000000	0.003227
2446.000000	0.003247
2445.000000	0.003252
2444.000000	0.003241
2443.000000	0.003223
2442.000000	0.003210
2441.000000	0.003217
2440.000000	0.003236
2439.000000	0.003239
2438.000000	0.003206
2437.000000	0.003146
2436.000000	0.003092
2435.000000	0.003071
2434.000000	0.003089
2433.000000	0.003129
2432.000000	0.003154
2431.000000	0.003142
2430.000000	0.003107
2429.000000	0.003092
2428.000000	0.003116
2427.000000	0.003156
2426.000000	0.003178
2425.000000	0.003173
2424.000000	0.003153
2423.000000	0.003131
2422.000000	0.003113
2421.000000	0.003098
2420.000000	0.003081
2419.000000	0.003056
2418.000000	0.003028
2417.000000	0.003013
2416.000000	0.003016
2415.000000	0.003033
2414.000000	0.003053
2413.000000	0.003072
2412.000000	0.003079
2411.000000	0.003074
2410.000000	0.003075
2409.000000	0.003099
2408.000000	0.003133
2407.000000	0.003144
2406.000000	0.003118
2405.000000	0.003073
2404.000000	0.003028
2403.000000	0.002983
2402.000000	0.002940
2401.000000	0.002915
2400.000000	0.002921
2399.000000	0.002946
2398.000000	0.002973
2397.000000	0.003002
2396.000000	0.003033
2395.000000	0.003059
2394.000000	0.003071
2393.000000	0.003073
2392.000000	0.003070
2391.000000	0.003054
2390.000000	0.003019
2389.000000	0.002977
2388.000000	0.002949
2387.000000	0.002943
2386.000000	0.002953
2385.000000	0.002962
2384.000000	0.002950
2383.000000	0.002905
2382.000000	0.002841
2381.000000	0.002783
2380.000000	0.002746
2379.000000	0.002719
2378.000000	0.002692
2377.000000	0.002678
2376.000000	0.002695
2375.000000	0.002740
2374.000000	0.002788
2373.000000	0.002823
2372.000000	0.002848
2371.000000	0.002870
2370.000000	0.002893
2369.000000	0.002905
2368.000000	0.002893
2367.000000	0.002858
2366.000000	0.002822
2365.000000	0.002813
2364.000000	0.002830
2363.000000	0.002852
2362.000000	0.002869
2361.000000	0.002891
2360.000000	0.002930
2359.000000	0.002975
2358.000000	0.003001
2357.000000	0.002992
2356.000000	0.002965
2355.000000	0.002952
2354.000000	0.002946
2353.000000	0.002904
2352.000000	0.002825
2351.000000	0.002780
2350.000000	0.002830
2349.000000	0.002964
2348.000000	0.003107
2347.000000	0.003166
2346.000000	0.003112
2345.000000	0.003029
2344.000000	0.003013
2343.000000	0.003054
2342.000000	0.003078
2341.000000	0.003046
2340.000000	0.002988
2339.000000	0.002957
2338.000000	0.002975
2337.000000	0.003037
2336.000000	0.003122
2335.000000	0.003187
2334.000000	0.003190
2333.000000	0.003124
2332.000000	0.003035
2331.000000	0.002979
2330.000000	0.002981
2329.000000	0.003028
2328.000000	0.003109
2327.000000	0.003224
2326.000000	0.003359
2325.000000	0.003478
2324.000000	0.003530
2323.000000	0.003486
2322.000000	0.003370
2321.000000	0.003241
2320.000000	0.003154
2319.000000	0.003125
2318.000000	0.003147
2317.000000	0.003207
2316.000000	0.003273
2315.000000	0.003302
2314.000000	0.003283
2313.000000	0.003239
2312.000000	0.003197
2311.000000	0.003154
2310.000000	0.003101
2309.000000	0.003052
2308.000000	0.003024
2307.000000	0.003014
2306.000000	0.003009
2305.000000	0.003010
2304.000000	0.003023
2303.000000	0.003038
2302.000000	0.003051
2301.000000	0.003071
2300.000000	0.003103
2299.000000	0.003122
2298.000000	0.003106
2297.000000	0.003062
2296.000000	0.003026
2295.000000	0.003020
2294.000000	0.003050
2293.000000	0.003112
2292.000000	0.003190
2291.000000	0.003247
2290.000000	0.003259
2289.000000	0.003247
2288.000000	0.003251
2287.000000	0.003279
2286.000000	0.003305
2285.000000	0.003301
2284.000000	0.003267
2283.000000	0.003218
2282.000000	0.003178
2281.000000	0.003166
2280.000000	0.003176
2279.000000	0.003171
2278.000000	0.003115
2277.000000	0.003016
2276.000000	0.002913
2275.000000	0.002838
2274.000000	0.002805
2273.000000	0.002813
2272.000000	0.002840
2271.000000	0.002847
2270.000000	0.002830
2269.000000	0.002816
2268.000000	0.002826
2267.000000	0.002830
2266.000000	0.002795
2265.000000	0.002732
2264.000000	0.002681
2263.000000	0.002665
2262.000000	0.002685
2261.000000	0.002734
2260.000000	0.002795
2259.000000	0.002834
2258.000000	0.002842
2257.000000	0.002842
2256.000000	0.002844
2255.000000	0.002821
2254.000000	0.002754
2253.000000	0.002683
2252.000000	0.002646
2251.000000	0.002625
2250.000000	0.002575
2249.000000	0.002494
2248.000000	0.002415
2247.000000	0.002357
2246.000000	0.002320
2245.000000	0.002311
2244.000000	0.002332
2243.000000	0.002361
2242.000000	0.002382
2241.000000	0.002403
2240.000000	0.002434
2239.000000	0.002461
2238.000000	0.002471
2237.000000	0.002488
2236.000000	0.002533
2235.000000	0.002580
2234.000000	0.002594
2233.000000	0.002572
2232.000000	0.002525
2231.000000	0.002445
2230.000000	0.002324
2229.000000	0.002192
2228.000000	0.002101
2227.000000	0.002084
2226.000000	0.002144
2225.000000	0.002258
2224.000000	0.002362
2223.000000	0.002387
2222.000000	0.002337
2221.000000	0.002281
2220.000000	0.002263
2219.000000	0.002247
2218.000000	0.002192
2217.000000	0.002108
2216.000000	0.002026
2215.000000	0.001945
2214.000000	0.001864
2213.000000	0.001814
2212.000000	0.001814
2211.000000	0.001838
2210.000000	0.001859
2209.000000	0.001881
2208.000000	0.001908
2207.000000	0.001920
2206.000000	0.001918
2205.000000	0.001927
2204.000000	0.001945
2203.000000	0.001938
2202.000000	0.001928
2201.000000	0.001999
2200.000000	0.002165
2199.000000	0.002323
2198.000000	0.002367
2197.000000	0.002302
2196.000000	0.002189
2195.000000	0.002060
2194.000000	0.001954
2193.000000	0.001944
2192.000000	0.002043
2191.000000	0.002159
2190.000000	0.002208
2189.000000	0.002207
2188.000000	0.002208
2187.000000	0.002195
2186.000000	0.002139
2185.000000	0.002085
2184.000000	0.002085
2183.000000	0.002110
2182.000000	0.002104
2181.000000	0.002071
2180.000000	0.002038
2179.000000	0.001987
2178.000000	0.001911
2177.000000	0.001865
2176.000000	0.001884
2175.000000	0.001912
2174.000000	0.001884
2173.000000	0.001836
2172.000000	0.001831
2171.000000	0.001860
2170.000000	0.001860
2169.000000	0.001802
2168.000000	0.001708
2167.000000	0.001611
2166.000000	0.001553
2165.000000	0.001573
2164.000000	0.001647
2163.000000	0.001683
2162.000000	0.001602
2161.000000	0.001346
2160.000000	0.000848
2159.000000	0.000140
2158.000000	-0.000499
2157.000000	-0.000745
2156.000000	-0.000597
2155.000000	-0.000312
2154.000000	-0.000035
2153.000000	0.000255
2152.000000	0.000517
2151.000000	0.000611
2150.000000	0.000517
2149.000000	0.000407
2148.000000	0.000427
2147.000000	0.000545
2146.000000	0.000677
2145.000000	0.000817
2144.000000	0.000960
2143.000000	0.001034
2142.000000	0.001014
2141.000000	0.000988
2140.000000	0.001037
2139.000000	0.001125
2138.000000	0.001184
2137.000000	0.001216
2136.000000	0.001259
2135.000000	0.001317
2134.000000	0.001381
2133.000000	0.001462
2132.000000	0.001554
2131.000000	0.001613
2130.000000	0.001625
2129.000000	0.001633
2128.000000	0.001665
2127.000000	0.001700
2126.000000	0.001720
2125.000000	0.001741
2124.000000	0.001773
2123.000000	0.001801
2122.000000	0.001831
2121.000000	0.001896
2120.000000	0.001995
2119.000000	0.002074
2118.000000	0.002103
2117.000000	0.002113
2116.000000	0.002133
2115.000000	0.002145
2114.000000	0.002144
2113.000000	0.002163
2112.000000	0.002217
2111.000000	0.002255
2110.000000	0.002237
2109.000000	0.002202
2108.000000	0.002215
2107.000000	0.002279
2106.000000	0.002341
2105.000000	0.002362
2104.000000	0.002325
2103.000000	0.002240
2102.000000	0.002167
2101.000000	0.002177
2100.000000	0.002262
2099.000000	0.002326
2098.000000	0.002307
2097.000000	0.002246
2096.000000	0.002201
2095.000000	0.002153
2094.000000	0.002065
2093.000000	0.001962
2092.000000	0.001897
2091.000000	0.001878
2090.000000	0.001892
2089.000000	0.001947
2088.000000	0.002041
2087.000000	0.002128
2086.000000	0.002169
2085.000000	0.002171
2084.000000	0.002146
2083.000000	0.002079
2082.000000	0.001978
2081.000000	0.001917
2080.000000	0.001951
2079.000000	0.002044
2078.000000	0.002124
2077.000000	0.002165
2076.000000	0.002163
2075.000000	0.002092
2074.000000	0.001949
2073.000000	0.001804
2072.000000	0.001731
2071.000000	0.001727
2070.000000	0.001745
2069.000000	0.001769
2068.000000	0.001780
2067.000000	0.001729
2066.000000	0.001593
2065.000000	0.001428
2064.000000	0.001308
2063.000000	0.001243
2062.000000	0.001219
2061.000000	0.001249
2060.000000	0.001329
2059.000000	0.001397
2058.000000	0.001404
2057.000000	0.001381
2056.000000	0.001379
2055.000000	0.001400
2054.000000	0.001446
2053.000000	0.001551
2052.000000	0.001685
2051.000000	0.001710
2050.000000	0.001517
2049.000000	0.001190
2048.000000	0.000935
2047.000000	0.000860
2046.000000	0.000913
2045.000000	0.000999
2044.000000	0.001061
2043.000000	0.001053
2042.000000	0.000956
2041.000000	0.000789
2040.000000	0.000570
2039.000000	0.000313
2038.000000	0.000093
2037.000000	0.000012
2036.000000	0.000045
2035.000000	0.000046
2034.000000	-0.000029
2033.000000	-0.000058
2032.000000	0.000022
2031.000000	0.000086
2030.000000	0.000049
2029.000000	0.000018
2028.000000	0.000103
2027.000000	0.000232
2026.000000	0.000284
2025.000000	0.000266
2024.000000	0.000249
2023.000000	0.000236
2022.000000	0.000209
2021.000000	0.000177
2020.000000	0.000100
2019.000000	-0.000098
2018.000000	-0.000362
2017.000000	-0.000503
2016.000000	-0.000470
2015.000000	-0.000449
2014.000000	-0.000567
2013.000000	-0.000689
2012.000000	-0.000619
2011.000000	-0.000365
2010.000000	-0.000098
2009.000000	0.000038
2008.000000	0.000002
2007.000000	-0.000154
2006.000000	-0.000295
2005.000000	-0.000304
2004.000000	-0.000217
2003.000000	-0.000135
2002.000000	-0.000024
2001.000000	0.000227
2000.000000	0.000567
1999.000000	0.000772
1998.000000	0.000736
1997.000000	0.000600
1996.000000	0.000525
1995.000000	0.000502
1994.000000	0.000457
1993.000000	0.000394
1992.000000	0.000341
1991.000000	0.000277
1990.000000	0.000222
1989.000000	0.000272
1988.000000	0.000437
1987.000000	0.000573
1986.000000	0.000561
1985.000000	0.000451
1984.000000	0.000348
1983.000000	0.000292
1982.000000	0.000314
1981.000000	0.000459
1980.000000	0.000653
1979.000000	0.000677
1978.000000	0.000434
1977.000000	0.000108
1976.000000	-0.000077
1975.000000	-0.000139
1974.000000	-0.000221
1973.000000	-0.000352
1972.000000	-0.000484
1971.000000	-0.000588
1970.000000	-0.000624
1969.000000	-0.000541
1968.000000	-0.000396
1967.000000	-0.000346
1966.000000	-0.000438
1965.000000	-0.000545
1964.000000	-0.000564
1963.000000	-0.000531
1962.000000	-0.000477
1961.000000	-0.000348
1960.000000	-0.000127
1959.000000	0.000097
1958.000000	0.000239
1957.000000	0.000292
1956.000000	0.000257
1955.000000	0.000136
1954.000000	0.000020
1953.000000	0.000057
1952.000000	0.000258
1951.000000	0.000473
1950.000000	0.000584
1949.000000	0.000619
1948.000000	0.000636
1947.000000	0.000627
1946.000000	0.000584
1945.000000	0.000567
1944.000000	0.000613
1943.000000	0.000684
1942.000000	0.000753
1941.000000	0.000842
1940.000000	0.000933
1939.000000	0.000954
1938.000000	0.000881
1937.000000	0.000783
1936.000000	0.000721
1935.000000	0.000678
1934.000000	0.000633
1933.000000	0.000619
1932.000000	0.000662
1931.000000	0.000731
1930.000000	0.000797
1929.000000	0.000862
1928.000000	0.000894
1927.000000	0.000845
1926.000000	0.000746
1925.000000	0.000706
1924.000000	0.000766
1923.000000	0.000842
1922.000000	0.000838
1921.000000	0.000757
1920.000000	0.000645
1919.000000	0.000538
1918.000000	0.000497
1917.000000	0.000588
1916.000000	0.000763
1915.000000	0.000905
1914.000000	0.000976
1913.000000	0.001021
1912.000000	0.001053
1911.000000	0.001022
1910.000000	0.000923
1909.000000	0.000844
1908.000000	0.000829
1907.000000	0.000811
1906.000000	0.000733
1905.000000	0.000641
1904.000000	0.000604
1903.000000	0.000617
1902.000000	0.000657
1901.000000	0.000726
1900.000000	0.000805
1899.000000	0.000838
1898.000000	0.000800
1897.000000	0.000737
1896.000000	0.000698
1895.000000	0.000682
1894.000000	0.000682
1893.000000	0.000707
1892.000000	0.000730
1891.000000	0.000700
1890.000000	0.000620
1889.000000	0.000564
1888.000000	0.000550
1887.000000	0.000523
1886.000000	0.000478
1885.000000	0.000482
1884.000000	0.000563
1883.000000	0.000649
1882.000000	0.000679
1881.000000	0.000667
1880.000000	0.000642
1879.000000	0.000605
1878.000000	0.000559
1877.000000	0.000543
1876.000000	0.000564
1875.000000	0.000578
1874.000000	0.000568
1873.000000	0.000570
1872.000000	0.000598
1871.000000	0.000594
1870.000000	0.000526
1869.000000	0.000459
1868.000000	0.000461
1867.000000	0.000486
1866.000000	0.000484
1865.000000	0.000473
1864.000000	0.000464
1863.000000	0.000426
1862.000000	0.000353
1861.000000	0.000297
1860.000000	0.000295
1859.000000	0.000320
1858.000000	0.000340
1857.000000	0.000365
1856.000000	0.000401
1855.000000	0.000420
1854.000000	0.000406
1853.000000	0.000371
1852.000000	0.000323
1851.000000	0.000267
1850.000000	0.000227
1849.000000	0.000235
1848.000000	0.000268
1847.000000	0.000266
1846.000000	0.000218
1845.000000	0.000179
1844.000000	0.000182
1843.000000	0.000177
1842.000000	0.000136
1841.000000	0.000097
1840.000000	0.000085
1839.000000	0.000094
1838.000000	0.000126
1837.000000	0.000190
1836.000000	0.000248
1835.000000	0.000234
1834.000000	0.000145
1833.000000	0.000053
1832.000000	0.000006
1831.000000	-0.000009
1830.000000	-0.000027
1829.000000	-0.000032
1828.000000	-0.000017
1827.000000	-0.000010
1826.000000	-0.000030
1825.000000	-0.000046
1824.000000	-0.000034
1823.000000	-0.000022
1822.000000	-0.000025
1821.000000	-0.000022
1820.000000	-0.000012
1819.000000	-0.000044
1818.000000	-0.000135
1817.000000	-0.000218
1816.000000	-0.000244
1815.000000	-0.000255
1814.000000	-0.000290
1813.000000	-0.000308
1812.000000	-0.000251
1811.000000	-0.000149
1810.000000	-0.000073
1809.000000	-0.000037
1808.000000	-0.000029
1807.000000	-0.000063
1806.000000	-0.000129
1805.000000	-0.000162
1804.000000	-0.000135
1803.000000	-0.000101
1802.000000	-0.000115
1801.000000	-0.000148
1800.000000	-0.000152
1799.000000	-0.000157
1798.000000	-0.000193
1797.000000	-0.000223
1796.000000	-0.000223
1795.000000	-0.000223
1794.000000	-0.000257
1793.000000	-0.000301
1792.000000	-0.000306
1791.000000	-0.000298
1790.000000	-0.000312
1789.000000	-0.000322
1788.000000	-0.000308
1787.000000	-0.000302
1786.000000	-0.000324
1785.000000	-0.000341
1784.000000	-0.000330
1783.000000	-0.000313
1782.000000	-0.000312
1781.000000	-0.000322
1780.000000	-0.000336
1779.000000	-0.000370
1778.000000	-0.000419
1777.000000	-0.000449
1776.000000	-0.000456
1775.000000	-0.000470
1774.000000	-0.000506
1773.000000	-0.000532
1772.000000	-0.000490
1771.000000	-0.000412
1770.000000	-0.000372
1769.000000	-0.000367
1768.000000	-0.000361
1767.000000	-0.000354
1766.000000	-0.000351
1765.000000	-0.000328
1764.000000	-0.000269
1763.000000	-0.000203
1762.000000	-0.000170
1761.000000	-0.000163
1760.000000	-0.000139
1759.000000	-0.000084
1758.000000	0.000002
1757.000000	0.000113
1756.000000	0.000224
1755.000000	0.000294
1754.000000	0.000317
1753.000000	0.000332
1752.000000	0.000387
1751.000000	0.000509
1750.000000	0.000681
1749.000000	0.000877
1748.000000	0.001070
1747.000000	0.001228
1746.000000	0.001332
1745.000000	0.001399
1744.000000	0.001462
1743.000000	0.001508
1742.000000	0.001498
1741.000000	0.001438
1740.000000	0.001370
1739.000000	0.001304
1738.000000	0.001223
1737.000000	0.001138
1736.000000	0.001051
1735.000000	0.000931
1734.000000	0.000804
1733.000000	0.000738
1732.000000	0.000725
1731.000000	0.000720
1730.000000	0.000704
1729.000000	0.000683
1728.000000	0.000669
1727.000000	0.000660
1726.000000	0.000638
1725.000000	0.000596
1724.000000	0.000541
1723.000000	0.000482
1722.000000	0.000436
1721.000000	0.000435
1720.000000	0.000483
1719.000000	0.000522
1718.000000	0.000493
1717.000000	0.000470
1716.000000	0.000514
1715.000000	0.000554
1714.000000	0.000580
1713.000000	0.000641
1712.000000	0.000737
1711.000000	0.000817
1710.000000	0.000859
1709.000000	0.000894
1708.000000	0.000960
1707.000000	0.001055
1706.000000	0.001167
1705.000000	0.001315
1704.000000	0.001467
1703.000000	0.001570
1702.000000	0.001628
1701.000000	0.001704
1700.000000	0.001833
1699.000000	0.001881
1698.000000	0.001870
1697.000000	0.001997
1696.000000	0.002325
1695.000000	0.002628
1694.000000	0.002755
1693.000000	0.002839
1692.000000	0.002982
1691.000000	0.003163
1690.000000	0.003334
1689.000000	0.003493
1688.000000	0.003646
1687.000000	0.003781
1686.000000	0.003906
1685.000000	0.004106
1684.000000	0.004441
1683.000000	0.004736
1682.000000	0.004901
1681.000000	0.005053
1680.000000	0.005249
1679.000000	0.005443
1678.000000	0.005612
1677.000000	0.005807
1676.000000	0.006076
1675.000000	0.006371
1674.000000	0.006583
1673.000000	0.006711
1672.000000	0.006834
1671.000000	0.006997
1670.000000	0.007222
1669.000000	0.007510
1668.000000	0.007785
1667.000000	0.007989
1666.000000	0.008141
1665.000000	0.008305
1664.000000	0.008521
1663.000000	0.008763
1662.000000	0.008975
1661.000000	0.009138
1660.000000	0.009270
1659.000000	0.009389
1658.000000	0.009504
1657.000000	0.009631
1656.000000	0.009783
1655.000000	0.009960
1654.000000	0.010193
1653.000000	0.010535
1652.000000	0.010728
1651.000000	0.010700
1650.000000	0.010630
1649.000000	0.010613
1648.000000	0.010681
1647.000000	0.010820
1646.000000	0.010941
1645.000000	0.010983
1644.000000	0.010984
1643.000000	0.010982
1642.000000	0.010993
1641.000000	0.011035
1640.000000	0.011094
1639.000000	0.011124
1638.000000	0.011111
1637.000000	0.011104
1636.000000	0.011168
1635.000000	0.011266
1634.000000	0.011292
1633.000000	0.011275
1632.000000	0.011263
1631.000000	0.011255
1630.000000	0.011250
1629.000000	0.011269
1628.000000	0.011307
1627.000000	0.011328
1626.000000	0.011316
1625.000000	0.011288
1624.000000	0.011258
1623.000000	0.011220
1622.000000	0.011184
1621.000000	0.011157
1620.000000	0.011141
1619.000000	0.011124
1618.000000	0.011104
1617.000000	0.011097
1616.000000	0.011091
1615.000000	0.011064
1614.000000	0.011043
1613.000000	0.011055
1612.000000	0.011085
1611.000000	0.011106
1610.000000	0.011125
1609.000000	0.011159
1608.000000	0.011189
1607.000000	0.011190
1606.000000	0.011176
1605.000000	0.011172
1604.000000	0.011182
1603.000000	0.011190
1602.000000	0.011188
1601.000000	0.011187
1600.000000	0.011186
1599.000000	0.011170
1598.000000	0.011133
1597.000000	0.011087
1596.000000	0.011043
1595.000000	0.010996
1594.000000	0.010949
1593.000000	0.010909
1592.000000	0.010860
1591.000000	0.010781
1590.000000	0.010679
1589.000000	0.010584
1588.000000	0.010499
1587.000000	0.010407
1586.000000	0.010310
1585.000000	0.010226
1584.000000	0.010156
1583.000000	0.010092
1582.000000	0.010038
1581.000000	0.009989
1580.000000	0.009929
1579.000000	0.009844
1578.000000	0.009740
1577.000000	0.009629
1576.000000	0.009506
1575.000000	0.009364
1574.000000	0.009224
1573.000000	0.009107
1572.000000	0.009009
1571.000000	0.008887
1570.000000	0.008721
1569.000000	0.008542
1568.000000	0.008385
1567.000000	0.008270
1566.000000	0.008192
1565.000000	0.008124
1564.000000	0.008052
1563.000000	0.007991
1562.000000	0.007963
1561.000000	0.007950
1560.000000	0.007841
1559.000000	0.007659
1558.000000	0.007604
1557.000000	0.007555
1556.000000	0.007506
1555.000000	0.007479
1554.000000	0.007464
1553.000000	0.007460
1552.000000	0.007490
1551.000000	0.007535
1550.000000	0.007553
1549.000000	0.007534
1548.000000	0.007504
1547.000000	0.007488
1546.000000	0.007485
1545.000000	0.007508
1544.000000	0.007569
1543.000000	0.007629
1542.000000	0.007612
1541.000000	0.007539
1540.000000	0.007487
1539.000000	0.007410
1538.000000	0.007257
1537.000000	0.007108
1536.000000	0.006995
1535.000000	0.006860
1534.000000	0.006653
1533.000000	0.006424
1532.000000	0.006238
1531.000000	0.006062
1530.000000	0.005879
1529.000000	0.005722
1528.000000	0.005607
1527.000000	0.005487
1526.000000	0.005322
1525.000000	0.005154
1524.000000	0.005025
1523.000000	0.004888
1522.000000	0.004687
1521.000000	0.004496
1520.000000	0.004390
1519.000000	0.004324
1518.000000	0.004245
1517.000000	0.004163
1516.000000	0.004101
1515.000000	0.004023
1514.000000	0.003912
1513.000000	0.003805
1512.000000	0.003735
1511.000000	0.003677
1510.000000	0.003588
1509.000000	0.003460
1508.000000	0.003316
1507.000000	0.003199
1506.000000	0.003097
1505.000000	0.002981
1504.000000	0.002916
1503.000000	0.002888
1502.000000	0.002858
1501.000000	0.002826
1500.000000	0.002812
1499.000000	0.002790
1498.000000	0.002712
1497.000000	0.002636
1496.000000	0.002648
1495.000000	0.002695
1494.000000	0.002709
1493.000000	0.002725
1492.000000	0.002778
1491.000000	0.002842
1490.000000	0.002895
1489.000000	0.003001
1488.000000	0.003174
1487.000000	0.003315
1486.000000	0.003393
1485.000000	0.003475
1484.000000	0.003596
1483.000000	0.003742
1482.000000	0.003894
1481.000000	0.004072
1480.000000	0.004284
1479.000000	0.004504
1478.000000	0.004720
1477.000000	0.004960
1476.000000	0.005224
1475.000000	0.005451
1474.000000	0.005635
1473.000000	0.005894
1472.000000	0.006288
1471.000000	0.006657
1470.000000	0.006912
1469.000000	0.007133
1468.000000	0.007397
1467.000000	0.007680
1466.000000	0.007934
1465.000000	0.008161
1464.000000	0.008374
1463.000000	0.008549
1462.000000	0.008694
1461.000000	0.008865
1460.000000	0.009098
1459.000000	0.009370
1458.000000	0.009643
1457.000000	0.009931
1456.000000	0.010203
1455.000000	0.010382
1454.000000	0.010510
1453.000000	0.010668
1452.000000	0.010881
1451.000000	0.011111
1450.000000	0.011321
1449.000000	0.011525
1448.000000	0.011741
1447.000000	0.011933
1446.000000	0.012075
1445.000000	0.012208
1444.000000	0.012371
1443.000000	0.012548
1442.000000	0.012710
1441.000000	0.012869
1440.000000	0.013052
1439.000000	0.013262
1438.000000	0.013473
1437.000000	0.013668
1436.000000	0.013839
1435.000000	0.013961
1434.000000	0.014052
1433.000000	0.014176
1432.000000	0.014351
1431.000000	0.014536
1430.000000	0.014692
1429.000000	0.014830
1428.000000	0.014973
1427.000000	0.015113
1426.000000	0.015241
1425.000000	0.015349
1424.000000	0.015440
1423.000000	0.015522
1422.000000	0.015609
1421.000000	0.015727
1420.000000	0.015871
1419.000000	0.015999
1418.000000	0.016064
1417.000000	0.016091
1416.000000	0.016139
1415.000000	0.016203
1414.000000	0.016256
1413.000000	0.016297
1412.000000	0.016336
1411.000000	0.016369
1410.000000	0.016387
1409.000000	0.016403
1408.000000	0.016428
1407.000000	0.016443
1406.000000	0.016430
1405.000000	0.016404
1404.000000	0.016393
1403.000000	0.016392
1402.000000	0.016388
1401.000000	0.016384
1400.000000	0.016362
1399.000000	0.016299
1398.000000	0.016215
1397.000000	0.016163
1396.000000	0.016163
1395.000000	0.016166
1394.000000	0.016105
1393.000000	0.015967
1392.000000	0.015806
1391.000000	0.015659
1390.000000	0.015529
1389.000000	0.015414
1388.000000	0.015294
1387.000000	0.015141
1386.000000	0.014963
1385.000000	0.014794
1384.000000	0.014651
1383.000000	0.014515
1382.000000	0.014377
1381.000000	0.014262
1380.000000	0.014178
1379.000000	0.014091
1378.000000	0.013984
1377.000000	0.013873
1376.000000	0.013771
1375.000000	0.013665
1374.000000	0.013553
1373.000000	0.013448
1372.000000	0.013349
1371.000000	0.013246
1370.000000	0.013151
1369.000000	0.013065
1368.000000	0.012965
1367.000000	0.012828
1366.000000	0.012674
1365.000000	0.012548
1364.000000	0.012453
1363.000000	0.012346
1362.000000	0.012206
1361.000000	0.012053
1360.000000	0.011900
1359.000000	0.011735
1358.000000	0.011562
1357.000000	0.011402
1356.000000	0.011257
1355.000000	0.011112
1354.000000	0.010970
1353.000000	0.010854
1352.000000	0.010761
1351.000000	0.010657
1350.000000	0.010539
1349.000000	0.010433
1348.000000	0.010342
1347.000000	0.010240
1346.000000	0.010121
1345.000000	0.010009
1344.000000	0.009915
1343.000000	0.009820
1342.000000	0.009719
1341.000000	0.009627
1340.000000	0.009551
1339.000000	0.009479
1338.000000	0.009412
1337.000000	0.009361
1336.000000	0.009310
1335.000000	0.009225
1334.000000	0.009105
1333.000000	0.008997
1332.000000	0.008928
1331.000000	0.008880
1330.000000	0.008832
1329.000000	0.008789
1328.000000	0.008750
1327.000000	0.008696
1326.000000	0.008625
1325.000000	0.008559
1324.000000	0.008505
1323.000000	0.008447
1322.000000	0.008374
1321.000000	0.008299
1320.000000	0.008232
1319.000000	0.008166
1318.000000	0.008102
1317.000000	0.008056
1316.000000	0.008026
1315.000000	0.007987
1314.000000	0.007926
1313.000000	0.007860
1312.000000	0.007795
1311.000000	0.007716
1310.000000	0.007622
1309.000000	0.007537
1308.000000	0.007465
1307.000000	0.007381
1306.000000	0.007270
1305.000000	0.007152
1304.000000	0.007042
1303.000000	0.006927
1302.000000	0.006794
1301.000000	0.006660
1300.000000	0.006543
1299.000000	0.006431
1298.000000	0.006312
1297.000000	0.006189
1296.000000	0.006061
1295.000000	0.005917
1294.000000	0.005757
1293.000000	0.005604
1292.000000	0.005466
1291.000000	0.005328
1290.000000	0.005184
1289.000000	0.005054
1288.000000	0.004948
1287.000000	0.004843
1286.000000	0.004724
1285.000000	0.004605
1284.000000	0.004499
1283.000000	0.004396
1282.000000	0.004291
1281.000000	0.004200
1280.000000	0.004123
1279.000000	0.004038
1278.000000	0.003940
1277.000000	0.003850
1276.000000	0.003774
1275.000000	0.003687
1274.000000	0.003580
1273.000000	0.003486
1272.000000	0.003430
1271.000000	0.003395
1270.000000	0.003358
1269.000000	0.003329
1268.000000	0.003316
1267.000000	0.003300
1266.000000	0.003264
1265.000000	0.003221
1264.000000	0.003192
1263.000000	0.003170
1262.000000	0.003152
1261.000000	0.003153
1260.000000	0.003171
1259.000000	0.003178
1258.000000	0.003155
1257.000000	0.003127
1256.000000	0.003115
1255.000000	0.003109
1254.000000	0.003099
1253.000000	0.003102
1252.000000	0.003119
1251.000000	0.003114
1250.000000	0.003062
1249.000000	0.002985
1248.000000	0.002917
1247.000000	0.002862
1246.000000	0.002812
1245.000000	0.002775
1244.000000	0.002757
1243.000000	0.002736
1242.000000	0.002687
1241.000000	0.002621
1240.000000	0.002554
1239.000000	0.002487
1238.000000	0.002422
1237.000000	0.002370
1236.000000	0.002331
1235.000000	0.002277
1234.000000	0.002193
1233.000000	0.002099
1232.000000	0.002014
1231.000000	0.001927
1230.000000	0.001825
1229.000000	0.001722
1228.000000	0.001635
1227.000000	0.001556
1226.000000	0.001475
1225.000000	0.001397
1224.000000	0.001323
1223.000000	0.001233
1222.000000	0.001128
1221.000000	0.001034
1220.000000	0.000959
1219.000000	0.000875
1218.000000	0.000770
1217.000000	0.000675
1216.000000	0.000616
1215.000000	0.000583
1214.000000	0.000557
1213.000000	0.000546
1212.000000	0.000551
1211.000000	0.000553
1210.000000	0.000546
1209.000000	0.000562
1208.000000	0.000616
1207.000000	0.000678
1206.000000	0.000720
1205.000000	0.000761
1204.000000	0.000828
1203.000000	0.000906
1202.000000	0.000967
1201.000000	0.001012
1200.000000	0.001048
1199.000000	0.001059
1198.000000	0.001032
1197.000000	0.000979
1196.000000	0.000905
1195.000000	0.000788
1194.000000	0.000618
1193.000000	0.000424
1192.000000	0.000239
1191.000000	0.000055
1190.000000	-0.000134
1189.000000	-0.000305
1188.000000	-0.000435
1187.000000	-0.000532
1186.000000	-0.000600
1185.000000	-0.000618
1184.000000	-0.000579
1183.000000	-0.000511
1182.000000	-0.000432
1181.000000	-0.000317
1180.000000	-0.000142
1179.000000	0.000074
1178.000000	0.000301
1177.000000	0.000539
1176.000000	0.000799
1175.000000	0.001076
1174.000000	0.001373
1173.000000	0.001711
1172.000000	0.002086
1171.000000	0.002462
1170.000000	0.002833
1169.000000	0.003241
1168.000000	0.003712
1167.000000	0.004210
1166.000000	0.004707
1165.000000	0.005224
1164.000000	0.005781
1163.000000	0.006344
1162.000000	0.006884
1161.000000	0.007426
1160.000000	0.007986
1159.000000	0.008527
1158.000000	0.009006
1157.000000	0.009445
1156.000000	0.009881
1155.000000	0.010308
1154.000000	0.010697
1153.000000	0.011035
1152.000000	0.011316
1151.000000	0.011521
1150.000000	0.011662
1149.000000	0.011788
1148.000000	0.011909
1147.000000	0.011977
1146.000000	0.011975
1145.000000	0.011950
1144.000000	0.011939
1143.000000	0.011917
1142.000000	0.011858
1141.000000	0.011792
1140.000000	0.011746
1139.000000	0.011703
1138.000000	0.011653
1137.000000	0.011625
1136.000000	0.011624
1135.000000	0.011604
1134.000000	0.011553
1133.000000	0.011525
1132.000000	0.011573
1131.000000	0.011690
1130.000000	0.011871
1129.000000	0.012148
1128.000000	0.012521
1127.000000	0.012915
1126.000000	0.013263
1125.000000	0.013574
1124.000000	0.013860
1123.000000	0.014077
1122.000000	0.014196
1121.000000	0.014257
1120.000000	0.014310
1119.000000	0.014354
1118.000000	0.014384
1117.000000	0.014424
1116.000000	0.014482
1115.000000	0.014519
1114.000000	0.014532
1113.000000	0.014580
1112.000000	0.014688
1111.000000	0.014798
1110.000000	0.014871
1109.000000	0.014944
1108.000000	0.015051
1107.000000	0.015157
1106.000000	0.015232
1105.000000	0.015321
1104.000000	0.015476
1103.000000	0.015685
1102.000000	0.015932
1101.000000	0.016239
1100.000000	0.016610
1099.000000	0.016985
1098.000000	0.017330
1097.000000	0.017684
1096.000000	0.018073
1095.000000	0.018449
1094.000000	0.018780
1093.000000	0.019109
1092.000000	0.019468
1091.000000	0.019819
1090.000000	0.020120
1089.000000	0.020394
1088.000000	0.020653
1087.000000	0.020857
1086.000000	0.020995
1085.000000	0.021123
1084.000000	0.021282
1083.000000	0.021436
1082.000000	0.021561
1081.000000	0.021695
1080.000000	0.021855
1079.000000	0.021987
1078.000000	0.022059
1077.000000	0.022117
1076.000000	0.022189
1075.000000	0.022234
1074.000000	0.022239
1073.000000	0.022260
1072.000000	0.022315
1071.000000	0.022345
1070.000000	0.022330
1069.000000	0.022345
1068.000000	0.022424
1067.000000	0.022496
1066.000000	0.022509
1065.000000	0.022511
1064.000000	0.022550
1063.000000	0.022583
1062.000000	0.022587
1061.000000	0.022628
1060.000000	0.022752
1059.000000	0.022894
1058.000000	0.022987
1057.000000	0.023062
1056.000000	0.023178
1055.000000	0.023321
1054.000000	0.023458
1053.000000	0.023603
1052.000000	0.023758
1051.000000	0.023883
1050.000000	0.023985
1049.000000	0.024154
1048.000000	0.024418
1047.000000	0.024691
1046.000000	0.024918
1045.000000	0.025159
1044.000000	0.025474
1043.000000	0.025821
1042.000000	0.026145
1041.000000	0.026474
1040.000000	0.026835
1039.000000	0.027185
1038.000000	0.027497
1037.000000	0.027816
1036.000000	0.028162
1035.000000	0.028473
1034.000000	0.028718
1033.000000	0.028971
1032.000000	0.029289
1031.000000	0.029610
1030.000000	0.029852
1029.000000	0.030025
1028.000000	0.030167
1027.000000	0.030267
1026.000000	0.030328
1025.000000	0.030406
1024.000000	0.030522
1023.000000	0.030622
1022.000000	0.030690
1021.000000	0.030790
1020.000000	0.030951
1019.000000	0.031092
1018.000000	0.031156
1017.000000	0.031195
1016.000000	0.031263
1015.000000	0.031333
1014.000000	0.031378
1013.000000	0.031429
1012.000000	0.031486
1011.000000	0.031476
1010.000000	0.031373
1009.000000	0.031252
1008.000000	0.031166
1007.000000	0.031071
1006.000000	0.030944
1005.000000	0.030849
1004.000000	0.030819
1003.000000	0.030783
1002.000000	0.030692
1001.000000	0.030600
1000.000000	0.030558
999.000000	0.030524
998.000000	0.030464
997.000000	0.030434
996.000000	0.030460
995.000000	0.030467
994.000000	0.030394
993.000000	0.030294
992.000000	0.030222
991.000000	0.030139
990.000000	0.030000
989.000000	0.029850
988.000000	0.029743
987.000000	0.029642
986.000000	0.029493
985.000000	0.029303
984.000000	0.029079
983.000000	0.028786
982.000000	0.028425
981.000000	0.028075
980.000000	0.027779
979.000000	0.027469
978.000000	0.027078
977.000000	0.026632
976.000000	0.026182
975.000000	0.025719
974.000000	0.025238
973.000000	0.024777
972.000000	0.024337
971.000000	0.023842
970.000000	0.023268
969.000000	0.022694
968.000000	0.022177
967.000000	0.021669
966.000000	0.021122
965.000000	0.020572
964.000000	0.020057
963.000000	0.019547
962.000000	0.019031
961.000000	0.018572
960.000000	0.018197
959.000000	0.017824
958.000000	0.017387
957.000000	0.016933
956.000000	0.016527
955.000000	0.016143
954.000000	0.015741
953.000000	0.015352
952.000000	0.015006
951.000000	0.014666
950.000000	0.014299
949.000000	0.013929
948.000000	0.013576
947.000000	0.013193
946.000000	0.012770
945.000000	0.012369
944.000000	0.012021
943.000000	0.011664
942.000000	0.011256
941.000000	0.010852
940.000000	0.010497
939.000000	0.010151
938.000000	0.009788
937.000000	0.009474
936.000000	0.009248
935.000000	0.009043
934.000000	0.008793
933.000000	0.008540
932.000000	0.008335
931.000000	0.008138
930.000000	0.007890
929.000000	0.007622
928.000000	0.007387
927.000000	0.007174
926.000000	0.006965
925.000000	0.006798
924.000000	0.006689
923.000000	0.006572
922.000000	0.006410
921.000000	0.006266
920.000000	0.006203
919.000000	0.006178
918.000000	0.006133
917.000000	0.006091
916.000000	0.006087
915.000000	0.006083
914.000000	0.006040
913.000000	0.006002
912.000000	0.006018
911.000000	0.006063
910.000000	0.006112
909.000000	0.006203
908.000000	0.006353
907.000000	0.006486
906.000000	0.006537
905.000000	0.006541
904.000000	0.006543
903.000000	0.006508
902.000000	0.006410
901.000000	0.006305
900.000000	0.006236
899.000000	0.006143
898.000000	0.005956
897.000000	0.005696
896.000000	0.005413
895.000000	0.005106
894.000000	0.004782
893.000000	0.004505
892.000000	0.004299
891.000000	0.004095
890.000000	0.003840
889.000000	0.003589
888.000000	0.003396
887.000000	0.003233
886.000000	0.003071
885.000000	0.002955
884.000000	0.002916
883.000000	0.002910
882.000000	0.002918
881.000000	0.003017
880.000000	0.003253
879.000000	0.003554
878.000000	0.003841
877.000000	0.004114
876.000000	0.004357
875.000000	0.004459
874.000000	0.004349
873.000000	0.004085
872.000000	0.003733
871.000000	0.003275
870.000000	0.002722
869.000000	0.002188
868.000000	0.001755
867.000000	0.001379
866.000000	0.001017
865.000000	0.000723
864.000000	0.000537
863.000000	0.000391
862.000000	0.000231
861.000000	0.000105
860.000000	0.000043
859.000000	-0.000025
858.000000	-0.000140
857.000000	-0.000218
856.000000	-0.000197
855.000000	-0.000157
854.000000	-0.000193
853.000000	-0.000277
852.000000	-0.000350
851.000000	-0.000432
850.000000	-0.000536
849.000000	-0.000581
848.000000	-0.000519
847.000000	-0.000434
846.000000	-0.000399
845.000000	-0.000354
844.000000	-0.000220
843.000000	-0.000028
842.000000	0.000181
841.000000	0.000450
840.000000	0.000791
839.000000	0.001084
838.000000	0.001217
837.000000	0.001239
836.000000	0.001249
835.000000	0.001246
834.000000	0.001188
833.000000	0.001099
832.000000	0.001003
831.000000	0.000846
830.000000	0.000608
829.000000	0.000380
828.000000	0.000232
827.000000	0.000106
826.000000	-0.000051
825.000000	-0.000170
824.000000	-0.000204
823.000000	-0.000244
822.000000	-0.000367
821.000000	-0.000507
820.000000	-0.000586
819.000000	-0.000631
818.000000	-0.000671
817.000000	-0.000639
816.000000	-0.000508
815.000000	-0.000382
814.000000	-0.000345
813.000000	-0.000335
812.000000	-0.000280
811.000000	-0.000225
810.000000	-0.000218
809.000000	-0.000207
808.000000	-0.000155
807.000000	-0.000132
806.000000	-0.000177
805.000000	-0.000201
804.000000	-0.000146
803.000000	-0.000100
802.000000	-0.000127
801.000000	-0.000131
800.000000	-0.000023
799.000000	0.000117
798.000000	0.000186
797.000000	0.000234
796.000000	0.000345
795.000000	0.000484
794.000000	0.000590
793.000000	0.000701
792.000000	0.000854
791.000000	0.000979
790.000000	0.001018
789.000000	0.001040
788.000000	0.001116
787.000000	0.001200
786.000000	0.001250
785.000000	0.001326
784.000000	0.001467
783.000000	0.001586
782.000000	0.001627
781.000000	0.001683
780.000000	0.001841
779.000000	0.002021
778.000000	0.002109
777.000000	0.002128
776.000000	0.002148
775.000000	0.002146
774.000000	0.002079
773.000000	0.001994
772.000000	0.001940
771.000000	0.001871
770.000000	0.001753
769.000000	0.001662
768.000000	0.001657
767.000000	0.001653
766.000000	0.001547
765.000000	0.001377
764.000000	0.001235
763.000000	0.001129
762.000000	0.001037
761.000000	0.000982
760.000000	0.000972
759.000000	0.000948
758.000000	0.000888
757.000000	0.000855
756.000000	0.000858
755.000000	0.000802
754.000000	0.000652
753.000000	0.000527
752.000000	0.000513
751.000000	0.000530
750.000000	0.000486
749.000000	0.000414
748.000000	0.000355
747.000000	0.000252
746.000000	0.000083
745.000000	-0.000047
744.000000	-0.000061
743.000000	-0.000043
742.000000	-0.000094
741.000000	-0.000175
740.000000	-0.000220
739.000000	-0.000272
738.000000	-0.000381
737.000000	-0.000486
736.000000	-0.000527
735.000000	-0.000554
734.000000	-0.000600
733.000000	-0.000592
732.000000	-0.000484
731.000000	-0.000374
730.000000	-0.000348
729.000000	-0.000348
728.000000	-0.000298
727.000000	-0.000249
726.000000	-0.000260
725.000000	-0.000271
724.000000	-0.000215
723.000000	-0.000141
722.000000	-0.000091
721.000000	0.000003
720.000000	0.000170
719.000000	0.000293
718.000000	0.000286
717.000000	0.000245
716.000000	0.000294
715.000000	0.000409
714.000000	0.000505
713.000000	0.000582
712.000000	0.000659
711.000000	0.000681
710.000000	0.000630
709.000000	0.000592
708.000000	0.000619
707.000000	0.000639
706.000000	0.000603
705.000000	0.000586
704.000000	0.000628
703.000000	0.000642
702.000000	0.000584
701.000000	0.000550
700.000000	0.000587
699.000000	0.000577
698.000000	0.000464
697.000000	0.000406
696.000000	0.000556
695.000000	0.000846
694.000000	0.001132
693.000000	0.001382
692.000000	0.001597
691.000000	0.001676
690.000000	0.001562
689.000000	0.001385
688.000000	0.001326
687.000000	0.001449
686.000000	0.001790
685.000000	0.002446
684.000000	0.003397
683.000000	0.004404
682.000000	0.005216
681.000000	0.005773
680.000000	0.006088
679.000000	0.006131
678.000000	0.005918
677.000000	0.005600
676.000000	0.005280
675.000000	0.004895
674.000000	0.004404
673.000000	0.003934
672.000000	0.003589
671.000000	0.003269
670.000000	0.002826
669.000000	0.002277
668.000000	0.001892
667.000000	0.001888
666.000000	0.001968
665.000000	0.002078
664.000000	0.002305
663.000000	0.002525
662.000000	0.002615
661.000000	0.002663
660.000000	0.002784
659.000000	0.002892
658.000000	0.002873
657.000000	0.002793
656.000000	0.002714
655.000000	0.002519
654.000000	0.002142
653.000000	0.001752
652.000000	0.001503
651.000000	0.001326
650.000000	0.001147
649.000000	0.001072
648.000000	0.001182
647.000000	0.001367
646.000000	0.001531
645.000000	0.001719
644.000000	0.001904
643.000000	0.001902
642.000000	0.001665
641.000000	0.001409
640.000000	0.001283
639.000000	0.001176
638.000000	0.001005
637.000000	0.000912
636.000000	0.000973
635.000000	0.001018
634.000000	0.000939
633.000000	0.000898
632.000000	0.001018
631.000000	0.001129
630.000000	0.001063
629.000000	0.000946
628.000000	0.000952
627.000000	0.001015
626.000000	0.001011
625.000000	0.000998
624.000000	0.001043
623.000000	0.001049
622.000000	0.000972
621.000000	0.000974
620.000000	0.001150
619.000000	0.001339
618.000000	0.001394
617.000000	0.001419
616.000000	0.001515
615.000000	0.001574
614.000000	0.001542
613.000000	0.001608
612.000000	0.001884
611.000000	0.002157
610.000000	0.002236
609.000000	0.002265
608.000000	0.002414
607.000000	0.002566
606.000000	0.002584
605.000000	0.002618
604.000000	0.002825
603.000000	0.003048
602.000000	0.003087
601.000000	0.003052
600.000000	0.003137
599.000000	0.003285
598.000000	0.003355
597.000000	0.003394
596.000000	0.003475
595.000000	0.003497
594.000000	0.003392
593.000000	0.003322
592.000000	0.003396
591.000000	0.003430
590.000000	0.003252
589.000000	0.002980
588.000000	0.002766
587.000000	0.002543
586.000000	0.002269
585.000000	0.002110
584.000000	0.002145
583.000000	0.002145
582.000000	0.001931
581.000000	0.001673
580.000000	0.001570
579.000000	0.001527
578.000000	0.001406
577.000000	0.001322
576.000000	0.001397
575.000000	0.001506
574.000000	0.001530
573.000000	0.001592
572.000000	0.001755
571.000000	0.001811
570.000000	0.001632
569.000000	0.001447
568.000000	0.001450
567.000000	0.001474
566.000000	0.001343
565.000000	0.001237
564.000000	0.001352
563.000000	0.001544
562.000000	0.001623
561.000000	0.001704
560.000000	0.001933
559.000000	0.002154
558.000000	0.002199
557.000000	0.002199
556.000000	0.002304
555.000000	0.002368
554.000000	0.002275
553.000000	0.002258
552.000000	0.002513
551.000000	0.002832
550.000000	0.002932
549.000000	0.002894
548.000000	0.002906
547.000000	0.002918
546.000000	0.002870
545.000000	0.002947
544.000000	0.003232
543.000000	0.003450
542.000000	0.003387
541.000000	0.003249
540.000000	0.003274
539.000000	0.003339
538.000000	0.003274
537.000000	0.003215
536.000000	0.003304
535.000000	0.003379
534.000000	0.003300
533.000000	0.003234
532.000000	0.003269
531.000000	0.003167
530.000000	0.002824
529.000000	0.002560
528.000000	0.002591
527.000000	0.002661
526.000000	0.002552
525.000000	0.002528
524.000000	0.002807
523.000000	0.003089
522.000000	0.003064
521.000000	0.002887
520.000000	0.002763
519.000000	0.002497
518.000000	0.001936
517.000000	0.001464
516.000000	0.001473
515.000000	0.001747
514.000000	0.001913
513.000000	0.002009
512.000000	0.002160
511.000000	0.002141
510.000000	0.001763
509.000000	0.001298
508.000000	0.001039
507.000000	0.000842
506.000000	0.000530
505.000000	0.000321
504.000000	0.000400
503.000000	0.000490
502.000000	0.000321
501.000000	0.000143
500.000000	0.000211
499.000000	0.000276
498.000000	0.000065
497.000000	-0.000219
496.000000	-0.000299
495.000000	-0.000318
494.000000	-0.000476
493.000000	-0.000589
492.000000	-0.000486
491.000000	-0.000395
490.000000	-0.000496
489.000000	-0.000531
488.000000	-0.000345
487.000000	-0.000283
486.000000	-0.000568
485.000000	-0.000806
484.000000	-0.000614
483.000000	-0.000300
482.000000	-0.000280
481.000000	-0.000397
480.000000	-0.000374
479.000000	-0.000369
478.000000	-0.000552
477.000000	-0.000624
476.000000	-0.000317
475.000000	0.000071
474.000000	0.000214
473.000000	0.000382
472.000000	0.000888
471.000000	0.001350
470.000000	0.001288
469.000000	0.000878
468.000000	0.000484
467.000000	0.000075
466.000000	-0.000377
465.000000	-0.000506
464.000000	-0.000175
463.000000	0.000084
462.000000	-0.000157
461.000000	-0.000517
460.000000	-0.000483
459.000000	-0.000248
458.000000	-0.000248
457.000000	-0.000341
456.000000	-0.000287
455.000000	-0.000382
454.000000	-0.000746
453.000000	-0.000876
452.000000	-0.000478
451.000000	-0.000124
450.000000	-0.000362
