PE IR       SUBTECH     SPECTRUM    ASCII       PEDS        4.00        
   -1
P3-Bleu008_1.ASC
23/06/13
11:19:52.00
23/06/13
12:04:49.00
uco
Sample 008 By uco Date Tuesday, June 13 2023
450.000000
#HDR
-1
-1
#GR
cm-1
A
1.0
0.0
4000.000000
-1.000000
3551
8
0.014997
-0.001107
#DATA
4000.000000	-0.000412
3999.000000	-0.000411
3998.000000	-0.000410
3997.000000	-0.000406
3996.000000	-0.000397
3995.000000	-0.000383
3994.000000	-0.000369
3993.000000	-0.000363
3992.000000	-0.000367
3991.000000	-0.000376
3990.000000	-0.000383
3989.000000	-0.000384
3988.000000	-0.000386
3987.000000	-0.000392
3986.000000	-0.000402
3985.000000	-0.000408
3984.000000	-0.000403
3983.000000	-0.000391
3982.000000	-0.000378
3981.000000	-0.000374
3980.000000	-0.000381
3979.000000	-0.000397
3978.000000	-0.000416
3977.000000	-0.000431
3976.000000	-0.000436
3975.000000	-0.000430
3974.000000	-0.000414
3973.000000	-0.000397
3972.000000	-0.000388
3971.000000	-0.000388
3970.000000	-0.000391
3969.000000	-0.000387
3968.000000	-0.000370
3967.000000	-0.000342
3966.000000	-0.000314
3965.000000	-0.000296
3964.000000	-0.000297
3963.000000	-0.000318
3962.000000	-0.000354
3961.000000	-0.000392
3960.000000	-0.000421
3959.000000	-0.000431
3958.000000	-0.000421
3957.000000	-0.000400
3956.000000	-0.000379
3955.000000	-0.000368
3954.000000	-0.000366
3953.000000	-0.000366
3952.000000	-0.000362
3951.000000	-0.000355
3950.000000	-0.000352
3949.000000	-0.000360
3948.000000	-0.000374
3947.000000	-0.000385
3946.000000	-0.000386
3945.000000	-0.000375
3944.000000	-0.000357
3943.000000	-0.000334
3942.000000	-0.000317
3941.000000	-0.000311
3940.000000	-0.000318
3939.000000	-0.000333
3938.000000	-0.000348
3937.000000	-0.000359
3936.000000	-0.000365
3935.000000	-0.000361
3934.000000	-0.000341
3933.000000	-0.000308
3932.000000	-0.000275
3931.000000	-0.000259
3930.000000	-0.000267
3929.000000	-0.000286
3928.000000	-0.000298
3927.000000	-0.000294
3926.000000	-0.000282
3925.000000	-0.000275
3924.000000	-0.000286
3923.000000	-0.000312
3922.000000	-0.000340
3921.000000	-0.000364
3920.000000	-0.000380
3919.000000	-0.000385
3918.000000	-0.000375
3917.000000	-0.000347
3916.000000	-0.000307
3915.000000	-0.000268
3914.000000	-0.000239
3913.000000	-0.000223
3912.000000	-0.000215
3911.000000	-0.000210
3910.000000	-0.000203
3909.000000	-0.000194
3908.000000	-0.000186
3907.000000	-0.000190
3906.000000	-0.000217
3905.000000	-0.000276
3904.000000	-0.000349
3903.000000	-0.000406
3902.000000	-0.000424
3901.000000	-0.000407
3900.000000	-0.000374
3899.000000	-0.000340
3898.000000	-0.000313
3897.000000	-0.000299
3896.000000	-0.000300
3895.000000	-0.000317
3894.000000	-0.000346
3893.000000	-0.000379
3892.000000	-0.000405
3891.000000	-0.000409
3890.000000	-0.000391
3889.000000	-0.000367
3888.000000	-0.000350
3887.000000	-0.000341
3886.000000	-0.000333
3885.000000	-0.000329
3884.000000	-0.000334
3883.000000	-0.000347
3882.000000	-0.000362
3881.000000	-0.000372
3880.000000	-0.000370
3879.000000	-0.000357
3878.000000	-0.000336
3877.000000	-0.000316
3876.000000	-0.000300
3875.000000	-0.000288
3874.000000	-0.000282
3873.000000	-0.000290
3872.000000	-0.000313
3871.000000	-0.000344
3870.000000	-0.000366
3869.000000	-0.000371
3868.000000	-0.000361
3867.000000	-0.000347
3866.000000	-0.000332
3865.000000	-0.000324
3864.000000	-0.000330
3863.000000	-0.000348
3862.000000	-0.000368
3861.000000	-0.000384
3860.000000	-0.000396
3859.000000	-0.000399
3858.000000	-0.000386
3857.000000	-0.000354
3856.000000	-0.000317
3855.000000	-0.000293
3854.000000	-0.000304
3853.000000	-0.000341
3852.000000	-0.000366
3851.000000	-0.000368
3850.000000	-0.000359
3849.000000	-0.000347
3848.000000	-0.000335
3847.000000	-0.000327
3846.000000	-0.000323
3845.000000	-0.000325
3844.000000	-0.000331
3843.000000	-0.000339
3842.000000	-0.000344
3841.000000	-0.000345
3840.000000	-0.000348
3839.000000	-0.000360
3838.000000	-0.000385
3837.000000	-0.000410
3836.000000	-0.000427
3835.000000	-0.000431
3834.000000	-0.000426
3833.000000	-0.000415
3832.000000	-0.000400
3831.000000	-0.000387
3830.000000	-0.000382
3829.000000	-0.000384
3828.000000	-0.000384
3827.000000	-0.000372
3826.000000	-0.000346
3825.000000	-0.000318
3824.000000	-0.000298
3823.000000	-0.000283
3822.000000	-0.000267
3821.000000	-0.000261
3820.000000	-0.000278
3819.000000	-0.000322
3818.000000	-0.000382
3817.000000	-0.000435
3816.000000	-0.000452
3815.000000	-0.000423
3814.000000	-0.000376
3813.000000	-0.000340
3812.000000	-0.000326
3811.000000	-0.000332
3810.000000	-0.000353
3809.000000	-0.000380
3808.000000	-0.000395
3807.000000	-0.000380
3806.000000	-0.000348
3805.000000	-0.000327
3804.000000	-0.000332
3803.000000	-0.000348
3802.000000	-0.000349
3801.000000	-0.000319
3800.000000	-0.000280
3799.000000	-0.000261
3798.000000	-0.000271
3797.000000	-0.000300
3796.000000	-0.000328
3795.000000	-0.000342
3794.000000	-0.000347
3793.000000	-0.000352
3792.000000	-0.000359
3791.000000	-0.000355
3790.000000	-0.000331
3789.000000	-0.000290
3788.000000	-0.000247
3787.000000	-0.000214
3786.000000	-0.000198
3785.000000	-0.000193
3784.000000	-0.000191
3783.000000	-0.000190
3782.000000	-0.000197
3781.000000	-0.000217
3780.000000	-0.000245
3779.000000	-0.000268
3778.000000	-0.000275
3777.000000	-0.000268
3776.000000	-0.000259
3775.000000	-0.000250
3774.000000	-0.000246
3773.000000	-0.000253
3772.000000	-0.000275
3771.000000	-0.000308
3770.000000	-0.000340
3769.000000	-0.000362
3768.000000	-0.000378
3767.000000	-0.000384
3766.000000	-0.000377
3765.000000	-0.000353
3764.000000	-0.000324
3763.000000	-0.000306
3762.000000	-0.000307
3761.000000	-0.000320
3760.000000	-0.000336
3759.000000	-0.000350
3758.000000	-0.000362
3757.000000	-0.000372
3756.000000	-0.000379
3755.000000	-0.000381
3754.000000	-0.000377
3753.000000	-0.000374
3752.000000	-0.000379
3751.000000	-0.000392
3750.000000	-0.000392
3749.000000	-0.000373
3748.000000	-0.000352
3747.000000	-0.000347
3746.000000	-0.000358
3745.000000	-0.000358
3744.000000	-0.000331
3743.000000	-0.000298
3742.000000	-0.000298
3741.000000	-0.000336
3740.000000	-0.000387
3739.000000	-0.000428
3738.000000	-0.000449
3737.000000	-0.000451
3736.000000	-0.000442
3735.000000	-0.000425
3734.000000	-0.000406
3733.000000	-0.000386
3732.000000	-0.000365
3731.000000	-0.000346
3730.000000	-0.000336
3729.000000	-0.000334
3728.000000	-0.000327
3727.000000	-0.000305
3726.000000	-0.000278
3725.000000	-0.000272
3724.000000	-0.000296
3723.000000	-0.000331
3722.000000	-0.000349
3721.000000	-0.000341
3720.000000	-0.000317
3719.000000	-0.000293
3718.000000	-0.000282
3717.000000	-0.000285
3716.000000	-0.000295
3715.000000	-0.000303
3714.000000	-0.000303
3713.000000	-0.000295
3712.000000	-0.000288
3711.000000	-0.000293
3710.000000	-0.000311
3709.000000	-0.000332
3708.000000	-0.000341
3707.000000	-0.000327
3706.000000	-0.000298
3705.000000	-0.000272
3704.000000	-0.000269
3703.000000	-0.000290
3702.000000	-0.000315
3701.000000	-0.000324
3700.000000	-0.000307
3699.000000	-0.000277
3698.000000	-0.000249
3697.000000	-0.000229
3696.000000	-0.000220
3695.000000	-0.000220
3694.000000	-0.000232
3693.000000	-0.000256
3692.000000	-0.000287
3691.000000	-0.000320
3690.000000	-0.000346
3689.000000	-0.000352
3688.000000	-0.000330
3687.000000	-0.000294
3686.000000	-0.000268
3685.000000	-0.000260
3684.000000	-0.000258
3683.000000	-0.000252
3682.000000	-0.000237
3681.000000	-0.000221
3680.000000	-0.000208
3679.000000	-0.000196
3678.000000	-0.000187
3677.000000	-0.000186
3676.000000	-0.000195
3675.000000	-0.000211
3674.000000	-0.000230
3673.000000	-0.000257
3672.000000	-0.000291
3671.000000	-0.000312
3670.000000	-0.000298
3669.000000	-0.000253
3668.000000	-0.000202
3667.000000	-0.000161
3666.000000	-0.000128
3665.000000	-0.000095
3664.000000	-0.000057
3663.000000	-0.000017
3662.000000	0.000016
3661.000000	0.000032
3660.000000	0.000030
3659.000000	0.000014
3658.000000	-0.000008
3657.000000	-0.000027
3656.000000	-0.000034
3655.000000	-0.000028
3654.000000	-0.000024
3653.000000	-0.000037
3652.000000	-0.000067
3651.000000	-0.000102
3650.000000	-0.000129
3649.000000	-0.000128
3648.000000	-0.000085
3647.000000	-0.000007
3646.000000	0.000074
3645.000000	0.000137
3644.000000	0.000182
3643.000000	0.000218
3642.000000	0.000251
3641.000000	0.000272
3640.000000	0.000277
3639.000000	0.000276
3638.000000	0.000276
3637.000000	0.000279
3636.000000	0.000282
3635.000000	0.000292
3634.000000	0.000313
3633.000000	0.000338
3632.000000	0.000350
3631.000000	0.000343
3630.000000	0.000330
3629.000000	0.000332
3628.000000	0.000357
3627.000000	0.000391
3626.000000	0.000415
3625.000000	0.000429
3624.000000	0.000452
3623.000000	0.000497
3622.000000	0.000562
3621.000000	0.000626
3620.000000	0.000670
3619.000000	0.000688
3618.000000	0.000689
3617.000000	0.000687
3616.000000	0.000687
3615.000000	0.000701
3614.000000	0.000729
3613.000000	0.000765
3612.000000	0.000795
3611.000000	0.000823
3610.000000	0.000857
3609.000000	0.000901
3608.000000	0.000945
3607.000000	0.000977
3606.000000	0.000992
3605.000000	0.000994
3604.000000	0.000993
3603.000000	0.001003
3602.000000	0.001028
3601.000000	0.001060
3600.000000	0.001089
3599.000000	0.001116
3598.000000	0.001149
3597.000000	0.001196
3596.000000	0.001252
3595.000000	0.001305
3594.000000	0.001340
3593.000000	0.001352
3592.000000	0.001352
3591.000000	0.001358
3590.000000	0.001387
3589.000000	0.001434
3588.000000	0.001485
3587.000000	0.001525
3586.000000	0.001554
3585.000000	0.001575
3584.000000	0.001592
3583.000000	0.001611
3582.000000	0.001631
3581.000000	0.001650
3580.000000	0.001673
3579.000000	0.001708
3578.000000	0.001753
3577.000000	0.001795
3576.000000	0.001820
3575.000000	0.001833
3574.000000	0.001852
3573.000000	0.001890
3572.000000	0.001939
3571.000000	0.001986
3570.000000	0.002027
3569.000000	0.002071
3568.000000	0.002137
3567.000000	0.002225
3566.000000	0.002313
3565.000000	0.002370
3564.000000	0.002391
3563.000000	0.002394
3562.000000	0.002404
3561.000000	0.002425
3560.000000	0.002453
3559.000000	0.002483
3558.000000	0.002512
3557.000000	0.002541
3556.000000	0.002567
3555.000000	0.002590
3554.000000	0.002619
3553.000000	0.002660
3552.000000	0.002715
3551.000000	0.002770
3550.000000	0.002816
3549.000000	0.002852
3548.000000	0.002891
3547.000000	0.002946
3546.000000	0.003014
3545.000000	0.003077
3544.000000	0.003121
3543.000000	0.003148
3542.000000	0.003163
3541.000000	0.003168
3540.000000	0.003172
3539.000000	0.003187
3538.000000	0.003225
3537.000000	0.003282
3536.000000	0.003341
3535.000000	0.003390
3534.000000	0.003428
3533.000000	0.003457
3532.000000	0.003483
3531.000000	0.003504
3530.000000	0.003518
3529.000000	0.003524
3528.000000	0.003529
3527.000000	0.003541
3526.000000	0.003562
3525.000000	0.003593
3524.000000	0.003636
3523.000000	0.003696
3522.000000	0.003765
3521.000000	0.003828
3520.000000	0.003876
3519.000000	0.003915
3518.000000	0.003951
3517.000000	0.003981
3516.000000	0.003995
3515.000000	0.003993
3514.000000	0.003986
3513.000000	0.003993
3512.000000	0.004027
3511.000000	0.004080
3510.000000	0.004128
3509.000000	0.004149
3508.000000	0.004144
3507.000000	0.004134
3506.000000	0.004141
3505.000000	0.004173
3504.000000	0.004224
3503.000000	0.004287
3502.000000	0.004353
3501.000000	0.004411
3500.000000	0.004456
3499.000000	0.004493
3498.000000	0.004530
3497.000000	0.004565
3496.000000	0.004594
3495.000000	0.004614
3494.000000	0.004630
3493.000000	0.004646
3492.000000	0.004666
3491.000000	0.004692
3490.000000	0.004725
3489.000000	0.004759
3488.000000	0.004790
3487.000000	0.004813
3486.000000	0.004827
3485.000000	0.004837
3484.000000	0.004853
3483.000000	0.004881
3482.000000	0.004921
3481.000000	0.004960
3480.000000	0.004988
3479.000000	0.005006
3478.000000	0.005018
3477.000000	0.005029
3476.000000	0.005050
3475.000000	0.005092
3474.000000	0.005157
3473.000000	0.005225
3472.000000	0.005272
3471.000000	0.005284
3470.000000	0.005271
3469.000000	0.005253
3468.000000	0.005253
3467.000000	0.005276
3466.000000	0.005312
3465.000000	0.005345
3464.000000	0.005367
3463.000000	0.005380
3462.000000	0.005392
3461.000000	0.005405
3460.000000	0.005423
3459.000000	0.005452
3458.000000	0.005497
3457.000000	0.005551
3456.000000	0.005599
3455.000000	0.005627
3454.000000	0.005634
3453.000000	0.005628
3452.000000	0.005623
3451.000000	0.005631
3450.000000	0.005656
3449.000000	0.005692
3448.000000	0.005729
3447.000000	0.005762
3446.000000	0.005783
3445.000000	0.005798
3444.000000	0.005818
3443.000000	0.005855
3442.000000	0.005909
3441.000000	0.005962
3440.000000	0.006006
3439.000000	0.006041
3438.000000	0.006073
3437.000000	0.006100
3436.000000	0.006117
3435.000000	0.006126
3434.000000	0.006134
3433.000000	0.006145
3432.000000	0.006162
3431.000000	0.006185
3430.000000	0.006214
3429.000000	0.006245
3428.000000	0.006271
3427.000000	0.006294
3426.000000	0.006315
3425.000000	0.006331
3424.000000	0.006341
3423.000000	0.006354
3422.000000	0.006381
3421.000000	0.006424
3420.000000	0.006473
3419.000000	0.006516
3418.000000	0.006551
3417.000000	0.006583
3416.000000	0.006621
3415.000000	0.006662
3414.000000	0.006697
3413.000000	0.006714
3412.000000	0.006711
3411.000000	0.006701
3410.000000	0.006696
3409.000000	0.006707
3408.000000	0.006737
3407.000000	0.006783
3406.000000	0.006831
3405.000000	0.006868
3404.000000	0.006889
3403.000000	0.006902
3402.000000	0.006922
3401.000000	0.006951
3400.000000	0.006987
3399.000000	0.007027
3398.000000	0.007065
3397.000000	0.007088
3396.000000	0.007090
3395.000000	0.007077
3394.000000	0.007062
3393.000000	0.007052
3392.000000	0.007046
3391.000000	0.007042
3390.000000	0.007048
3389.000000	0.007064
3388.000000	0.007090
3387.000000	0.007119
3386.000000	0.007150
3385.000000	0.007188
3384.000000	0.007240
3383.000000	0.007304
3382.000000	0.007365
3381.000000	0.007403
3380.000000	0.007407
3379.000000	0.007385
3378.000000	0.007357
3377.000000	0.007338
3376.000000	0.007335
3375.000000	0.007352
3374.000000	0.007386
3373.000000	0.007430
3372.000000	0.007471
3371.000000	0.007499
3370.000000	0.007507
3369.000000	0.007501
3368.000000	0.007493
3367.000000	0.007494
3366.000000	0.007503
3365.000000	0.007510
3364.000000	0.007514
3363.000000	0.007521
3362.000000	0.007534
3361.000000	0.007553
3360.000000	0.007569
3359.000000	0.007585
3358.000000	0.007603
3357.000000	0.007626
3356.000000	0.007655
3355.000000	0.007687
3354.000000	0.007715
3353.000000	0.007732
3352.000000	0.007737
3351.000000	0.007735
3350.000000	0.007730
3349.000000	0.007725
3348.000000	0.007724
3347.000000	0.007729
3346.000000	0.007742
3345.000000	0.007758
3344.000000	0.007777
3343.000000	0.007802
3342.000000	0.007829
3341.000000	0.007847
3340.000000	0.007845
3339.000000	0.007826
3338.000000	0.007807
3337.000000	0.007799
3336.000000	0.007806
3335.000000	0.007824
3334.000000	0.007847
3333.000000	0.007873
3332.000000	0.007897
3331.000000	0.007917
3330.000000	0.007929
3329.000000	0.007930
3328.000000	0.007923
3327.000000	0.007916
3326.000000	0.007911
3325.000000	0.007904
3324.000000	0.007896
3323.000000	0.007894
3322.000000	0.007903
3321.000000	0.007924
3320.000000	0.007951
3319.000000	0.007981
3318.000000	0.008005
3317.000000	0.008017
3316.000000	0.008017
3315.000000	0.008016
3314.000000	0.008021
3313.000000	0.008028
3312.000000	0.008029
3311.000000	0.008024
3310.000000	0.008013
3309.000000	0.007996
3308.000000	0.007974
3307.000000	0.007958
3306.000000	0.007963
3305.000000	0.007990
3304.000000	0.008029
3303.000000	0.008065
3302.000000	0.008087
3301.000000	0.008088
3300.000000	0.008073
3299.000000	0.008055
3298.000000	0.008046
3297.000000	0.008048
3296.000000	0.008055
3295.000000	0.008059
3294.000000	0.008057
3293.000000	0.008058
3292.000000	0.008069
3291.000000	0.008093
3290.000000	0.008117
3289.000000	0.008125
3288.000000	0.008114
3287.000000	0.008096
3286.000000	0.008078
3285.000000	0.008065
3284.000000	0.008057
3283.000000	0.008056
3282.000000	0.008060
3281.000000	0.008065
3280.000000	0.008066
3279.000000	0.008064
3278.000000	0.008064
3277.000000	0.008061
3276.000000	0.008049
3275.000000	0.008029
3274.000000	0.008007
3273.000000	0.007991
3272.000000	0.007988
3271.000000	0.008000
3270.000000	0.008023
3269.000000	0.008048
3268.000000	0.008068
3267.000000	0.008078
3266.000000	0.008077
3265.000000	0.008068
3264.000000	0.008059
3263.000000	0.008056
3262.000000	0.008053
3261.000000	0.008038
3260.000000	0.008010
3259.000000	0.007979
3258.000000	0.007961
3257.000000	0.007959
3256.000000	0.007965
3255.000000	0.007969
3254.000000	0.007966
3253.000000	0.007956
3252.000000	0.007943
3251.000000	0.007931
3250.000000	0.007917
3249.000000	0.007898
3248.000000	0.007872
3247.000000	0.007846
3246.000000	0.007829
3245.000000	0.007825
3244.000000	0.007839
3243.000000	0.007870
3242.000000	0.007905
3241.000000	0.007917
3240.000000	0.007891
3239.000000	0.007837
3238.000000	0.007775
3237.000000	0.007722
3236.000000	0.007680
3235.000000	0.007649
3234.000000	0.007631
3233.000000	0.007627
3232.000000	0.007629
3231.000000	0.007629
3230.000000	0.007617
3229.000000	0.007594
3228.000000	0.007567
3227.000000	0.007546
3226.000000	0.007538
3225.000000	0.007533
3224.000000	0.007524
3223.000000	0.007509
3222.000000	0.007494
3221.000000	0.007485
3220.000000	0.007478
3219.000000	0.007470
3218.000000	0.007459
3217.000000	0.007443
3216.000000	0.007423
3215.000000	0.007399
3214.000000	0.007375
3213.000000	0.007358
3212.000000	0.007355
3211.000000	0.007368
3210.000000	0.007389
3209.000000	0.007404
3208.000000	0.007399
3207.000000	0.007368
3206.000000	0.007322
3205.000000	0.007281
3204.000000	0.007266
3203.000000	0.007278
3202.000000	0.007296
3201.000000	0.007290
3200.000000	0.007249
3199.000000	0.007192
3198.000000	0.007148
3197.000000	0.007128
3196.000000	0.007126
3195.000000	0.007123
3194.000000	0.007113
3193.000000	0.007093
3192.000000	0.007065
3191.000000	0.007032
3190.000000	0.006995
3189.000000	0.006963
3188.000000	0.006941
3187.000000	0.006931
3186.000000	0.006923
3185.000000	0.006911
3184.000000	0.006895
3183.000000	0.006881
3182.000000	0.006871
3181.000000	0.006859
3180.000000	0.006839
3179.000000	0.006814
3178.000000	0.006786
3177.000000	0.006753
3176.000000	0.006715
3175.000000	0.006680
3174.000000	0.006655
3173.000000	0.006639
3172.000000	0.006627
3171.000000	0.006609
3170.000000	0.006586
3169.000000	0.006567
3168.000000	0.006559
3167.000000	0.006562
3166.000000	0.006564
3165.000000	0.006554
3164.000000	0.006530
3163.000000	0.006501
3162.000000	0.006475
3161.000000	0.006453
3160.000000	0.006433
3159.000000	0.006409
3158.000000	0.006375
3157.000000	0.006329
3156.000000	0.006280
3155.000000	0.006242
3154.000000	0.006228
3153.000000	0.006233
3152.000000	0.006241
3151.000000	0.006230
3150.000000	0.006193
3149.000000	0.006139
3148.000000	0.006087
3147.000000	0.006052
3146.000000	0.006031
3145.000000	0.006013
3144.000000	0.005991
3143.000000	0.005968
3142.000000	0.005953
3141.000000	0.005950
3140.000000	0.005950
3139.000000	0.005941
3138.000000	0.005910
3137.000000	0.005855
3136.000000	0.005794
3135.000000	0.005754
3134.000000	0.005748
3133.000000	0.005763
3132.000000	0.005769
3131.000000	0.005750
3130.000000	0.005710
3129.000000	0.005667
3128.000000	0.005635
3127.000000	0.005617
3126.000000	0.005612
3125.000000	0.005612
3124.000000	0.005605
3123.000000	0.005579
3122.000000	0.005527
3121.000000	0.005461
3120.000000	0.005400
3119.000000	0.005360
3118.000000	0.005344
3117.000000	0.005339
3116.000000	0.005335
3115.000000	0.005327
3114.000000	0.005320
3113.000000	0.005321
3112.000000	0.005331
3111.000000	0.005341
3110.000000	0.005337
3109.000000	0.005312
3108.000000	0.005270
3107.000000	0.005225
3106.000000	0.005193
3105.000000	0.005178
3104.000000	0.005179
3103.000000	0.005184
3102.000000	0.005182
3101.000000	0.005167
3100.000000	0.005144
3099.000000	0.005115
3098.000000	0.005075
3097.000000	0.005021
3096.000000	0.004968
3095.000000	0.004938
3094.000000	0.004940
3093.000000	0.004958
3092.000000	0.004970
3091.000000	0.004967
3090.000000	0.004949
3089.000000	0.004921
3088.000000	0.004886
3087.000000	0.004847
3086.000000	0.004813
3085.000000	0.004796
3084.000000	0.004795
3083.000000	0.004801
3082.000000	0.004798
3081.000000	0.004779
3080.000000	0.004754
3079.000000	0.004737
3078.000000	0.004735
3077.000000	0.004742
3076.000000	0.004747
3075.000000	0.004746
3074.000000	0.004732
3073.000000	0.004705
3072.000000	0.004668
3071.000000	0.004632
3070.000000	0.004602
3069.000000	0.004577
3068.000000	0.004552
3067.000000	0.004530
3066.000000	0.004510
3065.000000	0.004489
3064.000000	0.004468
3063.000000	0.004450
3062.000000	0.004443
3061.000000	0.004445
3060.000000	0.004453
3059.000000	0.004459
3058.000000	0.004456
3057.000000	0.004438
3056.000000	0.004405
3055.000000	0.004369
3054.000000	0.004344
3053.000000	0.004332
3052.000000	0.004320
3051.000000	0.004297
3050.000000	0.004262
3049.000000	0.004229
3048.000000	0.004207
3047.000000	0.004191
3046.000000	0.004169
3045.000000	0.004131
3044.000000	0.004079
3043.000000	0.004021
3042.000000	0.003968
3041.000000	0.003936
3040.000000	0.003937
3039.000000	0.003967
3038.000000	0.004002
3037.000000	0.004015
3036.000000	0.003994
3035.000000	0.003953
3034.000000	0.003917
3033.000000	0.003907
3032.000000	0.003931
3031.000000	0.003972
3030.000000	0.004000
3029.000000	0.003991
3028.000000	0.003948
3027.000000	0.003895
3026.000000	0.003859
3025.000000	0.003849
3024.000000	0.003855
3023.000000	0.003858
3022.000000	0.003843
3021.000000	0.003808
3020.000000	0.003767
3019.000000	0.003735
3018.000000	0.003723
3017.000000	0.003729
3016.000000	0.003746
3015.000000	0.003768
3014.000000	0.003788
3013.000000	0.003796
3012.000000	0.003790
3011.000000	0.003780
3010.000000	0.003777
3009.000000	0.003784
3008.000000	0.003797
3007.000000	0.003810
3006.000000	0.003816
3005.000000	0.003812
3004.000000	0.003796
3003.000000	0.003775
3002.000000	0.003760
3001.000000	0.003758
3000.000000	0.003770
2999.000000	0.003793
2998.000000	0.003816
2997.000000	0.003835
2996.000000	0.003856
2995.000000	0.003888
2994.000000	0.003934
2993.000000	0.003989
2992.000000	0.004043
2991.000000	0.004092
2990.000000	0.004130
2989.000000	0.004157
2988.000000	0.004174
2987.000000	0.004191
2986.000000	0.004214
2985.000000	0.004245
2984.000000	0.004281
2983.000000	0.004318
2982.000000	0.004351
2981.000000	0.004374
2980.000000	0.004388
2979.000000	0.004405
2978.000000	0.004443
2977.000000	0.004512
2976.000000	0.004605
2975.000000	0.004708
2974.000000	0.004807
2973.000000	0.004898
2972.000000	0.004980
2971.000000	0.005056
2970.000000	0.005127
2969.000000	0.005193
2968.000000	0.005254
2967.000000	0.005311
2966.000000	0.005369
2965.000000	0.005431
2964.000000	0.005500
2963.000000	0.005575
2962.000000	0.005651
2961.000000	0.005720
2960.000000	0.005778
2959.000000	0.005825
2958.000000	0.005864
2957.000000	0.005896
2956.000000	0.005924
2955.000000	0.005948
2954.000000	0.005972
2953.000000	0.005994
2952.000000	0.006012
2951.000000	0.006025
2950.000000	0.006033
2949.000000	0.006045
2948.000000	0.006067
2947.000000	0.006104
2946.000000	0.006156
2945.000000	0.006224
2944.000000	0.006305
2943.000000	0.006396
2942.000000	0.006490
2941.000000	0.006583
2940.000000	0.006673
2939.000000	0.006762
2938.000000	0.006848
2937.000000	0.006930
2936.000000	0.007007
2935.000000	0.007080
2934.000000	0.007143
2933.000000	0.007196
2932.000000	0.007242
2931.000000	0.007290
2930.000000	0.007339
2929.000000	0.007383
2928.000000	0.007412
2927.000000	0.007425
2926.000000	0.007430
2925.000000	0.007432
2924.000000	0.007434
2923.000000	0.007430
2922.000000	0.007415
2921.000000	0.007382
2920.000000	0.007328
2919.000000	0.007256
2918.000000	0.007171
2917.000000	0.007077
2916.000000	0.006978
2915.000000	0.006880
2914.000000	0.006792
2913.000000	0.006715
2912.000000	0.006647
2911.000000	0.006579
2910.000000	0.006503
2909.000000	0.006420
2908.000000	0.006341
2907.000000	0.006275
2906.000000	0.006222
2905.000000	0.006177
2904.000000	0.006141
2903.000000	0.006114
2902.000000	0.006093
2901.000000	0.006064
2900.000000	0.006019
2899.000000	0.005959
2898.000000	0.005895
2897.000000	0.005833
2896.000000	0.005775
2895.000000	0.005720
2894.000000	0.005675
2893.000000	0.005641
2892.000000	0.005617
2891.000000	0.005595
2890.000000	0.005568
2889.000000	0.005534
2888.000000	0.005496
2887.000000	0.005460
2886.000000	0.005431
2885.000000	0.005405
2884.000000	0.005380
2883.000000	0.005364
2882.000000	0.005369
2881.000000	0.005397
2880.000000	0.005441
2879.000000	0.005483
2878.000000	0.005516
2877.000000	0.005537
2876.000000	0.005549
2875.000000	0.005553
2874.000000	0.005548
2873.000000	0.005537
2872.000000	0.005517
2871.000000	0.005489
2870.000000	0.005455
2869.000000	0.005421
2868.000000	0.005397
2867.000000	0.005386
2866.000000	0.005385
2865.000000	0.005392
2864.000000	0.005404
2863.000000	0.005422
2862.000000	0.005438
2861.000000	0.005447
2860.000000	0.005454
2859.000000	0.005467
2858.000000	0.005487
2857.000000	0.005502
2856.000000	0.005503
2855.000000	0.005491
2854.000000	0.005473
2853.000000	0.005451
2852.000000	0.005418
2851.000000	0.005369
2850.000000	0.005306
2849.000000	0.005235
2848.000000	0.005156
2847.000000	0.005062
2846.000000	0.004949
2845.000000	0.004824
2844.000000	0.004703
2843.000000	0.004596
2842.000000	0.004506
2841.000000	0.004426
2840.000000	0.004351
2839.000000	0.004280
2838.000000	0.004214
2837.000000	0.004153
2836.000000	0.004101
2835.000000	0.004061
2834.000000	0.004036
2833.000000	0.004025
2832.000000	0.004020
2831.000000	0.004014
2830.000000	0.004005
2829.000000	0.003989
2828.000000	0.003965
2827.000000	0.003935
2826.000000	0.003902
2825.000000	0.003868
2824.000000	0.003829
2823.000000	0.003782
2822.000000	0.003729
2821.000000	0.003684
2820.000000	0.003656
2819.000000	0.003646
2818.000000	0.003645
2817.000000	0.003645
2816.000000	0.003643
2815.000000	0.003636
2814.000000	0.003623
2813.000000	0.003603
2812.000000	0.003573
2811.000000	0.003533
2810.000000	0.003494
2809.000000	0.003472
2808.000000	0.003471
2807.000000	0.003477
2806.000000	0.003475
2805.000000	0.003459
2804.000000	0.003443
2803.000000	0.003436
2802.000000	0.003434
2801.000000	0.003429
2800.000000	0.003416
2799.000000	0.003401
2798.000000	0.003392
2797.000000	0.003390
2796.000000	0.003390
2795.000000	0.003390
2794.000000	0.003388
2793.000000	0.003379
2792.000000	0.003361
2791.000000	0.003335
2790.000000	0.003309
2789.000000	0.003292
2788.000000	0.003291
2787.000000	0.003302
2786.000000	0.003318
2785.000000	0.003331
2784.000000	0.003337
2783.000000	0.003336
2782.000000	0.003325
2781.000000	0.003305
2780.000000	0.003278
2779.000000	0.003253
2778.000000	0.003238
2777.000000	0.003232
2776.000000	0.003227
2775.000000	0.003217
2774.000000	0.003200
2773.000000	0.003180
2772.000000	0.003161
2771.000000	0.003145
2770.000000	0.003134
2769.000000	0.003127
2768.000000	0.003123
2767.000000	0.003116
2766.000000	0.003109
2765.000000	0.003102
2764.000000	0.003098
2763.000000	0.003095
2762.000000	0.003093
2761.000000	0.003094
2760.000000	0.003095
2759.000000	0.003087
2758.000000	0.003067
2757.000000	0.003041
2756.000000	0.003019
2755.000000	0.003009
2754.000000	0.003013
2753.000000	0.003030
2752.000000	0.003056
2751.000000	0.003082
2750.000000	0.003097
2749.000000	0.003100
2748.000000	0.003089
2747.000000	0.003066
2746.000000	0.003029
2745.000000	0.002988
2744.000000	0.002958
2743.000000	0.002950
2742.000000	0.002960
2741.000000	0.002973
2740.000000	0.002976
2739.000000	0.002968
2738.000000	0.002958
2737.000000	0.002959
2736.000000	0.002974
2735.000000	0.003000
2734.000000	0.003025
2733.000000	0.003039
2732.000000	0.003042
2731.000000	0.003037
2730.000000	0.003030
2729.000000	0.003024
2728.000000	0.003013
2727.000000	0.002991
2726.000000	0.002957
2725.000000	0.002925
2724.000000	0.002906
2723.000000	0.002906
2722.000000	0.002916
2721.000000	0.002926
2720.000000	0.002930
2719.000000	0.002920
2718.000000	0.002897
2717.000000	0.002869
2716.000000	0.002851
2715.000000	0.002847
2714.000000	0.002849
2713.000000	0.002845
2712.000000	0.002831
2711.000000	0.002812
2710.000000	0.002801
2709.000000	0.002799
2708.000000	0.002803
2707.000000	0.002810
2706.000000	0.002818
2705.000000	0.002829
2704.000000	0.002841
2703.000000	0.002846
2702.000000	0.002838
2701.000000	0.002821
2700.000000	0.002807
2699.000000	0.002803
2698.000000	0.002809
2697.000000	0.002813
2696.000000	0.002810
2695.000000	0.002799
2694.000000	0.002788
2693.000000	0.002782
2692.000000	0.002783
2691.000000	0.002787
2690.000000	0.002789
2689.000000	0.002782
2688.000000	0.002763
2687.000000	0.002740
2686.000000	0.002728
2685.000000	0.002735
2684.000000	0.002752
2683.000000	0.002765
2682.000000	0.002767
2681.000000	0.002762
2680.000000	0.002757
2679.000000	0.002754
2678.000000	0.002751
2677.000000	0.002749
2676.000000	0.002747
2675.000000	0.002744
2674.000000	0.002735
2673.000000	0.002718
2672.000000	0.002701
2671.000000	0.002691
2670.000000	0.002690
2669.000000	0.002696
2668.000000	0.002704
2667.000000	0.002713
2666.000000	0.002725
2665.000000	0.002740
2664.000000	0.002751
2663.000000	0.002750
2662.000000	0.002742
2661.000000	0.002735
2660.000000	0.002735
2659.000000	0.002739
2658.000000	0.002738
2657.000000	0.002734
2656.000000	0.002730
2655.000000	0.002725
2654.000000	0.002717
2653.000000	0.002705
2652.000000	0.002689
2651.000000	0.002670
2650.000000	0.002651
2649.000000	0.002640
2648.000000	0.002638
2647.000000	0.002641
2646.000000	0.002637
2645.000000	0.002618
2644.000000	0.002585
2643.000000	0.002553
2642.000000	0.002531
2641.000000	0.002524
2640.000000	0.002526
2639.000000	0.002527
2638.000000	0.002518
2637.000000	0.002498
2636.000000	0.002469
2635.000000	0.002440
2634.000000	0.002417
2633.000000	0.002405
2632.000000	0.002401
2631.000000	0.002399
2630.000000	0.002390
2629.000000	0.002372
2628.000000	0.002348
2627.000000	0.002321
2626.000000	0.002294
2625.000000	0.002271
2624.000000	0.002255
2623.000000	0.002248
2622.000000	0.002252
2621.000000	0.002263
2620.000000	0.002280
2619.000000	0.002294
2618.000000	0.002298
2617.000000	0.002288
2616.000000	0.002269
2615.000000	0.002252
2614.000000	0.002242
2613.000000	0.002233
2612.000000	0.002208
2611.000000	0.002165
2610.000000	0.002117
2609.000000	0.002082
2608.000000	0.002067
2607.000000	0.002067
2606.000000	0.002076
2605.000000	0.002088
2604.000000	0.002092
2603.000000	0.002084
2602.000000	0.002070
2601.000000	0.002062
2600.000000	0.002061
2599.000000	0.002059
2598.000000	0.002049
2597.000000	0.002036
2596.000000	0.002026
2595.000000	0.002027
2594.000000	0.002044
2593.000000	0.002073
2592.000000	0.002090
2591.000000	0.002074
2590.000000	0.002029
2589.000000	0.001984
2588.000000	0.001957
2587.000000	0.001938
2586.000000	0.001904
2585.000000	0.001856
2584.000000	0.001821
2583.000000	0.001828
2582.000000	0.001880
2581.000000	0.001955
2580.000000	0.002016
2579.000000	0.002040
2578.000000	0.002027
2577.000000	0.001994
2576.000000	0.001954
2575.000000	0.001912
2574.000000	0.001876
2573.000000	0.001863
2572.000000	0.001877
2571.000000	0.001906
2570.000000	0.001930
2569.000000	0.001937
2568.000000	0.001922
2567.000000	0.001887
2566.000000	0.001851
2565.000000	0.001839
2564.000000	0.001861
2563.000000	0.001894
2562.000000	0.001909
2561.000000	0.001898
2560.000000	0.001870
2559.000000	0.001844
2558.000000	0.001828
2557.000000	0.001825
2556.000000	0.001824
2555.000000	0.001813
2554.000000	0.001799
2553.000000	0.001803
2552.000000	0.001830
2551.000000	0.001859
2550.000000	0.001866
2549.000000	0.001848
2548.000000	0.001818
2547.000000	0.001782
2546.000000	0.001745
2545.000000	0.001718
2544.000000	0.001715
2543.000000	0.001734
2542.000000	0.001763
2541.000000	0.001792
2540.000000	0.001809
2539.000000	0.001798
2538.000000	0.001759
2537.000000	0.001713
2536.000000	0.001691
2535.000000	0.001697
2534.000000	0.001710
2533.000000	0.001715
2532.000000	0.001716
2531.000000	0.001714
2530.000000	0.001710
2529.000000	0.001707
2528.000000	0.001718
2527.000000	0.001744
2526.000000	0.001769
2525.000000	0.001773
2524.000000	0.001753
2523.000000	0.001722
2522.000000	0.001702
2521.000000	0.001705
2520.000000	0.001725
2519.000000	0.001736
2518.000000	0.001721
2517.000000	0.001694
2516.000000	0.001681
2515.000000	0.001694
2514.000000	0.001716
2513.000000	0.001723
2512.000000	0.001707
2511.000000	0.001678
2510.000000	0.001651
2509.000000	0.001631
2508.000000	0.001620
2507.000000	0.001617
2506.000000	0.001628
2505.000000	0.001667
2504.000000	0.001739
2503.000000	0.001820
2502.000000	0.001870
2501.000000	0.001862
2500.000000	0.001810
2499.000000	0.001746
2498.000000	0.001689
2497.000000	0.001638
2496.000000	0.001593
2495.000000	0.001570
2494.000000	0.001582
2493.000000	0.001619
2492.000000	0.001654
2491.000000	0.001667
2490.000000	0.001656
2489.000000	0.001634
2488.000000	0.001603
2487.000000	0.001568
2486.000000	0.001534
2485.000000	0.001509
2484.000000	0.001490
2483.000000	0.001476
2482.000000	0.001473
2481.000000	0.001487
2480.000000	0.001514
2479.000000	0.001537
2478.000000	0.001551
2477.000000	0.001566
2476.000000	0.001589
2475.000000	0.001615
2474.000000	0.001630
2473.000000	0.001626
2472.000000	0.001608
2471.000000	0.001581
2470.000000	0.001556
2469.000000	0.001540
2468.000000	0.001536
2467.000000	0.001540
2466.000000	0.001555
2465.000000	0.001583
2464.000000	0.001617
2463.000000	0.001643
2462.000000	0.001657
2461.000000	0.001664
2460.000000	0.001666
2459.000000	0.001661
2458.000000	0.001655
2457.000000	0.001662
2456.000000	0.001690
2455.000000	0.001721
2454.000000	0.001735
2453.000000	0.001725
2452.000000	0.001694
2451.000000	0.001650
2450.000000	0.001606
2449.000000	0.001575
2448.000000	0.001563
2447.000000	0.001564
2446.000000	0.001571
2445.000000	0.001586
2444.000000	0.001600
2443.000000	0.001596
2442.000000	0.001572
2441.000000	0.001555
2440.000000	0.001565
2439.000000	0.001585
2438.000000	0.001573
2437.000000	0.001517
2436.000000	0.001452
2435.000000	0.001423
2434.000000	0.001441
2433.000000	0.001480
2432.000000	0.001503
2431.000000	0.001495
2430.000000	0.001472
2429.000000	0.001461
2428.000000	0.001473
2427.000000	0.001494
2426.000000	0.001507
2425.000000	0.001515
2424.000000	0.001533
2423.000000	0.001565
2422.000000	0.001594
2421.000000	0.001599
2420.000000	0.001577
2419.000000	0.001546
2418.000000	0.001525
2417.000000	0.001518
2416.000000	0.001515
2415.000000	0.001515
2414.000000	0.001525
2413.000000	0.001545
2412.000000	0.001555
2411.000000	0.001538
2410.000000	0.001507
2409.000000	0.001490
2408.000000	0.001494
2407.000000	0.001498
2406.000000	0.001479
2405.000000	0.001437
2404.000000	0.001389
2403.000000	0.001351
2402.000000	0.001334
2401.000000	0.001337
2400.000000	0.001349
2399.000000	0.001354
2398.000000	0.001356
2397.000000	0.001375
2396.000000	0.001421
2395.000000	0.001472
2394.000000	0.001500
2393.000000	0.001497
2392.000000	0.001479
2391.000000	0.001460
2390.000000	0.001436
2389.000000	0.001400
2388.000000	0.001362
2387.000000	0.001349
2386.000000	0.001378
2385.000000	0.001435
2384.000000	0.001474
2383.000000	0.001458
2382.000000	0.001400
2381.000000	0.001345
2380.000000	0.001316
2379.000000	0.001298
2378.000000	0.001270
2377.000000	0.001238
2376.000000	0.001232
2375.000000	0.001265
2374.000000	0.001316
2373.000000	0.001360
2372.000000	0.001387
2371.000000	0.001409
2370.000000	0.001436
2369.000000	0.001456
2368.000000	0.001449
2367.000000	0.001413
2366.000000	0.001373
2365.000000	0.001361
2364.000000	0.001377
2363.000000	0.001404
2362.000000	0.001432
2361.000000	0.001462
2360.000000	0.001487
2359.000000	0.001494
2358.000000	0.001488
2357.000000	0.001486
2356.000000	0.001498
2355.000000	0.001517
2354.000000	0.001520
2353.000000	0.001492
2352.000000	0.001457
2351.000000	0.001465
2350.000000	0.001535
2349.000000	0.001639
2348.000000	0.001724
2347.000000	0.001744
2346.000000	0.001689
2345.000000	0.001616
2344.000000	0.001591
2343.000000	0.001617
2342.000000	0.001648
2341.000000	0.001651
2340.000000	0.001624
2339.000000	0.001590
2338.000000	0.001570
2337.000000	0.001583
2336.000000	0.001627
2335.000000	0.001675
2334.000000	0.001685
2333.000000	0.001643
2332.000000	0.001577
2331.000000	0.001523
2330.000000	0.001490
2329.000000	0.001476
2328.000000	0.001486
2327.000000	0.001543
2326.000000	0.001649
2325.000000	0.001774
2324.000000	0.001866
2323.000000	0.001884
2322.000000	0.001836
2321.000000	0.001766
2320.000000	0.001713
2319.000000	0.001693
2318.000000	0.001706
2317.000000	0.001752
2316.000000	0.001808
2315.000000	0.001836
2314.000000	0.001815
2313.000000	0.001771
2312.000000	0.001743
2311.000000	0.001741
2310.000000	0.001739
2309.000000	0.001712
2308.000000	0.001658
2307.000000	0.001593
2306.000000	0.001543
2305.000000	0.001526
2304.000000	0.001540
2303.000000	0.001557
2302.000000	0.001561
2301.000000	0.001562
2300.000000	0.001577
2299.000000	0.001601
2298.000000	0.001612
2297.000000	0.001600
2296.000000	0.001581
2295.000000	0.001569
2294.000000	0.001575
2293.000000	0.001608
2292.000000	0.001667
2291.000000	0.001734
2290.000000	0.001782
2289.000000	0.001805
2288.000000	0.001813
2287.000000	0.001811
2286.000000	0.001799
2285.000000	0.001778
2284.000000	0.001760
2283.000000	0.001753
2282.000000	0.001754
2281.000000	0.001750
2280.000000	0.001722
2279.000000	0.001650
2278.000000	0.001545
2277.000000	0.001445
2276.000000	0.001386
2275.000000	0.001372
2274.000000	0.001386
2273.000000	0.001417
2272.000000	0.001453
2271.000000	0.001476
2270.000000	0.001479
2269.000000	0.001478
2268.000000	0.001488
2267.000000	0.001497
2266.000000	0.001483
2265.000000	0.001448
2264.000000	0.001420
2263.000000	0.001420
2262.000000	0.001444
2261.000000	0.001472
2260.000000	0.001481
2259.000000	0.001455
2258.000000	0.001403
2257.000000	0.001354
2256.000000	0.001327
2255.000000	0.001313
2254.000000	0.001305
2253.000000	0.001310
2252.000000	0.001331
2251.000000	0.001346
2250.000000	0.001330
2249.000000	0.001289
2248.000000	0.001251
2247.000000	0.001229
2246.000000	0.001216
2245.000000	0.001193
2244.000000	0.001147
2243.000000	0.001080
2242.000000	0.001026
2241.000000	0.001019
2240.000000	0.001054
2239.000000	0.001087
2238.000000	0.001094
2237.000000	0.001102
2236.000000	0.001153
2235.000000	0.001249
2234.000000	0.001360
2233.000000	0.001442
2232.000000	0.001439
2231.000000	0.001313
2230.000000	0.001098
2229.000000	0.000907
2228.000000	0.000839
2227.000000	0.000905
2226.000000	0.001047
2225.000000	0.001201
2224.000000	0.001318
2223.000000	0.001365
2222.000000	0.001342
2221.000000	0.001283
2220.000000	0.001213
2219.000000	0.001128
2218.000000	0.001031
2217.000000	0.000958
2216.000000	0.000936
2215.000000	0.000958
2214.000000	0.001014
2213.000000	0.001109
2212.000000	0.001229
2211.000000	0.001323
2210.000000	0.001356
2209.000000	0.001353
2208.000000	0.001349
2207.000000	0.001342
2206.000000	0.001321
2205.000000	0.001296
2204.000000	0.001271
2203.000000	0.001230
2202.000000	0.001178
2201.000000	0.001158
2200.000000	0.001191
2199.000000	0.001242
2198.000000	0.001273
2197.000000	0.001302
2196.000000	0.001343
2195.000000	0.001369
2194.000000	0.001354
2193.000000	0.001327
2192.000000	0.001319
2191.000000	0.001313
2190.000000	0.001295
2189.000000	0.001307
2188.000000	0.001380
2187.000000	0.001447
2186.000000	0.001418
2185.000000	0.001301
2184.000000	0.001188
2183.000000	0.001114
2182.000000	0.001029
2181.000000	0.000900
2180.000000	0.000786
2179.000000	0.000770
2178.000000	0.000866
2177.000000	0.001002
2176.000000	0.001073
2175.000000	0.001032
2174.000000	0.000933
2173.000000	0.000875
2172.000000	0.000907
2171.000000	0.000989
2170.000000	0.001059
2169.000000	0.001078
2168.000000	0.001033
2167.000000	0.000926
2166.000000	0.000798
2165.000000	0.000710
2164.000000	0.000690
2163.000000	0.000707
2162.000000	0.000704
2161.000000	0.000592
2160.000000	0.000260
2159.000000	-0.000301
2158.000000	-0.000861
2157.000000	-0.001107
2156.000000	-0.000963
2155.000000	-0.000604
2154.000000	-0.000222
2153.000000	0.000073
2152.000000	0.000197
2151.000000	0.000109
2150.000000	-0.000105
2149.000000	-0.000283
2148.000000	-0.000341
2147.000000	-0.000318
2146.000000	-0.000268
2145.000000	-0.000204
2144.000000	-0.000149
2143.000000	-0.000146
2142.000000	-0.000179
2141.000000	-0.000174
2140.000000	-0.000089
2139.000000	0.000039
2138.000000	0.000160
2137.000000	0.000263
2136.000000	0.000338
2135.000000	0.000371
2134.000000	0.000379
2133.000000	0.000400
2132.000000	0.000448
2131.000000	0.000508
2130.000000	0.000581
2129.000000	0.000678
2128.000000	0.000782
2127.000000	0.000861
2126.000000	0.000911
2125.000000	0.000944
2124.000000	0.000943
2123.000000	0.000891
2122.000000	0.000827
2121.000000	0.000819
2120.000000	0.000872
2119.000000	0.000927
2118.000000	0.000967
2117.000000	0.001029
2116.000000	0.001119
2115.000000	0.001181
2114.000000	0.001180
2113.000000	0.001154
2112.000000	0.001139
2111.000000	0.001114
2110.000000	0.001067
2109.000000	0.001044
2108.000000	0.001094
2107.000000	0.001189
2106.000000	0.001274
2105.000000	0.001319
2104.000000	0.001320
2103.000000	0.001267
2102.000000	0.001185
2101.000000	0.001137
2100.000000	0.001156
2099.000000	0.001198
2098.000000	0.001204
2097.000000	0.001175
2096.000000	0.001139
2095.000000	0.001092
2094.000000	0.001018
2093.000000	0.000932
2092.000000	0.000861
2091.000000	0.000819
2090.000000	0.000823
2089.000000	0.000895
2088.000000	0.001015
2087.000000	0.001106
2086.000000	0.001118
2085.000000	0.001076
2084.000000	0.001035
2083.000000	0.001014
2082.000000	0.001018
2081.000000	0.001065
2080.000000	0.001155
2079.000000	0.001240
2078.000000	0.001279
2077.000000	0.001269
2076.000000	0.001203
2075.000000	0.001049
2074.000000	0.000826
2073.000000	0.000649
2072.000000	0.000613
2071.000000	0.000688
2070.000000	0.000771
2069.000000	0.000810
2068.000000	0.000815
2067.000000	0.000794
2066.000000	0.000744
2065.000000	0.000693
2064.000000	0.000675
2063.000000	0.000679
2062.000000	0.000676
2061.000000	0.000672
2060.000000	0.000691
2059.000000	0.000731
2058.000000	0.000767
2057.000000	0.000776
2056.000000	0.000736
2055.000000	0.000644
2054.000000	0.000563
2053.000000	0.000591
2052.000000	0.000729
2051.000000	0.000834
2050.000000	0.000771
2049.000000	0.000572
2048.000000	0.000409
2047.000000	0.000410
2046.000000	0.000552
2045.000000	0.000720
2044.000000	0.000788
2043.000000	0.000707
2042.000000	0.000552
2041.000000	0.000447
2040.000000	0.000416
2039.000000	0.000364
2038.000000	0.000250
2037.000000	0.000142
2036.000000	0.000081
2035.000000	0.000001
2034.000000	-0.000127
2033.000000	-0.000210
2032.000000	-0.000200
2031.000000	-0.000197
2030.000000	-0.000276
2029.000000	-0.000349
2028.000000	-0.000316
2027.000000	-0.000234
2026.000000	-0.000212
2025.000000	-0.000244
2024.000000	-0.000247
2023.000000	-0.000197
2022.000000	-0.000110
2021.000000	0.000011
2020.000000	0.000113
2019.000000	0.000086
2018.000000	-0.000100
2017.000000	-0.000315
2016.000000	-0.000419
2015.000000	-0.000420
2014.000000	-0.000402
2013.000000	-0.000370
2012.000000	-0.000279
2011.000000	-0.000133
2010.000000	-0.000008
2009.000000	-0.000009
2008.000000	-0.000193
2007.000000	-0.000477
2006.000000	-0.000665
2005.000000	-0.000644
2004.000000	-0.000531
2003.000000	-0.000483
2002.000000	-0.000437
2001.000000	-0.000221
2000.000000	0.000128
1999.000000	0.000338
1998.000000	0.000247
1997.000000	-0.000008
1996.000000	-0.000202
1995.000000	-0.000264
1994.000000	-0.000232
1993.000000	-0.000114
1992.000000	0.000061
1991.000000	0.000188
1990.000000	0.000201
1989.000000	0.000155
1988.000000	0.000114
1987.000000	0.000044
1986.000000	-0.000081
1985.000000	-0.000191
1984.000000	-0.000182
1983.000000	-0.000030
1982.000000	0.000232
1981.000000	0.000546
1980.000000	0.000791
1979.000000	0.000819
1978.000000	0.000617
1977.000000	0.000327
1976.000000	0.000022
1975.000000	-0.000361
1974.000000	-0.000789
1973.000000	-0.001024
1972.000000	-0.000908
1971.000000	-0.000574
1970.000000	-0.000276
1969.000000	-0.000136
1968.000000	-0.000133
1967.000000	-0.000213
1966.000000	-0.000308
1965.000000	-0.000341
1964.000000	-0.000314
1963.000000	-0.000310
1962.000000	-0.000356
1961.000000	-0.000390
1960.000000	-0.000386
1959.000000	-0.000400
1958.000000	-0.000443
1957.000000	-0.000431
1956.000000	-0.000326
1955.000000	-0.000203
1954.000000	-0.000131
1953.000000	-0.000072
1952.000000	0.000025
1951.000000	0.000125
1950.000000	0.000167
1949.000000	0.000154
1948.000000	0.000124
1947.000000	0.000101
1946.000000	0.000108
1945.000000	0.000169
1944.000000	0.000261
1943.000000	0.000309
1942.000000	0.000280
1941.000000	0.000226
1940.000000	0.000194
1939.000000	0.000164
1938.000000	0.000111
1937.000000	0.000055
1936.000000	0.000029
1935.000000	0.000041
1934.000000	0.000093
1933.000000	0.000180
1932.000000	0.000261
1931.000000	0.000282
1930.000000	0.000248
1929.000000	0.000212
1928.000000	0.000186
1927.000000	0.000134
1926.000000	0.000060
1925.000000	0.000023
1924.000000	0.000044
1923.000000	0.000078
1922.000000	0.000097
1921.000000	0.000128
1920.000000	0.000178
1919.000000	0.000212
1918.000000	0.000223
1917.000000	0.000254
1916.000000	0.000303
1915.000000	0.000316
1914.000000	0.000287
1913.000000	0.000280
1912.000000	0.000329
1911.000000	0.000376
1910.000000	0.000366
1909.000000	0.000320
1908.000000	0.000279
1907.000000	0.000234
1906.000000	0.000167
1905.000000	0.000108
1904.000000	0.000094
1903.000000	0.000126
1902.000000	0.000206
1901.000000	0.000340
1900.000000	0.000481
1899.000000	0.000538
1898.000000	0.000469
1897.000000	0.000340
1896.000000	0.000238
1895.000000	0.000185
1894.000000	0.000162
1893.000000	0.000160
1892.000000	0.000166
1891.000000	0.000146
1890.000000	0.000089
1889.000000	0.000042
1888.000000	0.000041
1887.000000	0.000064
1886.000000	0.000090
1885.000000	0.000130
1884.000000	0.000186
1883.000000	0.000220
1882.000000	0.000209
1881.000000	0.000168
1880.000000	0.000123
1879.000000	0.000076
1878.000000	0.000039
1877.000000	0.000041
1876.000000	0.000080
1875.000000	0.000111
1874.000000	0.000110
1873.000000	0.000101
1872.000000	0.000108
1871.000000	0.000113
1870.000000	0.000097
1869.000000	0.000078
1868.000000	0.000067
1867.000000	0.000032
1866.000000	-0.000033
1865.000000	-0.000090
1864.000000	-0.000119
1863.000000	-0.000143
1862.000000	-0.000177
1861.000000	-0.000190
1860.000000	-0.000161
1859.000000	-0.000118
1858.000000	-0.000094
1857.000000	-0.000080
1856.000000	-0.000064
1855.000000	-0.000052
1854.000000	-0.000054
1853.000000	-0.000063
1852.000000	-0.000077
1851.000000	-0.000104
1850.000000	-0.000133
1849.000000	-0.000137
1848.000000	-0.000114
1847.000000	-0.000094
1846.000000	-0.000098
1845.000000	-0.000107
1844.000000	-0.000106
1843.000000	-0.000106
1842.000000	-0.000106
1841.000000	-0.000091
1840.000000	-0.000067
1839.000000	-0.000063
1838.000000	-0.000083
1837.000000	-0.000098
1836.000000	-0.000103
1835.000000	-0.000127
1834.000000	-0.000172
1833.000000	-0.000200
1832.000000	-0.000190
1831.000000	-0.000176
1830.000000	-0.000192
1829.000000	-0.000216
1828.000000	-0.000220
1827.000000	-0.000229
1826.000000	-0.000271
1825.000000	-0.000323
1824.000000	-0.000346
1823.000000	-0.000345
1822.000000	-0.000341
1821.000000	-0.000335
1820.000000	-0.000318
1819.000000	-0.000311
1818.000000	-0.000328
1817.000000	-0.000348
1816.000000	-0.000355
1815.000000	-0.000363
1814.000000	-0.000381
1813.000000	-0.000382
1812.000000	-0.000345
1811.000000	-0.000297
1810.000000	-0.000275
1809.000000	-0.000270
1808.000000	-0.000271
1807.000000	-0.000292
1806.000000	-0.000337
1805.000000	-0.000374
1804.000000	-0.000382
1803.000000	-0.000381
1802.000000	-0.000388
1801.000000	-0.000386
1800.000000	-0.000365
1799.000000	-0.000355
1798.000000	-0.000371
1797.000000	-0.000376
1796.000000	-0.000341
1795.000000	-0.000290
1794.000000	-0.000261
1793.000000	-0.000266
1792.000000	-0.000289
1791.000000	-0.000322
1790.000000	-0.000361
1789.000000	-0.000388
1788.000000	-0.000402
1787.000000	-0.000420
1786.000000	-0.000441
1785.000000	-0.000435
1784.000000	-0.000397
1783.000000	-0.000358
1782.000000	-0.000346
1781.000000	-0.000359
1780.000000	-0.000379
1779.000000	-0.000399
1778.000000	-0.000413
1777.000000	-0.000407
1776.000000	-0.000388
1775.000000	-0.000381
1774.000000	-0.000406
1773.000000	-0.000453
1772.000000	-0.000479
1771.000000	-0.000460
1770.000000	-0.000414
1769.000000	-0.000354
1768.000000	-0.000293
1767.000000	-0.000251
1766.000000	-0.000229
1765.000000	-0.000199
1764.000000	-0.000151
1763.000000	-0.000106
1762.000000	-0.000076
1761.000000	-0.000029
1760.000000	0.000069
1759.000000	0.000207
1758.000000	0.000366
1757.000000	0.000531
1756.000000	0.000679
1755.000000	0.000789
1754.000000	0.000879
1753.000000	0.001000
1752.000000	0.001197
1751.000000	0.001467
1750.000000	0.001763
1749.000000	0.002055
1748.000000	0.002309
1747.000000	0.002485
1746.000000	0.002585
1745.000000	0.002654
1744.000000	0.002723
1743.000000	0.002758
1742.000000	0.002724
1741.000000	0.002639
1740.000000	0.002531
1739.000000	0.002392
1738.000000	0.002214
1737.000000	0.002021
1736.000000	0.001834
1735.000000	0.001628
1734.000000	0.001400
1733.000000	0.001219
1732.000000	0.001107
1731.000000	0.001016
1730.000000	0.000914
1729.000000	0.000811
1728.000000	0.000723
1727.000000	0.000648
1726.000000	0.000575
1725.000000	0.000503
1724.000000	0.000440
1723.000000	0.000380
1722.000000	0.000323
1721.000000	0.000287
1720.000000	0.000283
1719.000000	0.000295
1718.000000	0.000287
1717.000000	0.000278
1716.000000	0.000287
1715.000000	0.000282
1714.000000	0.000271
1713.000000	0.000289
1712.000000	0.000333
1711.000000	0.000371
1710.000000	0.000387
1709.000000	0.000402
1708.000000	0.000430
1707.000000	0.000459
1706.000000	0.000476
1705.000000	0.000495
1704.000000	0.000518
1703.000000	0.000535
1702.000000	0.000567
1701.000000	0.000647
1700.000000	0.000740
1699.000000	0.000756
1698.000000	0.000749
1697.000000	0.000844
1696.000000	0.001057
1695.000000	0.001243
1694.000000	0.001321
1693.000000	0.001368
1692.000000	0.001445
1691.000000	0.001537
1690.000000	0.001614
1689.000000	0.001673
1688.000000	0.001726
1687.000000	0.001781
1686.000000	0.001865
1685.000000	0.002018
1684.000000	0.002208
1683.000000	0.002327
1682.000000	0.002384
1681.000000	0.002459
1680.000000	0.002564
1679.000000	0.002653
1678.000000	0.002711
1677.000000	0.002793
1676.000000	0.002948
1675.000000	0.003131
1674.000000	0.003251
1673.000000	0.003309
1672.000000	0.003375
1671.000000	0.003486
1670.000000	0.003644
1669.000000	0.003819
1668.000000	0.003965
1667.000000	0.004060
1666.000000	0.004120
1665.000000	0.004191
1664.000000	0.004306
1663.000000	0.004447
1662.000000	0.004573
1661.000000	0.004671
1660.000000	0.004751
1659.000000	0.004812
1658.000000	0.004846
1657.000000	0.004860
1656.000000	0.004882
1655.000000	0.004961
1654.000000	0.005135
1653.000000	0.005370
1652.000000	0.005485
1651.000000	0.005459
1650.000000	0.005393
1649.000000	0.005366
1648.000000	0.005413
1647.000000	0.005515
1646.000000	0.005601
1645.000000	0.005642
1644.000000	0.005658
1643.000000	0.005662
1642.000000	0.005672
1641.000000	0.005698
1640.000000	0.005725
1639.000000	0.005719
1638.000000	0.005681
1637.000000	0.005666
1636.000000	0.005719
1635.000000	0.005793
1634.000000	0.005815
1633.000000	0.005803
1632.000000	0.005791
1631.000000	0.005786
1630.000000	0.005797
1629.000000	0.005832
1628.000000	0.005869
1627.000000	0.005866
1626.000000	0.005821
1625.000000	0.005775
1624.000000	0.005762
1623.000000	0.005767
1622.000000	0.005760
1621.000000	0.005733
1620.000000	0.005691
1619.000000	0.005642
1618.000000	0.005597
1617.000000	0.005574
1616.000000	0.005571
1615.000000	0.005564
1614.000000	0.005561
1613.000000	0.005583
1612.000000	0.005620
1611.000000	0.005644
1610.000000	0.005644
1609.000000	0.005641
1608.000000	0.005646
1607.000000	0.005646
1606.000000	0.005637
1605.000000	0.005637
1604.000000	0.005657
1603.000000	0.005681
1602.000000	0.005685
1601.000000	0.005675
1600.000000	0.005663
1599.000000	0.005643
1598.000000	0.005609
1597.000000	0.005573
1596.000000	0.005550
1595.000000	0.005542
1594.000000	0.005534
1593.000000	0.005517
1592.000000	0.005483
1591.000000	0.005424
1590.000000	0.005353
1589.000000	0.005296
1588.000000	0.005263
1587.000000	0.005239
1586.000000	0.005213
1585.000000	0.005188
1584.000000	0.005164
1583.000000	0.005137
1582.000000	0.005104
1581.000000	0.005064
1580.000000	0.005009
1579.000000	0.004941
1578.000000	0.004880
1577.000000	0.004850
1576.000000	0.004833
1575.000000	0.004775
1574.000000	0.004675
1573.000000	0.004567
1572.000000	0.004481
1571.000000	0.004409
1570.000000	0.004338
1569.000000	0.004269
1568.000000	0.004211
1567.000000	0.004167
1566.000000	0.004129
1565.000000	0.004090
1564.000000	0.004035
1563.000000	0.003951
1562.000000	0.003849
1561.000000	0.003768
1560.000000	0.003730
1559.000000	0.003715
1558.000000	0.003720
1557.000000	0.003714
1556.000000	0.003710
1555.000000	0.003712
1554.000000	0.003706
1553.000000	0.003696
1552.000000	0.003703
1551.000000	0.003718
1550.000000	0.003720
1549.000000	0.003711
1548.000000	0.003706
1547.000000	0.003706
1546.000000	0.003704
1545.000000	0.003702
1544.000000	0.003710
1543.000000	0.003715
1542.000000	0.003703
1541.000000	0.003706
1540.000000	0.003732
1539.000000	0.003710
1538.000000	0.003612
1537.000000	0.003496
1536.000000	0.003394
1535.000000	0.003294
1534.000000	0.003175
1533.000000	0.003054
1532.000000	0.002957
1531.000000	0.002865
1530.000000	0.002766
1529.000000	0.002682
1528.000000	0.002618
1527.000000	0.002542
1526.000000	0.002424
1525.000000	0.002296
1524.000000	0.002195
1523.000000	0.002106
1522.000000	0.001996
1521.000000	0.001897
1520.000000	0.001846
1519.000000	0.001813
1518.000000	0.001770
1517.000000	0.001731
1516.000000	0.001709
1515.000000	0.001682
1514.000000	0.001636
1513.000000	0.001592
1512.000000	0.001558
1511.000000	0.001505
1510.000000	0.001409
1509.000000	0.001298
1508.000000	0.001223
1507.000000	0.001189
1506.000000	0.001168
1505.000000	0.001150
1504.000000	0.001145
1503.000000	0.001134
1502.000000	0.001110
1501.000000	0.001092
1500.000000	0.001092
1499.000000	0.001086
1498.000000	0.001050
1497.000000	0.001023
1496.000000	0.001047
1495.000000	0.001077
1494.000000	0.001075
1493.000000	0.001070
1492.000000	0.001093
1491.000000	0.001132
1490.000000	0.001170
1489.000000	0.001241
1488.000000	0.001356
1487.000000	0.001455
1486.000000	0.001514
1485.000000	0.001569
1484.000000	0.001644
1483.000000	0.001741
1482.000000	0.001852
1481.000000	0.001981
1480.000000	0.002122
1479.000000	0.002254
1478.000000	0.002373
1477.000000	0.002501
1476.000000	0.002640
1475.000000	0.002763
1474.000000	0.002892
1473.000000	0.003103
1472.000000	0.003398
1471.000000	0.003658
1470.000000	0.003825
1469.000000	0.003947
1468.000000	0.004072
1467.000000	0.004204
1466.000000	0.004343
1465.000000	0.004493
1464.000000	0.004628
1463.000000	0.004703
1462.000000	0.004722
1461.000000	0.004737
1460.000000	0.004786
1459.000000	0.004885
1458.000000	0.005044
1457.000000	0.005268
1456.000000	0.005475
1455.000000	0.005575
1454.000000	0.005606
1453.000000	0.005647
1452.000000	0.005725
1451.000000	0.005810
1450.000000	0.005881
1449.000000	0.005966
1448.000000	0.006083
1447.000000	0.006192
1446.000000	0.006261
1445.000000	0.006315
1444.000000	0.006392
1443.000000	0.006489
1442.000000	0.006579
1441.000000	0.006652
1440.000000	0.006713
1439.000000	0.006774
1438.000000	0.006859
1437.000000	0.006992
1436.000000	0.007137
1435.000000	0.007219
1434.000000	0.007242
1433.000000	0.007276
1432.000000	0.007363
1431.000000	0.007483
1430.000000	0.007597
1429.000000	0.007695
1428.000000	0.007774
1427.000000	0.007823
1426.000000	0.007859
1425.000000	0.007913
1424.000000	0.007979
1423.000000	0.008012
1422.000000	0.007995
1421.000000	0.007984
1420.000000	0.008041
1419.000000	0.008154
1418.000000	0.008252
1417.000000	0.008314
1416.000000	0.008360
1415.000000	0.008388
1414.000000	0.008390
1413.000000	0.008387
1412.000000	0.008395
1411.000000	0.008402
1410.000000	0.008393
1409.000000	0.008381
1408.000000	0.008386
1407.000000	0.008395
1406.000000	0.008394
1405.000000	0.008391
1404.000000	0.008392
1403.000000	0.008375
1402.000000	0.008335
1401.000000	0.008308
1400.000000	0.008311
1399.000000	0.008316
1398.000000	0.008294
1397.000000	0.008274
1396.000000	0.008295
1395.000000	0.008338
1394.000000	0.008348
1393.000000	0.008304
1392.000000	0.008230
1391.000000	0.008145
1390.000000	0.008061
1389.000000	0.007996
1388.000000	0.007952
1387.000000	0.007899
1386.000000	0.007817
1385.000000	0.007726
1384.000000	0.007649
1383.000000	0.007579
1382.000000	0.007510
1381.000000	0.007449
1380.000000	0.007393
1379.000000	0.007320
1378.000000	0.007225
1377.000000	0.007137
1376.000000	0.007075
1375.000000	0.007025
1374.000000	0.006971
1373.000000	0.006916
1372.000000	0.006862
1371.000000	0.006802
1370.000000	0.006744
1369.000000	0.006693
1368.000000	0.006639
1367.000000	0.006556
1366.000000	0.006449
1365.000000	0.006349
1364.000000	0.006273
1363.000000	0.006205
1362.000000	0.006137
1361.000000	0.006080
1360.000000	0.006031
1359.000000	0.005970
1358.000000	0.005895
1357.000000	0.005825
1356.000000	0.005766
1355.000000	0.005699
1354.000000	0.005621
1353.000000	0.005551
1352.000000	0.005494
1351.000000	0.005428
1350.000000	0.005355
1349.000000	0.005297
1348.000000	0.005250
1347.000000	0.005185
1346.000000	0.005104
1345.000000	0.005042
1344.000000	0.005014
1343.000000	0.004986
1342.000000	0.004931
1341.000000	0.004865
1340.000000	0.004808
1339.000000	0.004764
1338.000000	0.004725
1337.000000	0.004693
1336.000000	0.004657
1335.000000	0.004588
1334.000000	0.004492
1333.000000	0.004414
1332.000000	0.004377
1331.000000	0.004358
1330.000000	0.004330
1329.000000	0.004305
1328.000000	0.004294
1327.000000	0.004282
1326.000000	0.004257
1325.000000	0.004225
1324.000000	0.004194
1323.000000	0.004151
1322.000000	0.004092
1321.000000	0.004036
1320.000000	0.003996
1319.000000	0.003961
1318.000000	0.003924
1317.000000	0.003901
1316.000000	0.003897
1315.000000	0.003890
1314.000000	0.003862
1313.000000	0.003822
1312.000000	0.003778
1311.000000	0.003719
1310.000000	0.003647
1309.000000	0.003589
1308.000000	0.003552
1307.000000	0.003506
1306.000000	0.003434
1305.000000	0.003359
1304.000000	0.003305
1303.000000	0.003258
1302.000000	0.003199
1301.000000	0.003134
1300.000000	0.003075
1299.000000	0.003015
1298.000000	0.002945
1297.000000	0.002871
1296.000000	0.002794
1295.000000	0.002701
1294.000000	0.002601
1293.000000	0.002522
1292.000000	0.002470
1291.000000	0.002416
1290.000000	0.002347
1289.000000	0.002288
1288.000000	0.002253
1287.000000	0.002218
1286.000000	0.002159
1285.000000	0.002091
1284.000000	0.002038
1283.000000	0.001992
1282.000000	0.001943
1281.000000	0.001897
1280.000000	0.001850
1279.000000	0.001781
1278.000000	0.001691
1277.000000	0.001618
1276.000000	0.001583
1275.000000	0.001560
1274.000000	0.001527
1273.000000	0.001497
1272.000000	0.001487
1271.000000	0.001480
1270.000000	0.001461
1269.000000	0.001450
1268.000000	0.001460
1267.000000	0.001470
1266.000000	0.001461
1265.000000	0.001447
1264.000000	0.001445
1263.000000	0.001449
1262.000000	0.001454
1261.000000	0.001478
1260.000000	0.001518
1259.000000	0.001538
1258.000000	0.001522
1257.000000	0.001504
1256.000000	0.001512
1255.000000	0.001530
1254.000000	0.001538
1253.000000	0.001544
1252.000000	0.001555
1251.000000	0.001548
1250.000000	0.001508
1249.000000	0.001465
1248.000000	0.001444
1247.000000	0.001430
1246.000000	0.001406
1245.000000	0.001384
1244.000000	0.001376
1243.000000	0.001360
1242.000000	0.001323
1241.000000	0.001285
1240.000000	0.001263
1239.000000	0.001245
1238.000000	0.001213
1237.000000	0.001178
1236.000000	0.001149
1235.000000	0.001113
1234.000000	0.001060
1233.000000	0.001012
1232.000000	0.000975
1231.000000	0.000924
1230.000000	0.000842
1229.000000	0.000753
1228.000000	0.000686
1227.000000	0.000635
1226.000000	0.000588
1225.000000	0.000553
1224.000000	0.000525
1223.000000	0.000476
1222.000000	0.000397
1221.000000	0.000319
1220.000000	0.000264
1219.000000	0.000214
1218.000000	0.000157
1217.000000	0.000109
1216.000000	0.000083
1215.000000	0.000056
1214.000000	0.000013
1213.000000	-0.000020
1212.000000	-0.000023
1211.000000	-0.000020
1210.000000	-0.000031
1209.000000	-0.000034
1208.000000	-0.000009
1207.000000	0.000019
1206.000000	0.000029
1205.000000	0.000042
1204.000000	0.000090
1203.000000	0.000158
1202.000000	0.000218
1201.000000	0.000268
1200.000000	0.000312
1199.000000	0.000333
1198.000000	0.000322
1197.000000	0.000299
1196.000000	0.000273
1195.000000	0.000218
1194.000000	0.000121
1193.000000	0.000022
1192.000000	-0.000041
1191.000000	-0.000082
1190.000000	-0.000128
1189.000000	-0.000175
1188.000000	-0.000210
1187.000000	-0.000238
1186.000000	-0.000262
1185.000000	-0.000260
1184.000000	-0.000219
1183.000000	-0.000158
1182.000000	-0.000090
1181.000000	0.000011
1180.000000	0.000155
1179.000000	0.000314
1178.000000	0.000458
1177.000000	0.000601
1176.000000	0.000762
1175.000000	0.000924
1174.000000	0.001077
1173.000000	0.001245
1172.000000	0.001447
1171.000000	0.001666
1170.000000	0.001891
1169.000000	0.002140
1168.000000	0.002412
1167.000000	0.002668
1166.000000	0.002899
1165.000000	0.003149
1164.000000	0.003447
1163.000000	0.003749
1162.000000	0.004015
1161.000000	0.004268
1160.000000	0.004545
1159.000000	0.004823
1158.000000	0.005058
1157.000000	0.005250
1156.000000	0.005423
1155.000000	0.005578
1154.000000	0.005713
1153.000000	0.005839
1152.000000	0.005948
1151.000000	0.006007
1150.000000	0.006016
1149.000000	0.006025
1148.000000	0.006051
1147.000000	0.006052
1146.000000	0.006002
1145.000000	0.005942
1144.000000	0.005908
1143.000000	0.005874
1142.000000	0.005809
1141.000000	0.005734
1140.000000	0.005675
1139.000000	0.005614
1138.000000	0.005544
1137.000000	0.005494
1136.000000	0.005478
1135.000000	0.005455
1134.000000	0.005398
1133.000000	0.005348
1132.000000	0.005345
1131.000000	0.005391
1130.000000	0.005489
1129.000000	0.005665
1128.000000	0.005910
1127.000000	0.006142
1126.000000	0.006307
1125.000000	0.006430
1124.000000	0.006543
1123.000000	0.006621
1122.000000	0.006648
1121.000000	0.006677
1120.000000	0.006754
1119.000000	0.006854
1118.000000	0.006929
1117.000000	0.006982
1116.000000	0.007030
1115.000000	0.007061
1114.000000	0.007077
1113.000000	0.007121
1112.000000	0.007207
1111.000000	0.007288
1110.000000	0.007328
1109.000000	0.007360
1108.000000	0.007410
1107.000000	0.007451
1106.000000	0.007470
1105.000000	0.007508
1104.000000	0.007596
1103.000000	0.007699
1102.000000	0.007800
1101.000000	0.007939
1100.000000	0.008138
1099.000000	0.008340
1098.000000	0.008502
1097.000000	0.008659
1096.000000	0.008846
1095.000000	0.009035
1094.000000	0.009195
1093.000000	0.009357
1092.000000	0.009538
1091.000000	0.009696
1090.000000	0.009797
1089.000000	0.009870
1088.000000	0.009945
1087.000000	0.009999
1086.000000	0.010024
1085.000000	0.010070
1084.000000	0.010158
1083.000000	0.010244
1082.000000	0.010307
1081.000000	0.010397
1080.000000	0.010534
1079.000000	0.010648
1078.000000	0.010684
1077.000000	0.010676
1076.000000	0.010664
1075.000000	0.010627
1074.000000	0.010555
1073.000000	0.010509
1072.000000	0.010519
1071.000000	0.010534
1070.000000	0.010520
1069.000000	0.010527
1068.000000	0.010590
1067.000000	0.010654
1066.000000	0.010663
1065.000000	0.010648
1064.000000	0.010646
1063.000000	0.010638
1062.000000	0.010616
1061.000000	0.010631
1060.000000	0.010703
1059.000000	0.010767
1058.000000	0.010772
1057.000000	0.010764
1056.000000	0.010810
1055.000000	0.010902
1054.000000	0.011006
1053.000000	0.011121
1052.000000	0.011234
1051.000000	0.011298
1050.000000	0.011328
1049.000000	0.011419
1048.000000	0.011600
1047.000000	0.011772
1046.000000	0.011862
1045.000000	0.011930
1044.000000	0.012048
1043.000000	0.012192
1042.000000	0.012319
1041.000000	0.012462
1040.000000	0.012651
1039.000000	0.012843
1038.000000	0.013004
1037.000000	0.013172
1036.000000	0.013379
1035.000000	0.013571
1034.000000	0.013701
1033.000000	0.013811
1032.000000	0.013948
1031.000000	0.014082
1030.000000	0.014178
1029.000000	0.014268
1028.000000	0.014380
1027.000000	0.014465
1026.000000	0.014485
1025.000000	0.014483
1024.000000	0.014510
1023.000000	0.014543
1022.000000	0.014564
1021.000000	0.014614
1020.000000	0.014718
1019.000000	0.014820
1018.000000	0.014867
1017.000000	0.014887
1016.000000	0.014921
1015.000000	0.014952
1014.000000	0.014962
1013.000000	0.014977
1012.000000	0.014997
1011.000000	0.014967
1010.000000	0.014881
1009.000000	0.014809
1008.000000	0.014787
1007.000000	0.014760
1006.000000	0.014693
1005.000000	0.014643
1004.000000	0.014643
1003.000000	0.014629
1002.000000	0.014553
1001.000000	0.014464
1000.000000	0.014413
999.000000	0.014370
998.000000	0.014308
997.000000	0.014280
996.000000	0.014331
995.000000	0.014405
994.000000	0.014429
993.000000	0.014408
992.000000	0.014368
991.000000	0.014287
990.000000	0.014159
989.000000	0.014045
988.000000	0.013992
987.000000	0.013956
986.000000	0.013882
985.000000	0.013782
984.000000	0.013671
983.000000	0.013514
982.000000	0.013302
981.000000	0.013097
980.000000	0.012940
979.000000	0.012778
978.000000	0.012562
977.000000	0.012326
976.000000	0.012110
975.000000	0.011890
974.000000	0.011640
973.000000	0.011398
972.000000	0.011184
971.000000	0.010953
970.000000	0.010673
969.000000	0.010386
968.000000	0.010130
967.000000	0.009876
966.000000	0.009607
965.000000	0.009367
964.000000	0.009169
963.000000	0.008958
962.000000	0.008709
961.000000	0.008489
960.000000	0.008335
959.000000	0.008179
958.000000	0.007962
957.000000	0.007728
956.000000	0.007540
955.000000	0.007381
954.000000	0.007209
953.000000	0.007037
952.000000	0.006879
951.000000	0.006705
950.000000	0.006505
949.000000	0.006328
948.000000	0.006184
947.000000	0.006008
946.000000	0.005774
945.000000	0.005552
944.000000	0.005387
943.000000	0.005221
942.000000	0.005000
941.000000	0.004774
940.000000	0.004601
939.000000	0.004458
938.000000	0.004307
937.000000	0.004182
936.000000	0.004102
935.000000	0.004014
934.000000	0.003878
933.000000	0.003749
932.000000	0.003669
931.000000	0.003588
930.000000	0.003453
929.000000	0.003309
928.000000	0.003220
927.000000	0.003166
926.000000	0.003101
925.000000	0.003038
924.000000	0.002994
923.000000	0.002929
922.000000	0.002821
921.000000	0.002721
920.000000	0.002669
919.000000	0.002632
918.000000	0.002582
917.000000	0.002565
916.000000	0.002603
915.000000	0.002628
914.000000	0.002585
913.000000	0.002521
912.000000	0.002502
911.000000	0.002514
910.000000	0.002532
909.000000	0.002585
908.000000	0.002687
907.000000	0.002771
906.000000	0.002791
905.000000	0.002790
904.000000	0.002806
903.000000	0.002797
902.000000	0.002736
901.000000	0.002691
900.000000	0.002704
899.000000	0.002697
898.000000	0.002585
897.000000	0.002409
896.000000	0.002252
895.000000	0.002121
894.000000	0.001989
893.000000	0.001876
892.000000	0.001792
891.000000	0.001685
890.000000	0.001516
889.000000	0.001331
888.000000	0.001191
887.000000	0.001092
886.000000	0.001033
885.000000	0.001046
884.000000	0.001115
883.000000	0.001150
882.000000	0.001118
881.000000	0.001115
880.000000	0.001222
879.000000	0.001393
878.000000	0.001562
877.000000	0.001735
876.000000	0.001906
875.000000	0.001990
874.000000	0.001938
873.000000	0.001811
872.000000	0.001654
871.000000	0.001418
870.000000	0.001093
869.000000	0.000781
868.000000	0.000559
867.000000	0.000385
866.000000	0.000212
865.000000	0.000082
864.000000	0.000018
863.000000	-0.000052
862.000000	-0.000168
861.000000	-0.000248
860.000000	-0.000234
859.000000	-0.000204
858.000000	-0.000233
857.000000	-0.000267
856.000000	-0.000247
855.000000	-0.000238
854.000000	-0.000313
853.000000	-0.000422
852.000000	-0.000479
851.000000	-0.000492
850.000000	-0.000495
849.000000	-0.000462
848.000000	-0.000382
847.000000	-0.000332
846.000000	-0.000354
845.000000	-0.000372
844.000000	-0.000315
843.000000	-0.000219
842.000000	-0.000124
841.000000	0.000019
840.000000	0.000225
839.000000	0.000390
838.000000	0.000440
837.000000	0.000443
836.000000	0.000478
835.000000	0.000498
834.000000	0.000441
833.000000	0.000345
832.000000	0.000261
831.000000	0.000152
830.000000	-0.000006
829.000000	-0.000126
828.000000	-0.000144
827.000000	-0.000136
826.000000	-0.000183
825.000000	-0.000234
824.000000	-0.000226
823.000000	-0.000217
822.000000	-0.000275
821.000000	-0.000353
820.000000	-0.000396
819.000000	-0.000440
818.000000	-0.000512
817.000000	-0.000547
816.000000	-0.000509
815.000000	-0.000466
814.000000	-0.000456
813.000000	-0.000403
812.000000	-0.000268
811.000000	-0.000153
810.000000	-0.000147
809.000000	-0.000196
808.000000	-0.000226
807.000000	-0.000268
806.000000	-0.000341
805.000000	-0.000369
804.000000	-0.000324
803.000000	-0.000305
802.000000	-0.000366
801.000000	-0.000397
800.000000	-0.000302
799.000000	-0.000163
798.000000	-0.000100
797.000000	-0.000089
796.000000	-0.000052
795.000000	0.000006
794.000000	0.000064
793.000000	0.000162
792.000000	0.000298
791.000000	0.000372
790.000000	0.000343
789.000000	0.000311
788.000000	0.000349
787.000000	0.000391
786.000000	0.000384
785.000000	0.000397
784.000000	0.000475
783.000000	0.000533
782.000000	0.000518
781.000000	0.000526
780.000000	0.000638
779.000000	0.000764
778.000000	0.000787
777.000000	0.000742
776.000000	0.000719
775.000000	0.000708
774.000000	0.000677
773.000000	0.000670
772.000000	0.000709
771.000000	0.000716
770.000000	0.000645
769.000000	0.000589
768.000000	0.000621
767.000000	0.000656
766.000000	0.000593
765.000000	0.000482
764.000000	0.000423
763.000000	0.000400
762.000000	0.000353
761.000000	0.000301
760.000000	0.000280
759.000000	0.000255
758.000000	0.000206
757.000000	0.000200
756.000000	0.000268
755.000000	0.000308
754.000000	0.000240
753.000000	0.000137
752.000000	0.000098
751.000000	0.000101
750.000000	0.000077
749.000000	0.000039
748.000000	0.000015
747.000000	-0.000034
746.000000	-0.000121
745.000000	-0.000172
744.000000	-0.000154
743.000000	-0.000143
742.000000	-0.000199
741.000000	-0.000262
740.000000	-0.000283
739.000000	-0.000314
738.000000	-0.000380
737.000000	-0.000408
736.000000	-0.000373
735.000000	-0.000371
734.000000	-0.000453
733.000000	-0.000518
732.000000	-0.000487
731.000000	-0.000431
730.000000	-0.000423
729.000000	-0.000400
728.000000	-0.000299
727.000000	-0.000200
726.000000	-0.000196
725.000000	-0.000245
724.000000	-0.000283
723.000000	-0.000327
722.000000	-0.000382
721.000000	-0.000365
720.000000	-0.000249
719.000000	-0.000152
718.000000	-0.000147
717.000000	-0.000137
716.000000	-0.000033
715.000000	0.000091
714.000000	0.000148
713.000000	0.000179
712.000000	0.000240
711.000000	0.000269
710.000000	0.000213
709.000000	0.000143
708.000000	0.000132
707.000000	0.000138
706.000000	0.000125
705.000000	0.000155
704.000000	0.000243
703.000000	0.000273
702.000000	0.000184
701.000000	0.000081
700.000000	0.000046
699.000000	0.000011
698.000000	-0.000071
697.000000	-0.000088
696.000000	0.000030
695.000000	0.000170
694.000000	0.000222
693.000000	0.000257
692.000000	0.000364
691.000000	0.000462
690.000000	0.000452
689.000000	0.000406
688.000000	0.000453
687.000000	0.000599
686.000000	0.000830
685.000000	0.001210
684.000000	0.001738
683.000000	0.002238
682.000000	0.002555
681.000000	0.002730
680.000000	0.002851
679.000000	0.002889
678.000000	0.002806
677.000000	0.002685
676.000000	0.002583
675.000000	0.002405
674.000000	0.002087
673.000000	0.001750
672.000000	0.001510
671.000000	0.001294
670.000000	0.001005
669.000000	0.000729
668.000000	0.000655
667.000000	0.000783
666.000000	0.000875
665.000000	0.000926
664.000000	0.001032
663.000000	0.001139
662.000000	0.001170
661.000000	0.001178
660.000000	0.001227
659.000000	0.001261
658.000000	0.001242
657.000000	0.001261
656.000000	0.001344
655.000000	0.001325
654.000000	0.001105
653.000000	0.000833
652.000000	0.000667
651.000000	0.000563
650.000000	0.000457
649.000000	0.000443
648.000000	0.000567
647.000000	0.000685
646.000000	0.000693
645.000000	0.000698
644.000000	0.000777
643.000000	0.000814
642.000000	0.000724
641.000000	0.000625
640.000000	0.000619
639.000000	0.000605
638.000000	0.000510
637.000000	0.000452
636.000000	0.000512
635.000000	0.000541
634.000000	0.000425
633.000000	0.000285
632.000000	0.000248
631.000000	0.000216
630.000000	0.000086
629.000000	-0.000029
628.000000	-0.000002
627.000000	0.000083
626.000000	0.000123
625.000000	0.000187
624.000000	0.000318
623.000000	0.000382
622.000000	0.000298
621.000000	0.000222
620.000000	0.000287
619.000000	0.000376
618.000000	0.000352
617.000000	0.000314
616.000000	0.000393
615.000000	0.000512
614.000000	0.000588
613.000000	0.000718
612.000000	0.000955
611.000000	0.001114
610.000000	0.001057
609.000000	0.000951
608.000000	0.000999
607.000000	0.001128
606.000000	0.001185
605.000000	0.001230
604.000000	0.001366
603.000000	0.001501
602.000000	0.001514
601.000000	0.001487
600.000000	0.001519
599.000000	0.001527
598.000000	0.001429
597.000000	0.001336
596.000000	0.001334
595.000000	0.001322
594.000000	0.001230
593.000000	0.001202
592.000000	0.001321
591.000000	0.001406
590.000000	0.001309
589.000000	0.001167
588.000000	0.001131
587.000000	0.001124
586.000000	0.001051
585.000000	0.001006
584.000000	0.001040
583.000000	0.000985
582.000000	0.000751
581.000000	0.000538
580.000000	0.000523
579.000000	0.000597
578.000000	0.000620
577.000000	0.000675
576.000000	0.000815
575.000000	0.000876
574.000000	0.000770
573.000000	0.000686
572.000000	0.000734
571.000000	0.000738
570.000000	0.000580
569.000000	0.000451
568.000000	0.000488
567.000000	0.000493
566.000000	0.000319
565.000000	0.000190
564.000000	0.000330
563.000000	0.000585
562.000000	0.000714
561.000000	0.000756
560.000000	0.000818
559.000000	0.000806
558.000000	0.000675
557.000000	0.000631
556.000000	0.000786
555.000000	0.000918
554.000000	0.000848
553.000000	0.000765
552.000000	0.000858
551.000000	0.000973
550.000000	0.000936
549.000000	0.000893
548.000000	0.000996
547.000000	0.001101
546.000000	0.001070
545.000000	0.001064
544.000000	0.001193
543.000000	0.001242
542.000000	0.001061
541.000000	0.000889
540.000000	0.000964
539.000000	0.001145
538.000000	0.001222
537.000000	0.001253
536.000000	0.001308
535.000000	0.001244
534.000000	0.001039
533.000000	0.000967
532.000000	0.001129
531.000000	0.001224
530.000000	0.001088
529.000000	0.001011
528.000000	0.001200
527.000000	0.001363
526.000000	0.001224
525.000000	0.001059
524.000000	0.001213
523.000000	0.001541
522.000000	0.001764
521.000000	0.001909
520.000000	0.002006
519.000000	0.001793
518.000000	0.001183
517.000000	0.000653
516.000000	0.000609
515.000000	0.000796
514.000000	0.000813
513.000000	0.000738
512.000000	0.000809
511.000000	0.000934
510.000000	0.000911
509.000000	0.000811
508.000000	0.000727
507.000000	0.000516
506.000000	0.000159
505.000000	-0.000029
504.000000	0.000078
503.000000	0.000134
502.000000	-0.000094
501.000000	-0.000266
500.000000	-0.000100
499.000000	0.000128
498.000000	0.000110
497.000000	-0.000009
496.000000	-0.000052
495.000000	-0.000201
494.000000	-0.000547
493.000000	-0.000721
492.000000	-0.000496
491.000000	-0.000261
490.000000	-0.000378
489.000000	-0.000573
488.000000	-0.000502
487.000000	-0.000361
486.000000	-0.000423
485.000000	-0.000457
484.000000	-0.000187
483.000000	0.000089
482.000000	0.000015
481.000000	-0.000169
480.000000	-0.000099
479.000000	0.000072
478.000000	0.000039
477.000000	-0.000063
476.000000	-0.000003
475.000000	0.000036
474.000000	-0.000152
473.000000	-0.000263
472.000000	0.000028
471.000000	0.000390
470.000000	0.000376
469.000000	0.000111
468.000000	-0.000149
467.000000	-0.000487
466.000000	-0.000863
465.000000	-0.000807
464.000000	-0.000157
463.000000	0.000444
462.000000	0.000372
461.000000	-0.000111
460.000000	-0.000453
459.000000	-0.000679
458.000000	-0.000976
457.000000	-0.000989
456.000000	-0.000489
455.000000	-0.000015
454.000000	-0.000021
453.000000	-0.000244
452.000000	-0.000331
451.000000	-0.000470
450.000000	-0.000832
