PE IR       SUBTECH     SPECTRUM    ASCII       PEDS        4.00        
   -1
P3-Bleu025_1.ASC
23/06/13
11:36:51.00
23/06/13
12:04:49.00
uco
Sample 025 By uco Date Tuesday, June 13 2023
450.000000
#HDR
-1
-1
#GR
cm-1
A
1.0
0.0
4000.000000
-1.000000
3551
8
0.001698
-0.001530
#DATA
4000.000000	-0.000406
3999.000000	-0.000404
3998.000000	-0.000399
3997.000000	-0.000388
3996.000000	-0.000374
3995.000000	-0.000360
3994.000000	-0.000354
3993.000000	-0.000359
3992.000000	-0.000376
3991.000000	-0.000399
3990.000000	-0.000418
3989.000000	-0.000428
3988.000000	-0.000428
3987.000000	-0.000421
3986.000000	-0.000411
3985.000000	-0.000405
3984.000000	-0.000404
3983.000000	-0.000405
3982.000000	-0.000403
3981.000000	-0.000393
3980.000000	-0.000378
3979.000000	-0.000364
3978.000000	-0.000358
3977.000000	-0.000356
3976.000000	-0.000356
3975.000000	-0.000353
3974.000000	-0.000348
3973.000000	-0.000345
3972.000000	-0.000346
3971.000000	-0.000353
3970.000000	-0.000366
3969.000000	-0.000377
3968.000000	-0.000375
3967.000000	-0.000352
3966.000000	-0.000310
3965.000000	-0.000263
3964.000000	-0.000233
3963.000000	-0.000237
3962.000000	-0.000272
3961.000000	-0.000321
3960.000000	-0.000363
3959.000000	-0.000387
3958.000000	-0.000387
3957.000000	-0.000370
3956.000000	-0.000344
3955.000000	-0.000322
3954.000000	-0.000314
3953.000000	-0.000321
3952.000000	-0.000337
3951.000000	-0.000356
3950.000000	-0.000376
3949.000000	-0.000398
3948.000000	-0.000417
3947.000000	-0.000426
3946.000000	-0.000420
3945.000000	-0.000397
3944.000000	-0.000365
3943.000000	-0.000332
3942.000000	-0.000315
3941.000000	-0.000318
3940.000000	-0.000340
3939.000000	-0.000367
3938.000000	-0.000387
3937.000000	-0.000395
3936.000000	-0.000392
3935.000000	-0.000378
3934.000000	-0.000351
3933.000000	-0.000314
3932.000000	-0.000279
3931.000000	-0.000263
3930.000000	-0.000270
3929.000000	-0.000289
3928.000000	-0.000300
3927.000000	-0.000298
3926.000000	-0.000289
3925.000000	-0.000288
3924.000000	-0.000302
3923.000000	-0.000325
3922.000000	-0.000347
3921.000000	-0.000365
3920.000000	-0.000380
3919.000000	-0.000394
3918.000000	-0.000399
3917.000000	-0.000385
3916.000000	-0.000353
3915.000000	-0.000313
3914.000000	-0.000277
3913.000000	-0.000250
3912.000000	-0.000233
3911.000000	-0.000226
3910.000000	-0.000226
3909.000000	-0.000225
3908.000000	-0.000219
3907.000000	-0.000208
3906.000000	-0.000207
3905.000000	-0.000232
3904.000000	-0.000287
3903.000000	-0.000353
3902.000000	-0.000399
3901.000000	-0.000411
3900.000000	-0.000390
3899.000000	-0.000350
3898.000000	-0.000311
3897.000000	-0.000284
3896.000000	-0.000272
3895.000000	-0.000274
3894.000000	-0.000285
3893.000000	-0.000301
3892.000000	-0.000319
3891.000000	-0.000329
3890.000000	-0.000327
3889.000000	-0.000319
3888.000000	-0.000313
3887.000000	-0.000304
3886.000000	-0.000287
3885.000000	-0.000268
3884.000000	-0.000258
3883.000000	-0.000262
3882.000000	-0.000273
3881.000000	-0.000286
3880.000000	-0.000293
3879.000000	-0.000288
3878.000000	-0.000268
3877.000000	-0.000240
3876.000000	-0.000210
3875.000000	-0.000184
3874.000000	-0.000176
3873.000000	-0.000195
3872.000000	-0.000236
3871.000000	-0.000284
3870.000000	-0.000313
3869.000000	-0.000316
3868.000000	-0.000306
3867.000000	-0.000299
3866.000000	-0.000296
3865.000000	-0.000287
3864.000000	-0.000275
3863.000000	-0.000273
3862.000000	-0.000286
3861.000000	-0.000311
3860.000000	-0.000336
3859.000000	-0.000352
3858.000000	-0.000351
3857.000000	-0.000337
3856.000000	-0.000320
3855.000000	-0.000310
3854.000000	-0.000330
3853.000000	-0.000372
3852.000000	-0.000391
3851.000000	-0.000376
3850.000000	-0.000348
3849.000000	-0.000318
3848.000000	-0.000289
3847.000000	-0.000270
3846.000000	-0.000259
3845.000000	-0.000253
3844.000000	-0.000249
3843.000000	-0.000250
3842.000000	-0.000258
3841.000000	-0.000273
3840.000000	-0.000286
3839.000000	-0.000293
3838.000000	-0.000292
3837.000000	-0.000282
3836.000000	-0.000268
3835.000000	-0.000257
3834.000000	-0.000249
3833.000000	-0.000244
3832.000000	-0.000240
3831.000000	-0.000243
3830.000000	-0.000257
3829.000000	-0.000275
3828.000000	-0.000288
3827.000000	-0.000293
3826.000000	-0.000294
3825.000000	-0.000304
3824.000000	-0.000328
3823.000000	-0.000348
3822.000000	-0.000343
3821.000000	-0.000315
3820.000000	-0.000284
3819.000000	-0.000270
3818.000000	-0.000279
3817.000000	-0.000294
3816.000000	-0.000293
3815.000000	-0.000272
3814.000000	-0.000248
3813.000000	-0.000236
3812.000000	-0.000236
3811.000000	-0.000246
3810.000000	-0.000263
3809.000000	-0.000282
3808.000000	-0.000292
3807.000000	-0.000282
3806.000000	-0.000263
3805.000000	-0.000253
3804.000000	-0.000260
3803.000000	-0.000273
3802.000000	-0.000277
3801.000000	-0.000270
3800.000000	-0.000264
3799.000000	-0.000266
3798.000000	-0.000271
3797.000000	-0.000271
3796.000000	-0.000264
3795.000000	-0.000253
3794.000000	-0.000244
3793.000000	-0.000236
3792.000000	-0.000224
3791.000000	-0.000205
3790.000000	-0.000176
3789.000000	-0.000140
3788.000000	-0.000104
3787.000000	-0.000079
3786.000000	-0.000075
3785.000000	-0.000089
3784.000000	-0.000108
3783.000000	-0.000121
3782.000000	-0.000126
3781.000000	-0.000130
3780.000000	-0.000141
3779.000000	-0.000157
3778.000000	-0.000170
3777.000000	-0.000177
3776.000000	-0.000182
3775.000000	-0.000190
3774.000000	-0.000204
3773.000000	-0.000223
3772.000000	-0.000244
3771.000000	-0.000260
3770.000000	-0.000262
3769.000000	-0.000253
3768.000000	-0.000238
3767.000000	-0.000226
3766.000000	-0.000214
3765.000000	-0.000198
3764.000000	-0.000178
3763.000000	-0.000162
3762.000000	-0.000153
3761.000000	-0.000144
3760.000000	-0.000138
3759.000000	-0.000147
3758.000000	-0.000175
3757.000000	-0.000209
3756.000000	-0.000235
3755.000000	-0.000253
3754.000000	-0.000272
3753.000000	-0.000308
3752.000000	-0.000374
3751.000000	-0.000452
3750.000000	-0.000490
3749.000000	-0.000467
3748.000000	-0.000422
3747.000000	-0.000397
3746.000000	-0.000392
3745.000000	-0.000377
3744.000000	-0.000331
3743.000000	-0.000278
3742.000000	-0.000260
3741.000000	-0.000282
3740.000000	-0.000319
3739.000000	-0.000354
3738.000000	-0.000385
3737.000000	-0.000410
3736.000000	-0.000424
3735.000000	-0.000422
3734.000000	-0.000415
3733.000000	-0.000406
3732.000000	-0.000387
3731.000000	-0.000356
3730.000000	-0.000323
3729.000000	-0.000299
3728.000000	-0.000281
3727.000000	-0.000263
3726.000000	-0.000247
3725.000000	-0.000237
3724.000000	-0.000227
3723.000000	-0.000207
3722.000000	-0.000180
3721.000000	-0.000157
3720.000000	-0.000152
3719.000000	-0.000164
3718.000000	-0.000180
3717.000000	-0.000193
3716.000000	-0.000208
3715.000000	-0.000231
3714.000000	-0.000264
3713.000000	-0.000290
3712.000000	-0.000297
3711.000000	-0.000291
3710.000000	-0.000286
3709.000000	-0.000287
3708.000000	-0.000284
3707.000000	-0.000265
3706.000000	-0.000233
3705.000000	-0.000201
3704.000000	-0.000186
3703.000000	-0.000193
3702.000000	-0.000209
3701.000000	-0.000215
3700.000000	-0.000204
3699.000000	-0.000188
3698.000000	-0.000182
3697.000000	-0.000186
3696.000000	-0.000196
3695.000000	-0.000209
3694.000000	-0.000218
3693.000000	-0.000214
3692.000000	-0.000195
3691.000000	-0.000175
3690.000000	-0.000170
3689.000000	-0.000178
3688.000000	-0.000178
3687.000000	-0.000169
3686.000000	-0.000168
3685.000000	-0.000180
3684.000000	-0.000193
3683.000000	-0.000195
3682.000000	-0.000181
3681.000000	-0.000154
3680.000000	-0.000124
3679.000000	-0.000103
3678.000000	-0.000101
3677.000000	-0.000122
3676.000000	-0.000159
3675.000000	-0.000204
3674.000000	-0.000247
3673.000000	-0.000290
3672.000000	-0.000333
3671.000000	-0.000359
3670.000000	-0.000352
3669.000000	-0.000316
3668.000000	-0.000269
3667.000000	-0.000226
3666.000000	-0.000194
3665.000000	-0.000170
3664.000000	-0.000151
3663.000000	-0.000134
3662.000000	-0.000121
3661.000000	-0.000119
3660.000000	-0.000129
3659.000000	-0.000151
3658.000000	-0.000172
3657.000000	-0.000181
3656.000000	-0.000176
3655.000000	-0.000166
3654.000000	-0.000168
3653.000000	-0.000182
3652.000000	-0.000198
3651.000000	-0.000209
3650.000000	-0.000222
3649.000000	-0.000240
3648.000000	-0.000242
3647.000000	-0.000224
3646.000000	-0.000206
3645.000000	-0.000200
3644.000000	-0.000202
3643.000000	-0.000199
3642.000000	-0.000189
3641.000000	-0.000180
3640.000000	-0.000184
3639.000000	-0.000201
3638.000000	-0.000224
3637.000000	-0.000245
3636.000000	-0.000264
3635.000000	-0.000278
3634.000000	-0.000285
3633.000000	-0.000287
3632.000000	-0.000286
3631.000000	-0.000280
3630.000000	-0.000264
3629.000000	-0.000250
3628.000000	-0.000253
3627.000000	-0.000275
3626.000000	-0.000305
3625.000000	-0.000329
3624.000000	-0.000334
3623.000000	-0.000316
3622.000000	-0.000287
3621.000000	-0.000262
3620.000000	-0.000251
3619.000000	-0.000253
3618.000000	-0.000258
3617.000000	-0.000258
3616.000000	-0.000259
3615.000000	-0.000263
3614.000000	-0.000269
3613.000000	-0.000278
3612.000000	-0.000291
3611.000000	-0.000306
3610.000000	-0.000311
3609.000000	-0.000297
3608.000000	-0.000273
3607.000000	-0.000256
3606.000000	-0.000252
3605.000000	-0.000254
3604.000000	-0.000252
3603.000000	-0.000246
3602.000000	-0.000243
3601.000000	-0.000244
3600.000000	-0.000243
3599.000000	-0.000232
3598.000000	-0.000210
3597.000000	-0.000178
3596.000000	-0.000145
3595.000000	-0.000122
3594.000000	-0.000114
3593.000000	-0.000121
3592.000000	-0.000138
3591.000000	-0.000158
3590.000000	-0.000177
3589.000000	-0.000195
3588.000000	-0.000211
3587.000000	-0.000221
3586.000000	-0.000219
3585.000000	-0.000208
3584.000000	-0.000195
3583.000000	-0.000186
3582.000000	-0.000181
3581.000000	-0.000177
3580.000000	-0.000168
3579.000000	-0.000153
3578.000000	-0.000136
3577.000000	-0.000126
3576.000000	-0.000132
3575.000000	-0.000151
3574.000000	-0.000173
3573.000000	-0.000187
3572.000000	-0.000184
3571.000000	-0.000159
3570.000000	-0.000112
3569.000000	-0.000049
3568.000000	0.000010
3567.000000	0.000051
3566.000000	0.000066
3565.000000	0.000058
3564.000000	0.000034
3563.000000	0.000007
3562.000000	-0.000013
3561.000000	-0.000020
3560.000000	-0.000019
3559.000000	-0.000020
3558.000000	-0.000029
3557.000000	-0.000043
3556.000000	-0.000055
3555.000000	-0.000058
3554.000000	-0.000046
3553.000000	-0.000026
3552.000000	-0.000010
3551.000000	-0.000008
3550.000000	-0.000023
3549.000000	-0.000044
3548.000000	-0.000061
3547.000000	-0.000067
3546.000000	-0.000058
3545.000000	-0.000043
3544.000000	-0.000034
3543.000000	-0.000039
3542.000000	-0.000060
3541.000000	-0.000087
3540.000000	-0.000109
3539.000000	-0.000118
3538.000000	-0.000111
3537.000000	-0.000095
3536.000000	-0.000078
3535.000000	-0.000065
3534.000000	-0.000054
3533.000000	-0.000043
3532.000000	-0.000032
3531.000000	-0.000023
3530.000000	-0.000016
3529.000000	-0.000012
3528.000000	-0.000013
3527.000000	-0.000025
3526.000000	-0.000045
3525.000000	-0.000061
3524.000000	-0.000059
3523.000000	-0.000033
3522.000000	0.000002
3521.000000	0.000026
3520.000000	0.000030
3519.000000	0.000022
3518.000000	0.000015
3517.000000	0.000018
3516.000000	0.000022
3515.000000	0.000021
3514.000000	0.000011
3513.000000	-0.000003
3512.000000	-0.000017
3511.000000	-0.000031
3510.000000	-0.000046
3509.000000	-0.000060
3508.000000	-0.000065
3507.000000	-0.000056
3506.000000	-0.000037
3505.000000	-0.000019
3504.000000	-0.000007
3503.000000	0.000003
3502.000000	0.000019
3501.000000	0.000043
3500.000000	0.000066
3499.000000	0.000081
3498.000000	0.000092
3497.000000	0.000101
3496.000000	0.000105
3495.000000	0.000098
3494.000000	0.000076
3493.000000	0.000047
3492.000000	0.000025
3491.000000	0.000024
3490.000000	0.000045
3489.000000	0.000076
3488.000000	0.000097
3487.000000	0.000095
3486.000000	0.000071
3485.000000	0.000040
3484.000000	0.000019
3483.000000	0.000015
3482.000000	0.000023
3481.000000	0.000028
3480.000000	0.000023
3479.000000	0.000012
3478.000000	0.000002
3477.000000	0.000002
3476.000000	0.000013
3475.000000	0.000035
3474.000000	0.000063
3473.000000	0.000088
3472.000000	0.000105
3471.000000	0.000109
3470.000000	0.000101
3469.000000	0.000088
3468.000000	0.000075
3467.000000	0.000066
3466.000000	0.000062
3465.000000	0.000057
3464.000000	0.000049
3463.000000	0.000040
3462.000000	0.000036
3461.000000	0.000041
3460.000000	0.000051
3459.000000	0.000063
3458.000000	0.000076
3457.000000	0.000093
3456.000000	0.000111
3455.000000	0.000120
3454.000000	0.000110
3453.000000	0.000087
3452.000000	0.000066
3451.000000	0.000062
3450.000000	0.000080
3449.000000	0.000106
3448.000000	0.000124
3447.000000	0.000129
3446.000000	0.000127
3445.000000	0.000126
3444.000000	0.000130
3443.000000	0.000136
3442.000000	0.000146
3441.000000	0.000157
3440.000000	0.000163
3439.000000	0.000160
3438.000000	0.000149
3437.000000	0.000137
3436.000000	0.000129
3435.000000	0.000129
3434.000000	0.000137
3433.000000	0.000150
3432.000000	0.000157
3431.000000	0.000151
3430.000000	0.000133
3429.000000	0.000115
3428.000000	0.000106
3427.000000	0.000112
3426.000000	0.000125
3425.000000	0.000133
3424.000000	0.000130
3423.000000	0.000122
3422.000000	0.000117
3421.000000	0.000120
3420.000000	0.000128
3419.000000	0.000136
3418.000000	0.000143
3417.000000	0.000152
3416.000000	0.000159
3415.000000	0.000155
3414.000000	0.000135
3413.000000	0.000106
3412.000000	0.000079
3411.000000	0.000064
3410.000000	0.000062
3409.000000	0.000070
3408.000000	0.000088
3407.000000	0.000114
3406.000000	0.000142
3405.000000	0.000158
3404.000000	0.000157
3403.000000	0.000146
3402.000000	0.000139
3401.000000	0.000141
3400.000000	0.000144
3399.000000	0.000142
3398.000000	0.000138
3397.000000	0.000140
3396.000000	0.000151
3395.000000	0.000166
3394.000000	0.000179
3393.000000	0.000183
3392.000000	0.000176
3391.000000	0.000161
3390.000000	0.000147
3389.000000	0.000142
3388.000000	0.000146
3387.000000	0.000153
3386.000000	0.000160
3385.000000	0.000171
3384.000000	0.000190
3383.000000	0.000214
3382.000000	0.000233
3381.000000	0.000234
3380.000000	0.000217
3379.000000	0.000194
3378.000000	0.000177
3377.000000	0.000169
3376.000000	0.000159
3375.000000	0.000142
3374.000000	0.000128
3373.000000	0.000136
3372.000000	0.000167
3371.000000	0.000200
3370.000000	0.000218
3369.000000	0.000216
3368.000000	0.000206
3367.000000	0.000196
3366.000000	0.000185
3365.000000	0.000170
3364.000000	0.000151
3363.000000	0.000132
3362.000000	0.000118
3361.000000	0.000116
3360.000000	0.000130
3359.000000	0.000151
3358.000000	0.000166
3357.000000	0.000167
3356.000000	0.000158
3355.000000	0.000148
3354.000000	0.000145
3353.000000	0.000150
3352.000000	0.000160
3351.000000	0.000172
3350.000000	0.000182
3349.000000	0.000188
3348.000000	0.000192
3347.000000	0.000196
3346.000000	0.000199
3345.000000	0.000200
3344.000000	0.000202
3343.000000	0.000206
3342.000000	0.000212
3341.000000	0.000213
3340.000000	0.000208
3339.000000	0.000198
3338.000000	0.000190
3337.000000	0.000189
3336.000000	0.000197
3335.000000	0.000210
3334.000000	0.000225
3333.000000	0.000239
3332.000000	0.000249
3331.000000	0.000251
3330.000000	0.000240
3329.000000	0.000217
3328.000000	0.000187
3327.000000	0.000162
3326.000000	0.000152
3325.000000	0.000160
3324.000000	0.000184
3323.000000	0.000216
3322.000000	0.000246
3321.000000	0.000267
3320.000000	0.000278
3319.000000	0.000286
3318.000000	0.000301
3317.000000	0.000326
3316.000000	0.000356
3315.000000	0.000379
3314.000000	0.000389
3313.000000	0.000385
3312.000000	0.000369
3311.000000	0.000345
3310.000000	0.000319
3309.000000	0.000297
3308.000000	0.000284
3307.000000	0.000281
3306.000000	0.000288
3305.000000	0.000306
3304.000000	0.000332
3303.000000	0.000354
3302.000000	0.000363
3301.000000	0.000352
3300.000000	0.000326
3299.000000	0.000296
3298.000000	0.000270
3297.000000	0.000253
3296.000000	0.000246
3295.000000	0.000247
3294.000000	0.000250
3293.000000	0.000253
3292.000000	0.000258
3291.000000	0.000268
3290.000000	0.000278
3289.000000	0.000284
3288.000000	0.000285
3287.000000	0.000283
3286.000000	0.000284
3285.000000	0.000288
3284.000000	0.000298
3283.000000	0.000312
3282.000000	0.000328
3281.000000	0.000340
3280.000000	0.000342
3279.000000	0.000328
3278.000000	0.000300
3277.000000	0.000265
3276.000000	0.000236
3275.000000	0.000221
3274.000000	0.000220
3273.000000	0.000225
3272.000000	0.000231
3271.000000	0.000237
3270.000000	0.000245
3269.000000	0.000258
3268.000000	0.000277
3267.000000	0.000300
3266.000000	0.000320
3265.000000	0.000332
3264.000000	0.000336
3263.000000	0.000334
3262.000000	0.000326
3261.000000	0.000310
3260.000000	0.000284
3259.000000	0.000256
3258.000000	0.000239
3257.000000	0.000238
3256.000000	0.000250
3255.000000	0.000264
3254.000000	0.000272
3253.000000	0.000275
3252.000000	0.000277
3251.000000	0.000278
3250.000000	0.000276
3249.000000	0.000270
3248.000000	0.000267
3247.000000	0.000272
3246.000000	0.000282
3245.000000	0.000289
3244.000000	0.000294
3243.000000	0.000302
3242.000000	0.000312
3241.000000	0.000312
3240.000000	0.000297
3239.000000	0.000274
3238.000000	0.000255
3237.000000	0.000245
3236.000000	0.000238
3235.000000	0.000226
3234.000000	0.000210
3233.000000	0.000203
3232.000000	0.000212
3231.000000	0.000232
3230.000000	0.000248
3229.000000	0.000243
3228.000000	0.000218
3227.000000	0.000185
3226.000000	0.000158
3225.000000	0.000145
3224.000000	0.000145
3223.000000	0.000153
3222.000000	0.000165
3221.000000	0.000182
3220.000000	0.000203
3219.000000	0.000225
3218.000000	0.000242
3217.000000	0.000248
3216.000000	0.000241
3215.000000	0.000225
3214.000000	0.000207
3213.000000	0.000201
3212.000000	0.000218
3211.000000	0.000254
3210.000000	0.000295
3209.000000	0.000325
3208.000000	0.000339
3207.000000	0.000337
3206.000000	0.000321
3205.000000	0.000295
3204.000000	0.000270
3203.000000	0.000254
3202.000000	0.000250
3201.000000	0.000252
3200.000000	0.000252
3199.000000	0.000248
3198.000000	0.000246
3197.000000	0.000249
3196.000000	0.000255
3195.000000	0.000263
3194.000000	0.000276
3193.000000	0.000289
3192.000000	0.000295
3191.000000	0.000283
3190.000000	0.000249
3189.000000	0.000205
3188.000000	0.000173
3187.000000	0.000172
3186.000000	0.000199
3185.000000	0.000239
3184.000000	0.000276
3183.000000	0.000303
3182.000000	0.000320
3181.000000	0.000328
3180.000000	0.000330
3179.000000	0.000330
3178.000000	0.000327
3177.000000	0.000312
3176.000000	0.000282
3175.000000	0.000246
3174.000000	0.000220
3173.000000	0.000211
3172.000000	0.000214
3171.000000	0.000220
3170.000000	0.000226
3169.000000	0.000238
3168.000000	0.000256
3167.000000	0.000272
3166.000000	0.000276
3165.000000	0.000269
3164.000000	0.000256
3163.000000	0.000244
3162.000000	0.000233
3161.000000	0.000224
3160.000000	0.000220
3159.000000	0.000226
3158.000000	0.000244
3157.000000	0.000269
3156.000000	0.000293
3155.000000	0.000311
3154.000000	0.000322
3153.000000	0.000325
3152.000000	0.000317
3151.000000	0.000294
3150.000000	0.000261
3149.000000	0.000229
3148.000000	0.000215
3147.000000	0.000223
3146.000000	0.000243
3145.000000	0.000257
3144.000000	0.000254
3143.000000	0.000239
3142.000000	0.000223
3141.000000	0.000215
3140.000000	0.000215
3139.000000	0.000215
3138.000000	0.000210
3137.000000	0.000198
3136.000000	0.000185
3135.000000	0.000176
3134.000000	0.000176
3133.000000	0.000184
3132.000000	0.000195
3131.000000	0.000203
3130.000000	0.000208
3129.000000	0.000208
3128.000000	0.000209
3127.000000	0.000215
3126.000000	0.000226
3125.000000	0.000233
3124.000000	0.000224
3123.000000	0.000194
3122.000000	0.000149
3121.000000	0.000103
3120.000000	0.000072
3119.000000	0.000066
3118.000000	0.000082
3117.000000	0.000110
3116.000000	0.000138
3115.000000	0.000159
3114.000000	0.000174
3113.000000	0.000185
3112.000000	0.000196
3111.000000	0.000207
3110.000000	0.000218
3109.000000	0.000229
3108.000000	0.000234
3107.000000	0.000228
3106.000000	0.000220
3105.000000	0.000221
3104.000000	0.000234
3103.000000	0.000250
3102.000000	0.000256
3101.000000	0.000251
3100.000000	0.000246
3099.000000	0.000247
3098.000000	0.000249
3097.000000	0.000241
3096.000000	0.000217
3095.000000	0.000183
3094.000000	0.000152
3093.000000	0.000137
3092.000000	0.000140
3091.000000	0.000156
3090.000000	0.000175
3089.000000	0.000187
3088.000000	0.000188
3087.000000	0.000177
3086.000000	0.000161
3085.000000	0.000146
3084.000000	0.000138
3083.000000	0.000144
3082.000000	0.000159
3081.000000	0.000172
3080.000000	0.000172
3079.000000	0.000163
3078.000000	0.000155
3077.000000	0.000161
3076.000000	0.000183
3075.000000	0.000210
3074.000000	0.000225
3073.000000	0.000221
3072.000000	0.000202
3071.000000	0.000183
3070.000000	0.000176
3069.000000	0.000183
3068.000000	0.000193
3067.000000	0.000196
3066.000000	0.000187
3065.000000	0.000170
3064.000000	0.000156
3063.000000	0.000155
3062.000000	0.000171
3061.000000	0.000201
3060.000000	0.000233
3059.000000	0.000257
3058.000000	0.000264
3057.000000	0.000253
3056.000000	0.000231
3055.000000	0.000212
3054.000000	0.000212
3053.000000	0.000229
3052.000000	0.000249
3051.000000	0.000257
3050.000000	0.000254
3049.000000	0.000248
3048.000000	0.000240
3047.000000	0.000224
3046.000000	0.000203
3045.000000	0.000183
3044.000000	0.000175
3043.000000	0.000176
3042.000000	0.000181
3041.000000	0.000188
3040.000000	0.000199
3039.000000	0.000214
3038.000000	0.000228
3037.000000	0.000232
3036.000000	0.000225
3035.000000	0.000215
3034.000000	0.000218
3033.000000	0.000245
3032.000000	0.000296
3031.000000	0.000349
3030.000000	0.000379
3029.000000	0.000371
3028.000000	0.000336
3027.000000	0.000304
3026.000000	0.000296
3025.000000	0.000314
3024.000000	0.000344
3023.000000	0.000366
3022.000000	0.000367
3021.000000	0.000349
3020.000000	0.000327
3019.000000	0.000319
3018.000000	0.000336
3017.000000	0.000373
3016.000000	0.000415
3015.000000	0.000447
3014.000000	0.000466
3013.000000	0.000472
3012.000000	0.000472
3011.000000	0.000476
3010.000000	0.000488
3009.000000	0.000508
3008.000000	0.000530
3007.000000	0.000553
3006.000000	0.000575
3005.000000	0.000597
3004.000000	0.000613
3003.000000	0.000625
3002.000000	0.000632
3001.000000	0.000639
3000.000000	0.000643
2999.000000	0.000644
2998.000000	0.000638
2997.000000	0.000629
2996.000000	0.000621
2995.000000	0.000627
2994.000000	0.000653
2993.000000	0.000698
2992.000000	0.000751
2991.000000	0.000806
2990.000000	0.000855
2989.000000	0.000890
2988.000000	0.000901
2987.000000	0.000888
2986.000000	0.000863
2985.000000	0.000843
2984.000000	0.000840
2983.000000	0.000856
2982.000000	0.000880
2981.000000	0.000901
2980.000000	0.000915
2979.000000	0.000929
2978.000000	0.000950
2977.000000	0.000978
2976.000000	0.001005
2975.000000	0.001029
2974.000000	0.001054
2973.000000	0.001088
2972.000000	0.001128
2971.000000	0.001164
2970.000000	0.001194
2969.000000	0.001215
2968.000000	0.001221
2967.000000	0.001213
2966.000000	0.001199
2965.000000	0.001192
2964.000000	0.001200
2963.000000	0.001216
2962.000000	0.001234
2961.000000	0.001248
2960.000000	0.001256
2959.000000	0.001257
2958.000000	0.001258
2957.000000	0.001265
2956.000000	0.001276
2955.000000	0.001283
2954.000000	0.001282
2953.000000	0.001275
2952.000000	0.001267
2951.000000	0.001259
2950.000000	0.001249
2949.000000	0.001235
2948.000000	0.001222
2947.000000	0.001212
2946.000000	0.001210
2945.000000	0.001222
2944.000000	0.001249
2943.000000	0.001292
2942.000000	0.001340
2941.000000	0.001382
2940.000000	0.001409
2939.000000	0.001426
2938.000000	0.001446
2937.000000	0.001476
2936.000000	0.001510
2935.000000	0.001536
2934.000000	0.001553
2933.000000	0.001570
2932.000000	0.001591
2931.000000	0.001615
2930.000000	0.001633
2929.000000	0.001648
2928.000000	0.001661
2927.000000	0.001673
2926.000000	0.001680
2925.000000	0.001684
2924.000000	0.001689
2923.000000	0.001696
2922.000000	0.001698
2921.000000	0.001682
2920.000000	0.001640
2919.000000	0.001581
2918.000000	0.001519
2917.000000	0.001468
2916.000000	0.001428
2915.000000	0.001393
2914.000000	0.001359
2913.000000	0.001329
2912.000000	0.001308
2911.000000	0.001292
2910.000000	0.001277
2909.000000	0.001261
2908.000000	0.001249
2907.000000	0.001238
2906.000000	0.001222
2905.000000	0.001201
2904.000000	0.001184
2903.000000	0.001181
2902.000000	0.001188
2901.000000	0.001189
2900.000000	0.001169
2899.000000	0.001132
2898.000000	0.001092
2897.000000	0.001058
2896.000000	0.001031
2895.000000	0.001007
2894.000000	0.000987
2893.000000	0.000968
2892.000000	0.000947
2891.000000	0.000922
2890.000000	0.000895
2889.000000	0.000880
2888.000000	0.000881
2887.000000	0.000894
2886.000000	0.000906
2885.000000	0.000907
2884.000000	0.000898
2883.000000	0.000887
2882.000000	0.000888
2881.000000	0.000911
2880.000000	0.000949
2879.000000	0.000983
2878.000000	0.000999
2877.000000	0.000993
2876.000000	0.000973
2875.000000	0.000951
2874.000000	0.000932
2873.000000	0.000920
2872.000000	0.000918
2871.000000	0.000918
2870.000000	0.000916
2869.000000	0.000911
2868.000000	0.000911
2867.000000	0.000921
2866.000000	0.000932
2865.000000	0.000940
2864.000000	0.000946
2863.000000	0.000956
2862.000000	0.000970
2861.000000	0.000986
2860.000000	0.001002
2859.000000	0.001022
2858.000000	0.001048
2857.000000	0.001073
2856.000000	0.001092
2855.000000	0.001097
2854.000000	0.001089
2853.000000	0.001068
2852.000000	0.001036
2851.000000	0.000998
2850.000000	0.000963
2849.000000	0.000935
2848.000000	0.000910
2847.000000	0.000879
2846.000000	0.000835
2845.000000	0.000777
2844.000000	0.000719
2843.000000	0.000670
2842.000000	0.000636
2841.000000	0.000613
2840.000000	0.000592
2839.000000	0.000569
2838.000000	0.000544
2837.000000	0.000522
2836.000000	0.000509
2835.000000	0.000508
2834.000000	0.000516
2833.000000	0.000523
2832.000000	0.000523
2831.000000	0.000516
2830.000000	0.000505
2829.000000	0.000493
2828.000000	0.000483
2827.000000	0.000476
2826.000000	0.000472
2825.000000	0.000466
2824.000000	0.000451
2823.000000	0.000426
2822.000000	0.000399
2821.000000	0.000379
2820.000000	0.000372
2819.000000	0.000379
2818.000000	0.000398
2817.000000	0.000423
2816.000000	0.000448
2815.000000	0.000467
2814.000000	0.000475
2813.000000	0.000472
2812.000000	0.000454
2811.000000	0.000420
2810.000000	0.000378
2809.000000	0.000348
2808.000000	0.000344
2807.000000	0.000359
2806.000000	0.000375
2805.000000	0.000379
2804.000000	0.000370
2803.000000	0.000359
2802.000000	0.000349
2801.000000	0.000342
2800.000000	0.000338
2799.000000	0.000339
2798.000000	0.000347
2797.000000	0.000357
2796.000000	0.000367
2795.000000	0.000377
2794.000000	0.000382
2793.000000	0.000379
2792.000000	0.000368
2791.000000	0.000355
2790.000000	0.000350
2789.000000	0.000355
2788.000000	0.000367
2787.000000	0.000379
2786.000000	0.000390
2785.000000	0.000399
2784.000000	0.000405
2783.000000	0.000405
2782.000000	0.000398
2781.000000	0.000385
2780.000000	0.000366
2779.000000	0.000348
2778.000000	0.000338
2777.000000	0.000338
2776.000000	0.000347
2775.000000	0.000359
2774.000000	0.000366
2773.000000	0.000361
2772.000000	0.000345
2771.000000	0.000328
2770.000000	0.000322
2769.000000	0.000327
2768.000000	0.000333
2767.000000	0.000334
2766.000000	0.000332
2765.000000	0.000329
2764.000000	0.000326
2763.000000	0.000324
2762.000000	0.000327
2761.000000	0.000339
2760.000000	0.000351
2759.000000	0.000354
2758.000000	0.000343
2757.000000	0.000329
2756.000000	0.000322
2755.000000	0.000328
2754.000000	0.000347
2753.000000	0.000373
2752.000000	0.000400
2751.000000	0.000416
2750.000000	0.000418
2749.000000	0.000405
2748.000000	0.000385
2747.000000	0.000360
2746.000000	0.000334
2745.000000	0.000311
2744.000000	0.000296
2743.000000	0.000297
2742.000000	0.000313
2741.000000	0.000335
2740.000000	0.000350
2739.000000	0.000351
2738.000000	0.000347
2737.000000	0.000349
2736.000000	0.000360
2735.000000	0.000375
2734.000000	0.000387
2733.000000	0.000395
2732.000000	0.000407
2731.000000	0.000425
2730.000000	0.000439
2729.000000	0.000436
2728.000000	0.000414
2727.000000	0.000382
2726.000000	0.000353
2725.000000	0.000337
2724.000000	0.000331
2723.000000	0.000335
2722.000000	0.000349
2721.000000	0.000369
2720.000000	0.000389
2719.000000	0.000395
2718.000000	0.000382
2717.000000	0.000359
2716.000000	0.000342
2715.000000	0.000342
2714.000000	0.000354
2713.000000	0.000362
2712.000000	0.000357
2711.000000	0.000342
2710.000000	0.000330
2709.000000	0.000327
2708.000000	0.000330
2707.000000	0.000336
2706.000000	0.000344
2705.000000	0.000353
2704.000000	0.000358
2703.000000	0.000356
2702.000000	0.000353
2701.000000	0.000354
2700.000000	0.000360
2699.000000	0.000364
2698.000000	0.000365
2697.000000	0.000362
2696.000000	0.000357
2695.000000	0.000349
2694.000000	0.000339
2693.000000	0.000326
2692.000000	0.000314
2691.000000	0.000306
2690.000000	0.000304
2689.000000	0.000310
2688.000000	0.000321
2687.000000	0.000336
2686.000000	0.000351
2685.000000	0.000362
2684.000000	0.000363
2683.000000	0.000354
2682.000000	0.000344
2681.000000	0.000337
2680.000000	0.000334
2679.000000	0.000330
2678.000000	0.000328
2677.000000	0.000333
2676.000000	0.000343
2675.000000	0.000346
2674.000000	0.000338
2673.000000	0.000328
2672.000000	0.000331
2671.000000	0.000348
2670.000000	0.000371
2669.000000	0.000387
2668.000000	0.000394
2667.000000	0.000398
2666.000000	0.000402
2665.000000	0.000404
2664.000000	0.000399
2663.000000	0.000389
2662.000000	0.000378
2661.000000	0.000375
2660.000000	0.000381
2659.000000	0.000393
2658.000000	0.000404
2657.000000	0.000410
2656.000000	0.000407
2655.000000	0.000395
2654.000000	0.000375
2653.000000	0.000353
2652.000000	0.000336
2651.000000	0.000332
2650.000000	0.000340
2649.000000	0.000348
2648.000000	0.000349
2647.000000	0.000343
2646.000000	0.000340
2645.000000	0.000340
2644.000000	0.000343
2643.000000	0.000344
2642.000000	0.000347
2641.000000	0.000357
2640.000000	0.000371
2639.000000	0.000384
2638.000000	0.000386
2637.000000	0.000376
2636.000000	0.000362
2635.000000	0.000349
2634.000000	0.000334
2633.000000	0.000314
2632.000000	0.000288
2631.000000	0.000263
2630.000000	0.000249
2629.000000	0.000252
2628.000000	0.000263
2627.000000	0.000270
2626.000000	0.000266
2625.000000	0.000250
2624.000000	0.000231
2623.000000	0.000221
2622.000000	0.000228
2621.000000	0.000248
2620.000000	0.000269
2619.000000	0.000285
2618.000000	0.000293
2617.000000	0.000293
2616.000000	0.000286
2615.000000	0.000281
2614.000000	0.000279
2613.000000	0.000277
2612.000000	0.000264
2611.000000	0.000239
2610.000000	0.000206
2609.000000	0.000176
2608.000000	0.000155
2607.000000	0.000148
2606.000000	0.000161
2605.000000	0.000191
2604.000000	0.000224
2603.000000	0.000249
2602.000000	0.000267
2601.000000	0.000282
2600.000000	0.000293
2599.000000	0.000296
2598.000000	0.000291
2597.000000	0.000280
2596.000000	0.000262
2595.000000	0.000237
2594.000000	0.000220
2593.000000	0.000223
2592.000000	0.000240
2591.000000	0.000243
2590.000000	0.000215
2589.000000	0.000165
2588.000000	0.000120
2587.000000	0.000097
2586.000000	0.000099
2585.000000	0.000117
2584.000000	0.000141
2583.000000	0.000167
2582.000000	0.000193
2581.000000	0.000212
2580.000000	0.000213
2579.000000	0.000201
2578.000000	0.000190
2577.000000	0.000186
2576.000000	0.000176
2575.000000	0.000139
2574.000000	0.000086
2573.000000	0.000048
2572.000000	0.000048
2571.000000	0.000082
2570.000000	0.000134
2569.000000	0.000187
2568.000000	0.000223
2567.000000	0.000230
2566.000000	0.000210
2565.000000	0.000182
2564.000000	0.000166
2563.000000	0.000166
2562.000000	0.000173
2561.000000	0.000174
2560.000000	0.000159
2559.000000	0.000127
2558.000000	0.000091
2557.000000	0.000073
2556.000000	0.000082
2555.000000	0.000107
2554.000000	0.000138
2553.000000	0.000171
2552.000000	0.000201
2551.000000	0.000215
2550.000000	0.000201
2549.000000	0.000168
2548.000000	0.000134
2547.000000	0.000105
2546.000000	0.000082
2545.000000	0.000070
2544.000000	0.000084
2543.000000	0.000130
2542.000000	0.000199
2541.000000	0.000264
2540.000000	0.000297
2539.000000	0.000277
2538.000000	0.000212
2537.000000	0.000132
2536.000000	0.000067
2535.000000	0.000031
2534.000000	0.000019
2533.000000	0.000026
2532.000000	0.000048
2531.000000	0.000076
2530.000000	0.000095
2529.000000	0.000104
2528.000000	0.000113
2527.000000	0.000126
2526.000000	0.000134
2525.000000	0.000127
2524.000000	0.000109
2523.000000	0.000097
2522.000000	0.000094
2521.000000	0.000087
2520.000000	0.000066
2519.000000	0.000033
2518.000000	0.000007
2517.000000	0.000005
2516.000000	0.000029
2515.000000	0.000070
2514.000000	0.000103
2513.000000	0.000106
2512.000000	0.000077
2511.000000	0.000037
2510.000000	0.000010
2509.000000	-0.000000
2508.000000	-0.000004
2507.000000	0.000001
2506.000000	0.000039
2505.000000	0.000130
2504.000000	0.000255
2503.000000	0.000361
2502.000000	0.000395
2501.000000	0.000352
2500.000000	0.000261
2499.000000	0.000164
2498.000000	0.000086
2497.000000	0.000039
2496.000000	0.000028
2495.000000	0.000053
2494.000000	0.000100
2493.000000	0.000135
2492.000000	0.000139
2491.000000	0.000121
2490.000000	0.000110
2489.000000	0.000122
2488.000000	0.000137
2487.000000	0.000126
2486.000000	0.000080
2485.000000	0.000020
2484.000000	-0.000029
2483.000000	-0.000048
2482.000000	-0.000029
2481.000000	0.000021
2480.000000	0.000078
2479.000000	0.000116
2478.000000	0.000127
2477.000000	0.000122
2476.000000	0.000116
2475.000000	0.000113
2474.000000	0.000106
2473.000000	0.000088
2472.000000	0.000064
2471.000000	0.000044
2470.000000	0.000044
2469.000000	0.000063
2468.000000	0.000083
2467.000000	0.000087
2466.000000	0.000078
2465.000000	0.000079
2464.000000	0.000101
2463.000000	0.000131
2462.000000	0.000150
2461.000000	0.000152
2460.000000	0.000151
2459.000000	0.000164
2458.000000	0.000199
2457.000000	0.000250
2456.000000	0.000296
2455.000000	0.000309
2454.000000	0.000279
2453.000000	0.000222
2452.000000	0.000161
2451.000000	0.000104
2450.000000	0.000051
2449.000000	0.000011
2448.000000	-0.000001
2447.000000	0.000019
2446.000000	0.000051
2445.000000	0.000075
2444.000000	0.000086
2443.000000	0.000099
2442.000000	0.000121
2441.000000	0.000151
2440.000000	0.000174
2439.000000	0.000167
2438.000000	0.000120
2437.000000	0.000046
2436.000000	-0.000017
2435.000000	-0.000028
2434.000000	0.000017
2433.000000	0.000082
2432.000000	0.000116
2431.000000	0.000095
2430.000000	0.000040
2429.000000	0.000000
2428.000000	0.000013
2427.000000	0.000071
2426.000000	0.000135
2425.000000	0.000172
2424.000000	0.000180
2423.000000	0.000170
2422.000000	0.000154
2421.000000	0.000139
2420.000000	0.000131
2419.000000	0.000138
2418.000000	0.000151
2417.000000	0.000153
2416.000000	0.000133
2415.000000	0.000107
2414.000000	0.000099
2413.000000	0.000116
2412.000000	0.000146
2411.000000	0.000166
2410.000000	0.000164
2409.000000	0.000144
2408.000000	0.000114
2407.000000	0.000083
2406.000000	0.000052
2405.000000	0.000022
2404.000000	-0.000005
2403.000000	-0.000020
2402.000000	-0.000016
2401.000000	-0.000001
2400.000000	0.000009
2399.000000	0.000008
2398.000000	0.000009
2397.000000	0.000030
2396.000000	0.000073
2395.000000	0.000118
2394.000000	0.000145
2393.000000	0.000145
2392.000000	0.000124
2391.000000	0.000097
2390.000000	0.000073
2389.000000	0.000052
2388.000000	0.000028
2387.000000	0.000003
2386.000000	-0.000012
2385.000000	-0.000013
2384.000000	-0.000009
2383.000000	-0.000018
2382.000000	-0.000045
2381.000000	-0.000086
2380.000000	-0.000136
2379.000000	-0.000188
2378.000000	-0.000224
2377.000000	-0.000226
2376.000000	-0.000183
2375.000000	-0.000108
2374.000000	-0.000029
2373.000000	0.000028
2372.000000	0.000053
2371.000000	0.000057
2370.000000	0.000060
2369.000000	0.000064
2368.000000	0.000049
2367.000000	0.000001
2366.000000	-0.000061
2365.000000	-0.000092
2364.000000	-0.000061
2363.000000	0.000022
2362.000000	0.000115
2361.000000	0.000190
2360.000000	0.000242
2359.000000	0.000279
2358.000000	0.000298
2357.000000	0.000273
2356.000000	0.000223
2355.000000	0.000177
2354.000000	0.000136
2353.000000	0.000091
2352.000000	0.000084
2351.000000	0.000166
2350.000000	0.000301
2349.000000	0.000409
2348.000000	0.000422
2347.000000	0.000335
2346.000000	0.000218
2345.000000	0.000165
2344.000000	0.000201
2343.000000	0.000249
2342.000000	0.000254
2341.000000	0.000214
2340.000000	0.000155
2339.000000	0.000108
2338.000000	0.000090
2337.000000	0.000111
2336.000000	0.000167
2335.000000	0.000233
2334.000000	0.000258
2333.000000	0.000221
2332.000000	0.000156
2331.000000	0.000143
2330.000000	0.000191
2329.000000	0.000271
2328.000000	0.000328
2327.000000	0.000353
2326.000000	0.000351
2325.000000	0.000332
2324.000000	0.000299
2323.000000	0.000254
2322.000000	0.000213
2321.000000	0.000195
2320.000000	0.000205
2319.000000	0.000239
2318.000000	0.000279
2317.000000	0.000322
2316.000000	0.000351
2315.000000	0.000362
2314.000000	0.000346
2313.000000	0.000318
2312.000000	0.000290
2311.000000	0.000269
2310.000000	0.000236
2309.000000	0.000189
2308.000000	0.000137
2307.000000	0.000101
2306.000000	0.000090
2305.000000	0.000102
2304.000000	0.000123
2303.000000	0.000145
2302.000000	0.000170
2301.000000	0.000210
2300.000000	0.000258
2299.000000	0.000297
2298.000000	0.000300
2297.000000	0.000273
2296.000000	0.000241
2295.000000	0.000231
2294.000000	0.000249
2293.000000	0.000281
2292.000000	0.000306
2291.000000	0.000309
2290.000000	0.000294
2289.000000	0.000280
2288.000000	0.000292
2287.000000	0.000329
2286.000000	0.000377
2285.000000	0.000420
2284.000000	0.000458
2283.000000	0.000497
2282.000000	0.000530
2281.000000	0.000538
2280.000000	0.000510
2279.000000	0.000453
2278.000000	0.000381
2277.000000	0.000313
2276.000000	0.000264
2275.000000	0.000244
2274.000000	0.000253
2273.000000	0.000279
2272.000000	0.000305
2271.000000	0.000324
2270.000000	0.000345
2269.000000	0.000376
2268.000000	0.000410
2267.000000	0.000418
2266.000000	0.000373
2265.000000	0.000280
2264.000000	0.000176
2263.000000	0.000105
2262.000000	0.000090
2261.000000	0.000122
2260.000000	0.000169
2259.000000	0.000198
2258.000000	0.000195
2257.000000	0.000168
2256.000000	0.000135
2255.000000	0.000113
2254.000000	0.000116
2253.000000	0.000154
2252.000000	0.000215
2251.000000	0.000258
2250.000000	0.000241
2249.000000	0.000162
2248.000000	0.000069
2247.000000	0.000021
2246.000000	0.000035
2245.000000	0.000072
2244.000000	0.000083
2243.000000	0.000058
2242.000000	0.000031
2241.000000	0.000042
2240.000000	0.000089
2239.000000	0.000140
2238.000000	0.000163
2237.000000	0.000158
2236.000000	0.000144
2235.000000	0.000138
2234.000000	0.000144
2233.000000	0.000155
2232.000000	0.000143
2231.000000	0.000082
2230.000000	-0.000026
2229.000000	-0.000136
2228.000000	-0.000188
2227.000000	-0.000148
2226.000000	-0.000026
2225.000000	0.000128
2224.000000	0.000258
2223.000000	0.000322
2222.000000	0.000325
2221.000000	0.000297
2220.000000	0.000266
2219.000000	0.000238
2218.000000	0.000214
2217.000000	0.000189
2216.000000	0.000146
2215.000000	0.000061
2214.000000	-0.000047
2213.000000	-0.000109
2212.000000	-0.000071
2211.000000	0.000025
2210.000000	0.000068
2209.000000	-0.000001
2208.000000	-0.000129
2207.000000	-0.000205
2206.000000	-0.000179
2205.000000	-0.000091
2204.000000	-0.000026
2203.000000	-0.000029
2202.000000	-0.000071
2201.000000	-0.000071
2200.000000	0.000036
2199.000000	0.000232
2198.000000	0.000417
2197.000000	0.000485
2196.000000	0.000415
2195.000000	0.000289
2194.000000	0.000222
2193.000000	0.000256
2192.000000	0.000335
2191.000000	0.000369
2190.000000	0.000325
2189.000000	0.000243
2188.000000	0.000180
2187.000000	0.000159
2186.000000	0.000188
2185.000000	0.000275
2184.000000	0.000409
2183.000000	0.000531
2182.000000	0.000561
2181.000000	0.000473
2180.000000	0.000326
2179.000000	0.000210
2178.000000	0.000187
2177.000000	0.000283
2176.000000	0.000472
2175.000000	0.000670
2174.000000	0.000763
2173.000000	0.000705
2172.000000	0.000570
2171.000000	0.000485
2170.000000	0.000487
2169.000000	0.000490
2168.000000	0.000403
2167.000000	0.000238
2166.000000	0.000083
2165.000000	-0.000006
2164.000000	-0.000030
2163.000000	0.000019
2162.000000	0.000168
2161.000000	0.000360
2160.000000	0.000406
2159.000000	0.000154
2158.000000	-0.000288
2157.000000	-0.000637
2156.000000	-0.000731
2155.000000	-0.000623
2154.000000	-0.000435
2153.000000	-0.000247
2152.000000	-0.000124
2151.000000	-0.000116
2150.000000	-0.000205
2149.000000	-0.000299
2148.000000	-0.000327
2147.000000	-0.000316
2146.000000	-0.000338
2145.000000	-0.000411
2144.000000	-0.000490
2143.000000	-0.000537
2142.000000	-0.000556
2141.000000	-0.000547
2140.000000	-0.000490
2139.000000	-0.000370
2138.000000	-0.000211
2137.000000	-0.000052
2136.000000	0.000090
2135.000000	0.000205
2134.000000	0.000273
2133.000000	0.000267
2132.000000	0.000191
2131.000000	0.000085
2130.000000	-0.000001
2129.000000	-0.000047
2128.000000	-0.000065
2127.000000	-0.000074
2126.000000	-0.000083
2125.000000	-0.000091
2124.000000	-0.000095
2123.000000	-0.000090
2122.000000	-0.000074
2121.000000	-0.000044
2120.000000	0.000002
2119.000000	0.000065
2118.000000	0.000146
2117.000000	0.000231
2116.000000	0.000295
2115.000000	0.000323
2114.000000	0.000311
2113.000000	0.000264
2112.000000	0.000186
2111.000000	0.000094
2110.000000	0.000027
2109.000000	0.000024
2108.000000	0.000091
2107.000000	0.000192
2106.000000	0.000281
2105.000000	0.000322
2104.000000	0.000297
2103.000000	0.000216
2102.000000	0.000122
2101.000000	0.000065
2100.000000	0.000073
2099.000000	0.000134
2098.000000	0.000208
2097.000000	0.000262
2096.000000	0.000273
2095.000000	0.000232
2094.000000	0.000143
2093.000000	0.000034
2092.000000	-0.000052
2091.000000	-0.000078
2090.000000	-0.000044
2089.000000	0.000009
2088.000000	0.000024
2087.000000	-0.000015
2086.000000	-0.000065
2085.000000	-0.000069
2084.000000	-0.000021
2083.000000	0.000040
2082.000000	0.000088
2081.000000	0.000135
2080.000000	0.000203
2079.000000	0.000290
2078.000000	0.000362
2077.000000	0.000368
2076.000000	0.000268
2075.000000	0.000066
2074.000000	-0.000161
2073.000000	-0.000301
2072.000000	-0.000295
2071.000000	-0.000187
2070.000000	-0.000066
2069.000000	0.000011
2068.000000	0.000039
2067.000000	0.000041
2066.000000	0.000044
2065.000000	0.000067
2064.000000	0.000094
2063.000000	0.000084
2062.000000	0.000027
2061.000000	-0.000020
2060.000000	0.000013
2059.000000	0.000113
2058.000000	0.000184
2057.000000	0.000147
2056.000000	0.000012
2055.000000	-0.000143
2054.000000	-0.000241
2053.000000	-0.000239
2052.000000	-0.000137
2051.000000	0.000020
2050.000000	0.000150
2049.000000	0.000195
2048.000000	0.000180
2047.000000	0.000184
2046.000000	0.000246
2045.000000	0.000319
2044.000000	0.000346
2043.000000	0.000336
2042.000000	0.000334
2041.000000	0.000344
2040.000000	0.000316
2039.000000	0.000221
2038.000000	0.000090
2037.000000	-0.000027
2036.000000	-0.000127
2035.000000	-0.000221
2034.000000	-0.000264
2033.000000	-0.000193
2032.000000	-0.000042
2031.000000	0.000059
2030.000000	0.000034
2029.000000	-0.000048
2028.000000	-0.000078
2027.000000	-0.000056
2026.000000	-0.000060
2025.000000	-0.000114
2024.000000	-0.000131
2023.000000	-0.000038
2022.000000	0.000122
2021.000000	0.000211
2020.000000	0.000124
2019.000000	-0.000136
2018.000000	-0.000456
2017.000000	-0.000670
2016.000000	-0.000665
2015.000000	-0.000466
2014.000000	-0.000204
2013.000000	-0.000001
2012.000000	0.000123
2011.000000	0.000207
2010.000000	0.000250
2009.000000	0.000192
2008.000000	0.000022
2007.000000	-0.000167
2006.000000	-0.000281
2005.000000	-0.000350
2004.000000	-0.000449
2003.000000	-0.000538
2002.000000	-0.000467
2001.000000	-0.000175
2000.000000	0.000176
1999.000000	0.000343
1998.000000	0.000239
1997.000000	-0.000005
1996.000000	-0.000202
1995.000000	-0.000278
1994.000000	-0.000268
1993.000000	-0.000232
1992.000000	-0.000204
1991.000000	-0.000185
1990.000000	-0.000151
1989.000000	-0.000063
1988.000000	0.000091
1987.000000	0.000270
1986.000000	0.000397
1985.000000	0.000410
1984.000000	0.000310
1983.000000	0.000169
1982.000000	0.000098
1981.000000	0.000170
1980.000000	0.000359
1979.000000	0.000566
1978.000000	0.000698
1977.000000	0.000721
1976.000000	0.000640
1975.000000	0.000461
1974.000000	0.000199
1973.000000	-0.000074
1972.000000	-0.000250
1971.000000	-0.000282
1970.000000	-0.000230
1969.000000	-0.000205
1968.000000	-0.000268
1967.000000	-0.000380
1966.000000	-0.000456
1965.000000	-0.000459
1964.000000	-0.000430
1963.000000	-0.000422
1962.000000	-0.000446
1961.000000	-0.000467
1960.000000	-0.000440
1959.000000	-0.000341
1958.000000	-0.000186
1957.000000	-0.000034
1956.000000	0.000033
1955.000000	-0.000031
1954.000000	-0.000193
1953.000000	-0.000365
1952.000000	-0.000476
1951.000000	-0.000514
1950.000000	-0.000497
1949.000000	-0.000433
1948.000000	-0.000326
1947.000000	-0.000205
1946.000000	-0.000111
1945.000000	-0.000071
1944.000000	-0.000080
1943.000000	-0.000116
1942.000000	-0.000163
1941.000000	-0.000209
1940.000000	-0.000242
1939.000000	-0.000247
1938.000000	-0.000220
1937.000000	-0.000176
1936.000000	-0.000131
1935.000000	-0.000092
1934.000000	-0.000066
1933.000000	-0.000070
1932.000000	-0.000107
1931.000000	-0.000155
1930.000000	-0.000179
1929.000000	-0.000175
1928.000000	-0.000176
1927.000000	-0.000206
1926.000000	-0.000251
1925.000000	-0.000282
1924.000000	-0.000296
1923.000000	-0.000301
1922.000000	-0.000295
1921.000000	-0.000277
1920.000000	-0.000264
1919.000000	-0.000258
1918.000000	-0.000229
1917.000000	-0.000149
1916.000000	-0.000063
1915.000000	-0.000038
1914.000000	-0.000074
1913.000000	-0.000112
1912.000000	-0.000104
1911.000000	-0.000069
1910.000000	-0.000060
1909.000000	-0.000105
1908.000000	-0.000199
1907.000000	-0.000316
1906.000000	-0.000424
1905.000000	-0.000487
1904.000000	-0.000490
1903.000000	-0.000434
1902.000000	-0.000323
1901.000000	-0.000171
1900.000000	-0.000023
1899.000000	0.000062
1898.000000	0.000064
1897.000000	0.000016
1896.000000	-0.000038
1895.000000	-0.000082
1894.000000	-0.000120
1893.000000	-0.000162
1892.000000	-0.000210
1891.000000	-0.000256
1890.000000	-0.000283
1889.000000	-0.000279
1888.000000	-0.000266
1887.000000	-0.000273
1886.000000	-0.000291
1885.000000	-0.000284
1884.000000	-0.000239
1883.000000	-0.000191
1882.000000	-0.000185
1881.000000	-0.000229
1880.000000	-0.000290
1879.000000	-0.000323
1878.000000	-0.000304
1877.000000	-0.000245
1876.000000	-0.000189
1875.000000	-0.000166
1874.000000	-0.000169
1873.000000	-0.000164
1872.000000	-0.000137
1871.000000	-0.000100
1870.000000	-0.000074
1869.000000	-0.000065
1868.000000	-0.000075
1867.000000	-0.000107
1866.000000	-0.000142
1865.000000	-0.000158
1864.000000	-0.000164
1863.000000	-0.000180
1862.000000	-0.000206
1861.000000	-0.000220
1860.000000	-0.000214
1859.000000	-0.000203
1858.000000	-0.000201
1857.000000	-0.000197
1856.000000	-0.000185
1855.000000	-0.000176
1854.000000	-0.000184
1853.000000	-0.000208
1852.000000	-0.000236
1851.000000	-0.000249
1850.000000	-0.000235
1849.000000	-0.000200
1848.000000	-0.000170
1847.000000	-0.000172
1846.000000	-0.000202
1845.000000	-0.000225
1844.000000	-0.000211
1843.000000	-0.000168
1842.000000	-0.000129
1841.000000	-0.000118
1840.000000	-0.000141
1839.000000	-0.000184
1838.000000	-0.000221
1837.000000	-0.000237
1836.000000	-0.000241
1835.000000	-0.000244
1834.000000	-0.000241
1833.000000	-0.000225
1832.000000	-0.000205
1831.000000	-0.000198
1830.000000	-0.000212
1829.000000	-0.000227
1828.000000	-0.000227
1827.000000	-0.000223
1826.000000	-0.000230
1825.000000	-0.000231
1824.000000	-0.000206
1823.000000	-0.000166
1822.000000	-0.000140
1821.000000	-0.000137
1820.000000	-0.000149
1819.000000	-0.000170
1818.000000	-0.000194
1817.000000	-0.000206
1816.000000	-0.000201
1815.000000	-0.000204
1814.000000	-0.000233
1813.000000	-0.000264
1812.000000	-0.000251
1811.000000	-0.000190
1810.000000	-0.000124
1809.000000	-0.000087
1808.000000	-0.000086
1807.000000	-0.000111
1806.000000	-0.000136
1805.000000	-0.000140
1804.000000	-0.000133
1803.000000	-0.000144
1802.000000	-0.000183
1801.000000	-0.000213
1800.000000	-0.000206
1799.000000	-0.000185
1798.000000	-0.000173
1797.000000	-0.000164
1796.000000	-0.000152
1795.000000	-0.000157
1794.000000	-0.000195
1793.000000	-0.000240
1792.000000	-0.000248
1791.000000	-0.000224
1790.000000	-0.000203
1789.000000	-0.000199
1788.000000	-0.000206
1787.000000	-0.000220
1786.000000	-0.000229
1785.000000	-0.000222
1784.000000	-0.000201
1783.000000	-0.000178
1782.000000	-0.000168
1781.000000	-0.000172
1780.000000	-0.000184
1779.000000	-0.000195
1778.000000	-0.000195
1777.000000	-0.000188
1776.000000	-0.000187
1775.000000	-0.000200
1774.000000	-0.000218
1773.000000	-0.000215
1772.000000	-0.000170
1771.000000	-0.000112
1770.000000	-0.000087
1769.000000	-0.000100
1768.000000	-0.000121
1767.000000	-0.000120
1766.000000	-0.000092
1765.000000	-0.000052
1764.000000	-0.000011
1763.000000	0.000023
1762.000000	0.000045
1761.000000	0.000061
1760.000000	0.000090
1759.000000	0.000139
1758.000000	0.000202
1757.000000	0.000273
1756.000000	0.000347
1755.000000	0.000414
1754.000000	0.000457
1753.000000	0.000475
1752.000000	0.000500
1751.000000	0.000588
1750.000000	0.000748
1749.000000	0.000935
1748.000000	0.001100
1747.000000	0.001222
1746.000000	0.001293
1745.000000	0.001319
1744.000000	0.001324
1743.000000	0.001323
1742.000000	0.001303
1741.000000	0.001251
1740.000000	0.001184
1739.000000	0.001126
1738.000000	0.001061
1737.000000	0.000957
1736.000000	0.000798
1735.000000	0.000615
1734.000000	0.000492
1733.000000	0.000463
1732.000000	0.000468
1731.000000	0.000453
1730.000000	0.000411
1729.000000	0.000353
1728.000000	0.000294
1727.000000	0.000254
1726.000000	0.000233
1725.000000	0.000213
1724.000000	0.000177
1723.000000	0.000129
1722.000000	0.000084
1721.000000	0.000054
1720.000000	0.000043
1719.000000	0.000049
1718.000000	0.000052
1717.000000	0.000057
1716.000000	0.000067
1715.000000	0.000064
1714.000000	0.000061
1713.000000	0.000081
1712.000000	0.000108
1711.000000	0.000120
1710.000000	0.000118
1709.000000	0.000113
1708.000000	0.000116
1707.000000	0.000122
1706.000000	0.000129
1705.000000	0.000147
1704.000000	0.000160
1703.000000	0.000131
1702.000000	0.000057
1701.000000	-0.000004
1700.000000	0.000005
1699.000000	0.000025
1698.000000	0.000023
1697.000000	0.000031
1696.000000	0.000069
1695.000000	0.000087
1694.000000	0.000074
1693.000000	0.000072
1692.000000	0.000092
1691.000000	0.000117
1690.000000	0.000132
1689.000000	0.000142
1688.000000	0.000161
1687.000000	0.000187
1686.000000	0.000212
1685.000000	0.000242
1684.000000	0.000270
1683.000000	0.000266
1682.000000	0.000250
1681.000000	0.000242
1680.000000	0.000245
1679.000000	0.000255
1678.000000	0.000267
1677.000000	0.000275
1676.000000	0.000284
1675.000000	0.000299
1674.000000	0.000309
1673.000000	0.000307
1672.000000	0.000299
1671.000000	0.000303
1670.000000	0.000332
1669.000000	0.000371
1668.000000	0.000398
1667.000000	0.000420
1666.000000	0.000440
1665.000000	0.000457
1664.000000	0.000477
1663.000000	0.000508
1662.000000	0.000539
1661.000000	0.000548
1660.000000	0.000527
1659.000000	0.000496
1658.000000	0.000483
1657.000000	0.000489
1656.000000	0.000496
1655.000000	0.000507
1654.000000	0.000561
1653.000000	0.000663
1652.000000	0.000707
1651.000000	0.000716
1650.000000	0.000706
1649.000000	0.000683
1648.000000	0.000651
1647.000000	0.000616
1646.000000	0.000580
1645.000000	0.000552
1644.000000	0.000540
1643.000000	0.000535
1642.000000	0.000538
1641.000000	0.000551
1640.000000	0.000565
1639.000000	0.000565
1638.000000	0.000553
1637.000000	0.000546
1636.000000	0.000550
1635.000000	0.000553
1634.000000	0.000548
1633.000000	0.000541
1632.000000	0.000524
1631.000000	0.000498
1630.000000	0.000487
1629.000000	0.000504
1628.000000	0.000532
1627.000000	0.000551
1626.000000	0.000558
1625.000000	0.000555
1624.000000	0.000538
1623.000000	0.000509
1622.000000	0.000486
1621.000000	0.000471
1620.000000	0.000448
1619.000000	0.000414
1618.000000	0.000384
1617.000000	0.000363
1616.000000	0.000334
1615.000000	0.000303
1614.000000	0.000298
1613.000000	0.000312
1612.000000	0.000322
1611.000000	0.000323
1610.000000	0.000332
1609.000000	0.000347
1608.000000	0.000348
1607.000000	0.000332
1606.000000	0.000321
1605.000000	0.000322
1604.000000	0.000330
1603.000000	0.000342
1602.000000	0.000360
1601.000000	0.000371
1600.000000	0.000360
1599.000000	0.000333
1598.000000	0.000307
1597.000000	0.000287
1596.000000	0.000272
1595.000000	0.000263
1594.000000	0.000268
1593.000000	0.000278
1592.000000	0.000275
1591.000000	0.000259
1590.000000	0.000254
1589.000000	0.000266
1588.000000	0.000279
1587.000000	0.000287
1586.000000	0.000298
1585.000000	0.000313
1584.000000	0.000317
1583.000000	0.000314
1582.000000	0.000320
1581.000000	0.000335
1580.000000	0.000338
1579.000000	0.000322
1578.000000	0.000307
1577.000000	0.000308
1576.000000	0.000315
1575.000000	0.000324
1574.000000	0.000346
1573.000000	0.000366
1572.000000	0.000367
1571.000000	0.000352
1570.000000	0.000334
1569.000000	0.000313
1568.000000	0.000294
1567.000000	0.000301
1566.000000	0.000334
1565.000000	0.000368
1564.000000	0.000383
1563.000000	0.000388
1562.000000	0.000406
1561.000000	0.000441
1560.000000	0.000455
1559.000000	0.000392
1558.000000	0.000302
1557.000000	0.000245
1556.000000	0.000225
1555.000000	0.000233
1554.000000	0.000267
1553.000000	0.000321
1552.000000	0.000381
1551.000000	0.000429
1550.000000	0.000454
1549.000000	0.000452
1548.000000	0.000438
1547.000000	0.000432
1546.000000	0.000447
1545.000000	0.000476
1544.000000	0.000493
1543.000000	0.000469
1542.000000	0.000415
1541.000000	0.000397
1540.000000	0.000443
1539.000000	0.000484
1538.000000	0.000484
1537.000000	0.000468
1536.000000	0.000446
1535.000000	0.000424
1534.000000	0.000415
1533.000000	0.000426
1532.000000	0.000445
1531.000000	0.000449
1530.000000	0.000441
1529.000000	0.000439
1528.000000	0.000450
1527.000000	0.000458
1526.000000	0.000454
1525.000000	0.000447
1524.000000	0.000440
1523.000000	0.000406
1522.000000	0.000333
1521.000000	0.000275
1520.000000	0.000270
1519.000000	0.000288
1518.000000	0.000294
1517.000000	0.000294
1516.000000	0.000316
1515.000000	0.000355
1514.000000	0.000379
1513.000000	0.000375
1512.000000	0.000359
1511.000000	0.000348
1510.000000	0.000341
1509.000000	0.000332
1508.000000	0.000324
1507.000000	0.000295
1506.000000	0.000219
1505.000000	0.000153
1504.000000	0.000151
1503.000000	0.000171
1502.000000	0.000183
1501.000000	0.000185
1500.000000	0.000185
1499.000000	0.000175
1498.000000	0.000135
1497.000000	0.000092
1496.000000	0.000100
1495.000000	0.000145
1494.000000	0.000174
1493.000000	0.000176
1492.000000	0.000166
1491.000000	0.000163
1490.000000	0.000167
1489.000000	0.000187
1488.000000	0.000219
1487.000000	0.000227
1486.000000	0.000217
1485.000000	0.000215
1484.000000	0.000231
1483.000000	0.000256
1482.000000	0.000279
1481.000000	0.000301
1480.000000	0.000325
1479.000000	0.000345
1478.000000	0.000361
1477.000000	0.000385
1476.000000	0.000419
1475.000000	0.000433
1474.000000	0.000411
1473.000000	0.000390
1472.000000	0.000428
1471.000000	0.000503
1470.000000	0.000569
1469.000000	0.000617
1468.000000	0.000655
1467.000000	0.000678
1466.000000	0.000672
1465.000000	0.000642
1464.000000	0.000618
1463.000000	0.000615
1462.000000	0.000624
1461.000000	0.000636
1460.000000	0.000648
1459.000000	0.000657
1458.000000	0.000641
1457.000000	0.000597
1456.000000	0.000576
1455.000000	0.000599
1454.000000	0.000628
1453.000000	0.000642
1452.000000	0.000653
1451.000000	0.000666
1450.000000	0.000669
1449.000000	0.000659
1448.000000	0.000648
1447.000000	0.000644
1446.000000	0.000636
1445.000000	0.000625
1444.000000	0.000621
1443.000000	0.000627
1442.000000	0.000635
1441.000000	0.000636
1440.000000	0.000636
1439.000000	0.000637
1438.000000	0.000626
1437.000000	0.000586
1436.000000	0.000539
1435.000000	0.000520
1434.000000	0.000528
1433.000000	0.000550
1432.000000	0.000585
1431.000000	0.000632
1430.000000	0.000667
1429.000000	0.000675
1428.000000	0.000671
1427.000000	0.000674
1426.000000	0.000678
1425.000000	0.000659
1424.000000	0.000625
1423.000000	0.000608
1422.000000	0.000613
1421.000000	0.000619
1420.000000	0.000619
1419.000000	0.000629
1418.000000	0.000639
1417.000000	0.000636
1416.000000	0.000634
1415.000000	0.000646
1414.000000	0.000668
1413.000000	0.000685
1412.000000	0.000690
1411.000000	0.000690
1410.000000	0.000691
1409.000000	0.000695
1408.000000	0.000709
1407.000000	0.000726
1406.000000	0.000729
1405.000000	0.000703
1404.000000	0.000668
1403.000000	0.000651
1402.000000	0.000650
1401.000000	0.000644
1400.000000	0.000621
1399.000000	0.000582
1398.000000	0.000540
1397.000000	0.000515
1396.000000	0.000528
1395.000000	0.000585
1394.000000	0.000646
1393.000000	0.000660
1392.000000	0.000637
1391.000000	0.000608
1390.000000	0.000588
1389.000000	0.000578
1388.000000	0.000582
1387.000000	0.000604
1386.000000	0.000628
1385.000000	0.000626
1384.000000	0.000592
1383.000000	0.000550
1382.000000	0.000525
1381.000000	0.000521
1380.000000	0.000523
1379.000000	0.000517
1378.000000	0.000506
1377.000000	0.000497
1376.000000	0.000485
1375.000000	0.000467
1374.000000	0.000449
1373.000000	0.000432
1372.000000	0.000413
1371.000000	0.000396
1370.000000	0.000390
1369.000000	0.000390
1368.000000	0.000380
1367.000000	0.000360
1366.000000	0.000346
1365.000000	0.000353
1364.000000	0.000371
1363.000000	0.000374
1362.000000	0.000350
1361.000000	0.000309
1360.000000	0.000271
1359.000000	0.000247
1358.000000	0.000244
1357.000000	0.000257
1356.000000	0.000268
1355.000000	0.000266
1354.000000	0.000257
1353.000000	0.000258
1352.000000	0.000273
1351.000000	0.000280
1350.000000	0.000272
1349.000000	0.000254
1348.000000	0.000234
1347.000000	0.000216
1346.000000	0.000203
1345.000000	0.000197
1344.000000	0.000198
1343.000000	0.000204
1342.000000	0.000211
1341.000000	0.000214
1340.000000	0.000206
1339.000000	0.000191
1338.000000	0.000179
1337.000000	0.000177
1336.000000	0.000179
1335.000000	0.000177
1334.000000	0.000174
1333.000000	0.000182
1332.000000	0.000206
1331.000000	0.000234
1330.000000	0.000251
1329.000000	0.000247
1328.000000	0.000227
1327.000000	0.000199
1326.000000	0.000177
1325.000000	0.000169
1324.000000	0.000180
1323.000000	0.000205
1322.000000	0.000233
1321.000000	0.000245
1320.000000	0.000237
1319.000000	0.000219
1318.000000	0.000204
1317.000000	0.000199
1316.000000	0.000202
1315.000000	0.000214
1314.000000	0.000233
1313.000000	0.000252
1312.000000	0.000261
1311.000000	0.000260
1310.000000	0.000255
1309.000000	0.000251
1308.000000	0.000244
1307.000000	0.000227
1306.000000	0.000202
1305.000000	0.000176
1304.000000	0.000160
1303.000000	0.000160
1302.000000	0.000174
1301.000000	0.000187
1300.000000	0.000191
1299.000000	0.000189
1298.000000	0.000190
1297.000000	0.000197
1296.000000	0.000204
1295.000000	0.000211
1294.000000	0.000221
1293.000000	0.000234
1292.000000	0.000247
1291.000000	0.000252
1290.000000	0.000242
1289.000000	0.000221
1288.000000	0.000202
1287.000000	0.000195
1286.000000	0.000201
1285.000000	0.000210
1284.000000	0.000215
1283.000000	0.000219
1282.000000	0.000230
1281.000000	0.000244
1280.000000	0.000252
1279.000000	0.000252
1278.000000	0.000252
1277.000000	0.000257
1276.000000	0.000264
1275.000000	0.000262
1274.000000	0.000251
1273.000000	0.000240
1272.000000	0.000236
1271.000000	0.000246
1270.000000	0.000271
1269.000000	0.000305
1268.000000	0.000337
1267.000000	0.000354
1266.000000	0.000353
1265.000000	0.000339
1264.000000	0.000324
1263.000000	0.000322
1262.000000	0.000341
1261.000000	0.000384
1260.000000	0.000439
1259.000000	0.000483
1258.000000	0.000497
1257.000000	0.000484
1256.000000	0.000465
1255.000000	0.000459
1254.000000	0.000471
1253.000000	0.000494
1252.000000	0.000515
1251.000000	0.000521
1250.000000	0.000512
1249.000000	0.000496
1248.000000	0.000490
1247.000000	0.000500
1246.000000	0.000522
1245.000000	0.000543
1244.000000	0.000556
1243.000000	0.000561
1242.000000	0.000560
1241.000000	0.000551
1240.000000	0.000534
1239.000000	0.000513
1238.000000	0.000494
1237.000000	0.000483
1236.000000	0.000483
1235.000000	0.000495
1234.000000	0.000511
1233.000000	0.000525
1232.000000	0.000534
1231.000000	0.000539
1230.000000	0.000537
1229.000000	0.000525
1228.000000	0.000503
1227.000000	0.000482
1226.000000	0.000466
1225.000000	0.000452
1224.000000	0.000436
1223.000000	0.000418
1222.000000	0.000401
1221.000000	0.000387
1220.000000	0.000377
1219.000000	0.000366
1218.000000	0.000349
1217.000000	0.000322
1216.000000	0.000287
1215.000000	0.000253
1214.000000	0.000225
1213.000000	0.000209
1212.000000	0.000207
1211.000000	0.000215
1210.000000	0.000218
1209.000000	0.000211
1208.000000	0.000199
1207.000000	0.000196
1206.000000	0.000206
1205.000000	0.000222
1204.000000	0.000236
1203.000000	0.000247
1202.000000	0.000252
1201.000000	0.000253
1200.000000	0.000254
1199.000000	0.000261
1198.000000	0.000269
1197.000000	0.000272
1196.000000	0.000266
1195.000000	0.000258
1194.000000	0.000254
1193.000000	0.000259
1192.000000	0.000277
1191.000000	0.000309
1190.000000	0.000349
1189.000000	0.000383
1188.000000	0.000403
1187.000000	0.000412
1186.000000	0.000419
1185.000000	0.000423
1184.000000	0.000422
1183.000000	0.000423
1182.000000	0.000432
1181.000000	0.000454
1180.000000	0.000488
1179.000000	0.000533
1178.000000	0.000580
1177.000000	0.000610
1176.000000	0.000614
1175.000000	0.000603
1174.000000	0.000599
1173.000000	0.000611
1172.000000	0.000629
1171.000000	0.000643
1170.000000	0.000651
1169.000000	0.000659
1168.000000	0.000664
1167.000000	0.000662
1166.000000	0.000659
1165.000000	0.000668
1164.000000	0.000697
1163.000000	0.000737
1162.000000	0.000766
1161.000000	0.000777
1160.000000	0.000780
1159.000000	0.000789
1158.000000	0.000791
1157.000000	0.000768
1156.000000	0.000722
1155.000000	0.000679
1154.000000	0.000653
1153.000000	0.000626
1152.000000	0.000573
1151.000000	0.000513
1150.000000	0.000484
1149.000000	0.000500
1148.000000	0.000526
1147.000000	0.000522
1146.000000	0.000486
1145.000000	0.000444
1144.000000	0.000414
1143.000000	0.000387
1142.000000	0.000348
1141.000000	0.000297
1140.000000	0.000249
1139.000000	0.000218
1138.000000	0.000206
1137.000000	0.000205
1136.000000	0.000205
1135.000000	0.000204
1134.000000	0.000202
1133.000000	0.000191
1132.000000	0.000165
1131.000000	0.000140
1130.000000	0.000143
1129.000000	0.000182
1128.000000	0.000233
1127.000000	0.000260
1126.000000	0.000254
1125.000000	0.000234
1124.000000	0.000223
1123.000000	0.000228
1122.000000	0.000247
1121.000000	0.000275
1120.000000	0.000308
1119.000000	0.000347
1118.000000	0.000388
1117.000000	0.000419
1116.000000	0.000425
1115.000000	0.000400
1114.000000	0.000366
1113.000000	0.000352
1112.000000	0.000374
1111.000000	0.000420
1110.000000	0.000470
1109.000000	0.000511
1108.000000	0.000538
1107.000000	0.000545
1106.000000	0.000530
1105.000000	0.000500
1104.000000	0.000473
1103.000000	0.000465
1102.000000	0.000482
1101.000000	0.000512
1100.000000	0.000537
1099.000000	0.000541
1098.000000	0.000527
1097.000000	0.000510
1096.000000	0.000503
1095.000000	0.000508
1094.000000	0.000522
1093.000000	0.000543
1092.000000	0.000567
1091.000000	0.000584
1090.000000	0.000592
1089.000000	0.000593
1088.000000	0.000590
1087.000000	0.000585
1086.000000	0.000582
1085.000000	0.000594
1084.000000	0.000627
1083.000000	0.000674
1082.000000	0.000721
1081.000000	0.000760
1080.000000	0.000791
1079.000000	0.000813
1078.000000	0.000815
1077.000000	0.000787
1076.000000	0.000730
1075.000000	0.000669
1074.000000	0.000641
1073.000000	0.000658
1072.000000	0.000691
1071.000000	0.000700
1070.000000	0.000678
1069.000000	0.000661
1068.000000	0.000678
1067.000000	0.000711
1066.000000	0.000722
1065.000000	0.000696
1064.000000	0.000658
1063.000000	0.000629
1062.000000	0.000608
1061.000000	0.000589
1060.000000	0.000581
1059.000000	0.000592
1058.000000	0.000607
1057.000000	0.000605
1056.000000	0.000587
1055.000000	0.000582
1054.000000	0.000607
1053.000000	0.000645
1052.000000	0.000660
1051.000000	0.000645
1050.000000	0.000621
1049.000000	0.000609
1048.000000	0.000601
1047.000000	0.000579
1046.000000	0.000544
1045.000000	0.000520
1044.000000	0.000525
1043.000000	0.000558
1042.000000	0.000598
1041.000000	0.000615
1040.000000	0.000596
1039.000000	0.000551
1038.000000	0.000510
1037.000000	0.000491
1036.000000	0.000480
1035.000000	0.000450
1034.000000	0.000395
1033.000000	0.000350
1032.000000	0.000353
1031.000000	0.000406
1030.000000	0.000476
1029.000000	0.000523
1028.000000	0.000528
1027.000000	0.000496
1026.000000	0.000449
1025.000000	0.000408
1024.000000	0.000385
1023.000000	0.000375
1022.000000	0.000368
1021.000000	0.000359
1020.000000	0.000354
1019.000000	0.000356
1018.000000	0.000358
1017.000000	0.000350
1016.000000	0.000329
1015.000000	0.000306
1014.000000	0.000297
1013.000000	0.000302
1012.000000	0.000308
1011.000000	0.000299
1010.000000	0.000275
1009.000000	0.000247
1008.000000	0.000215
1007.000000	0.000176
1006.000000	0.000141
1005.000000	0.000135
1004.000000	0.000162
1003.000000	0.000199
1002.000000	0.000214
1001.000000	0.000203
1000.000000	0.000180
999.000000	0.000162
998.000000	0.000161
997.000000	0.000188
996.000000	0.000238
995.000000	0.000280
994.000000	0.000276
993.000000	0.000221
992.000000	0.000147
991.000000	0.000090
990.000000	0.000062
989.000000	0.000058
988.000000	0.000071
987.000000	0.000090
986.000000	0.000098
985.000000	0.000083
984.000000	0.000054
983.000000	0.000031
982.000000	0.000021
981.000000	0.000019
980.000000	0.000019
979.000000	0.000022
978.000000	0.000021
977.000000	0.000006
976.000000	-0.000024
975.000000	-0.000043
974.000000	-0.000026
973.000000	0.000025
972.000000	0.000075
971.000000	0.000086
970.000000	0.000051
969.000000	-0.000009
968.000000	-0.000063
967.000000	-0.000096
966.000000	-0.000110
965.000000	-0.000112
964.000000	-0.000110
963.000000	-0.000100
962.000000	-0.000072
961.000000	-0.000025
960.000000	0.000027
959.000000	0.000059
958.000000	0.000059
957.000000	0.000036
956.000000	0.000007
955.000000	-0.000016
954.000000	-0.000036
953.000000	-0.000058
952.000000	-0.000078
951.000000	-0.000080
950.000000	-0.000057
949.000000	-0.000021
948.000000	-0.000005
947.000000	-0.000027
946.000000	-0.000067
945.000000	-0.000089
944.000000	-0.000081
943.000000	-0.000064
942.000000	-0.000064
941.000000	-0.000081
940.000000	-0.000099
939.000000	-0.000107
938.000000	-0.000108
937.000000	-0.000100
936.000000	-0.000084
935.000000	-0.000071
934.000000	-0.000077
933.000000	-0.000107
932.000000	-0.000141
931.000000	-0.000160
930.000000	-0.000157
929.000000	-0.000147
928.000000	-0.000143
927.000000	-0.000147
926.000000	-0.000150
925.000000	-0.000143
924.000000	-0.000127
923.000000	-0.000114
922.000000	-0.000115
921.000000	-0.000132
920.000000	-0.000160
919.000000	-0.000188
918.000000	-0.000202
917.000000	-0.000194
916.000000	-0.000172
915.000000	-0.000159
914.000000	-0.000170
913.000000	-0.000201
912.000000	-0.000233
911.000000	-0.000248
910.000000	-0.000241
909.000000	-0.000211
908.000000	-0.000170
907.000000	-0.000132
906.000000	-0.000116
905.000000	-0.000132
904.000000	-0.000174
903.000000	-0.000224
902.000000	-0.000252
901.000000	-0.000236
900.000000	-0.000182
899.000000	-0.000132
898.000000	-0.000125
897.000000	-0.000159
896.000000	-0.000188
895.000000	-0.000172
894.000000	-0.000116
893.000000	-0.000063
892.000000	-0.000053
891.000000	-0.000089
890.000000	-0.000143
889.000000	-0.000188
888.000000	-0.000212
887.000000	-0.000218
886.000000	-0.000207
885.000000	-0.000187
884.000000	-0.000170
883.000000	-0.000171
882.000000	-0.000192
881.000000	-0.000214
880.000000	-0.000214
879.000000	-0.000184
878.000000	-0.000130
877.000000	-0.000067
876.000000	-0.000019
875.000000	0.000001
874.000000	-0.000001
873.000000	-0.000013
872.000000	-0.000031
871.000000	-0.000067
870.000000	-0.000123
869.000000	-0.000192
868.000000	-0.000255
867.000000	-0.000293
866.000000	-0.000295
865.000000	-0.000259
864.000000	-0.000215
863.000000	-0.000194
862.000000	-0.000204
861.000000	-0.000223
860.000000	-0.000238
859.000000	-0.000258
858.000000	-0.000284
857.000000	-0.000289
856.000000	-0.000254
855.000000	-0.000211
854.000000	-0.000209
853.000000	-0.000262
852.000000	-0.000330
851.000000	-0.000371
850.000000	-0.000379
849.000000	-0.000373
848.000000	-0.000371
847.000000	-0.000377
846.000000	-0.000386
845.000000	-0.000390
844.000000	-0.000378
843.000000	-0.000347
842.000000	-0.000303
841.000000	-0.000255
840.000000	-0.000218
839.000000	-0.000213
838.000000	-0.000237
837.000000	-0.000265
836.000000	-0.000266
835.000000	-0.000246
834.000000	-0.000234
833.000000	-0.000254
832.000000	-0.000303
831.000000	-0.000362
830.000000	-0.000407
829.000000	-0.000416
828.000000	-0.000381
827.000000	-0.000320
826.000000	-0.000267
825.000000	-0.000231
824.000000	-0.000203
823.000000	-0.000189
822.000000	-0.000205
821.000000	-0.000251
820.000000	-0.000302
819.000000	-0.000332
818.000000	-0.000344
817.000000	-0.000352
816.000000	-0.000360
815.000000	-0.000367
814.000000	-0.000376
813.000000	-0.000388
812.000000	-0.000393
811.000000	-0.000381
810.000000	-0.000357
809.000000	-0.000338
808.000000	-0.000333
807.000000	-0.000335
806.000000	-0.000330
805.000000	-0.000317
804.000000	-0.000314
803.000000	-0.000340
802.000000	-0.000383
801.000000	-0.000401
800.000000	-0.000364
799.000000	-0.000294
798.000000	-0.000242
797.000000	-0.000238
796.000000	-0.000261
795.000000	-0.000275
794.000000	-0.000261
793.000000	-0.000227
792.000000	-0.000193
791.000000	-0.000193
790.000000	-0.000248
789.000000	-0.000344
788.000000	-0.000433
787.000000	-0.000475
786.000000	-0.000468
785.000000	-0.000439
784.000000	-0.000415
783.000000	-0.000408
782.000000	-0.000402
781.000000	-0.000371
780.000000	-0.000303
779.000000	-0.000223
778.000000	-0.000182
777.000000	-0.000202
776.000000	-0.000264
775.000000	-0.000327
774.000000	-0.000377
773.000000	-0.000417
772.000000	-0.000454
771.000000	-0.000480
770.000000	-0.000485
769.000000	-0.000453
768.000000	-0.000378
767.000000	-0.000281
766.000000	-0.000211
765.000000	-0.000208
764.000000	-0.000265
763.000000	-0.000345
762.000000	-0.000416
761.000000	-0.000472
760.000000	-0.000506
759.000000	-0.000501
758.000000	-0.000446
757.000000	-0.000349
756.000000	-0.000244
755.000000	-0.000177
754.000000	-0.000175
753.000000	-0.000218
752.000000	-0.000256
751.000000	-0.000255
750.000000	-0.000234
749.000000	-0.000236
748.000000	-0.000273
747.000000	-0.000311
746.000000	-0.000309
745.000000	-0.000266
744.000000	-0.000212
743.000000	-0.000187
742.000000	-0.000204
741.000000	-0.000242
740.000000	-0.000262
739.000000	-0.000241
738.000000	-0.000196
737.000000	-0.000161
736.000000	-0.000153
735.000000	-0.000167
734.000000	-0.000199
733.000000	-0.000243
732.000000	-0.000289
731.000000	-0.000314
730.000000	-0.000306
729.000000	-0.000264
728.000000	-0.000198
727.000000	-0.000129
726.000000	-0.000098
725.000000	-0.000133
724.000000	-0.000220
723.000000	-0.000302
722.000000	-0.000338
721.000000	-0.000336
720.000000	-0.000332
719.000000	-0.000352
718.000000	-0.000388
717.000000	-0.000411
716.000000	-0.000400
715.000000	-0.000363
714.000000	-0.000332
713.000000	-0.000329
712.000000	-0.000333
711.000000	-0.000306
710.000000	-0.000250
709.000000	-0.000213
708.000000	-0.000231
707.000000	-0.000289
706.000000	-0.000332
705.000000	-0.000328
704.000000	-0.000289
703.000000	-0.000248
702.000000	-0.000226
701.000000	-0.000222
700.000000	-0.000224
699.000000	-0.000228
698.000000	-0.000240
697.000000	-0.000260
696.000000	-0.000283
695.000000	-0.000299
694.000000	-0.000316
693.000000	-0.000349
692.000000	-0.000389
691.000000	-0.000417
690.000000	-0.000430
689.000000	-0.000448
688.000000	-0.000470
687.000000	-0.000459
686.000000	-0.000393
685.000000	-0.000303
684.000000	-0.000244
683.000000	-0.000242
682.000000	-0.000281
681.000000	-0.000330
680.000000	-0.000345
679.000000	-0.000302
678.000000	-0.000224
677.000000	-0.000160
676.000000	-0.000133
675.000000	-0.000140
674.000000	-0.000179
673.000000	-0.000253
672.000000	-0.000361
671.000000	-0.000503
670.000000	-0.000691
669.000000	-0.000913
668.000000	-0.000997
667.000000	-0.000777
666.000000	-0.000522
665.000000	-0.000364
664.000000	-0.000272
663.000000	-0.000253
662.000000	-0.000304
661.000000	-0.000392
660.000000	-0.000463
659.000000	-0.000475
658.000000	-0.000409
657.000000	-0.000276
656.000000	-0.000132
655.000000	-0.000048
654.000000	-0.000039
653.000000	-0.000065
652.000000	-0.000109
651.000000	-0.000180
650.000000	-0.000261
649.000000	-0.000290
648.000000	-0.000254
647.000000	-0.000203
646.000000	-0.000175
645.000000	-0.000152
644.000000	-0.000120
643.000000	-0.000107
642.000000	-0.000126
641.000000	-0.000136
640.000000	-0.000089
639.000000	0.000002
638.000000	0.000082
637.000000	0.000114
636.000000	0.000090
635.000000	0.000020
634.000000	-0.000065
633.000000	-0.000119
632.000000	-0.000122
631.000000	-0.000109
630.000000	-0.000124
629.000000	-0.000166
628.000000	-0.000188
627.000000	-0.000152
626.000000	-0.000070
625.000000	-0.000004
624.000000	-0.000012
623.000000	-0.000099
622.000000	-0.000206
621.000000	-0.000278
620.000000	-0.000312
619.000000	-0.000340
618.000000	-0.000379
617.000000	-0.000419
616.000000	-0.000444
615.000000	-0.000441
614.000000	-0.000375
613.000000	-0.000227
612.000000	-0.000044
611.000000	0.000075
610.000000	0.000084
609.000000	0.000037
608.000000	0.000010
607.000000	0.000014
606.000000	0.000023
605.000000	0.000032
604.000000	0.000050
603.000000	0.000056
602.000000	0.000015
601.000000	-0.000058
600.000000	-0.000099
599.000000	-0.000075
598.000000	-0.000027
597.000000	-0.000022
596.000000	-0.000061
595.000000	-0.000082
594.000000	-0.000034
593.000000	0.000063
592.000000	0.000140
591.000000	0.000156
590.000000	0.000116
589.000000	0.000037
588.000000	-0.000060
587.000000	-0.000132
586.000000	-0.000131
585.000000	-0.000059
584.000000	0.000004
583.000000	-0.000011
582.000000	-0.000090
581.000000	-0.000155
580.000000	-0.000166
579.000000	-0.000153
578.000000	-0.000166
577.000000	-0.000216
576.000000	-0.000268
575.000000	-0.000278
574.000000	-0.000232
573.000000	-0.000165
572.000000	-0.000129
571.000000	-0.000147
570.000000	-0.000186
569.000000	-0.000197
568.000000	-0.000180
567.000000	-0.000176
566.000000	-0.000215
565.000000	-0.000263
564.000000	-0.000264
563.000000	-0.000194
562.000000	-0.000090
561.000000	0.000000
560.000000	0.000062
559.000000	0.000110
558.000000	0.000133
557.000000	0.000085
556.000000	-0.000064
555.000000	-0.000268
554.000000	-0.000407
553.000000	-0.000396
552.000000	-0.000259
551.000000	-0.000117
550.000000	-0.000078
549.000000	-0.000158
548.000000	-0.000283
547.000000	-0.000357
546.000000	-0.000329
545.000000	-0.000238
544.000000	-0.000175
543.000000	-0.000205
542.000000	-0.000316
541.000000	-0.000430
540.000000	-0.000463
539.000000	-0.000381
538.000000	-0.000227
537.000000	-0.000097
536.000000	-0.000073
535.000000	-0.000138
534.000000	-0.000216
533.000000	-0.000272
532.000000	-0.000353
531.000000	-0.000489
530.000000	-0.000602
529.000000	-0.000604
528.000000	-0.000536
527.000000	-0.000523
526.000000	-0.000582
525.000000	-0.000579
524.000000	-0.000409
523.000000	-0.000146
522.000000	0.000051
521.000000	0.000086
520.000000	-0.000049
519.000000	-0.000316
518.000000	-0.000611
517.000000	-0.000766
516.000000	-0.000657
515.000000	-0.000340
514.000000	-0.000003
513.000000	0.000204
512.000000	0.000267
511.000000	0.000256
510.000000	0.000230
509.000000	0.000201
508.000000	0.000141
507.000000	0.000041
506.000000	-0.000069
505.000000	-0.000156
504.000000	-0.000217
503.000000	-0.000260
502.000000	-0.000263
501.000000	-0.000207
500.000000	-0.000141
499.000000	-0.000144
498.000000	-0.000239
497.000000	-0.000371
496.000000	-0.000474
495.000000	-0.000537
494.000000	-0.000566
493.000000	-0.000565
492.000000	-0.000547
491.000000	-0.000528
490.000000	-0.000477
489.000000	-0.000337
488.000000	-0.000122
487.000000	0.000054
486.000000	0.000082
485.000000	-0.000024
484.000000	-0.000143
483.000000	-0.000195
482.000000	-0.000239
481.000000	-0.000408
480.000000	-0.000743
479.000000	-0.001103
478.000000	-0.001278
477.000000	-0.001175
476.000000	-0.000884
475.000000	-0.000538
474.000000	-0.000222
473.000000	-0.000018
472.000000	-0.000058
471.000000	-0.000370
470.000000	-0.000812
469.000000	-0.001201
468.000000	-0.001430
467.000000	-0.001471
466.000000	-0.001360
465.000000	-0.001189
464.000000	-0.001082
463.000000	-0.001098
462.000000	-0.001176
461.000000	-0.001239
460.000000	-0.001312
459.000000	-0.001444
458.000000	-0.001530
457.000000	-0.001336
456.000000	-0.000836
455.000000	-0.000289
454.000000	0.000041
453.000000	0.000068
452.000000	-0.000118
451.000000	-0.000333
450.000000	-0.000446
