PE IR       SUBTECH     SPECTRUM    ASCII       PEDS        4.00        
   -1
P3-Bleu020_1.ASC
23/06/13
11:31:27.00
23/06/13
12:04:49.00
uco
Sample 020 By uco Date Tuesday, June 13 2023
450.000000
#HDR
-1
-1
#GR
cm-1
A
1.0
0.0
4000.000000
-1.000000
3551
8
0.009336
-0.000943
#DATA
4000.000000	-0.000260
3999.000000	-0.000250
3998.000000	-0.000235
3997.000000	-0.000216
3996.000000	-0.000197
3995.000000	-0.000181
3994.000000	-0.000175
3993.000000	-0.000180
3992.000000	-0.000193
3991.000000	-0.000208
3990.000000	-0.000218
3989.000000	-0.000225
3988.000000	-0.000230
3987.000000	-0.000236
3986.000000	-0.000240
3985.000000	-0.000238
3984.000000	-0.000228
3983.000000	-0.000215
3982.000000	-0.000204
3981.000000	-0.000201
3980.000000	-0.000206
3979.000000	-0.000219
3978.000000	-0.000235
3977.000000	-0.000248
3976.000000	-0.000251
3975.000000	-0.000242
3974.000000	-0.000223
3973.000000	-0.000202
3972.000000	-0.000188
3971.000000	-0.000185
3970.000000	-0.000189
3969.000000	-0.000193
3968.000000	-0.000191
3967.000000	-0.000179
3966.000000	-0.000160
3965.000000	-0.000141
3964.000000	-0.000132
3963.000000	-0.000140
3962.000000	-0.000166
3961.000000	-0.000203
3960.000000	-0.000237
3959.000000	-0.000256
3958.000000	-0.000254
3957.000000	-0.000235
3956.000000	-0.000212
3955.000000	-0.000201
3954.000000	-0.000206
3953.000000	-0.000221
3952.000000	-0.000236
3951.000000	-0.000245
3950.000000	-0.000251
3949.000000	-0.000258
3948.000000	-0.000268
3947.000000	-0.000274
3946.000000	-0.000266
3945.000000	-0.000239
3944.000000	-0.000196
3943.000000	-0.000150
3942.000000	-0.000120
3941.000000	-0.000120
3940.000000	-0.000142
3939.000000	-0.000168
3938.000000	-0.000183
3937.000000	-0.000185
3936.000000	-0.000183
3935.000000	-0.000183
3934.000000	-0.000182
3933.000000	-0.000173
3932.000000	-0.000161
3931.000000	-0.000155
3930.000000	-0.000159
3929.000000	-0.000163
3928.000000	-0.000158
3927.000000	-0.000142
3926.000000	-0.000131
3925.000000	-0.000136
3924.000000	-0.000159
3923.000000	-0.000189
3922.000000	-0.000211
3921.000000	-0.000222
3920.000000	-0.000229
3919.000000	-0.000240
3918.000000	-0.000250
3917.000000	-0.000242
3916.000000	-0.000207
3915.000000	-0.000156
3914.000000	-0.000111
3913.000000	-0.000085
3912.000000	-0.000079
3911.000000	-0.000087
3910.000000	-0.000096
3909.000000	-0.000099
3908.000000	-0.000096
3907.000000	-0.000098
3906.000000	-0.000114
3905.000000	-0.000149
3904.000000	-0.000190
3903.000000	-0.000219
3902.000000	-0.000225
3901.000000	-0.000214
3900.000000	-0.000190
3899.000000	-0.000159
3898.000000	-0.000130
3897.000000	-0.000112
3896.000000	-0.000110
3895.000000	-0.000121
3894.000000	-0.000137
3893.000000	-0.000148
3892.000000	-0.000149
3891.000000	-0.000139
3890.000000	-0.000125
3889.000000	-0.000119
3888.000000	-0.000123
3887.000000	-0.000131
3886.000000	-0.000131
3885.000000	-0.000126
3884.000000	-0.000128
3883.000000	-0.000142
3882.000000	-0.000161
3881.000000	-0.000177
3880.000000	-0.000181
3879.000000	-0.000171
3878.000000	-0.000150
3877.000000	-0.000129
3876.000000	-0.000112
3875.000000	-0.000098
3874.000000	-0.000087
3873.000000	-0.000086
3872.000000	-0.000105
3871.000000	-0.000139
3870.000000	-0.000173
3869.000000	-0.000188
3868.000000	-0.000186
3867.000000	-0.000181
3866.000000	-0.000178
3865.000000	-0.000175
3864.000000	-0.000179
3863.000000	-0.000188
3862.000000	-0.000190
3861.000000	-0.000183
3860.000000	-0.000174
3859.000000	-0.000169
3858.000000	-0.000166
3857.000000	-0.000159
3856.000000	-0.000151
3855.000000	-0.000147
3854.000000	-0.000144
3853.000000	-0.000137
3852.000000	-0.000125
3851.000000	-0.000116
3850.000000	-0.000115
3849.000000	-0.000112
3848.000000	-0.000103
3847.000000	-0.000095
3846.000000	-0.000089
3845.000000	-0.000083
3844.000000	-0.000078
3843.000000	-0.000076
3842.000000	-0.000076
3841.000000	-0.000078
3840.000000	-0.000079
3839.000000	-0.000085
3838.000000	-0.000094
3837.000000	-0.000103
3836.000000	-0.000111
3835.000000	-0.000119
3834.000000	-0.000128
3833.000000	-0.000135
3832.000000	-0.000136
3831.000000	-0.000138
3830.000000	-0.000150
3829.000000	-0.000170
3828.000000	-0.000187
3827.000000	-0.000189
3826.000000	-0.000180
3825.000000	-0.000174
3824.000000	-0.000181
3823.000000	-0.000185
3822.000000	-0.000164
3821.000000	-0.000120
3820.000000	-0.000088
3819.000000	-0.000090
3818.000000	-0.000118
3817.000000	-0.000141
3816.000000	-0.000127
3815.000000	-0.000079
3814.000000	-0.000033
3813.000000	-0.000013
3812.000000	-0.000023
3811.000000	-0.000054
3810.000000	-0.000097
3809.000000	-0.000136
3808.000000	-0.000152
3807.000000	-0.000137
3806.000000	-0.000112
3805.000000	-0.000109
3804.000000	-0.000136
3803.000000	-0.000172
3802.000000	-0.000189
3801.000000	-0.000173
3800.000000	-0.000147
3799.000000	-0.000134
3798.000000	-0.000134
3797.000000	-0.000133
3796.000000	-0.000122
3795.000000	-0.000104
3794.000000	-0.000089
3793.000000	-0.000081
3792.000000	-0.000078
3791.000000	-0.000071
3790.000000	-0.000053
3789.000000	-0.000024
3788.000000	0.000011
3787.000000	0.000040
3786.000000	0.000050
3785.000000	0.000039
3784.000000	0.000016
3783.000000	-0.000008
3782.000000	-0.000030
3781.000000	-0.000053
3780.000000	-0.000076
3779.000000	-0.000094
3778.000000	-0.000105
3777.000000	-0.000106
3776.000000	-0.000101
3775.000000	-0.000090
3774.000000	-0.000073
3773.000000	-0.000059
3772.000000	-0.000059
3771.000000	-0.000076
3770.000000	-0.000100
3769.000000	-0.000119
3768.000000	-0.000125
3767.000000	-0.000118
3766.000000	-0.000101
3765.000000	-0.000081
3764.000000	-0.000067
3763.000000	-0.000067
3762.000000	-0.000077
3761.000000	-0.000080
3760.000000	-0.000068
3759.000000	-0.000054
3758.000000	-0.000052
3757.000000	-0.000058
3756.000000	-0.000061
3755.000000	-0.000059
3754.000000	-0.000064
3753.000000	-0.000090
3752.000000	-0.000139
3751.000000	-0.000191
3750.000000	-0.000210
3749.000000	-0.000189
3748.000000	-0.000158
3747.000000	-0.000146
3746.000000	-0.000156
3745.000000	-0.000157
3744.000000	-0.000130
3743.000000	-0.000103
3742.000000	-0.000117
3741.000000	-0.000165
3740.000000	-0.000213
3739.000000	-0.000248
3738.000000	-0.000270
3737.000000	-0.000282
3736.000000	-0.000280
3735.000000	-0.000267
3734.000000	-0.000256
3733.000000	-0.000244
3732.000000	-0.000215
3731.000000	-0.000169
3730.000000	-0.000124
3729.000000	-0.000095
3728.000000	-0.000087
3727.000000	-0.000091
3726.000000	-0.000103
3725.000000	-0.000115
3724.000000	-0.000114
3723.000000	-0.000087
3722.000000	-0.000038
3721.000000	0.000014
3720.000000	0.000050
3719.000000	0.000060
3718.000000	0.000046
3717.000000	0.000017
3716.000000	-0.000016
3715.000000	-0.000048
3714.000000	-0.000074
3713.000000	-0.000082
3712.000000	-0.000072
3711.000000	-0.000058
3710.000000	-0.000055
3709.000000	-0.000065
3708.000000	-0.000078
3707.000000	-0.000080
3706.000000	-0.000069
3705.000000	-0.000054
3704.000000	-0.000045
3703.000000	-0.000045
3702.000000	-0.000051
3701.000000	-0.000056
3700.000000	-0.000056
3699.000000	-0.000055
3698.000000	-0.000053
3697.000000	-0.000050
3696.000000	-0.000043
3695.000000	-0.000039
3694.000000	-0.000041
3693.000000	-0.000044
3692.000000	-0.000042
3691.000000	-0.000029
3690.000000	-0.000012
3689.000000	0.000009
3688.000000	0.000033
3687.000000	0.000048
3686.000000	0.000042
3685.000000	0.000026
3684.000000	0.000015
3683.000000	0.000019
3682.000000	0.000035
3681.000000	0.000056
3680.000000	0.000078
3679.000000	0.000093
3678.000000	0.000086
3677.000000	0.000058
3676.000000	0.000033
3675.000000	0.000035
3674.000000	0.000056
3673.000000	0.000077
3672.000000	0.000084
3671.000000	0.000089
3670.000000	0.000104
3669.000000	0.000121
3668.000000	0.000129
3667.000000	0.000128
3666.000000	0.000124
3665.000000	0.000127
3664.000000	0.000144
3663.000000	0.000174
3662.000000	0.000211
3661.000000	0.000243
3660.000000	0.000260
3659.000000	0.000257
3658.000000	0.000233
3657.000000	0.000200
3656.000000	0.000170
3655.000000	0.000145
3654.000000	0.000116
3653.000000	0.000077
3652.000000	0.000037
3651.000000	0.000010
3650.000000	0.000005
3649.000000	0.000025
3648.000000	0.000065
3647.000000	0.000111
3646.000000	0.000143
3645.000000	0.000157
3644.000000	0.000163
3643.000000	0.000173
3642.000000	0.000190
3641.000000	0.000209
3640.000000	0.000222
3639.000000	0.000232
3638.000000	0.000242
3637.000000	0.000247
3636.000000	0.000243
3635.000000	0.000233
3634.000000	0.000226
3633.000000	0.000220
3632.000000	0.000207
3631.000000	0.000186
3630.000000	0.000169
3629.000000	0.000172
3628.000000	0.000186
3627.000000	0.000194
3626.000000	0.000196
3625.000000	0.000204
3624.000000	0.000232
3623.000000	0.000282
3622.000000	0.000341
3621.000000	0.000393
3620.000000	0.000425
3619.000000	0.000427
3618.000000	0.000405
3617.000000	0.000381
3616.000000	0.000369
3615.000000	0.000374
3614.000000	0.000388
3613.000000	0.000397
3612.000000	0.000393
3611.000000	0.000385
3610.000000	0.000391
3609.000000	0.000420
3608.000000	0.000460
3607.000000	0.000486
3606.000000	0.000490
3605.000000	0.000484
3604.000000	0.000484
3603.000000	0.000498
3602.000000	0.000524
3601.000000	0.000551
3600.000000	0.000574
3599.000000	0.000591
3598.000000	0.000609
3597.000000	0.000633
3596.000000	0.000665
3595.000000	0.000698
3594.000000	0.000727
3593.000000	0.000751
3592.000000	0.000774
3591.000000	0.000793
3590.000000	0.000804
3589.000000	0.000806
3588.000000	0.000803
3587.000000	0.000804
3586.000000	0.000819
3585.000000	0.000844
3584.000000	0.000873
3583.000000	0.000901
3582.000000	0.000922
3581.000000	0.000938
3580.000000	0.000954
3579.000000	0.000977
3578.000000	0.001009
3577.000000	0.001041
3576.000000	0.001061
3575.000000	0.001065
3574.000000	0.001061
3573.000000	0.001060
3572.000000	0.001069
3571.000000	0.001084
3570.000000	0.001102
3569.000000	0.001128
3568.000000	0.001172
3567.000000	0.001236
3566.000000	0.001300
3565.000000	0.001337
3564.000000	0.001337
3563.000000	0.001316
3562.000000	0.001298
3561.000000	0.001296
3560.000000	0.001307
3559.000000	0.001322
3558.000000	0.001333
3557.000000	0.001342
3556.000000	0.001352
3555.000000	0.001369
3554.000000	0.001399
3553.000000	0.001442
3552.000000	0.001483
3551.000000	0.001511
3550.000000	0.001525
3549.000000	0.001536
3548.000000	0.001554
3547.000000	0.001576
3546.000000	0.001596
3545.000000	0.001613
3544.000000	0.001631
3543.000000	0.001653
3542.000000	0.001674
3541.000000	0.001689
3540.000000	0.001700
3539.000000	0.001716
3538.000000	0.001746
3537.000000	0.001788
3536.000000	0.001828
3535.000000	0.001852
3534.000000	0.001859
3533.000000	0.001859
3532.000000	0.001863
3531.000000	0.001871
3530.000000	0.001880
3529.000000	0.001884
3528.000000	0.001888
3527.000000	0.001897
3526.000000	0.001914
3525.000000	0.001938
3524.000000	0.001968
3523.000000	0.002005
3522.000000	0.002044
3521.000000	0.002076
3520.000000	0.002094
3519.000000	0.002099
3518.000000	0.002100
3517.000000	0.002104
3516.000000	0.002114
3515.000000	0.002127
3514.000000	0.002140
3513.000000	0.002153
3512.000000	0.002167
3511.000000	0.002180
3510.000000	0.002190
3509.000000	0.002193
3508.000000	0.002190
3507.000000	0.002186
3506.000000	0.002184
3505.000000	0.002186
3504.000000	0.002194
3503.000000	0.002210
3502.000000	0.002232
3501.000000	0.002258
3500.000000	0.002285
3499.000000	0.002314
3498.000000	0.002350
3497.000000	0.002390
3496.000000	0.002427
3495.000000	0.002452
3494.000000	0.002465
3493.000000	0.002472
3492.000000	0.002478
3491.000000	0.002487
3490.000000	0.002498
3489.000000	0.002507
3488.000000	0.002514
3487.000000	0.002520
3486.000000	0.002529
3485.000000	0.002544
3484.000000	0.002566
3483.000000	0.002589
3482.000000	0.002609
3481.000000	0.002626
3480.000000	0.002643
3479.000000	0.002659
3478.000000	0.002674
3477.000000	0.002685
3476.000000	0.002695
3475.000000	0.002714
3474.000000	0.002747
3473.000000	0.002787
3472.000000	0.002821
3471.000000	0.002837
3470.000000	0.002833
3469.000000	0.002818
3468.000000	0.002808
3467.000000	0.002812
3466.000000	0.002833
3465.000000	0.002860
3464.000000	0.002881
3463.000000	0.002891
3462.000000	0.002892
3461.000000	0.002892
3460.000000	0.002900
3459.000000	0.002922
3458.000000	0.002959
3457.000000	0.003001
3456.000000	0.003029
3455.000000	0.003033
3454.000000	0.003017
3453.000000	0.002998
3452.000000	0.002993
3451.000000	0.003010
3450.000000	0.003042
3449.000000	0.003076
3448.000000	0.003100
3447.000000	0.003109
3446.000000	0.003112
3445.000000	0.003122
3444.000000	0.003145
3443.000000	0.003175
3442.000000	0.003204
3441.000000	0.003226
3440.000000	0.003243
3439.000000	0.003257
3438.000000	0.003270
3437.000000	0.003276
3436.000000	0.003273
3435.000000	0.003265
3434.000000	0.003256
3433.000000	0.003254
3432.000000	0.003260
3431.000000	0.003272
3430.000000	0.003290
3429.000000	0.003318
3428.000000	0.003356
3427.000000	0.003401
3426.000000	0.003442
3425.000000	0.003464
3424.000000	0.003463
3423.000000	0.003446
3422.000000	0.003431
3421.000000	0.003432
3420.000000	0.003449
3419.000000	0.003477
3418.000000	0.003513
3417.000000	0.003557
3416.000000	0.003602
3415.000000	0.003633
3414.000000	0.003639
3413.000000	0.003618
3412.000000	0.003582
3411.000000	0.003550
3410.000000	0.003539
3409.000000	0.003556
3408.000000	0.003593
3407.000000	0.003636
3406.000000	0.003671
3405.000000	0.003689
3404.000000	0.003692
3403.000000	0.003689
3402.000000	0.003690
3401.000000	0.003703
3400.000000	0.003725
3399.000000	0.003748
3398.000000	0.003768
3397.000000	0.003782
3396.000000	0.003793
3395.000000	0.003807
3394.000000	0.003824
3393.000000	0.003838
3392.000000	0.003843
3391.000000	0.003835
3390.000000	0.003817
3389.000000	0.003801
3388.000000	0.003794
3387.000000	0.003802
3386.000000	0.003822
3385.000000	0.003850
3384.000000	0.003880
3383.000000	0.003908
3382.000000	0.003928
3381.000000	0.003937
3380.000000	0.003935
3379.000000	0.003926
3378.000000	0.003924
3377.000000	0.003937
3376.000000	0.003964
3375.000000	0.003998
3374.000000	0.004032
3373.000000	0.004064
3372.000000	0.004088
3371.000000	0.004096
3370.000000	0.004088
3369.000000	0.004068
3368.000000	0.004049
3367.000000	0.004037
3366.000000	0.004031
3365.000000	0.004029
3364.000000	0.004028
3363.000000	0.004031
3362.000000	0.004040
3361.000000	0.004055
3360.000000	0.004074
3359.000000	0.004089
3358.000000	0.004098
3357.000000	0.004106
3356.000000	0.004123
3355.000000	0.004147
3354.000000	0.004172
3353.000000	0.004187
3352.000000	0.004191
3351.000000	0.004187
3350.000000	0.004184
3349.000000	0.004190
3348.000000	0.004211
3347.000000	0.004240
3346.000000	0.004265
3345.000000	0.004277
3344.000000	0.004280
3343.000000	0.004290
3342.000000	0.004315
3341.000000	0.004345
3340.000000	0.004365
3339.000000	0.004370
3338.000000	0.004365
3337.000000	0.004362
3336.000000	0.004369
3335.000000	0.004383
3334.000000	0.004403
3333.000000	0.004422
3332.000000	0.004438
3331.000000	0.004445
3330.000000	0.004442
3329.000000	0.004433
3328.000000	0.004422
3327.000000	0.004413
3326.000000	0.004405
3325.000000	0.004399
3324.000000	0.004398
3323.000000	0.004407
3322.000000	0.004425
3321.000000	0.004450
3320.000000	0.004479
3319.000000	0.004510
3318.000000	0.004539
3317.000000	0.004559
3316.000000	0.004569
3315.000000	0.004572
3314.000000	0.004573
3313.000000	0.004571
3312.000000	0.004561
3311.000000	0.004545
3310.000000	0.004529
3309.000000	0.004517
3308.000000	0.004509
3307.000000	0.004508
3306.000000	0.004517
3305.000000	0.004538
3304.000000	0.004562
3303.000000	0.004581
3302.000000	0.004588
3301.000000	0.004583
3300.000000	0.004572
3299.000000	0.004562
3298.000000	0.004556
3297.000000	0.004556
3296.000000	0.004556
3295.000000	0.004553
3294.000000	0.004553
3293.000000	0.004560
3292.000000	0.004579
3291.000000	0.004606
3290.000000	0.004635
3289.000000	0.004657
3288.000000	0.004664
3287.000000	0.004654
3286.000000	0.004632
3285.000000	0.004613
3284.000000	0.004609
3283.000000	0.004617
3282.000000	0.004629
3281.000000	0.004640
3280.000000	0.004648
3279.000000	0.004651
3278.000000	0.004647
3277.000000	0.004627
3276.000000	0.004588
3275.000000	0.004537
3274.000000	0.004484
3273.000000	0.004445
3272.000000	0.004431
3271.000000	0.004448
3270.000000	0.004490
3269.000000	0.004542
3268.000000	0.004580
3267.000000	0.004589
3266.000000	0.004574
3265.000000	0.004553
3264.000000	0.004544
3263.000000	0.004547
3262.000000	0.004546
3261.000000	0.004528
3260.000000	0.004495
3259.000000	0.004462
3258.000000	0.004444
3257.000000	0.004449
3256.000000	0.004471
3255.000000	0.004493
3254.000000	0.004500
3253.000000	0.004490
3252.000000	0.004472
3251.000000	0.004457
3250.000000	0.004445
3249.000000	0.004437
3248.000000	0.004432
3247.000000	0.004433
3246.000000	0.004440
3245.000000	0.004447
3244.000000	0.004456
3243.000000	0.004466
3242.000000	0.004473
3241.000000	0.004461
3240.000000	0.004424
3239.000000	0.004378
3238.000000	0.004349
3237.000000	0.004343
3236.000000	0.004342
3235.000000	0.004329
3234.000000	0.004304
3233.000000	0.004283
3232.000000	0.004278
3231.000000	0.004283
3230.000000	0.004283
3229.000000	0.004273
3228.000000	0.004253
3227.000000	0.004233
3226.000000	0.004213
3225.000000	0.004194
3224.000000	0.004177
3223.000000	0.004166
3222.000000	0.004166
3221.000000	0.004172
3220.000000	0.004181
3219.000000	0.004190
3218.000000	0.004198
3217.000000	0.004202
3216.000000	0.004194
3215.000000	0.004174
3214.000000	0.004149
3213.000000	0.004134
3212.000000	0.004133
3211.000000	0.004143
3210.000000	0.004153
3209.000000	0.004161
3208.000000	0.004166
3207.000000	0.004169
3206.000000	0.004170
3205.000000	0.004173
3204.000000	0.004179
3203.000000	0.004187
3202.000000	0.004191
3201.000000	0.004184
3200.000000	0.004169
3199.000000	0.004152
3198.000000	0.004137
3197.000000	0.004128
3196.000000	0.004126
3195.000000	0.004132
3194.000000	0.004142
3193.000000	0.004143
3192.000000	0.004125
3191.000000	0.004089
3190.000000	0.004055
3189.000000	0.004038
3188.000000	0.004039
3187.000000	0.004042
3186.000000	0.004037
3185.000000	0.004030
3184.000000	0.004031
3183.000000	0.004043
3182.000000	0.004056
3181.000000	0.004059
3180.000000	0.004042
3179.000000	0.004006
3178.000000	0.003960
3177.000000	0.003917
3176.000000	0.003885
3175.000000	0.003867
3174.000000	0.003855
3173.000000	0.003844
3172.000000	0.003834
3171.000000	0.003830
3170.000000	0.003836
3169.000000	0.003848
3168.000000	0.003853
3167.000000	0.003842
3166.000000	0.003816
3165.000000	0.003788
3164.000000	0.003772
3163.000000	0.003773
3162.000000	0.003780
3161.000000	0.003786
3160.000000	0.003788
3159.000000	0.003786
3158.000000	0.003778
3157.000000	0.003759
3156.000000	0.003734
3155.000000	0.003716
3154.000000	0.003714
3153.000000	0.003724
3152.000000	0.003730
3151.000000	0.003720
3150.000000	0.003698
3149.000000	0.003681
3148.000000	0.003681
3147.000000	0.003689
3146.000000	0.003683
3145.000000	0.003645
3144.000000	0.003584
3143.000000	0.003525
3142.000000	0.003494
3141.000000	0.003496
3140.000000	0.003516
3139.000000	0.003531
3138.000000	0.003523
3137.000000	0.003489
3136.000000	0.003442
3135.000000	0.003405
3134.000000	0.003392
3133.000000	0.003401
3132.000000	0.003416
3131.000000	0.003415
3130.000000	0.003395
3129.000000	0.003368
3128.000000	0.003351
3127.000000	0.003352
3126.000000	0.003363
3125.000000	0.003364
3124.000000	0.003345
3123.000000	0.003304
3122.000000	0.003256
3121.000000	0.003221
3120.000000	0.003211
3119.000000	0.003223
3118.000000	0.003238
3117.000000	0.003242
3116.000000	0.003233
3115.000000	0.003222
3114.000000	0.003218
3113.000000	0.003218
3112.000000	0.003215
3111.000000	0.003206
3110.000000	0.003196
3109.000000	0.003184
3108.000000	0.003168
3107.000000	0.003149
3106.000000	0.003134
3105.000000	0.003130
3104.000000	0.003136
3103.000000	0.003141
3102.000000	0.003142
3101.000000	0.003144
3100.000000	0.003156
3099.000000	0.003177
3098.000000	0.003195
3097.000000	0.003192
3096.000000	0.003162
3095.000000	0.003112
3094.000000	0.003064
3093.000000	0.003030
3092.000000	0.003013
3091.000000	0.003008
3090.000000	0.003009
3089.000000	0.003013
3088.000000	0.003019
3087.000000	0.003021
3086.000000	0.003016
3085.000000	0.003002
3084.000000	0.002988
3083.000000	0.002977
3082.000000	0.002967
3081.000000	0.002948
3080.000000	0.002919
3079.000000	0.002891
3078.000000	0.002882
3077.000000	0.002900
3076.000000	0.002936
3075.000000	0.002965
3074.000000	0.002966
3073.000000	0.002941
3072.000000	0.002904
3071.000000	0.002873
3070.000000	0.002856
3069.000000	0.002849
3068.000000	0.002845
3067.000000	0.002843
3066.000000	0.002841
3065.000000	0.002837
3064.000000	0.002831
3063.000000	0.002823
3062.000000	0.002818
3061.000000	0.002817
3060.000000	0.002818
3059.000000	0.002815
3058.000000	0.002800
3057.000000	0.002774
3056.000000	0.002747
3055.000000	0.002734
3054.000000	0.002742
3053.000000	0.002762
3052.000000	0.002774
3051.000000	0.002768
3050.000000	0.002748
3049.000000	0.002728
3048.000000	0.002716
3047.000000	0.002708
3046.000000	0.002700
3045.000000	0.002687
3044.000000	0.002669
3043.000000	0.002642
3042.000000	0.002609
3041.000000	0.002580
3040.000000	0.002571
3039.000000	0.002588
3038.000000	0.002615
3037.000000	0.002633
3036.000000	0.002633
3035.000000	0.002625
3034.000000	0.002622
3033.000000	0.002633
3032.000000	0.002654
3031.000000	0.002674
3030.000000	0.002682
3029.000000	0.002671
3028.000000	0.002649
3027.000000	0.002633
3026.000000	0.002636
3025.000000	0.002657
3024.000000	0.002685
3023.000000	0.002702
3022.000000	0.002694
3021.000000	0.002662
3020.000000	0.002619
3019.000000	0.002589
3018.000000	0.002583
3017.000000	0.002599
3016.000000	0.002627
3015.000000	0.002660
3014.000000	0.002693
3013.000000	0.002721
3012.000000	0.002732
3011.000000	0.002725
3010.000000	0.002709
3009.000000	0.002701
3008.000000	0.002709
3007.000000	0.002729
3006.000000	0.002751
3005.000000	0.002770
3004.000000	0.002787
3003.000000	0.002797
3002.000000	0.002795
3001.000000	0.002784
3000.000000	0.002776
2999.000000	0.002784
2998.000000	0.002800
2997.000000	0.002809
2996.000000	0.002808
2995.000000	0.002812
2994.000000	0.002838
2993.000000	0.002887
2992.000000	0.002944
2991.000000	0.002995
2990.000000	0.003033
2989.000000	0.003058
2988.000000	0.003070
2987.000000	0.003072
2986.000000	0.003069
2985.000000	0.003071
2984.000000	0.003088
2983.000000	0.003120
2982.000000	0.003158
2981.000000	0.003187
2980.000000	0.003206
2979.000000	0.003227
2978.000000	0.003266
2977.000000	0.003323
2976.000000	0.003390
2975.000000	0.003458
2974.000000	0.003526
2973.000000	0.003591
2972.000000	0.003654
2971.000000	0.003714
2970.000000	0.003770
2969.000000	0.003819
2968.000000	0.003852
2967.000000	0.003875
2966.000000	0.003907
2965.000000	0.003964
2964.000000	0.004045
2963.000000	0.004133
2962.000000	0.004201
2961.000000	0.004235
2960.000000	0.004236
2959.000000	0.004223
2958.000000	0.004217
2957.000000	0.004230
2956.000000	0.004251
2955.000000	0.004266
2954.000000	0.004273
2953.000000	0.004279
2952.000000	0.004289
2951.000000	0.004297
2950.000000	0.004293
2949.000000	0.004281
2948.000000	0.004273
2947.000000	0.004283
2946.000000	0.004312
2945.000000	0.004357
2944.000000	0.004413
2943.000000	0.004478
2942.000000	0.004546
2941.000000	0.004608
2940.000000	0.004664
2939.000000	0.004720
2938.000000	0.004786
2937.000000	0.004861
2936.000000	0.004931
2935.000000	0.004984
2934.000000	0.005023
2933.000000	0.005054
2932.000000	0.005081
2931.000000	0.005104
2930.000000	0.005129
2929.000000	0.005163
2928.000000	0.005209
2927.000000	0.005252
2926.000000	0.005276
2925.000000	0.005278
2924.000000	0.005267
2923.000000	0.005250
2922.000000	0.005228
2921.000000	0.005192
2920.000000	0.005142
2919.000000	0.005084
2918.000000	0.005027
2917.000000	0.004974
2916.000000	0.004922
2915.000000	0.004867
2914.000000	0.004808
2913.000000	0.004751
2912.000000	0.004699
2911.000000	0.004651
2910.000000	0.004601
2909.000000	0.004546
2908.000000	0.004490
2907.000000	0.004439
2906.000000	0.004395
2905.000000	0.004359
2904.000000	0.004335
2903.000000	0.004328
2902.000000	0.004330
2901.000000	0.004326
2900.000000	0.004299
2899.000000	0.004247
2898.000000	0.004183
2897.000000	0.004127
2896.000000	0.004091
2895.000000	0.004073
2894.000000	0.004057
2893.000000	0.004028
2892.000000	0.003987
2891.000000	0.003948
2890.000000	0.003920
2889.000000	0.003897
2888.000000	0.003866
2887.000000	0.003824
2886.000000	0.003781
2885.000000	0.003749
2884.000000	0.003732
2883.000000	0.003728
2882.000000	0.003742
2881.000000	0.003774
2880.000000	0.003816
2879.000000	0.003850
2878.000000	0.003866
2877.000000	0.003866
2876.000000	0.003867
2875.000000	0.003879
2874.000000	0.003899
2873.000000	0.003915
2872.000000	0.003917
2871.000000	0.003908
2870.000000	0.003895
2869.000000	0.003884
2868.000000	0.003872
2867.000000	0.003857
2866.000000	0.003842
2865.000000	0.003837
2864.000000	0.003851
2863.000000	0.003881
2862.000000	0.003909
2861.000000	0.003922
2860.000000	0.003923
2859.000000	0.003927
2858.000000	0.003939
2857.000000	0.003950
2856.000000	0.003944
2855.000000	0.003924
2854.000000	0.003901
2853.000000	0.003880
2852.000000	0.003852
2851.000000	0.003812
2850.000000	0.003763
2849.000000	0.003717
2848.000000	0.003678
2847.000000	0.003635
2846.000000	0.003577
2845.000000	0.003501
2844.000000	0.003414
2843.000000	0.003333
2842.000000	0.003267
2841.000000	0.003214
2840.000000	0.003166
2839.000000	0.003114
2838.000000	0.003057
2837.000000	0.003001
2836.000000	0.002950
2835.000000	0.002907
2834.000000	0.002874
2833.000000	0.002848
2832.000000	0.002829
2831.000000	0.002816
2830.000000	0.002807
2829.000000	0.002798
2828.000000	0.002779
2827.000000	0.002749
2826.000000	0.002715
2825.000000	0.002689
2824.000000	0.002673
2823.000000	0.002655
2822.000000	0.002628
2821.000000	0.002597
2820.000000	0.002574
2819.000000	0.002569
2818.000000	0.002578
2817.000000	0.002590
2816.000000	0.002599
2815.000000	0.002603
2814.000000	0.002601
2813.000000	0.002584
2812.000000	0.002548
2811.000000	0.002501
2810.000000	0.002462
2809.000000	0.002447
2808.000000	0.002454
2807.000000	0.002464
2806.000000	0.002460
2805.000000	0.002438
2804.000000	0.002409
2803.000000	0.002388
2802.000000	0.002375
2801.000000	0.002366
2800.000000	0.002354
2799.000000	0.002344
2798.000000	0.002341
2797.000000	0.002351
2796.000000	0.002370
2795.000000	0.002390
2794.000000	0.002399
2793.000000	0.002388
2792.000000	0.002357
2791.000000	0.002320
2790.000000	0.002291
2789.000000	0.002274
2788.000000	0.002268
2787.000000	0.002272
2786.000000	0.002285
2785.000000	0.002310
2784.000000	0.002339
2783.000000	0.002361
2782.000000	0.002368
2781.000000	0.002354
2780.000000	0.002324
2779.000000	0.002287
2778.000000	0.002252
2777.000000	0.002227
2776.000000	0.002211
2775.000000	0.002205
2774.000000	0.002207
2773.000000	0.002212
2772.000000	0.002216
2771.000000	0.002216
2770.000000	0.002215
2769.000000	0.002212
2768.000000	0.002202
2767.000000	0.002189
2766.000000	0.002181
2765.000000	0.002185
2764.000000	0.002194
2763.000000	0.002195
2762.000000	0.002191
2761.000000	0.002196
2760.000000	0.002214
2759.000000	0.002235
2758.000000	0.002239
2757.000000	0.002224
2756.000000	0.002200
2755.000000	0.002183
2754.000000	0.002180
2753.000000	0.002191
2752.000000	0.002211
2751.000000	0.002232
2750.000000	0.002246
2749.000000	0.002245
2748.000000	0.002227
2747.000000	0.002196
2746.000000	0.002163
2745.000000	0.002140
2744.000000	0.002137
2743.000000	0.002153
2742.000000	0.002177
2741.000000	0.002194
2740.000000	0.002195
2739.000000	0.002183
2738.000000	0.002167
2737.000000	0.002160
2736.000000	0.002162
2735.000000	0.002168
2734.000000	0.002174
2733.000000	0.002181
2732.000000	0.002192
2731.000000	0.002208
2730.000000	0.002223
2729.000000	0.002229
2728.000000	0.002217
2727.000000	0.002188
2726.000000	0.002154
2725.000000	0.002133
2724.000000	0.002134
2723.000000	0.002151
2722.000000	0.002172
2721.000000	0.002185
2720.000000	0.002186
2719.000000	0.002175
2718.000000	0.002155
2717.000000	0.002134
2716.000000	0.002121
2715.000000	0.002120
2714.000000	0.002122
2713.000000	0.002111
2712.000000	0.002084
2711.000000	0.002048
2710.000000	0.002020
2709.000000	0.002007
2708.000000	0.002013
2707.000000	0.002036
2706.000000	0.002069
2705.000000	0.002104
2704.000000	0.002127
2703.000000	0.002132
2702.000000	0.002120
2701.000000	0.002099
2700.000000	0.002079
2699.000000	0.002069
2698.000000	0.002065
2697.000000	0.002058
2696.000000	0.002042
2695.000000	0.002020
2694.000000	0.002006
2693.000000	0.002008
2692.000000	0.002022
2691.000000	0.002037
2690.000000	0.002046
2689.000000	0.002048
2688.000000	0.002047
2687.000000	0.002049
2686.000000	0.002056
2685.000000	0.002068
2684.000000	0.002078
2683.000000	0.002082
2682.000000	0.002078
2681.000000	0.002067
2680.000000	0.002046
2679.000000	0.002020
2678.000000	0.001993
2677.000000	0.001976
2676.000000	0.001969
2675.000000	0.001969
2674.000000	0.001968
2673.000000	0.001964
2672.000000	0.001964
2671.000000	0.001973
2670.000000	0.001988
2669.000000	0.002004
2668.000000	0.002016
2667.000000	0.002029
2666.000000	0.002047
2665.000000	0.002062
2664.000000	0.002063
2663.000000	0.002051
2662.000000	0.002039
2661.000000	0.002038
2660.000000	0.002050
2659.000000	0.002065
2658.000000	0.002075
2657.000000	0.002078
2656.000000	0.002074
2655.000000	0.002063
2654.000000	0.002049
2653.000000	0.002034
2652.000000	0.002020
2651.000000	0.002007
2650.000000	0.001999
2649.000000	0.002001
2648.000000	0.002016
2647.000000	0.002036
2646.000000	0.002051
2645.000000	0.002057
2644.000000	0.002052
2643.000000	0.002043
2642.000000	0.002034
2641.000000	0.002028
2640.000000	0.002024
2639.000000	0.002024
2638.000000	0.002026
2637.000000	0.002029
2636.000000	0.002031
2635.000000	0.002029
2634.000000	0.002020
2633.000000	0.002005
2632.000000	0.001983
2631.000000	0.001960
2630.000000	0.001943
2629.000000	0.001940
2628.000000	0.001945
2627.000000	0.001946
2626.000000	0.001931
2625.000000	0.001904
2624.000000	0.001887
2623.000000	0.001893
2622.000000	0.001913
2621.000000	0.001925
2620.000000	0.001918
2619.000000	0.001901
2618.000000	0.001890
2617.000000	0.001889
2616.000000	0.001891
2615.000000	0.001893
2614.000000	0.001897
2613.000000	0.001897
2612.000000	0.001882
2611.000000	0.001850
2610.000000	0.001814
2609.000000	0.001786
2608.000000	0.001764
2607.000000	0.001744
2606.000000	0.001734
2605.000000	0.001746
2604.000000	0.001775
2603.000000	0.001806
2602.000000	0.001826
2601.000000	0.001836
2600.000000	0.001843
2599.000000	0.001846
2598.000000	0.001842
2597.000000	0.001830
2596.000000	0.001813
2595.000000	0.001804
2594.000000	0.001812
2593.000000	0.001835
2592.000000	0.001858
2591.000000	0.001859
2590.000000	0.001830
2589.000000	0.001781
2588.000000	0.001732
2587.000000	0.001693
2586.000000	0.001667
2585.000000	0.001650
2584.000000	0.001646
2583.000000	0.001663
2582.000000	0.001701
2581.000000	0.001745
2580.000000	0.001769
2579.000000	0.001766
2578.000000	0.001749
2577.000000	0.001732
2576.000000	0.001715
2575.000000	0.001688
2574.000000	0.001660
2573.000000	0.001650
2572.000000	0.001670
2571.000000	0.001706
2570.000000	0.001739
2569.000000	0.001753
2568.000000	0.001745
2567.000000	0.001721
2566.000000	0.001691
2565.000000	0.001668
2564.000000	0.001652
2563.000000	0.001637
2562.000000	0.001620
2561.000000	0.001602
2560.000000	0.001585
2559.000000	0.001571
2558.000000	0.001563
2557.000000	0.001566
2556.000000	0.001578
2555.000000	0.001595
2554.000000	0.001614
2553.000000	0.001638
2552.000000	0.001666
2551.000000	0.001685
2550.000000	0.001683
2549.000000	0.001664
2548.000000	0.001640
2547.000000	0.001616
2546.000000	0.001590
2545.000000	0.001565
2544.000000	0.001552
2543.000000	0.001565
2542.000000	0.001601
2541.000000	0.001642
2540.000000	0.001658
2539.000000	0.001633
2538.000000	0.001578
2537.000000	0.001523
2536.000000	0.001490
2535.000000	0.001476
2534.000000	0.001469
2533.000000	0.001471
2532.000000	0.001487
2531.000000	0.001511
2530.000000	0.001529
2529.000000	0.001532
2528.000000	0.001529
2527.000000	0.001529
2526.000000	0.001531
2525.000000	0.001526
2524.000000	0.001511
2523.000000	0.001494
2522.000000	0.001484
2521.000000	0.001487
2520.000000	0.001495
2519.000000	0.001500
2518.000000	0.001506
2517.000000	0.001526
2516.000000	0.001564
2515.000000	0.001604
2514.000000	0.001622
2513.000000	0.001609
2512.000000	0.001578
2511.000000	0.001544
2510.000000	0.001512
2509.000000	0.001486
2508.000000	0.001468
2507.000000	0.001460
2506.000000	0.001462
2505.000000	0.001486
2504.000000	0.001544
2503.000000	0.001624
2502.000000	0.001682
2501.000000	0.001684
2500.000000	0.001637
2499.000000	0.001581
2498.000000	0.001536
2497.000000	0.001495
2496.000000	0.001456
2495.000000	0.001427
2494.000000	0.001416
2493.000000	0.001414
2492.000000	0.001415
2491.000000	0.001432
2490.000000	0.001472
2489.000000	0.001511
2488.000000	0.001513
2487.000000	0.001469
2486.000000	0.001405
2485.000000	0.001349
2484.000000	0.001311
2483.000000	0.001295
2482.000000	0.001306
2481.000000	0.001342
2480.000000	0.001380
2479.000000	0.001398
2478.000000	0.001393
2477.000000	0.001385
2476.000000	0.001388
2475.000000	0.001406
2474.000000	0.001430
2473.000000	0.001449
2472.000000	0.001454
2471.000000	0.001448
2470.000000	0.001437
2469.000000	0.001428
2468.000000	0.001417
2467.000000	0.001400
2466.000000	0.001382
2465.000000	0.001372
2464.000000	0.001375
2463.000000	0.001382
2462.000000	0.001386
2461.000000	0.001385
2460.000000	0.001388
2459.000000	0.001409
2458.000000	0.001460
2457.000000	0.001535
2456.000000	0.001605
2455.000000	0.001643
2454.000000	0.001650
2453.000000	0.001647
2452.000000	0.001647
2451.000000	0.001634
2450.000000	0.001590
2449.000000	0.001521
2448.000000	0.001453
2447.000000	0.001410
2446.000000	0.001395
2445.000000	0.001396
2444.000000	0.001399
2443.000000	0.001396
2442.000000	0.001395
2441.000000	0.001407
2440.000000	0.001434
2439.000000	0.001458
2438.000000	0.001456
2437.000000	0.001425
2436.000000	0.001394
2435.000000	0.001395
2434.000000	0.001431
2433.000000	0.001466
2432.000000	0.001460
2431.000000	0.001409
2430.000000	0.001354
2429.000000	0.001340
2428.000000	0.001378
2427.000000	0.001442
2426.000000	0.001501
2425.000000	0.001543
2424.000000	0.001567
2423.000000	0.001569
2422.000000	0.001545
2421.000000	0.001496
2420.000000	0.001436
2419.000000	0.001380
2418.000000	0.001339
2417.000000	0.001318
2416.000000	0.001324
2415.000000	0.001357
2414.000000	0.001402
2413.000000	0.001437
2412.000000	0.001442
2411.000000	0.001422
2410.000000	0.001396
2409.000000	0.001388
2408.000000	0.001400
2407.000000	0.001417
2406.000000	0.001416
2405.000000	0.001386
2404.000000	0.001335
2403.000000	0.001285
2402.000000	0.001255
2401.000000	0.001248
2400.000000	0.001252
2399.000000	0.001259
2398.000000	0.001269
2397.000000	0.001286
2396.000000	0.001303
2395.000000	0.001312
2394.000000	0.001315
2393.000000	0.001320
2392.000000	0.001329
2391.000000	0.001331
2390.000000	0.001313
2389.000000	0.001270
2388.000000	0.001211
2387.000000	0.001159
2386.000000	0.001131
2385.000000	0.001126
2384.000000	0.001121
2383.000000	0.001089
2382.000000	0.001028
2381.000000	0.000960
2380.000000	0.000905
2379.000000	0.000867
2378.000000	0.000835
2377.000000	0.000814
2376.000000	0.000824
2375.000000	0.000870
2374.000000	0.000930
2373.000000	0.000967
2372.000000	0.000973
2371.000000	0.000975
2370.000000	0.000986
2369.000000	0.000980
2368.000000	0.000923
2367.000000	0.000832
2366.000000	0.000766
2365.000000	0.000764
2364.000000	0.000816
2363.000000	0.000891
2362.000000	0.000964
2361.000000	0.001014
2360.000000	0.001028
2359.000000	0.001018
2358.000000	0.001007
2357.000000	0.001007
2356.000000	0.001018
2355.000000	0.001032
2354.000000	0.001017
2353.000000	0.000950
2352.000000	0.000868
2351.000000	0.000847
2350.000000	0.000916
2349.000000	0.001033
2348.000000	0.001124
2347.000000	0.001132
2346.000000	0.001079
2345.000000	0.001049
2344.000000	0.001087
2343.000000	0.001146
2342.000000	0.001161
2341.000000	0.001125
2340.000000	0.001084
2339.000000	0.001083
2338.000000	0.001122
2337.000000	0.001174
2336.000000	0.001216
2335.000000	0.001234
2334.000000	0.001209
2333.000000	0.001141
2332.000000	0.001066
2331.000000	0.001038
2330.000000	0.001070
2329.000000	0.001133
2328.000000	0.001201
2327.000000	0.001278
2326.000000	0.001371
2325.000000	0.001465
2324.000000	0.001525
2323.000000	0.001541
2322.000000	0.001530
2321.000000	0.001516
2320.000000	0.001506
2319.000000	0.001501
2318.000000	0.001506
2317.000000	0.001525
2316.000000	0.001538
2315.000000	0.001527
2314.000000	0.001500
2313.000000	0.001479
2312.000000	0.001466
2311.000000	0.001437
2310.000000	0.001377
2309.000000	0.001307
2308.000000	0.001259
2307.000000	0.001247
2306.000000	0.001267
2305.000000	0.001308
2304.000000	0.001356
2303.000000	0.001395
2302.000000	0.001420
2301.000000	0.001443
2300.000000	0.001470
2299.000000	0.001489
2298.000000	0.001483
2297.000000	0.001457
2296.000000	0.001433
2295.000000	0.001429
2294.000000	0.001448
2293.000000	0.001490
2292.000000	0.001551
2291.000000	0.001617
2290.000000	0.001666
2289.000000	0.001693
2288.000000	0.001707
2287.000000	0.001720
2286.000000	0.001730
2285.000000	0.001725
2284.000000	0.001704
2283.000000	0.001674
2282.000000	0.001644
2281.000000	0.001612
2280.000000	0.001575
2279.000000	0.001532
2278.000000	0.001483
2277.000000	0.001429
2276.000000	0.001377
2275.000000	0.001346
2274.000000	0.001360
2273.000000	0.001416
2272.000000	0.001483
2271.000000	0.001520
2270.000000	0.001516
2269.000000	0.001488
2268.000000	0.001449
2267.000000	0.001392
2266.000000	0.001310
2265.000000	0.001212
2264.000000	0.001127
2263.000000	0.001079
2262.000000	0.001083
2261.000000	0.001133
2260.000000	0.001207
2259.000000	0.001270
2258.000000	0.001305
2257.000000	0.001310
2256.000000	0.001288
2255.000000	0.001246
2254.000000	0.001209
2253.000000	0.001206
2252.000000	0.001230
2251.000000	0.001227
2250.000000	0.001151
2249.000000	0.001030
2248.000000	0.000947
2247.000000	0.000959
2246.000000	0.001043
2245.000000	0.001130
2244.000000	0.001170
2243.000000	0.001172
2242.000000	0.001172
2241.000000	0.001198
2240.000000	0.001240
2239.000000	0.001270
2238.000000	0.001272
2237.000000	0.001263
2236.000000	0.001273
2235.000000	0.001313
2234.000000	0.001358
2233.000000	0.001361
2232.000000	0.001292
2231.000000	0.001147
2230.000000	0.000956
2229.000000	0.000774
2228.000000	0.000673
2227.000000	0.000706
2226.000000	0.000863
2225.000000	0.001060
2224.000000	0.001190
2223.000000	0.001208
2222.000000	0.001156
2221.000000	0.001103
2220.000000	0.001069
2219.000000	0.001023
2218.000000	0.000941
2217.000000	0.000850
2216.000000	0.000788
2215.000000	0.000766
2214.000000	0.000777
2213.000000	0.000824
2212.000000	0.000915
2211.000000	0.001028
2210.000000	0.001108
2209.000000	0.001112
2208.000000	0.001058
2207.000000	0.001010
2206.000000	0.001015
2205.000000	0.001055
2204.000000	0.001075
2203.000000	0.001045
2202.000000	0.000997
2201.000000	0.000986
2200.000000	0.001026
2199.000000	0.001073
2198.000000	0.001070
2197.000000	0.000998
2196.000000	0.000895
2195.000000	0.000829
2194.000000	0.000854
2193.000000	0.000968
2192.000000	0.001121
2191.000000	0.001253
2190.000000	0.001344
2189.000000	0.001406
2188.000000	0.001459
2187.000000	0.001495
2186.000000	0.001486
2185.000000	0.001409
2184.000000	0.001277
2183.000000	0.001141
2182.000000	0.001047
2181.000000	0.000991
2180.000000	0.000931
2179.000000	0.000859
2178.000000	0.000832
2177.000000	0.000904
2176.000000	0.001043
2175.000000	0.001157
2174.000000	0.001183
2173.000000	0.001142
2172.000000	0.001101
2171.000000	0.001099
2170.000000	0.001134
2169.000000	0.001178
2168.000000	0.001212
2167.000000	0.001236
2166.000000	0.001247
2165.000000	0.001227
2164.000000	0.001175
2163.000000	0.001150
2162.000000	0.001219
2161.000000	0.001343
2160.000000	0.001344
2159.000000	0.001049
2158.000000	0.000475
2157.000000	-0.000180
2156.000000	-0.000698
2155.000000	-0.000943
2154.000000	-0.000877
2153.000000	-0.000584
2152.000000	-0.000252
2151.000000	-0.000033
2150.000000	0.000068
2149.000000	0.000124
2148.000000	0.000165
2147.000000	0.000159
2146.000000	0.000108
2145.000000	0.000067
2144.000000	0.000071
2143.000000	0.000107
2142.000000	0.000145
2141.000000	0.000184
2140.000000	0.000236
2139.000000	0.000308
2138.000000	0.000398
2137.000000	0.000475
2136.000000	0.000498
2135.000000	0.000462
2134.000000	0.000426
2133.000000	0.000453
2132.000000	0.000532
2131.000000	0.000595
2130.000000	0.000597
2129.000000	0.000552
2128.000000	0.000504
2127.000000	0.000495
2126.000000	0.000554
2125.000000	0.000677
2124.000000	0.000817
2123.000000	0.000927
2122.000000	0.001002
2121.000000	0.001055
2120.000000	0.001073
2119.000000	0.001035
2118.000000	0.000973
2117.000000	0.000955
2116.000000	0.001003
2115.000000	0.001074
2114.000000	0.001120
2113.000000	0.001144
2112.000000	0.001158
2111.000000	0.001153
2110.000000	0.001129
2109.000000	0.001132
2108.000000	0.001198
2107.000000	0.001297
2106.000000	0.001353
2105.000000	0.001326
2104.000000	0.001237
2103.000000	0.001126
2102.000000	0.001035
2101.000000	0.000994
2100.000000	0.001011
2099.000000	0.001060
2098.000000	0.001096
2097.000000	0.001102
2096.000000	0.001084
2095.000000	0.001042
2094.000000	0.000977
2093.000000	0.000913
2092.000000	0.000895
2091.000000	0.000950
2090.000000	0.001052
2089.000000	0.001139
2088.000000	0.001160
2087.000000	0.001120
2086.000000	0.001077
2085.000000	0.001092
2084.000000	0.001166
2083.000000	0.001244
2082.000000	0.001272
2081.000000	0.001240
2080.000000	0.001172
2079.000000	0.001083
2078.000000	0.000987
2077.000000	0.000908
2076.000000	0.000864
2075.000000	0.000841
2074.000000	0.000812
2073.000000	0.000780
2072.000000	0.000781
2071.000000	0.000832
2070.000000	0.000904
2069.000000	0.000943
2068.000000	0.000914
2067.000000	0.000827
2066.000000	0.000719
2065.000000	0.000624
2064.000000	0.000548
2063.000000	0.000494
2062.000000	0.000491
2061.000000	0.000582
2060.000000	0.000761
2059.000000	0.000948
2058.000000	0.001043
2057.000000	0.001009
2056.000000	0.000881
2055.000000	0.000737
2054.000000	0.000660
2053.000000	0.000708
2052.000000	0.000871
2051.000000	0.001050
2050.000000	0.001107
2049.000000	0.000978
2048.000000	0.000751
2047.000000	0.000604
2046.000000	0.000642
2045.000000	0.000808
2044.000000	0.000943
2043.000000	0.000943
2042.000000	0.000840
2041.000000	0.000737
2040.000000	0.000695
2039.000000	0.000700
2038.000000	0.000718
2037.000000	0.000719
2036.000000	0.000653
2035.000000	0.000492
2034.000000	0.000317
2033.000000	0.000259
2032.000000	0.000326
2031.000000	0.000364
2030.000000	0.000266
2029.000000	0.000122
2028.000000	0.000089
2027.000000	0.000169
2026.000000	0.000227
2025.000000	0.000204
2024.000000	0.000195
2023.000000	0.000309
2022.000000	0.000521
2021.000000	0.000681
2020.000000	0.000637
2019.000000	0.000351
2018.000000	-0.000059
2017.000000	-0.000381
2016.000000	-0.000480
2015.000000	-0.000417
2014.000000	-0.000344
2013.000000	-0.000322
2012.000000	-0.000291
2011.000000	-0.000204
2010.000000	-0.000121
2009.000000	-0.000128
2008.000000	-0.000188
2007.000000	-0.000167
2006.000000	-0.000007
2005.000000	0.000177
2004.000000	0.000252
2003.000000	0.000243
2002.000000	0.000300
2001.000000	0.000489
2000.000000	0.000685
1999.000000	0.000726
1998.000000	0.000593
1997.000000	0.000411
1996.000000	0.000279
1995.000000	0.000193
1994.000000	0.000119
1993.000000	0.000084
1992.000000	0.000135
1991.000000	0.000248
1990.000000	0.000336
1989.000000	0.000346
1988.000000	0.000300
1987.000000	0.000261
1986.000000	0.000267
1985.000000	0.000307
1984.000000	0.000348
1983.000000	0.000388
1982.000000	0.000464
1981.000000	0.000586
1980.000000	0.000689
1979.000000	0.000690
1978.000000	0.000594
1977.000000	0.000503
1976.000000	0.000478
1975.000000	0.000448
1974.000000	0.000310
1973.000000	0.000065
1972.000000	-0.000185
1971.000000	-0.000343
1970.000000	-0.000383
1969.000000	-0.000332
1968.000000	-0.000238
1967.000000	-0.000148
1966.000000	-0.000095
1965.000000	-0.000092
1964.000000	-0.000136
1963.000000	-0.000217
1962.000000	-0.000311
1961.000000	-0.000373
1960.000000	-0.000364
1959.000000	-0.000285
1958.000000	-0.000187
1957.000000	-0.000135
1956.000000	-0.000156
1955.000000	-0.000208
1954.000000	-0.000223
1953.000000	-0.000170
1952.000000	-0.000070
1951.000000	0.000043
1950.000000	0.000152
1949.000000	0.000236
1948.000000	0.000262
1947.000000	0.000223
1946.000000	0.000167
1945.000000	0.000143
1944.000000	0.000148
1943.000000	0.000145
1942.000000	0.000123
1941.000000	0.000105
1940.000000	0.000102
1939.000000	0.000106
1938.000000	0.000120
1937.000000	0.000148
1936.000000	0.000181
1935.000000	0.000200
1934.000000	0.000209
1933.000000	0.000236
1932.000000	0.000294
1931.000000	0.000363
1930.000000	0.000418
1929.000000	0.000434
1928.000000	0.000385
1927.000000	0.000275
1926.000000	0.000162
1925.000000	0.000131
1924.000000	0.000209
1923.000000	0.000336
1922.000000	0.000418
1921.000000	0.000407
1920.000000	0.000308
1919.000000	0.000167
1918.000000	0.000075
1917.000000	0.000117
1916.000000	0.000272
1915.000000	0.000434
1914.000000	0.000526
1913.000000	0.000549
1912.000000	0.000545
1911.000000	0.000529
1910.000000	0.000485
1909.000000	0.000413
1908.000000	0.000332
1907.000000	0.000262
1906.000000	0.000212
1905.000000	0.000186
1904.000000	0.000186
1903.000000	0.000206
1902.000000	0.000250
1901.000000	0.000319
1900.000000	0.000397
1899.000000	0.000456
1898.000000	0.000483
1897.000000	0.000481
1896.000000	0.000454
1895.000000	0.000400
1894.000000	0.000327
1893.000000	0.000253
1892.000000	0.000193
1891.000000	0.000153
1890.000000	0.000144
1889.000000	0.000175
1888.000000	0.000215
1887.000000	0.000224
1886.000000	0.000200
1885.000000	0.000178
1884.000000	0.000183
1883.000000	0.000209
1882.000000	0.000231
1881.000000	0.000231
1880.000000	0.000201
1879.000000	0.000150
1878.000000	0.000111
1877.000000	0.000119
1876.000000	0.000167
1875.000000	0.000216
1874.000000	0.000242
1873.000000	0.000252
1872.000000	0.000260
1871.000000	0.000261
1870.000000	0.000251
1869.000000	0.000249
1868.000000	0.000265
1867.000000	0.000270
1866.000000	0.000251
1865.000000	0.000225
1864.000000	0.000201
1863.000000	0.000166
1862.000000	0.000121
1861.000000	0.000093
1860.000000	0.000107
1859.000000	0.000151
1858.000000	0.000193
1857.000000	0.000219
1856.000000	0.000231
1855.000000	0.000237
1854.000000	0.000232
1853.000000	0.000209
1852.000000	0.000159
1851.000000	0.000094
1850.000000	0.000045
1849.000000	0.000042
1848.000000	0.000085
1847.000000	0.000136
1846.000000	0.000162
1845.000000	0.000154
1844.000000	0.000127
1843.000000	0.000105
1842.000000	0.000101
1841.000000	0.000112
1840.000000	0.000123
1839.000000	0.000126
1838.000000	0.000122
1837.000000	0.000116
1836.000000	0.000101
1835.000000	0.000066
1834.000000	0.000020
1833.000000	-0.000020
1832.000000	-0.000046
1831.000000	-0.000058
1830.000000	-0.000057
1829.000000	-0.000041
1828.000000	-0.000018
1827.000000	0.000001
1826.000000	0.000011
1825.000000	0.000018
1824.000000	0.000031
1823.000000	0.000047
1822.000000	0.000062
1821.000000	0.000073
1820.000000	0.000073
1819.000000	0.000047
1818.000000	-0.000002
1817.000000	-0.000042
1816.000000	-0.000057
1815.000000	-0.000070
1814.000000	-0.000107
1813.000000	-0.000160
1812.000000	-0.000190
1811.000000	-0.000183
1810.000000	-0.000156
1809.000000	-0.000126
1808.000000	-0.000104
1807.000000	-0.000105
1806.000000	-0.000126
1805.000000	-0.000143
1804.000000	-0.000142
1803.000000	-0.000138
1802.000000	-0.000143
1801.000000	-0.000147
1800.000000	-0.000139
1799.000000	-0.000142
1798.000000	-0.000162
1797.000000	-0.000170
1796.000000	-0.000153
1795.000000	-0.000131
1794.000000	-0.000125
1793.000000	-0.000122
1792.000000	-0.000095
1791.000000	-0.000060
1790.000000	-0.000052
1789.000000	-0.000067
1788.000000	-0.000085
1787.000000	-0.000101
1786.000000	-0.000115
1785.000000	-0.000123
1784.000000	-0.000126
1783.000000	-0.000136
1782.000000	-0.000154
1781.000000	-0.000169
1780.000000	-0.000176
1779.000000	-0.000183
1778.000000	-0.000199
1777.000000	-0.000224
1776.000000	-0.000257
1775.000000	-0.000291
1774.000000	-0.000313
1773.000000	-0.000306
1772.000000	-0.000264
1771.000000	-0.000208
1770.000000	-0.000160
1769.000000	-0.000114
1768.000000	-0.000071
1767.000000	-0.000048
1766.000000	-0.000057
1765.000000	-0.000072
1764.000000	-0.000060
1763.000000	-0.000006
1762.000000	0.000074
1761.000000	0.000149
1760.000000	0.000217
1759.000000	0.000301
1758.000000	0.000423
1757.000000	0.000574
1756.000000	0.000715
1755.000000	0.000815
1754.000000	0.000890
1753.000000	0.000986
1752.000000	0.001147
1751.000000	0.001378
1750.000000	0.001636
1749.000000	0.001875
1748.000000	0.002082
1747.000000	0.002244
1746.000000	0.002353
1745.000000	0.002412
1744.000000	0.002438
1743.000000	0.002436
1742.000000	0.002395
1741.000000	0.002322
1740.000000	0.002242
1739.000000	0.002155
1738.000000	0.002035
1737.000000	0.001869
1736.000000	0.001670
1735.000000	0.001459
1734.000000	0.001280
1733.000000	0.001150
1732.000000	0.001043
1731.000000	0.000956
1730.000000	0.000888
1729.000000	0.000823
1728.000000	0.000745
1727.000000	0.000660
1726.000000	0.000578
1725.000000	0.000500
1724.000000	0.000424
1723.000000	0.000354
1722.000000	0.000300
1721.000000	0.000269
1720.000000	0.000264
1719.000000	0.000275
1718.000000	0.000279
1717.000000	0.000283
1716.000000	0.000291
1715.000000	0.000286
1714.000000	0.000278
1713.000000	0.000283
1712.000000	0.000295
1711.000000	0.000303
1710.000000	0.000304
1709.000000	0.000305
1708.000000	0.000312
1707.000000	0.000328
1706.000000	0.000360
1705.000000	0.000413
1704.000000	0.000454
1703.000000	0.000456
1702.000000	0.000430
1701.000000	0.000428
1700.000000	0.000465
1699.000000	0.000468
1698.000000	0.000453
1697.000000	0.000532
1696.000000	0.000729
1695.000000	0.000896
1694.000000	0.000940
1693.000000	0.000944
1692.000000	0.000977
1691.000000	0.001043
1690.000000	0.001115
1689.000000	0.001176
1688.000000	0.001219
1687.000000	0.001252
1686.000000	0.001296
1685.000000	0.001393
1684.000000	0.001540
1683.000000	0.001632
1682.000000	0.001654
1681.000000	0.001681
1680.000000	0.001740
1679.000000	0.001814
1678.000000	0.001887
1677.000000	0.001969
1676.000000	0.002072
1675.000000	0.002182
1674.000000	0.002264
1673.000000	0.002312
1672.000000	0.002357
1671.000000	0.002423
1670.000000	0.002525
1669.000000	0.002645
1668.000000	0.002744
1667.000000	0.002813
1666.000000	0.002869
1665.000000	0.002927
1664.000000	0.003000
1663.000000	0.003084
1662.000000	0.003163
1661.000000	0.003215
1660.000000	0.003240
1659.000000	0.003259
1658.000000	0.003294
1657.000000	0.003351
1656.000000	0.003418
1655.000000	0.003489
1654.000000	0.003580
1653.000000	0.003685
1652.000000	0.003702
1651.000000	0.003669
1650.000000	0.003663
1649.000000	0.003667
1648.000000	0.003662
1647.000000	0.003659
1646.000000	0.003672
1645.000000	0.003692
1644.000000	0.003726
1643.000000	0.003771
1642.000000	0.003821
1641.000000	0.003867
1640.000000	0.003899
1639.000000	0.003904
1638.000000	0.003883
1637.000000	0.003846
1636.000000	0.003815
1635.000000	0.003806
1634.000000	0.003809
1633.000000	0.003820
1632.000000	0.003828
1631.000000	0.003826
1630.000000	0.003832
1629.000000	0.003856
1628.000000	0.003881
1627.000000	0.003877
1626.000000	0.003844
1625.000000	0.003797
1624.000000	0.003743
1623.000000	0.003697
1622.000000	0.003682
1621.000000	0.003691
1620.000000	0.003698
1619.000000	0.003687
1618.000000	0.003659
1617.000000	0.003625
1616.000000	0.003587
1615.000000	0.003558
1614.000000	0.003562
1613.000000	0.003593
1612.000000	0.003619
1611.000000	0.003624
1610.000000	0.003625
1609.000000	0.003631
1608.000000	0.003629
1607.000000	0.003611
1606.000000	0.003601
1605.000000	0.003609
1604.000000	0.003627
1603.000000	0.003644
1602.000000	0.003666
1601.000000	0.003694
1600.000000	0.003718
1599.000000	0.003729
1598.000000	0.003725
1597.000000	0.003706
1596.000000	0.003673
1595.000000	0.003643
1594.000000	0.003637
1593.000000	0.003651
1592.000000	0.003654
1591.000000	0.003631
1590.000000	0.003600
1589.000000	0.003582
1588.000000	0.003575
1587.000000	0.003566
1586.000000	0.003555
1585.000000	0.003543
1584.000000	0.003521
1583.000000	0.003493
1582.000000	0.003475
1581.000000	0.003466
1580.000000	0.003449
1579.000000	0.003423
1578.000000	0.003403
1577.000000	0.003397
1576.000000	0.003376
1575.000000	0.003329
1574.000000	0.003289
1573.000000	0.003272
1572.000000	0.003265
1571.000000	0.003247
1570.000000	0.003217
1569.000000	0.003180
1568.000000	0.003142
1567.000000	0.003124
1566.000000	0.003125
1565.000000	0.003122
1564.000000	0.003102
1563.000000	0.003088
1562.000000	0.003113
1561.000000	0.003168
1560.000000	0.003171
1559.000000	0.003075
1558.000000	0.002995
1557.000000	0.002946
1556.000000	0.002934
1555.000000	0.002940
1554.000000	0.002937
1553.000000	0.002919
1552.000000	0.002906
1551.000000	0.002904
1550.000000	0.002901
1549.000000	0.002886
1548.000000	0.002866
1547.000000	0.002858
1546.000000	0.002864
1545.000000	0.002875
1544.000000	0.002872
1543.000000	0.002836
1542.000000	0.002765
1541.000000	0.002706
1540.000000	0.002706
1539.000000	0.002707
1538.000000	0.002662
1537.000000	0.002618
1536.000000	0.002589
1535.000000	0.002552
1534.000000	0.002488
1533.000000	0.002412
1532.000000	0.002345
1531.000000	0.002283
1530.000000	0.002228
1529.000000	0.002188
1528.000000	0.002153
1527.000000	0.002097
1526.000000	0.002004
1525.000000	0.001896
1524.000000	0.001798
1523.000000	0.001701
1522.000000	0.001601
1521.000000	0.001538
1520.000000	0.001524
1519.000000	0.001524
1518.000000	0.001514
1517.000000	0.001501
1516.000000	0.001496
1515.000000	0.001482
1514.000000	0.001445
1513.000000	0.001388
1512.000000	0.001324
1511.000000	0.001256
1510.000000	0.001178
1509.000000	0.001089
1508.000000	0.001017
1507.000000	0.001008
1506.000000	0.001005
1505.000000	0.000939
1504.000000	0.000879
1503.000000	0.000858
1502.000000	0.000862
1501.000000	0.000882
1500.000000	0.000905
1499.000000	0.000904
1498.000000	0.000858
1497.000000	0.000805
1496.000000	0.000798
1495.000000	0.000813
1494.000000	0.000807
1493.000000	0.000784
1492.000000	0.000766
1491.000000	0.000758
1490.000000	0.000763
1489.000000	0.000811
1488.000000	0.000898
1487.000000	0.000968
1486.000000	0.000999
1485.000000	0.001016
1484.000000	0.001041
1483.000000	0.001086
1482.000000	0.001148
1481.000000	0.001230
1480.000000	0.001330
1479.000000	0.001434
1478.000000	0.001538
1477.000000	0.001650
1476.000000	0.001768
1475.000000	0.001861
1474.000000	0.001922
1473.000000	0.002010
1472.000000	0.002174
1471.000000	0.002359
1470.000000	0.002510
1469.000000	0.002641
1468.000000	0.002771
1467.000000	0.002894
1466.000000	0.002988
1465.000000	0.003049
1464.000000	0.003095
1463.000000	0.003139
1462.000000	0.003186
1461.000000	0.003242
1460.000000	0.003308
1459.000000	0.003378
1458.000000	0.003445
1457.000000	0.003507
1456.000000	0.003565
1455.000000	0.003621
1454.000000	0.003689
1453.000000	0.003770
1452.000000	0.003856
1451.000000	0.003940
1450.000000	0.004011
1449.000000	0.004064
1448.000000	0.004105
1447.000000	0.004142
1446.000000	0.004183
1445.000000	0.004236
1444.000000	0.004303
1443.000000	0.004371
1442.000000	0.004434
1441.000000	0.004498
1440.000000	0.004577
1439.000000	0.004672
1438.000000	0.004753
1437.000000	0.004781
1436.000000	0.004767
1435.000000	0.004765
1434.000000	0.004803
1433.000000	0.004873
1432.000000	0.004953
1431.000000	0.005021
1430.000000	0.005065
1429.000000	0.005088
1428.000000	0.005111
1427.000000	0.005158
1426.000000	0.005225
1425.000000	0.005279
1424.000000	0.005301
1423.000000	0.005318
1422.000000	0.005357
1421.000000	0.005410
1420.000000	0.005446
1419.000000	0.005459
1418.000000	0.005466
1417.000000	0.005474
1416.000000	0.005491
1415.000000	0.005514
1414.000000	0.005543
1413.000000	0.005570
1412.000000	0.005587
1411.000000	0.005593
1410.000000	0.005598
1409.000000	0.005615
1408.000000	0.005648
1407.000000	0.005677
1406.000000	0.005677
1405.000000	0.005635
1404.000000	0.005578
1403.000000	0.005546
1402.000000	0.005551
1401.000000	0.005565
1400.000000	0.005549
1399.000000	0.005497
1398.000000	0.005447
1397.000000	0.005433
1396.000000	0.005451
1395.000000	0.005474
1394.000000	0.005472
1393.000000	0.005434
1392.000000	0.005385
1391.000000	0.005351
1390.000000	0.005336
1389.000000	0.005326
1388.000000	0.005301
1387.000000	0.005251
1386.000000	0.005188
1385.000000	0.005122
1384.000000	0.005055
1383.000000	0.004986
1382.000000	0.004921
1381.000000	0.004869
1380.000000	0.004826
1379.000000	0.004787
1378.000000	0.004749
1377.000000	0.004712
1376.000000	0.004663
1375.000000	0.004594
1374.000000	0.004516
1373.000000	0.004445
1372.000000	0.004386
1371.000000	0.004337
1370.000000	0.004301
1369.000000	0.004268
1368.000000	0.004223
1367.000000	0.004166
1366.000000	0.004113
1365.000000	0.004075
1364.000000	0.004043
1363.000000	0.004001
1362.000000	0.003949
1361.000000	0.003886
1360.000000	0.003811
1359.000000	0.003731
1358.000000	0.003665
1357.000000	0.003619
1356.000000	0.003580
1355.000000	0.003532
1354.000000	0.003477
1353.000000	0.003427
1352.000000	0.003387
1351.000000	0.003355
1350.000000	0.003335
1349.000000	0.003319
1348.000000	0.003294
1347.000000	0.003251
1346.000000	0.003205
1345.000000	0.003168
1344.000000	0.003138
1343.000000	0.003104
1342.000000	0.003067
1341.000000	0.003027
1340.000000	0.002978
1339.000000	0.002925
1338.000000	0.002884
1337.000000	0.002857
1336.000000	0.002830
1335.000000	0.002789
1334.000000	0.002746
1333.000000	0.002722
1332.000000	0.002722
1331.000000	0.002727
1330.000000	0.002724
1329.000000	0.002713
1328.000000	0.002699
1327.000000	0.002682
1326.000000	0.002658
1325.000000	0.002624
1324.000000	0.002584
1323.000000	0.002554
1322.000000	0.002544
1321.000000	0.002546
1320.000000	0.002542
1319.000000	0.002524
1318.000000	0.002498
1317.000000	0.002474
1316.000000	0.002457
1315.000000	0.002447
1314.000000	0.002446
1313.000000	0.002444
1312.000000	0.002422
1311.000000	0.002380
1310.000000	0.002336
1309.000000	0.002310
1308.000000	0.002293
1307.000000	0.002265
1306.000000	0.002218
1305.000000	0.002163
1304.000000	0.002113
1303.000000	0.002077
1302.000000	0.002047
1301.000000	0.002017
1300.000000	0.001984
1299.000000	0.001951
1298.000000	0.001918
1297.000000	0.001874
1296.000000	0.001814
1295.000000	0.001748
1294.000000	0.001699
1293.000000	0.001670
1292.000000	0.001649
1291.000000	0.001620
1290.000000	0.001582
1289.000000	0.001540
1288.000000	0.001496
1287.000000	0.001450
1286.000000	0.001408
1285.000000	0.001376
1284.000000	0.001357
1283.000000	0.001351
1282.000000	0.001352
1281.000000	0.001350
1280.000000	0.001329
1279.000000	0.001287
1278.000000	0.001239
1277.000000	0.001198
1276.000000	0.001165
1275.000000	0.001137
1274.000000	0.001115
1273.000000	0.001103
1272.000000	0.001102
1271.000000	0.001110
1270.000000	0.001125
1269.000000	0.001143
1268.000000	0.001152
1267.000000	0.001148
1266.000000	0.001134
1265.000000	0.001125
1264.000000	0.001129
1263.000000	0.001151
1262.000000	0.001188
1261.000000	0.001230
1260.000000	0.001255
1259.000000	0.001247
1258.000000	0.001209
1257.000000	0.001159
1256.000000	0.001125
1255.000000	0.001122
1254.000000	0.001148
1253.000000	0.001183
1252.000000	0.001200
1251.000000	0.001191
1250.000000	0.001169
1249.000000	0.001152
1248.000000	0.001142
1247.000000	0.001130
1246.000000	0.001111
1245.000000	0.001092
1244.000000	0.001085
1243.000000	0.001089
1242.000000	0.001090
1241.000000	0.001077
1240.000000	0.001052
1239.000000	0.001029
1238.000000	0.001016
1237.000000	0.001005
1236.000000	0.000981
1235.000000	0.000943
1234.000000	0.000898
1233.000000	0.000856
1232.000000	0.000816
1231.000000	0.000774
1230.000000	0.000729
1229.000000	0.000685
1228.000000	0.000649
1227.000000	0.000621
1226.000000	0.000595
1225.000000	0.000557
1224.000000	0.000499
1223.000000	0.000432
1222.000000	0.000371
1221.000000	0.000324
1220.000000	0.000290
1219.000000	0.000263
1218.000000	0.000236
1217.000000	0.000200
1216.000000	0.000149
1215.000000	0.000097
1214.000000	0.000074
1213.000000	0.000095
1212.000000	0.000148
1211.000000	0.000204
1210.000000	0.000245
1209.000000	0.000275
1208.000000	0.000300
1207.000000	0.000326
1206.000000	0.000356
1205.000000	0.000395
1204.000000	0.000445
1203.000000	0.000503
1202.000000	0.000561
1201.000000	0.000613
1200.000000	0.000645
1199.000000	0.000653
1198.000000	0.000639
1197.000000	0.000615
1196.000000	0.000591
1195.000000	0.000564
1194.000000	0.000525
1193.000000	0.000471
1192.000000	0.000409
1191.000000	0.000350
1190.000000	0.000292
1189.000000	0.000231
1188.000000	0.000167
1187.000000	0.000112
1186.000000	0.000075
1185.000000	0.000057
1184.000000	0.000055
1183.000000	0.000076
1182.000000	0.000132
1181.000000	0.000223
1180.000000	0.000331
1179.000000	0.000433
1178.000000	0.000524
1177.000000	0.000612
1176.000000	0.000711
1175.000000	0.000825
1174.000000	0.000952
1173.000000	0.001083
1172.000000	0.001210
1171.000000	0.001337
1170.000000	0.001477
1169.000000	0.001643
1168.000000	0.001830
1167.000000	0.002020
1166.000000	0.002200
1165.000000	0.002369
1164.000000	0.002538
1163.000000	0.002718
1162.000000	0.002909
1161.000000	0.003100
1160.000000	0.003279
1159.000000	0.003439
1158.000000	0.003573
1157.000000	0.003684
1156.000000	0.003778
1155.000000	0.003868
1154.000000	0.003958
1153.000000	0.004033
1152.000000	0.004069
1151.000000	0.004068
1150.000000	0.004058
1149.000000	0.004067
1148.000000	0.004091
1147.000000	0.004112
1146.000000	0.004125
1145.000000	0.004134
1144.000000	0.004134
1143.000000	0.004112
1142.000000	0.004066
1141.000000	0.004010
1140.000000	0.003959
1139.000000	0.003920
1138.000000	0.003889
1137.000000	0.003861
1136.000000	0.003825
1135.000000	0.003773
1134.000000	0.003709
1133.000000	0.003648
1132.000000	0.003612
1131.000000	0.003615
1130.000000	0.003672
1129.000000	0.003781
1128.000000	0.003926
1127.000000	0.004085
1126.000000	0.004241
1125.000000	0.004380
1124.000000	0.004477
1123.000000	0.004523
1122.000000	0.004534
1121.000000	0.004546
1120.000000	0.004578
1119.000000	0.004614
1118.000000	0.004629
1117.000000	0.004618
1116.000000	0.004599
1115.000000	0.004597
1114.000000	0.004624
1113.000000	0.004675
1112.000000	0.004735
1111.000000	0.004796
1110.000000	0.004866
1109.000000	0.004948
1108.000000	0.005035
1107.000000	0.005105
1106.000000	0.005145
1105.000000	0.005160
1104.000000	0.005167
1103.000000	0.005197
1102.000000	0.005278
1101.000000	0.005413
1100.000000	0.005575
1099.000000	0.005729
1098.000000	0.005870
1097.000000	0.006016
1096.000000	0.006170
1095.000000	0.006314
1094.000000	0.006437
1093.000000	0.006546
1092.000000	0.006658
1091.000000	0.006773
1090.000000	0.006873
1089.000000	0.006938
1088.000000	0.006958
1087.000000	0.006940
1086.000000	0.006911
1085.000000	0.006894
1084.000000	0.006895
1083.000000	0.006906
1082.000000	0.006928
1081.000000	0.006960
1080.000000	0.006993
1079.000000	0.007017
1078.000000	0.007029
1077.000000	0.007029
1076.000000	0.007002
1075.000000	0.006947
1074.000000	0.006889
1073.000000	0.006850
1072.000000	0.006823
1071.000000	0.006785
1070.000000	0.006749
1069.000000	0.006756
1068.000000	0.006816
1067.000000	0.006883
1066.000000	0.006907
1065.000000	0.006883
1064.000000	0.006837
1063.000000	0.006788
1062.000000	0.006749
1061.000000	0.006734
1060.000000	0.006759
1059.000000	0.006818
1058.000000	0.006888
1057.000000	0.006946
1056.000000	0.006989
1055.000000	0.007023
1054.000000	0.007055
1053.000000	0.007083
1052.000000	0.007099
1051.000000	0.007113
1050.000000	0.007147
1049.000000	0.007213
1048.000000	0.007291
1047.000000	0.007358
1046.000000	0.007412
1045.000000	0.007472
1044.000000	0.007545
1043.000000	0.007624
1042.000000	0.007714
1041.000000	0.007824
1040.000000	0.007945
1039.000000	0.008052
1038.000000	0.008139
1037.000000	0.008231
1036.000000	0.008342
1035.000000	0.008461
1034.000000	0.008574
1033.000000	0.008681
1032.000000	0.008785
1031.000000	0.008871
1030.000000	0.008929
1029.000000	0.008971
1028.000000	0.009011
1027.000000	0.009042
1026.000000	0.009056
1025.000000	0.009061
1024.000000	0.009074
1023.000000	0.009098
1022.000000	0.009124
1021.000000	0.009146
1020.000000	0.009166
1019.000000	0.009186
1018.000000	0.009208
1017.000000	0.009231
1016.000000	0.009252
1015.000000	0.009268
1014.000000	0.009287
1013.000000	0.009315
1012.000000	0.009336
1011.000000	0.009322
1010.000000	0.009261
1009.000000	0.009176
1008.000000	0.009093
1007.000000	0.009024
1006.000000	0.008972
1005.000000	0.008945
1004.000000	0.008946
1003.000000	0.008957
1002.000000	0.008952
1001.000000	0.008919
1000.000000	0.008868
999.000000	0.008817
998.000000	0.008788
997.000000	0.008789
996.000000	0.008812
995.000000	0.008828
994.000000	0.008815
993.000000	0.008775
992.000000	0.008723
991.000000	0.008664
990.000000	0.008601
989.000000	0.008544
988.000000	0.008509
987.000000	0.008497
986.000000	0.008490
985.000000	0.008467
984.000000	0.008409
983.000000	0.008309
982.000000	0.008169
981.000000	0.008008
980.000000	0.007855
979.000000	0.007728
978.000000	0.007618
977.000000	0.007505
976.000000	0.007377
975.000000	0.007246
974.000000	0.007132
973.000000	0.007039
972.000000	0.006942
971.000000	0.006812
970.000000	0.006641
969.000000	0.006447
968.000000	0.006256
967.000000	0.006087
966.000000	0.005942
965.000000	0.005803
964.000000	0.005648
963.000000	0.005479
962.000000	0.005331
961.000000	0.005243
960.000000	0.005202
959.000000	0.005150
958.000000	0.005040
957.000000	0.004884
956.000000	0.004726
955.000000	0.004594
954.000000	0.004482
953.000000	0.004373
952.000000	0.004262
951.000000	0.004157
950.000000	0.004061
949.000000	0.003966
948.000000	0.003854
947.000000	0.003718
946.000000	0.003566
945.000000	0.003418
944.000000	0.003285
943.000000	0.003168
942.000000	0.003062
941.000000	0.002961
940.000000	0.002853
939.000000	0.002727
938.000000	0.002596
937.000000	0.002492
936.000000	0.002430
935.000000	0.002392
934.000000	0.002345
933.000000	0.002275
932.000000	0.002194
931.000000	0.002117
930.000000	0.002049
929.000000	0.001990
928.000000	0.001937
927.000000	0.001890
926.000000	0.001852
925.000000	0.001827
924.000000	0.001809
923.000000	0.001781
922.000000	0.001735
921.000000	0.001681
920.000000	0.001639
919.000000	0.001616
918.000000	0.001605
917.000000	0.001600
916.000000	0.001596
915.000000	0.001575
914.000000	0.001526
913.000000	0.001465
912.000000	0.001430
911.000000	0.001442
910.000000	0.001488
909.000000	0.001541
908.000000	0.001587
907.000000	0.001626
906.000000	0.001657
905.000000	0.001681
904.000000	0.001700
903.000000	0.001714
902.000000	0.001717
901.000000	0.001703
900.000000	0.001673
899.000000	0.001626
898.000000	0.001560
897.000000	0.001477
896.000000	0.001393
895.000000	0.001323
894.000000	0.001268
893.000000	0.001212
892.000000	0.001143
891.000000	0.001059
890.000000	0.000963
889.000000	0.000865
888.000000	0.000788
887.000000	0.000755
886.000000	0.000764
885.000000	0.000784
884.000000	0.000791
883.000000	0.000792
882.000000	0.000819
881.000000	0.000890
880.000000	0.000998
879.000000	0.001128
878.000000	0.001272
877.000000	0.001415
876.000000	0.001530
875.000000	0.001589
874.000000	0.001576
873.000000	0.001488
872.000000	0.001334
871.000000	0.001134
870.000000	0.000918
869.000000	0.000704
868.000000	0.000501
867.000000	0.000327
866.000000	0.000211
865.000000	0.000158
864.000000	0.000133
863.000000	0.000087
862.000000	0.000003
861.000000	-0.000100
860.000000	-0.000194
859.000000	-0.000259
858.000000	-0.000282
857.000000	-0.000262
856.000000	-0.000215
855.000000	-0.000174
854.000000	-0.000163
853.000000	-0.000175
852.000000	-0.000192
851.000000	-0.000200
850.000000	-0.000201
849.000000	-0.000208
848.000000	-0.000227
847.000000	-0.000252
846.000000	-0.000263
845.000000	-0.000242
844.000000	-0.000192
843.000000	-0.000121
842.000000	-0.000029
841.000000	0.000090
840.000000	0.000218
839.000000	0.000318
838.000000	0.000366
837.000000	0.000374
836.000000	0.000368
835.000000	0.000359
834.000000	0.000336
833.000000	0.000293
832.000000	0.000234
831.000000	0.000163
830.000000	0.000095
829.000000	0.000042
828.000000	0.000001
827.000000	-0.000055
826.000000	-0.000138
825.000000	-0.000219
824.000000	-0.000248
823.000000	-0.000219
822.000000	-0.000180
821.000000	-0.000190
820.000000	-0.000260
819.000000	-0.000341
818.000000	-0.000372
817.000000	-0.000339
816.000000	-0.000272
815.000000	-0.000218
814.000000	-0.000190
813.000000	-0.000171
812.000000	-0.000151
811.000000	-0.000133
810.000000	-0.000127
809.000000	-0.000132
808.000000	-0.000145
807.000000	-0.000167
806.000000	-0.000186
805.000000	-0.000185
804.000000	-0.000167
803.000000	-0.000163
802.000000	-0.000190
801.000000	-0.000224
800.000000	-0.000227
799.000000	-0.000188
798.000000	-0.000134
797.000000	-0.000088
796.000000	-0.000049
795.000000	-0.000008
794.000000	0.000036
793.000000	0.000070
792.000000	0.000081
791.000000	0.000068
790.000000	0.000051
789.000000	0.000054
788.000000	0.000074
787.000000	0.000088
786.000000	0.000079
785.000000	0.000065
784.000000	0.000074
783.000000	0.000114
782.000000	0.000178
781.000000	0.000264
780.000000	0.000365
779.000000	0.000454
778.000000	0.000502
777.000000	0.000506
776.000000	0.000490
775.000000	0.000471
774.000000	0.000444
773.000000	0.000406
772.000000	0.000364
771.000000	0.000325
770.000000	0.000294
769.000000	0.000288
768.000000	0.000317
767.000000	0.000357
766.000000	0.000350
765.000000	0.000269
764.000000	0.000153
763.000000	0.000068
762.000000	0.000045
761.000000	0.000065
760.000000	0.000102
759.000000	0.000144
758.000000	0.000194
757.000000	0.000246
756.000000	0.000281
755.000000	0.000281
754.000000	0.000237
753.000000	0.000171
752.000000	0.000115
751.000000	0.000089
750.000000	0.000070
749.000000	0.000031
748.000000	-0.000026
747.000000	-0.000068
746.000000	-0.000074
745.000000	-0.000057
744.000000	-0.000049
743.000000	-0.000055
742.000000	-0.000064
741.000000	-0.000068
740.000000	-0.000079
739.000000	-0.000110
738.000000	-0.000158
737.000000	-0.000201
736.000000	-0.000231
735.000000	-0.000258
734.000000	-0.000289
733.000000	-0.000312
732.000000	-0.000310
731.000000	-0.000285
730.000000	-0.000252
729.000000	-0.000215
728.000000	-0.000166
727.000000	-0.000117
726.000000	-0.000101
725.000000	-0.000130
724.000000	-0.000180
723.000000	-0.000221
722.000000	-0.000243
721.000000	-0.000250
720.000000	-0.000239
719.000000	-0.000211
718.000000	-0.000180
717.000000	-0.000164
716.000000	-0.000151
715.000000	-0.000125
714.000000	-0.000087
713.000000	-0.000057
712.000000	-0.000034
711.000000	0.000001
710.000000	0.000045
709.000000	0.000068
708.000000	0.000046
707.000000	-0.000011
706.000000	-0.000070
705.000000	-0.000110
704.000000	-0.000132
703.000000	-0.000149
702.000000	-0.000170
701.000000	-0.000202
700.000000	-0.000244
699.000000	-0.000293
698.000000	-0.000334
697.000000	-0.000342
696.000000	-0.000295
695.000000	-0.000207
694.000000	-0.000120
693.000000	-0.000073
692.000000	-0.000052
691.000000	-0.000022
690.000000	0.000018
689.000000	0.000037
688.000000	0.000035
687.000000	0.000087
686.000000	0.000269
685.000000	0.000580
684.000000	0.000939
683.000000	0.001254
682.000000	0.001469
681.000000	0.001581
680.000000	0.001640
679.000000	0.001703
678.000000	0.001772
677.000000	0.001796
676.000000	0.001730
675.000000	0.001575
674.000000	0.001361
673.000000	0.001116
672.000000	0.000864
671.000000	0.000625
670.000000	0.000394
669.000000	0.000173
668.000000	0.000110
667.000000	0.000313
666.000000	0.000471
665.000000	0.000517
664.000000	0.000567
663.000000	0.000642
662.000000	0.000713
661.000000	0.000768
660.000000	0.000827
659.000000	0.000913
658.000000	0.001010
657.000000	0.001073
656.000000	0.001050
655.000000	0.000929
654.000000	0.000760
653.000000	0.000602
652.000000	0.000444
651.000000	0.000248
650.000000	0.000046
649.000000	-0.000061
648.000000	-0.000008
647.000000	0.000179
646.000000	0.000420
645.000000	0.000618
644.000000	0.000682
643.000000	0.000583
642.000000	0.000394
641.000000	0.000236
640.000000	0.000164
639.000000	0.000143
638.000000	0.000136
637.000000	0.000148
636.000000	0.000174
635.000000	0.000181
634.000000	0.000158
633.000000	0.000133
632.000000	0.000123
631.000000	0.000090
630.000000	0.000000
629.000000	-0.000117
628.000000	-0.000191
627.000000	-0.000180
626.000000	-0.000101
625.000000	-0.000019
624.000000	-0.000003
623.000000	-0.000074
622.000000	-0.000164
621.000000	-0.000181
620.000000	-0.000095
619.000000	0.000035
618.000000	0.000129
617.000000	0.000160
616.000000	0.000155
615.000000	0.000162
614.000000	0.000229
613.000000	0.000381
612.000000	0.000591
611.000000	0.000781
610.000000	0.000887
609.000000	0.000914
608.000000	0.000913
607.000000	0.000932
606.000000	0.000993
605.000000	0.001090
604.000000	0.001188
603.000000	0.001249
602.000000	0.001261
601.000000	0.001248
600.000000	0.001235
599.000000	0.001235
598.000000	0.001255
597.000000	0.001302
596.000000	0.001368
595.000000	0.001433
594.000000	0.001475
593.000000	0.001484
592.000000	0.001458
591.000000	0.001406
590.000000	0.001338
589.000000	0.001243
588.000000	0.001096
587.000000	0.000911
586.000000	0.000753
585.000000	0.000673
584.000000	0.000634
583.000000	0.000563
582.000000	0.000450
581.000000	0.000359
580.000000	0.000337
579.000000	0.000353
578.000000	0.000339
577.000000	0.000269
576.000000	0.000177
575.000000	0.000129
574.000000	0.000177
573.000000	0.000311
572.000000	0.000458
571.000000	0.000537
570.000000	0.000532
569.000000	0.000483
568.000000	0.000418
567.000000	0.000320
566.000000	0.000181
565.000000	0.000052
564.000000	-0.000002
563.000000	0.000033
562.000000	0.000112
561.000000	0.000198
560.000000	0.000312
559.000000	0.000498
558.000000	0.000741
557.000000	0.000930
556.000000	0.000936
555.000000	0.000745
554.000000	0.000499
553.000000	0.000368
552.000000	0.000396
551.000000	0.000501
550.000000	0.000599
549.000000	0.000664
548.000000	0.000688
547.000000	0.000668
546.000000	0.000648
545.000000	0.000717
544.000000	0.000891
543.000000	0.001061
542.000000	0.001098
541.000000	0.001004
540.000000	0.000905
539.000000	0.000906
538.000000	0.000987
537.000000	0.001053
536.000000	0.001041
535.000000	0.000994
534.000000	0.001003
533.000000	0.001093
532.000000	0.001163
531.000000	0.001087
530.000000	0.000868
529.000000	0.000649
528.000000	0.000549
527.000000	0.000570
526.000000	0.000657
525.000000	0.000785
524.000000	0.000952
523.000000	0.001117
522.000000	0.001205
521.000000	0.001157
520.000000	0.000942
519.000000	0.000588
518.000000	0.000236
517.000000	0.000090
516.000000	0.000239
515.000000	0.000549
514.000000	0.000804
513.000000	0.000915
512.000000	0.000941
511.000000	0.000957
510.000000	0.000947
509.000000	0.000854
508.000000	0.000646
507.000000	0.000362
506.000000	0.000072
505.000000	-0.000187
504.000000	-0.000421
503.000000	-0.000598
502.000000	-0.000618
501.000000	-0.000437
500.000000	-0.000178
499.000000	-0.000006
498.000000	0.000052
497.000000	0.000077
496.000000	0.000099
495.000000	0.000045
494.000000	-0.000108
493.000000	-0.000241
492.000000	-0.000243
491.000000	-0.000137
490.000000	0.000002
489.000000	0.000170
488.000000	0.000365
487.000000	0.000477
486.000000	0.000385
485.000000	0.000161
484.000000	0.000047
483.000000	0.000168
482.000000	0.000384
481.000000	0.000452
480.000000	0.000296
479.000000	0.000070
478.000000	-0.000039
477.000000	-0.000009
476.000000	0.000028
475.000000	-0.000009
474.000000	-0.000029
473.000000	0.000128
472.000000	0.000442
471.000000	0.000678
470.000000	0.000639
469.000000	0.000326
468.000000	-0.000115
467.000000	-0.000483
466.000000	-0.000601
465.000000	-0.000423
464.000000	-0.000107
463.000000	0.000087
462.000000	0.000028
461.000000	-0.000170
460.000000	-0.000317
459.000000	-0.000364
458.000000	-0.000372
457.000000	-0.000349
456.000000	-0.000249
455.000000	-0.000124
454.000000	-0.000106
453.000000	-0.000258
452.000000	-0.000491
451.000000	-0.000631
450.000000	-0.000581
