PE IR       SUBTECH     SPECTRUM    ASCII       PEDS        4.00        
   -1
P12-Noir006_1.ASC
23/06/09
11:42:05.00
23/06/09
11:56:02.00
uco
Sample 006 By uco Date Friday, June 09 2023
450.000000
#HDR
-1
-1
#GR
cm-1
A
1.0
0.0
4000.000000
-1.000000
3551
8
0.006907
-0.000596
#DATA
4000.000000	0.000432
3999.000000	0.000445
3998.000000	0.000465
3997.000000	0.000482
3996.000000	0.000489
3995.000000	0.000486
3994.000000	0.000475
3993.000000	0.000466
3992.000000	0.000467
3991.000000	0.000480
3990.000000	0.000500
3989.000000	0.000512
3988.000000	0.000510
3987.000000	0.000496
3986.000000	0.000484
3985.000000	0.000484
3984.000000	0.000497
3983.000000	0.000515
3982.000000	0.000530
3981.000000	0.000537
3980.000000	0.000537
3979.000000	0.000532
3978.000000	0.000524
3977.000000	0.000517
3976.000000	0.000511
3975.000000	0.000507
3974.000000	0.000504
3973.000000	0.000503
3972.000000	0.000503
3971.000000	0.000503
3970.000000	0.000506
3969.000000	0.000514
3968.000000	0.000529
3967.000000	0.000547
3966.000000	0.000565
3965.000000	0.000578
3964.000000	0.000582
3963.000000	0.000576
3962.000000	0.000560
3961.000000	0.000541
3960.000000	0.000524
3959.000000	0.000519
3958.000000	0.000528
3957.000000	0.000544
3956.000000	0.000555
3955.000000	0.000551
3954.000000	0.000535
3953.000000	0.000519
3952.000000	0.000514
3951.000000	0.000518
3950.000000	0.000524
3949.000000	0.000523
3948.000000	0.000519
3947.000000	0.000520
3946.000000	0.000529
3945.000000	0.000541
3944.000000	0.000550
3943.000000	0.000554
3942.000000	0.000553
3941.000000	0.000550
3940.000000	0.000546
3939.000000	0.000549
3938.000000	0.000558
3937.000000	0.000571
3936.000000	0.000581
3935.000000	0.000583
3934.000000	0.000580
3933.000000	0.000575
3932.000000	0.000568
3931.000000	0.000558
3930.000000	0.000544
3929.000000	0.000532
3928.000000	0.000524
3927.000000	0.000524
3926.000000	0.000530
3925.000000	0.000542
3924.000000	0.000558
3923.000000	0.000568
3922.000000	0.000571
3921.000000	0.000569
3920.000000	0.000570
3919.000000	0.000575
3918.000000	0.000577
3917.000000	0.000572
3916.000000	0.000563
3915.000000	0.000558
3914.000000	0.000558
3913.000000	0.000559
3912.000000	0.000559
3911.000000	0.000555
3910.000000	0.000548
3909.000000	0.000537
3908.000000	0.000523
3907.000000	0.000502
3906.000000	0.000476
3905.000000	0.000449
3904.000000	0.000439
3903.000000	0.000458
3902.000000	0.000496
3901.000000	0.000532
3900.000000	0.000554
3899.000000	0.000558
3898.000000	0.000551
3897.000000	0.000539
3896.000000	0.000527
3895.000000	0.000519
3894.000000	0.000511
3893.000000	0.000498
3892.000000	0.000488
3891.000000	0.000496
3890.000000	0.000522
3889.000000	0.000549
3888.000000	0.000561
3887.000000	0.000547
3886.000000	0.000526
3885.000000	0.000521
3884.000000	0.000533
3883.000000	0.000543
3882.000000	0.000537
3881.000000	0.000516
3880.000000	0.000499
3879.000000	0.000497
3878.000000	0.000508
3877.000000	0.000520
3876.000000	0.000519
3875.000000	0.000504
3874.000000	0.000492
3873.000000	0.000493
3872.000000	0.000500
3871.000000	0.000504
3870.000000	0.000519
3869.000000	0.000556
3868.000000	0.000603
3867.000000	0.000638
3866.000000	0.000653
3865.000000	0.000650
3864.000000	0.000639
3863.000000	0.000621
3862.000000	0.000600
3861.000000	0.000581
3860.000000	0.000561
3859.000000	0.000540
3858.000000	0.000527
3857.000000	0.000541
3856.000000	0.000570
3855.000000	0.000561
3854.000000	0.000518
3853.000000	0.000507
3852.000000	0.000538
3851.000000	0.000574
3850.000000	0.000593
3849.000000	0.000596
3848.000000	0.000590
3847.000000	0.000583
3846.000000	0.000581
3845.000000	0.000585
3844.000000	0.000590
3843.000000	0.000590
3842.000000	0.000576
3841.000000	0.000547
3840.000000	0.000511
3839.000000	0.000484
3838.000000	0.000477
3837.000000	0.000486
3836.000000	0.000503
3835.000000	0.000522
3834.000000	0.000544
3833.000000	0.000563
3832.000000	0.000576
3831.000000	0.000584
3830.000000	0.000592
3829.000000	0.000597
3828.000000	0.000595
3827.000000	0.000584
3826.000000	0.000574
3825.000000	0.000576
3824.000000	0.000589
3823.000000	0.000589
3822.000000	0.000573
3821.000000	0.000566
3820.000000	0.000577
3819.000000	0.000593
3818.000000	0.000599
3817.000000	0.000587
3816.000000	0.000574
3815.000000	0.000575
3814.000000	0.000578
3813.000000	0.000565
3812.000000	0.000538
3811.000000	0.000513
3810.000000	0.000504
3809.000000	0.000495
3808.000000	0.000468
3807.000000	0.000434
3806.000000	0.000415
3805.000000	0.000418
3804.000000	0.000439
3803.000000	0.000464
3802.000000	0.000502
3801.000000	0.000562
3800.000000	0.000619
3799.000000	0.000649
3798.000000	0.000647
3797.000000	0.000627
3796.000000	0.000605
3795.000000	0.000590
3794.000000	0.000579
3793.000000	0.000568
3792.000000	0.000560
3791.000000	0.000562
3790.000000	0.000571
3789.000000	0.000585
3788.000000	0.000598
3787.000000	0.000604
3786.000000	0.000598
3785.000000	0.000578
3784.000000	0.000554
3783.000000	0.000538
3782.000000	0.000535
3781.000000	0.000537
3780.000000	0.000544
3779.000000	0.000561
3778.000000	0.000583
3777.000000	0.000597
3776.000000	0.000594
3775.000000	0.000580
3774.000000	0.000574
3773.000000	0.000578
3772.000000	0.000583
3771.000000	0.000585
3770.000000	0.000592
3769.000000	0.000609
3768.000000	0.000625
3767.000000	0.000630
3766.000000	0.000623
3765.000000	0.000616
3764.000000	0.000616
3763.000000	0.000622
3762.000000	0.000622
3761.000000	0.000616
3760.000000	0.000613
3759.000000	0.000617
3758.000000	0.000619
3757.000000	0.000602
3756.000000	0.000569
3755.000000	0.000529
3754.000000	0.000490
3753.000000	0.000458
3752.000000	0.000453
3751.000000	0.000492
3750.000000	0.000555
3749.000000	0.000596
3748.000000	0.000608
3747.000000	0.000609
3746.000000	0.000595
3745.000000	0.000574
3744.000000	0.000578
3743.000000	0.000590
3742.000000	0.000572
3741.000000	0.000526
3740.000000	0.000480
3739.000000	0.000463
3738.000000	0.000480
3737.000000	0.000519
3736.000000	0.000570
3735.000000	0.000621
3734.000000	0.000648
3733.000000	0.000638
3732.000000	0.000609
3731.000000	0.000583
3730.000000	0.000572
3729.000000	0.000573
3728.000000	0.000578
3727.000000	0.000584
3726.000000	0.000592
3725.000000	0.000601
3724.000000	0.000604
3723.000000	0.000598
3722.000000	0.000584
3721.000000	0.000561
3720.000000	0.000530
3719.000000	0.000497
3718.000000	0.000468
3717.000000	0.000454
3716.000000	0.000461
3715.000000	0.000490
3714.000000	0.000535
3713.000000	0.000586
3712.000000	0.000637
3711.000000	0.000683
3710.000000	0.000713
3709.000000	0.000716
3708.000000	0.000690
3707.000000	0.000644
3706.000000	0.000592
3705.000000	0.000543
3704.000000	0.000502
3703.000000	0.000475
3702.000000	0.000470
3701.000000	0.000489
3700.000000	0.000521
3699.000000	0.000548
3698.000000	0.000558
3697.000000	0.000552
3696.000000	0.000546
3695.000000	0.000557
3694.000000	0.000583
3693.000000	0.000602
3692.000000	0.000592
3691.000000	0.000551
3690.000000	0.000504
3689.000000	0.000488
3688.000000	0.000514
3687.000000	0.000553
3686.000000	0.000569
3685.000000	0.000553
3684.000000	0.000529
3683.000000	0.000527
3682.000000	0.000549
3681.000000	0.000566
3680.000000	0.000556
3679.000000	0.000526
3678.000000	0.000485
3677.000000	0.000424
3676.000000	0.000370
3675.000000	0.000369
3674.000000	0.000408
3673.000000	0.000452
3672.000000	0.000482
3671.000000	0.000501
3670.000000	0.000531
3669.000000	0.000577
3668.000000	0.000613
3667.000000	0.000628
3666.000000	0.000634
3665.000000	0.000639
3664.000000	0.000648
3663.000000	0.000653
3662.000000	0.000647
3661.000000	0.000633
3660.000000	0.000628
3659.000000	0.000644
3658.000000	0.000669
3657.000000	0.000675
3656.000000	0.000654
3655.000000	0.000625
3654.000000	0.000606
3653.000000	0.000599
3652.000000	0.000591
3651.000000	0.000583
3650.000000	0.000603
3649.000000	0.000659
3648.000000	0.000716
3647.000000	0.000742
3646.000000	0.000738
3645.000000	0.000723
3644.000000	0.000713
3643.000000	0.000716
3642.000000	0.000728
3641.000000	0.000734
3640.000000	0.000722
3639.000000	0.000700
3638.000000	0.000687
3637.000000	0.000692
3636.000000	0.000711
3635.000000	0.000733
3634.000000	0.000752
3633.000000	0.000774
3632.000000	0.000803
3631.000000	0.000830
3630.000000	0.000844
3629.000000	0.000858
3628.000000	0.000874
3627.000000	0.000871
3626.000000	0.000847
3625.000000	0.000818
3624.000000	0.000801
3623.000000	0.000803
3622.000000	0.000814
3621.000000	0.000816
3620.000000	0.000811
3619.000000	0.000824
3618.000000	0.000863
3617.000000	0.000912
3616.000000	0.000949
3615.000000	0.000975
3614.000000	0.001004
3613.000000	0.001051
3612.000000	0.001112
3611.000000	0.001166
3610.000000	0.001197
3609.000000	0.001204
3608.000000	0.001196
3607.000000	0.001181
3606.000000	0.001162
3605.000000	0.001142
3604.000000	0.001129
3603.000000	0.001130
3602.000000	0.001140
3601.000000	0.001151
3600.000000	0.001159
3599.000000	0.001166
3598.000000	0.001176
3597.000000	0.001186
3596.000000	0.001199
3595.000000	0.001221
3594.000000	0.001252
3593.000000	0.001281
3592.000000	0.001299
3591.000000	0.001302
3590.000000	0.001289
3589.000000	0.001264
3588.000000	0.001248
3587.000000	0.001260
3586.000000	0.001293
3585.000000	0.001330
3584.000000	0.001361
3583.000000	0.001390
3582.000000	0.001421
3581.000000	0.001447
3580.000000	0.001464
3579.000000	0.001474
3578.000000	0.001482
3577.000000	0.001487
3576.000000	0.001486
3575.000000	0.001476
3574.000000	0.001460
3573.000000	0.001443
3572.000000	0.001434
3571.000000	0.001438
3570.000000	0.001448
3569.000000	0.001451
3568.000000	0.001444
3567.000000	0.001448
3566.000000	0.001476
3565.000000	0.001522
3564.000000	0.001572
3563.000000	0.001616
3562.000000	0.001647
3561.000000	0.001663
3560.000000	0.001665
3559.000000	0.001661
3558.000000	0.001655
3557.000000	0.001646
3556.000000	0.001640
3555.000000	0.001643
3554.000000	0.001661
3553.000000	0.001691
3552.000000	0.001728
3551.000000	0.001766
3550.000000	0.001797
3549.000000	0.001811
3548.000000	0.001807
3547.000000	0.001794
3546.000000	0.001788
3545.000000	0.001792
3544.000000	0.001806
3543.000000	0.001831
3542.000000	0.001865
3541.000000	0.001897
3540.000000	0.001919
3539.000000	0.001928
3538.000000	0.001933
3537.000000	0.001939
3536.000000	0.001954
3535.000000	0.001980
3534.000000	0.002012
3533.000000	0.002037
3532.000000	0.002048
3531.000000	0.002050
3530.000000	0.002053
3529.000000	0.002064
3528.000000	0.002082
3527.000000	0.002103
3526.000000	0.002118
3525.000000	0.002121
3524.000000	0.002114
3523.000000	0.002102
3522.000000	0.002088
3521.000000	0.002078
3520.000000	0.002081
3519.000000	0.002100
3518.000000	0.002128
3517.000000	0.002147
3516.000000	0.002151
3515.000000	0.002149
3514.000000	0.002153
3513.000000	0.002164
3512.000000	0.002177
3511.000000	0.002194
3510.000000	0.002212
3509.000000	0.002222
3508.000000	0.002216
3507.000000	0.002191
3506.000000	0.002159
3505.000000	0.002133
3504.000000	0.002129
3503.000000	0.002154
3502.000000	0.002196
3501.000000	0.002232
3500.000000	0.002242
3499.000000	0.002230
3498.000000	0.002214
3497.000000	0.002208
3496.000000	0.002219
3495.000000	0.002239
3494.000000	0.002256
3493.000000	0.002263
3492.000000	0.002269
3491.000000	0.002287
3490.000000	0.002317
3489.000000	0.002348
3488.000000	0.002369
3487.000000	0.002384
3486.000000	0.002399
3485.000000	0.002414
3484.000000	0.002424
3483.000000	0.002426
3482.000000	0.002425
3481.000000	0.002426
3480.000000	0.002435
3479.000000	0.002455
3478.000000	0.002481
3477.000000	0.002508
3476.000000	0.002527
3475.000000	0.002534
3474.000000	0.002525
3473.000000	0.002500
3472.000000	0.002463
3471.000000	0.002432
3470.000000	0.002423
3469.000000	0.002437
3468.000000	0.002465
3467.000000	0.002491
3466.000000	0.002502
3465.000000	0.002497
3464.000000	0.002485
3463.000000	0.002481
3462.000000	0.002493
3461.000000	0.002515
3460.000000	0.002538
3459.000000	0.002553
3458.000000	0.002555
3457.000000	0.002546
3456.000000	0.002535
3455.000000	0.002535
3454.000000	0.002547
3453.000000	0.002561
3452.000000	0.002572
3451.000000	0.002582
3450.000000	0.002597
3449.000000	0.002612
3448.000000	0.002620
3447.000000	0.002621
3446.000000	0.002625
3445.000000	0.002642
3444.000000	0.002673
3443.000000	0.002715
3442.000000	0.002756
3441.000000	0.002783
3440.000000	0.002787
3439.000000	0.002774
3438.000000	0.002754
3437.000000	0.002734
3436.000000	0.002720
3435.000000	0.002717
3434.000000	0.002723
3433.000000	0.002728
3432.000000	0.002726
3431.000000	0.002723
3430.000000	0.002724
3429.000000	0.002729
3428.000000	0.002736
3427.000000	0.002747
3426.000000	0.002768
3425.000000	0.002797
3424.000000	0.002829
3423.000000	0.002861
3422.000000	0.002889
3421.000000	0.002905
3420.000000	0.002904
3419.000000	0.002887
3418.000000	0.002865
3417.000000	0.002849
3416.000000	0.002847
3415.000000	0.002858
3414.000000	0.002872
3413.000000	0.002880
3412.000000	0.002880
3411.000000	0.002879
3410.000000	0.002884
3409.000000	0.002901
3408.000000	0.002938
3407.000000	0.002992
3406.000000	0.003044
3405.000000	0.003068
3404.000000	0.003056
3403.000000	0.003024
3402.000000	0.002996
3401.000000	0.002982
3400.000000	0.002982
3399.000000	0.002993
3398.000000	0.003006
3397.000000	0.003012
3396.000000	0.003008
3395.000000	0.003007
3394.000000	0.003021
3393.000000	0.003050
3392.000000	0.003082
3391.000000	0.003109
3390.000000	0.003129
3389.000000	0.003138
3388.000000	0.003137
3387.000000	0.003131
3386.000000	0.003127
3385.000000	0.003131
3384.000000	0.003139
3383.000000	0.003146
3382.000000	0.003144
3381.000000	0.003128
3380.000000	0.003103
3379.000000	0.003083
3378.000000	0.003077
3377.000000	0.003084
3376.000000	0.003096
3375.000000	0.003109
3374.000000	0.003119
3373.000000	0.003126
3372.000000	0.003132
3371.000000	0.003143
3370.000000	0.003158
3369.000000	0.003170
3368.000000	0.003176
3367.000000	0.003178
3366.000000	0.003179
3365.000000	0.003178
3364.000000	0.003169
3363.000000	0.003156
3362.000000	0.003144
3361.000000	0.003136
3360.000000	0.003130
3359.000000	0.003128
3358.000000	0.003130
3357.000000	0.003135
3356.000000	0.003138
3355.000000	0.003135
3354.000000	0.003130
3353.000000	0.003127
3352.000000	0.003133
3351.000000	0.003149
3350.000000	0.003165
3349.000000	0.003174
3348.000000	0.003181
3347.000000	0.003197
3346.000000	0.003227
3345.000000	0.003260
3344.000000	0.003286
3343.000000	0.003301
3342.000000	0.003311
3341.000000	0.003317
3340.000000	0.003321
3339.000000	0.003330
3338.000000	0.003347
3337.000000	0.003364
3336.000000	0.003370
3335.000000	0.003361
3334.000000	0.003341
3333.000000	0.003320
3332.000000	0.003306
3331.000000	0.003303
3330.000000	0.003309
3329.000000	0.003322
3328.000000	0.003340
3327.000000	0.003364
3326.000000	0.003389
3325.000000	0.003401
3324.000000	0.003395
3323.000000	0.003376
3322.000000	0.003355
3321.000000	0.003338
3320.000000	0.003335
3319.000000	0.003356
3318.000000	0.003404
3317.000000	0.003461
3316.000000	0.003499
3315.000000	0.003500
3314.000000	0.003468
3313.000000	0.003421
3312.000000	0.003381
3311.000000	0.003360
3310.000000	0.003361
3309.000000	0.003372
3308.000000	0.003380
3307.000000	0.003376
3306.000000	0.003359
3305.000000	0.003340
3304.000000	0.003331
3303.000000	0.003340
3302.000000	0.003363
3301.000000	0.003385
3300.000000	0.003399
3299.000000	0.003403
3298.000000	0.003396
3297.000000	0.003379
3296.000000	0.003358
3295.000000	0.003347
3294.000000	0.003352
3293.000000	0.003370
3292.000000	0.003385
3291.000000	0.003390
3290.000000	0.003387
3289.000000	0.003384
3288.000000	0.003390
3287.000000	0.003410
3286.000000	0.003437
3285.000000	0.003461
3284.000000	0.003474
3283.000000	0.003483
3282.000000	0.003496
3281.000000	0.003512
3280.000000	0.003522
3279.000000	0.003515
3278.000000	0.003490
3277.000000	0.003454
3276.000000	0.003424
3275.000000	0.003417
3274.000000	0.003432
3273.000000	0.003452
3272.000000	0.003456
3271.000000	0.003441
3270.000000	0.003422
3269.000000	0.003416
3268.000000	0.003425
3267.000000	0.003442
3266.000000	0.003457
3265.000000	0.003463
3264.000000	0.003458
3263.000000	0.003449
3262.000000	0.003441
3261.000000	0.003435
3260.000000	0.003430
3259.000000	0.003421
3258.000000	0.003399
3257.000000	0.003363
3256.000000	0.003323
3255.000000	0.003291
3254.000000	0.003278
3253.000000	0.003284
3252.000000	0.003302
3251.000000	0.003325
3250.000000	0.003343
3249.000000	0.003346
3248.000000	0.003333
3247.000000	0.003313
3246.000000	0.003297
3245.000000	0.003285
3244.000000	0.003273
3243.000000	0.003263
3242.000000	0.003258
3241.000000	0.003262
3240.000000	0.003271
3239.000000	0.003283
3238.000000	0.003300
3237.000000	0.003320
3236.000000	0.003338
3235.000000	0.003342
3234.000000	0.003325
3233.000000	0.003291
3232.000000	0.003257
3231.000000	0.003239
3230.000000	0.003243
3229.000000	0.003264
3228.000000	0.003290
3227.000000	0.003311
3226.000000	0.003322
3225.000000	0.003325
3224.000000	0.003326
3223.000000	0.003329
3222.000000	0.003329
3221.000000	0.003324
3220.000000	0.003315
3219.000000	0.003306
3218.000000	0.003292
3217.000000	0.003269
3216.000000	0.003236
3215.000000	0.003204
3214.000000	0.003182
3213.000000	0.003176
3212.000000	0.003184
3211.000000	0.003202
3210.000000	0.003223
3209.000000	0.003238
3208.000000	0.003248
3207.000000	0.003256
3206.000000	0.003258
3205.000000	0.003250
3204.000000	0.003233
3203.000000	0.003219
3202.000000	0.003209
3201.000000	0.003193
3200.000000	0.003167
3199.000000	0.003136
3198.000000	0.003113
3197.000000	0.003102
3196.000000	0.003100
3195.000000	0.003101
3194.000000	0.003099
3193.000000	0.003091
3192.000000	0.003078
3191.000000	0.003071
3190.000000	0.003080
3189.000000	0.003100
3188.000000	0.003118
3187.000000	0.003117
3186.000000	0.003092
3185.000000	0.003052
3184.000000	0.003019
3183.000000	0.003008
3182.000000	0.003020
3181.000000	0.003041
3180.000000	0.003063
3179.000000	0.003082
3178.000000	0.003095
3177.000000	0.003093
3176.000000	0.003073
3175.000000	0.003046
3174.000000	0.003030
3173.000000	0.003032
3172.000000	0.003045
3171.000000	0.003058
3170.000000	0.003065
3169.000000	0.003064
3168.000000	0.003061
3167.000000	0.003056
3166.000000	0.003046
3165.000000	0.003028
3164.000000	0.003006
3163.000000	0.002994
3162.000000	0.002996
3161.000000	0.003001
3160.000000	0.002990
3159.000000	0.002964
3158.000000	0.002936
3157.000000	0.002924
3156.000000	0.002933
3155.000000	0.002955
3154.000000	0.002975
3153.000000	0.002979
3152.000000	0.002968
3151.000000	0.002950
3150.000000	0.002932
3149.000000	0.002914
3148.000000	0.002892
3147.000000	0.002868
3146.000000	0.002850
3145.000000	0.002836
3144.000000	0.002819
3143.000000	0.002796
3142.000000	0.002769
3141.000000	0.002749
3140.000000	0.002745
3139.000000	0.002761
3138.000000	0.002784
3137.000000	0.002799
3136.000000	0.002793
3135.000000	0.002772
3134.000000	0.002752
3133.000000	0.002745
3132.000000	0.002756
3131.000000	0.002777
3130.000000	0.002794
3129.000000	0.002794
3128.000000	0.002776
3127.000000	0.002747
3126.000000	0.002718
3125.000000	0.002696
3124.000000	0.002683
3123.000000	0.002681
3122.000000	0.002691
3121.000000	0.002709
3120.000000	0.002727
3119.000000	0.002740
3118.000000	0.002744
3117.000000	0.002738
3116.000000	0.002723
3115.000000	0.002705
3114.000000	0.002689
3113.000000	0.002674
3112.000000	0.002660
3111.000000	0.002650
3110.000000	0.002650
3109.000000	0.002660
3108.000000	0.002670
3107.000000	0.002673
3106.000000	0.002667
3105.000000	0.002660
3104.000000	0.002660
3103.000000	0.002667
3102.000000	0.002669
3101.000000	0.002658
3100.000000	0.002637
3099.000000	0.002611
3098.000000	0.002584
3097.000000	0.002556
3096.000000	0.002537
3095.000000	0.002542
3094.000000	0.002573
3093.000000	0.002617
3092.000000	0.002650
3091.000000	0.002659
3090.000000	0.002643
3089.000000	0.002609
3088.000000	0.002574
3087.000000	0.002553
3086.000000	0.002555
3085.000000	0.002574
3084.000000	0.002598
3083.000000	0.002617
3082.000000	0.002627
3081.000000	0.002627
3080.000000	0.002615
3079.000000	0.002601
3078.000000	0.002590
3077.000000	0.002584
3076.000000	0.002581
3075.000000	0.002580
3074.000000	0.002583
3073.000000	0.002588
3072.000000	0.002588
3071.000000	0.002583
3070.000000	0.002575
3069.000000	0.002569
3068.000000	0.002566
3067.000000	0.002564
3066.000000	0.002564
3065.000000	0.002567
3064.000000	0.002570
3063.000000	0.002570
3062.000000	0.002564
3061.000000	0.002553
3060.000000	0.002540
3059.000000	0.002527
3058.000000	0.002518
3057.000000	0.002519
3056.000000	0.002530
3055.000000	0.002539
3054.000000	0.002529
3053.000000	0.002496
3052.000000	0.002452
3051.000000	0.002422
3050.000000	0.002418
3049.000000	0.002434
3048.000000	0.002452
3047.000000	0.002458
3046.000000	0.002447
3045.000000	0.002424
3044.000000	0.002401
3043.000000	0.002387
3042.000000	0.002384
3041.000000	0.002386
3040.000000	0.002383
3039.000000	0.002377
3038.000000	0.002370
3037.000000	0.002368
3036.000000	0.002373
3035.000000	0.002381
3034.000000	0.002388
3033.000000	0.002389
3032.000000	0.002385
3031.000000	0.002374
3030.000000	0.002361
3029.000000	0.002350
3028.000000	0.002347
3027.000000	0.002355
3026.000000	0.002369
3025.000000	0.002383
3024.000000	0.002388
3023.000000	0.002379
3022.000000	0.002359
3021.000000	0.002334
3020.000000	0.002315
3019.000000	0.002308
3018.000000	0.002309
3017.000000	0.002312
3016.000000	0.002311
3015.000000	0.002307
3014.000000	0.002300
3013.000000	0.002292
3012.000000	0.002284
3011.000000	0.002280
3010.000000	0.002278
3009.000000	0.002279
3008.000000	0.002288
3007.000000	0.002305
3006.000000	0.002318
3005.000000	0.002313
3004.000000	0.002295
3003.000000	0.002286
3002.000000	0.002304
3001.000000	0.002344
3000.000000	0.002385
2999.000000	0.002412
2998.000000	0.002422
2997.000000	0.002422
2996.000000	0.002420
2995.000000	0.002421
2994.000000	0.002429
2993.000000	0.002440
2992.000000	0.002449
2991.000000	0.002449
2990.000000	0.002439
2989.000000	0.002425
2988.000000	0.002413
2987.000000	0.002406
2986.000000	0.002406
2985.000000	0.002418
2984.000000	0.002442
2983.000000	0.002476
2982.000000	0.002509
2981.000000	0.002531
2980.000000	0.002541
2979.000000	0.002550
2978.000000	0.002570
2977.000000	0.002604
2976.000000	0.002647
2975.000000	0.002689
2974.000000	0.002725
2973.000000	0.002751
2972.000000	0.002773
2971.000000	0.002799
2970.000000	0.002828
2969.000000	0.002858
2968.000000	0.002888
2967.000000	0.002921
2966.000000	0.002955
2965.000000	0.002984
2964.000000	0.003003
2963.000000	0.003014
2962.000000	0.003026
2961.000000	0.003047
2960.000000	0.003073
2959.000000	0.003095
2958.000000	0.003107
2957.000000	0.003115
2956.000000	0.003124
2955.000000	0.003135
2954.000000	0.003138
2953.000000	0.003124
2952.000000	0.003095
2951.000000	0.003060
2950.000000	0.003032
2949.000000	0.003018
2948.000000	0.003024
2947.000000	0.003045
2946.000000	0.003071
2945.000000	0.003097
2944.000000	0.003131
2943.000000	0.003178
2942.000000	0.003232
2941.000000	0.003281
2940.000000	0.003322
2939.000000	0.003364
2938.000000	0.003413
2937.000000	0.003461
2936.000000	0.003497
2935.000000	0.003517
2934.000000	0.003534
2933.000000	0.003553
2932.000000	0.003572
2931.000000	0.003581
2930.000000	0.003572
2929.000000	0.003555
2928.000000	0.003548
2927.000000	0.003563
2926.000000	0.003591
2925.000000	0.003612
2924.000000	0.003614
2923.000000	0.003603
2922.000000	0.003587
2921.000000	0.003567
2920.000000	0.003538
2919.000000	0.003502
2918.000000	0.003465
2917.000000	0.003437
2916.000000	0.003423
2915.000000	0.003418
2914.000000	0.003414
2913.000000	0.003399
2912.000000	0.003370
2911.000000	0.003327
2910.000000	0.003277
2909.000000	0.003225
2908.000000	0.003181
2907.000000	0.003150
2906.000000	0.003134
2905.000000	0.003119
2904.000000	0.003093
2903.000000	0.003055
2902.000000	0.003013
2901.000000	0.002974
2900.000000	0.002942
2899.000000	0.002919
2898.000000	0.002907
2897.000000	0.002899
2896.000000	0.002887
2895.000000	0.002865
2894.000000	0.002835
2893.000000	0.002807
2892.000000	0.002785
2891.000000	0.002771
2890.000000	0.002764
2889.000000	0.002756
2888.000000	0.002733
2887.000000	0.002694
2886.000000	0.002650
2885.000000	0.002623
2884.000000	0.002626
2883.000000	0.002655
2882.000000	0.002696
2881.000000	0.002740
2880.000000	0.002784
2879.000000	0.002825
2878.000000	0.002857
2877.000000	0.002874
2876.000000	0.002884
2875.000000	0.002893
2874.000000	0.002900
2873.000000	0.002898
2872.000000	0.002885
2871.000000	0.002869
2870.000000	0.002859
2869.000000	0.002854
2868.000000	0.002849
2867.000000	0.002845
2866.000000	0.002844
2865.000000	0.002846
2864.000000	0.002851
2863.000000	0.002857
2862.000000	0.002872
2861.000000	0.002897
2860.000000	0.002927
2859.000000	0.002951
2858.000000	0.002966
2857.000000	0.002972
2856.000000	0.002975
2855.000000	0.002975
2854.000000	0.002966
2853.000000	0.002943
2852.000000	0.002904
2851.000000	0.002852
2850.000000	0.002796
2849.000000	0.002746
2848.000000	0.002706
2847.000000	0.002677
2846.000000	0.002651
2845.000000	0.002614
2844.000000	0.002559
2843.000000	0.002495
2842.000000	0.002438
2841.000000	0.002398
2840.000000	0.002377
2839.000000	0.002372
2838.000000	0.002376
2837.000000	0.002380
2836.000000	0.002374
2835.000000	0.002355
2834.000000	0.002335
2833.000000	0.002325
2832.000000	0.002328
2831.000000	0.002330
2830.000000	0.002316
2829.000000	0.002292
2828.000000	0.002271
2827.000000	0.002267
2826.000000	0.002273
2825.000000	0.002274
2824.000000	0.002260
2823.000000	0.002237
2822.000000	0.002218
2821.000000	0.002208
2820.000000	0.002201
2819.000000	0.002188
2818.000000	0.002171
2817.000000	0.002156
2816.000000	0.002149
2815.000000	0.002150
2814.000000	0.002156
2813.000000	0.002158
2812.000000	0.002151
2811.000000	0.002140
2810.000000	0.002138
2809.000000	0.002150
2808.000000	0.002166
2807.000000	0.002168
2806.000000	0.002151
2805.000000	0.002132
2804.000000	0.002129
2803.000000	0.002147
2802.000000	0.002175
2801.000000	0.002195
2800.000000	0.002196
2799.000000	0.002178
2798.000000	0.002152
2797.000000	0.002131
2796.000000	0.002122
2795.000000	0.002120
2794.000000	0.002117
2793.000000	0.002109
2792.000000	0.002099
2791.000000	0.002093
2790.000000	0.002094
2789.000000	0.002103
2788.000000	0.002113
2787.000000	0.002115
2786.000000	0.002107
2785.000000	0.002098
2784.000000	0.002099
2783.000000	0.002108
2782.000000	0.002113
2781.000000	0.002106
2780.000000	0.002094
2779.000000	0.002089
2778.000000	0.002094
2777.000000	0.002105
2776.000000	0.002115
2775.000000	0.002114
2774.000000	0.002099
2773.000000	0.002073
2772.000000	0.002049
2771.000000	0.002034
2770.000000	0.002023
2769.000000	0.002009
2768.000000	0.001997
2767.000000	0.001995
2766.000000	0.002008
2765.000000	0.002028
2764.000000	0.002041
2763.000000	0.002046
2762.000000	0.002052
2761.000000	0.002068
2760.000000	0.002086
2759.000000	0.002088
2758.000000	0.002066
2757.000000	0.002031
2756.000000	0.002005
2755.000000	0.002000
2754.000000	0.002011
2753.000000	0.002024
2752.000000	0.002029
2751.000000	0.002025
2750.000000	0.002019
2749.000000	0.002012
2748.000000	0.002005
2747.000000	0.001999
2746.000000	0.001995
2745.000000	0.001994
2744.000000	0.001996
2743.000000	0.001999
2742.000000	0.002003
2741.000000	0.002015
2740.000000	0.002036
2739.000000	0.002061
2738.000000	0.002081
2737.000000	0.002089
2736.000000	0.002086
2735.000000	0.002073
2734.000000	0.002053
2733.000000	0.002027
2732.000000	0.002002
2731.000000	0.001983
2730.000000	0.001972
2729.000000	0.001970
2728.000000	0.001975
2727.000000	0.001984
2726.000000	0.001995
2725.000000	0.002003
2724.000000	0.002006
2723.000000	0.002005
2722.000000	0.002003
2721.000000	0.002001
2720.000000	0.001996
2719.000000	0.001989
2718.000000	0.001982
2717.000000	0.001976
2716.000000	0.001972
2715.000000	0.001966
2714.000000	0.001955
2713.000000	0.001948
2712.000000	0.001952
2711.000000	0.001971
2710.000000	0.001992
2709.000000	0.002003
2708.000000	0.001999
2707.000000	0.001988
2706.000000	0.001980
2705.000000	0.001982
2704.000000	0.001989
2703.000000	0.001996
2702.000000	0.001998
2701.000000	0.001995
2700.000000	0.001987
2699.000000	0.001974
2698.000000	0.001956
2697.000000	0.001935
2696.000000	0.001915
2695.000000	0.001905
2694.000000	0.001901
2693.000000	0.001898
2692.000000	0.001894
2691.000000	0.001893
2690.000000	0.001901
2689.000000	0.001918
2688.000000	0.001938
2687.000000	0.001954
2686.000000	0.001961
2685.000000	0.001963
2684.000000	0.001962
2683.000000	0.001960
2682.000000	0.001959
2681.000000	0.001954
2680.000000	0.001946
2679.000000	0.001939
2678.000000	0.001937
2677.000000	0.001940
2676.000000	0.001943
2675.000000	0.001944
2674.000000	0.001948
2673.000000	0.001956
2672.000000	0.001965
2671.000000	0.001968
2670.000000	0.001962
2669.000000	0.001952
2668.000000	0.001943
2667.000000	0.001936
2666.000000	0.001929
2665.000000	0.001926
2664.000000	0.001931
2663.000000	0.001945
2662.000000	0.001965
2661.000000	0.001985
2660.000000	0.001999
2659.000000	0.002000
2658.000000	0.001986
2657.000000	0.001964
2656.000000	0.001942
2655.000000	0.001925
2654.000000	0.001916
2653.000000	0.001911
2652.000000	0.001911
2651.000000	0.001913
2650.000000	0.001915
2649.000000	0.001914
2648.000000	0.001914
2647.000000	0.001916
2646.000000	0.001921
2645.000000	0.001926
2644.000000	0.001929
2643.000000	0.001930
2642.000000	0.001930
2641.000000	0.001927
2640.000000	0.001921
2639.000000	0.001910
2638.000000	0.001897
2637.000000	0.001885
2636.000000	0.001875
2635.000000	0.001873
2634.000000	0.001880
2633.000000	0.001894
2632.000000	0.001902
2631.000000	0.001897
2630.000000	0.001877
2629.000000	0.001851
2628.000000	0.001832
2627.000000	0.001830
2626.000000	0.001845
2625.000000	0.001864
2624.000000	0.001869
2623.000000	0.001857
2622.000000	0.001841
2621.000000	0.001837
2620.000000	0.001836
2619.000000	0.001819
2618.000000	0.001782
2617.000000	0.001751
2616.000000	0.001746
2615.000000	0.001762
2614.000000	0.001777
2613.000000	0.001773
2612.000000	0.001754
2611.000000	0.001735
2610.000000	0.001727
2609.000000	0.001729
2608.000000	0.001730
2607.000000	0.001718
2606.000000	0.001700
2605.000000	0.001687
2604.000000	0.001682
2603.000000	0.001675
2602.000000	0.001657
2601.000000	0.001641
2600.000000	0.001643
2599.000000	0.001666
2598.000000	0.001692
2597.000000	0.001712
2596.000000	0.001729
2595.000000	0.001750
2594.000000	0.001768
2593.000000	0.001767
2592.000000	0.001745
2591.000000	0.001719
2590.000000	0.001704
2589.000000	0.001698
2588.000000	0.001686
2587.000000	0.001667
2586.000000	0.001652
2585.000000	0.001653
2584.000000	0.001661
2583.000000	0.001660
2582.000000	0.001652
2581.000000	0.001649
2580.000000	0.001656
2579.000000	0.001662
2578.000000	0.001657
2577.000000	0.001640
2576.000000	0.001618
2575.000000	0.001594
2574.000000	0.001577
2573.000000	0.001578
2572.000000	0.001603
2571.000000	0.001641
2570.000000	0.001670
2569.000000	0.001683
2568.000000	0.001690
2567.000000	0.001703
2566.000000	0.001718
2565.000000	0.001723
2564.000000	0.001712
2563.000000	0.001695
2562.000000	0.001687
2561.000000	0.001693
2560.000000	0.001695
2559.000000	0.001671
2558.000000	0.001620
2557.000000	0.001563
2556.000000	0.001521
2555.000000	0.001495
2554.000000	0.001476
2553.000000	0.001463
2552.000000	0.001463
2551.000000	0.001477
2550.000000	0.001490
2549.000000	0.001492
2548.000000	0.001488
2547.000000	0.001496
2546.000000	0.001522
2545.000000	0.001551
2544.000000	0.001565
2543.000000	0.001560
2542.000000	0.001549
2541.000000	0.001544
2540.000000	0.001542
2539.000000	0.001539
2538.000000	0.001541
2537.000000	0.001557
2536.000000	0.001578
2535.000000	0.001577
2534.000000	0.001543
2533.000000	0.001500
2532.000000	0.001487
2531.000000	0.001520
2530.000000	0.001575
2529.000000	0.001616
2528.000000	0.001623
2527.000000	0.001601
2526.000000	0.001569
2525.000000	0.001537
2524.000000	0.001511
2523.000000	0.001491
2522.000000	0.001484
2521.000000	0.001488
2520.000000	0.001498
2519.000000	0.001508
2518.000000	0.001519
2517.000000	0.001541
2516.000000	0.001575
2515.000000	0.001615
2514.000000	0.001647
2513.000000	0.001654
2512.000000	0.001626
2511.000000	0.001565
2510.000000	0.001497
2509.000000	0.001448
2508.000000	0.001433
2507.000000	0.001446
2506.000000	0.001476
2505.000000	0.001505
2504.000000	0.001518
2503.000000	0.001500
2502.000000	0.001460
2501.000000	0.001428
2500.000000	0.001433
2499.000000	0.001471
2498.000000	0.001519
2497.000000	0.001546
2496.000000	0.001540
2495.000000	0.001508
2494.000000	0.001464
2493.000000	0.001423
2492.000000	0.001398
2491.000000	0.001398
2490.000000	0.001423
2489.000000	0.001464
2488.000000	0.001502
2487.000000	0.001525
2486.000000	0.001535
2485.000000	0.001539
2484.000000	0.001539
2483.000000	0.001535
2482.000000	0.001533
2481.000000	0.001540
2480.000000	0.001549
2479.000000	0.001549
2478.000000	0.001540
2477.000000	0.001529
2476.000000	0.001518
2475.000000	0.001500
2474.000000	0.001474
2473.000000	0.001444
2472.000000	0.001410
2471.000000	0.001372
2470.000000	0.001338
2469.000000	0.001322
2468.000000	0.001324
2467.000000	0.001333
2466.000000	0.001337
2465.000000	0.001341
2464.000000	0.001351
2463.000000	0.001374
2462.000000	0.001409
2461.000000	0.001456
2460.000000	0.001500
2459.000000	0.001528
2458.000000	0.001538
2457.000000	0.001541
2456.000000	0.001543
2455.000000	0.001534
2454.000000	0.001507
2453.000000	0.001473
2452.000000	0.001453
2451.000000	0.001461
2450.000000	0.001489
2449.000000	0.001516
2448.000000	0.001515
2447.000000	0.001479
2446.000000	0.001425
2445.000000	0.001385
2444.000000	0.001376
2443.000000	0.001388
2442.000000	0.001404
2441.000000	0.001415
2440.000000	0.001417
2439.000000	0.001420
2438.000000	0.001435
2437.000000	0.001466
2436.000000	0.001494
2435.000000	0.001487
2434.000000	0.001434
2433.000000	0.001364
2432.000000	0.001320
2431.000000	0.001322
2430.000000	0.001359
2429.000000	0.001401
2428.000000	0.001415
2427.000000	0.001386
2426.000000	0.001334
2425.000000	0.001298
2424.000000	0.001304
2423.000000	0.001350
2422.000000	0.001405
2421.000000	0.001443
2420.000000	0.001456
2419.000000	0.001451
2418.000000	0.001442
2417.000000	0.001440
2416.000000	0.001440
2415.000000	0.001431
2414.000000	0.001406
2413.000000	0.001368
2412.000000	0.001322
2411.000000	0.001281
2410.000000	0.001262
2409.000000	0.001275
2408.000000	0.001310
2407.000000	0.001349
2406.000000	0.001378
2405.000000	0.001398
2404.000000	0.001413
2403.000000	0.001425
2402.000000	0.001442
2401.000000	0.001466
2400.000000	0.001486
2399.000000	0.001487
2398.000000	0.001465
2397.000000	0.001434
2396.000000	0.001409
2395.000000	0.001392
2394.000000	0.001385
2393.000000	0.001387
2392.000000	0.001396
2391.000000	0.001406
2390.000000	0.001415
2389.000000	0.001427
2388.000000	0.001443
2387.000000	0.001458
2386.000000	0.001467
2385.000000	0.001467
2384.000000	0.001448
2383.000000	0.001403
2382.000000	0.001343
2381.000000	0.001289
2380.000000	0.001262
2379.000000	0.001270
2378.000000	0.001313
2377.000000	0.001380
2376.000000	0.001442
2375.000000	0.001477
2374.000000	0.001487
2373.000000	0.001483
2372.000000	0.001469
2371.000000	0.001442
2370.000000	0.001413
2369.000000	0.001388
2368.000000	0.001364
2367.000000	0.001342
2366.000000	0.001347
2365.000000	0.001398
2364.000000	0.001482
2363.000000	0.001571
2362.000000	0.001649
2361.000000	0.001705
2360.000000	0.001721
2359.000000	0.001689
2358.000000	0.001621
2357.000000	0.001545
2356.000000	0.001505
2355.000000	0.001529
2354.000000	0.001567
2353.000000	0.001542
2352.000000	0.001468
2351.000000	0.001431
2350.000000	0.001473
2349.000000	0.001559
2348.000000	0.001629
2347.000000	0.001632
2346.000000	0.001583
2345.000000	0.001563
2344.000000	0.001623
2343.000000	0.001709
2342.000000	0.001747
2341.000000	0.001722
2340.000000	0.001693
2339.000000	0.001709
2338.000000	0.001750
2337.000000	0.001749
2336.000000	0.001683
2335.000000	0.001585
2334.000000	0.001498
2333.000000	0.001437
2332.000000	0.001413
2331.000000	0.001438
2330.000000	0.001506
2329.000000	0.001593
2328.000000	0.001685
2327.000000	0.001776
2326.000000	0.001852
2325.000000	0.001900
2324.000000	0.001922
2323.000000	0.001929
2322.000000	0.001938
2321.000000	0.001962
2320.000000	0.002002
2319.000000	0.002043
2318.000000	0.002075
2317.000000	0.002094
2316.000000	0.002096
2315.000000	0.002072
2314.000000	0.002022
2313.000000	0.001959
2312.000000	0.001900
2311.000000	0.001842
2310.000000	0.001779
2309.000000	0.001723
2308.000000	0.001693
2307.000000	0.001688
2306.000000	0.001688
2305.000000	0.001679
2304.000000	0.001664
2303.000000	0.001653
2302.000000	0.001657
2301.000000	0.001674
2300.000000	0.001690
2299.000000	0.001690
2298.000000	0.001677
2297.000000	0.001668
2296.000000	0.001674
2295.000000	0.001683
2294.000000	0.001686
2293.000000	0.001688
2292.000000	0.001702
2291.000000	0.001729
2290.000000	0.001766
2289.000000	0.001811
2288.000000	0.001852
2287.000000	0.001867
2286.000000	0.001835
2285.000000	0.001758
2284.000000	0.001650
2283.000000	0.001544
2282.000000	0.001475
2281.000000	0.001468
2280.000000	0.001497
2279.000000	0.001509
2278.000000	0.001487
2277.000000	0.001475
2276.000000	0.001517
2275.000000	0.001597
2274.000000	0.001664
2273.000000	0.001688
2272.000000	0.001665
2271.000000	0.001602
2270.000000	0.001516
2269.000000	0.001448
2268.000000	0.001431
2267.000000	0.001452
2266.000000	0.001470
2265.000000	0.001456
2264.000000	0.001420
2263.000000	0.001391
2262.000000	0.001388
2261.000000	0.001413
2260.000000	0.001446
2259.000000	0.001468
2258.000000	0.001473
2257.000000	0.001462
2256.000000	0.001427
2255.000000	0.001375
2254.000000	0.001340
2253.000000	0.001368
2252.000000	0.001450
2251.000000	0.001522
2250.000000	0.001535
2249.000000	0.001495
2248.000000	0.001440
2247.000000	0.001405
2246.000000	0.001413
2245.000000	0.001463
2244.000000	0.001511
2243.000000	0.001506
2242.000000	0.001450
2241.000000	0.001396
2240.000000	0.001382
2239.000000	0.001406
2238.000000	0.001473
2237.000000	0.001596
2236.000000	0.001749
2235.000000	0.001859
2234.000000	0.001888
2233.000000	0.001863
2232.000000	0.001814
2231.000000	0.001729
2230.000000	0.001610
2229.000000	0.001505
2228.000000	0.001447
2227.000000	0.001401
2226.000000	0.001328
2225.000000	0.001262
2224.000000	0.001277
2223.000000	0.001396
2222.000000	0.001576
2221.000000	0.001736
2220.000000	0.001789
2219.000000	0.001694
2218.000000	0.001514
2217.000000	0.001390
2216.000000	0.001392
2215.000000	0.001440
2214.000000	0.001416
2213.000000	0.001308
2212.000000	0.001197
2211.000000	0.001145
2210.000000	0.001155
2209.000000	0.001206
2208.000000	0.001277
2207.000000	0.001349
2206.000000	0.001418
2205.000000	0.001500
2204.000000	0.001584
2203.000000	0.001613
2202.000000	0.001551
2201.000000	0.001425
2200.000000	0.001291
2199.000000	0.001187
2198.000000	0.001134
2197.000000	0.001141
2196.000000	0.001175
2195.000000	0.001173
2194.000000	0.001136
2193.000000	0.001141
2192.000000	0.001226
2191.000000	0.001321
2190.000000	0.001341
2189.000000	0.001295
2188.000000	0.001259
2187.000000	0.001282
2186.000000	0.001377
2185.000000	0.001526
2184.000000	0.001646
2183.000000	0.001604
2182.000000	0.001342
2181.000000	0.000991
2180.000000	0.000774
2179.000000	0.000824
2178.000000	0.001098
2177.000000	0.001421
2176.000000	0.001588
2175.000000	0.001508
2174.000000	0.001299
2173.000000	0.001181
2172.000000	0.001239
2171.000000	0.001374
2170.000000	0.001467
2169.000000	0.001501
2168.000000	0.001502
2167.000000	0.001474
2166.000000	0.001447
2165.000000	0.001497
2164.000000	0.001630
2163.000000	0.001725
2162.000000	0.001667
2161.000000	0.001456
2160.000000	0.001111
2159.000000	0.000630
2158.000000	0.000132
2157.000000	-0.000113
2156.000000	-0.000000
2155.000000	0.000282
2154.000000	0.000499
2153.000000	0.000589
2152.000000	0.000598
2151.000000	0.000544
2150.000000	0.000443
2149.000000	0.000368
2148.000000	0.000379
2147.000000	0.000446
2146.000000	0.000505
2145.000000	0.000553
2144.000000	0.000621
2143.000000	0.000714
2142.000000	0.000826
2141.000000	0.000956
2140.000000	0.001080
2139.000000	0.001140
2138.000000	0.001118
2137.000000	0.001063
2136.000000	0.001010
2135.000000	0.000924
2134.000000	0.000784
2133.000000	0.000649
2132.000000	0.000586
2131.000000	0.000577
2130.000000	0.000561
2129.000000	0.000530
2128.000000	0.000533
2127.000000	0.000596
2126.000000	0.000687
2125.000000	0.000765
2124.000000	0.000823
2123.000000	0.000893
2122.000000	0.001015
2121.000000	0.001185
2120.000000	0.001335
2119.000000	0.001383
2118.000000	0.001328
2117.000000	0.001254
2116.000000	0.001244
2115.000000	0.001299
2114.000000	0.001361
2113.000000	0.001390
2112.000000	0.001381
2111.000000	0.001347
2110.000000	0.001308
2109.000000	0.001288
2108.000000	0.001295
2107.000000	0.001311
2106.000000	0.001322
2105.000000	0.001336
2104.000000	0.001364
2103.000000	0.001404
2102.000000	0.001444
2101.000000	0.001474
2100.000000	0.001468
2099.000000	0.001397
2098.000000	0.001264
2097.000000	0.001110
2096.000000	0.000968
2095.000000	0.000850
2094.000000	0.000787
2093.000000	0.000829
2092.000000	0.000976
2091.000000	0.001157
2090.000000	0.001283
2089.000000	0.001330
2088.000000	0.001326
2087.000000	0.001316
2086.000000	0.001328
2085.000000	0.001367
2084.000000	0.001403
2083.000000	0.001395
2082.000000	0.001333
2081.000000	0.001263
2080.000000	0.001235
2079.000000	0.001269
2078.000000	0.001349
2077.000000	0.001427
2076.000000	0.001440
2075.000000	0.001348
2074.000000	0.001185
2073.000000	0.001031
2072.000000	0.000938
2071.000000	0.000912
2070.000000	0.000958
2069.000000	0.001075
2068.000000	0.001205
2067.000000	0.001268
2066.000000	0.001255
2065.000000	0.001240
2064.000000	0.001257
2063.000000	0.001255
2062.000000	0.001189
2061.000000	0.001100
2060.000000	0.001055
2059.000000	0.001057
2058.000000	0.001057
2057.000000	0.001011
2056.000000	0.000910
2055.000000	0.000811
2054.000000	0.000836
2053.000000	0.001076
2052.000000	0.001463
2051.000000	0.001820
2050.000000	0.002031
2049.000000	0.002103
2048.000000	0.002049
2047.000000	0.001825
2046.000000	0.001456
2045.000000	0.001106
2044.000000	0.000933
2043.000000	0.000938
2042.000000	0.001029
2041.000000	0.001149
2040.000000	0.001255
2039.000000	0.001284
2038.000000	0.001224
2037.000000	0.001145
2036.000000	0.001101
2035.000000	0.001065
2034.000000	0.001006
2033.000000	0.000945
2032.000000	0.000871
2031.000000	0.000729
2030.000000	0.000562
2029.000000	0.000521
2028.000000	0.000662
2027.000000	0.000841
2026.000000	0.000896
2025.000000	0.000816
2024.000000	0.000693
2023.000000	0.000627
2022.000000	0.000702
2021.000000	0.000936
2020.000000	0.001197
2019.000000	0.001281
2018.000000	0.001137
2017.000000	0.000903
2016.000000	0.000723
2015.000000	0.000637
2014.000000	0.000687
2013.000000	0.000920
2012.000000	0.001239
2011.000000	0.001429
2010.000000	0.001401
2009.000000	0.001255
2008.000000	0.001079
2007.000000	0.000846
2006.000000	0.000601
2005.000000	0.000528
2004.000000	0.000713
2003.000000	0.001006
2002.000000	0.001213
2001.000000	0.001286
2000.000000	0.001267
1999.000000	0.001178
1998.000000	0.001039
1997.000000	0.000909
1996.000000	0.000827
1995.000000	0.000778
1994.000000	0.000753
1993.000000	0.000772
1992.000000	0.000791
1991.000000	0.000726
1990.000000	0.000606
1989.000000	0.000577
1988.000000	0.000698
1987.000000	0.000865
1986.000000	0.000978
1985.000000	0.001058
1984.000000	0.001145
1983.000000	0.001222
1982.000000	0.001284
1981.000000	0.001372
1980.000000	0.001443
1979.000000	0.001364
1978.000000	0.001127
1977.000000	0.000933
1976.000000	0.000924
1975.000000	0.000992
1974.000000	0.000994
1973.000000	0.000936
1972.000000	0.000844
1971.000000	0.000667
1970.000000	0.000424
1969.000000	0.000290
1968.000000	0.000373
1967.000000	0.000558
1966.000000	0.000671
1965.000000	0.000699
1964.000000	0.000720
1963.000000	0.000752
1962.000000	0.000781
1961.000000	0.000808
1960.000000	0.000794
1959.000000	0.000676
1958.000000	0.000487
1957.000000	0.000363
1956.000000	0.000363
1955.000000	0.000394
1954.000000	0.000373
1953.000000	0.000348
1952.000000	0.000396
1951.000000	0.000510
1950.000000	0.000631
1949.000000	0.000715
1948.000000	0.000711
1947.000000	0.000584
1946.000000	0.000411
1945.000000	0.000342
1944.000000	0.000431
1943.000000	0.000560
1942.000000	0.000616
1941.000000	0.000626
1940.000000	0.000651
1939.000000	0.000670
1938.000000	0.000651
1937.000000	0.000638
1936.000000	0.000682
1935.000000	0.000750
1934.000000	0.000782
1933.000000	0.000772
1932.000000	0.000736
1931.000000	0.000665
1930.000000	0.000572
1929.000000	0.000533
1928.000000	0.000598
1927.000000	0.000718
1926.000000	0.000805
1925.000000	0.000833
1924.000000	0.000829
1923.000000	0.000803
1922.000000	0.000751
1921.000000	0.000694
1920.000000	0.000660
1919.000000	0.000654
1918.000000	0.000667
1917.000000	0.000691
1916.000000	0.000699
1915.000000	0.000669
1914.000000	0.000626
1913.000000	0.000631
1912.000000	0.000709
1911.000000	0.000809
1910.000000	0.000868
1909.000000	0.000867
1908.000000	0.000817
1907.000000	0.000739
1906.000000	0.000662
1905.000000	0.000625
1904.000000	0.000628
1903.000000	0.000638
1902.000000	0.000653
1901.000000	0.000712
1900.000000	0.000822
1899.000000	0.000929
1898.000000	0.000991
1897.000000	0.001016
1896.000000	0.001013
1895.000000	0.000958
1894.000000	0.000847
1893.000000	0.000730
1892.000000	0.000653
1891.000000	0.000614
1890.000000	0.000601
1889.000000	0.000634
1888.000000	0.000712
1887.000000	0.000789
1886.000000	0.000822
1885.000000	0.000807
1884.000000	0.000757
1883.000000	0.000689
1882.000000	0.000636
1881.000000	0.000633
1880.000000	0.000678
1879.000000	0.000726
1878.000000	0.000744
1877.000000	0.000743
1876.000000	0.000727
1875.000000	0.000688
1874.000000	0.000638
1873.000000	0.000614
1872.000000	0.000630
1871.000000	0.000653
1870.000000	0.000659
1869.000000	0.000667
1868.000000	0.000690
1867.000000	0.000696
1866.000000	0.000679
1865.000000	0.000683
1864.000000	0.000728
1863.000000	0.000779
1862.000000	0.000805
1861.000000	0.000809
1860.000000	0.000796
1859.000000	0.000746
1858.000000	0.000658
1857.000000	0.000581
1856.000000	0.000556
1855.000000	0.000569
1854.000000	0.000585
1853.000000	0.000597
1852.000000	0.000606
1851.000000	0.000608
1850.000000	0.000608
1849.000000	0.000624
1848.000000	0.000656
1847.000000	0.000669
1846.000000	0.000646
1845.000000	0.000613
1844.000000	0.000605
1843.000000	0.000612
1842.000000	0.000607
1841.000000	0.000596
1840.000000	0.000592
1839.000000	0.000585
1838.000000	0.000570
1837.000000	0.000564
1836.000000	0.000572
1835.000000	0.000575
1834.000000	0.000559
1833.000000	0.000540
1832.000000	0.000527
1831.000000	0.000506
1830.000000	0.000479
1829.000000	0.000482
1828.000000	0.000515
1827.000000	0.000535
1826.000000	0.000527
1825.000000	0.000514
1824.000000	0.000517
1823.000000	0.000516
1822.000000	0.000502
1821.000000	0.000493
1820.000000	0.000491
1819.000000	0.000473
1818.000000	0.000440
1817.000000	0.000432
1816.000000	0.000464
1815.000000	0.000496
1814.000000	0.000492
1813.000000	0.000472
1812.000000	0.000469
1811.000000	0.000488
1810.000000	0.000518
1809.000000	0.000559
1808.000000	0.000597
1807.000000	0.000607
1806.000000	0.000583
1805.000000	0.000554
1804.000000	0.000544
1803.000000	0.000537
1802.000000	0.000518
1801.000000	0.000509
1800.000000	0.000535
1799.000000	0.000580
1798.000000	0.000616
1797.000000	0.000634
1796.000000	0.000633
1795.000000	0.000611
1794.000000	0.000583
1793.000000	0.000588
1792.000000	0.000633
1791.000000	0.000663
1790.000000	0.000643
1789.000000	0.000601
1788.000000	0.000577
1787.000000	0.000572
1786.000000	0.000574
1785.000000	0.000575
1784.000000	0.000565
1783.000000	0.000527
1782.000000	0.000469
1781.000000	0.000431
1780.000000	0.000439
1779.000000	0.000461
1778.000000	0.000458
1777.000000	0.000432
1776.000000	0.000407
1775.000000	0.000401
1774.000000	0.000418
1773.000000	0.000465
1772.000000	0.000524
1771.000000	0.000545
1770.000000	0.000517
1769.000000	0.000485
1768.000000	0.000489
1767.000000	0.000518
1766.000000	0.000543
1765.000000	0.000570
1764.000000	0.000617
1763.000000	0.000678
1762.000000	0.000735
1761.000000	0.000789
1760.000000	0.000843
1759.000000	0.000892
1758.000000	0.000949
1757.000000	0.001038
1756.000000	0.001149
1755.000000	0.001232
1754.000000	0.001278
1753.000000	0.001342
1752.000000	0.001478
1751.000000	0.001671
1750.000000	0.001868
1749.000000	0.002053
1748.000000	0.002230
1747.000000	0.002367
1746.000000	0.002444
1745.000000	0.002499
1744.000000	0.002571
1743.000000	0.002648
1742.000000	0.002702
1741.000000	0.002741
1740.000000	0.002780
1739.000000	0.002786
1738.000000	0.002716
1737.000000	0.002598
1736.000000	0.002492
1735.000000	0.002431
1734.000000	0.002413
1733.000000	0.002405
1732.000000	0.002349
1731.000000	0.002242
1730.000000	0.002124
1729.000000	0.002033
1728.000000	0.001961
1727.000000	0.001875
1726.000000	0.001766
1725.000000	0.001669
1724.000000	0.001602
1723.000000	0.001541
1722.000000	0.001459
1721.000000	0.001367
1720.000000	0.001292
1719.000000	0.001240
1718.000000	0.001213
1717.000000	0.001243
1716.000000	0.001311
1715.000000	0.001345
1714.000000	0.001336
1713.000000	0.001319
1712.000000	0.001313
1711.000000	0.001308
1710.000000	0.001299
1709.000000	0.001305
1708.000000	0.001338
1707.000000	0.001383
1706.000000	0.001427
1705.000000	0.001470
1704.000000	0.001495
1703.000000	0.001485
1702.000000	0.001473
1701.000000	0.001520
1700.000000	0.001643
1699.000000	0.001753
1698.000000	0.001805
1697.000000	0.001875
1696.000000	0.002011
1695.000000	0.002147
1694.000000	0.002219
1693.000000	0.002263
1692.000000	0.002335
1691.000000	0.002430
1690.000000	0.002520
1689.000000	0.002594
1688.000000	0.002664
1687.000000	0.002739
1686.000000	0.002846
1685.000000	0.003001
1684.000000	0.003181
1683.000000	0.003307
1682.000000	0.003353
1681.000000	0.003392
1680.000000	0.003463
1679.000000	0.003542
1678.000000	0.003607
1677.000000	0.003686
1676.000000	0.003816
1675.000000	0.003977
1674.000000	0.004116
1673.000000	0.004224
1672.000000	0.004326
1671.000000	0.004421
1670.000000	0.004496
1669.000000	0.004579
1668.000000	0.004687
1667.000000	0.004790
1666.000000	0.004869
1665.000000	0.004950
1664.000000	0.005052
1663.000000	0.005160
1662.000000	0.005258
1661.000000	0.005357
1660.000000	0.005466
1659.000000	0.005573
1658.000000	0.005665
1657.000000	0.005758
1656.000000	0.005880
1655.000000	0.006044
1654.000000	0.006182
1653.000000	0.006265
1652.000000	0.006348
1651.000000	0.006403
1650.000000	0.006438
1649.000000	0.006502
1648.000000	0.006606
1647.000000	0.006705
1646.000000	0.006759
1645.000000	0.006781
1644.000000	0.006792
1643.000000	0.006791
1642.000000	0.006781
1641.000000	0.006782
1640.000000	0.006807
1639.000000	0.006841
1638.000000	0.006862
1637.000000	0.006859
1636.000000	0.006829
1635.000000	0.006795
1634.000000	0.006772
1633.000000	0.006766
1632.000000	0.006779
1631.000000	0.006803
1630.000000	0.006830
1629.000000	0.006862
1628.000000	0.006893
1627.000000	0.006907
1626.000000	0.006896
1625.000000	0.006883
1624.000000	0.006876
1623.000000	0.006860
1622.000000	0.006834
1621.000000	0.006820
1620.000000	0.006824
1619.000000	0.006826
1618.000000	0.006795
1617.000000	0.006731
1616.000000	0.006680
1615.000000	0.006658
1614.000000	0.006641
1613.000000	0.006623
1612.000000	0.006609
1611.000000	0.006586
1610.000000	0.006539
1609.000000	0.006476
1608.000000	0.006411
1607.000000	0.006342
1606.000000	0.006273
1605.000000	0.006208
1604.000000	0.006143
1603.000000	0.006057
1602.000000	0.005945
1601.000000	0.005831
1600.000000	0.005725
1599.000000	0.005618
1598.000000	0.005510
1597.000000	0.005422
1596.000000	0.005363
1595.000000	0.005315
1594.000000	0.005260
1593.000000	0.005206
1592.000000	0.005153
1591.000000	0.005089
1590.000000	0.005011
1589.000000	0.004943
1588.000000	0.004898
1587.000000	0.004859
1586.000000	0.004814
1585.000000	0.004778
1584.000000	0.004760
1583.000000	0.004748
1582.000000	0.004727
1581.000000	0.004707
1580.000000	0.004693
1579.000000	0.004673
1578.000000	0.004633
1577.000000	0.004568
1576.000000	0.004497
1575.000000	0.004438
1574.000000	0.004390
1573.000000	0.004366
1572.000000	0.004375
1571.000000	0.004393
1570.000000	0.004382
1569.000000	0.004359
1568.000000	0.004358
1567.000000	0.004369
1566.000000	0.004369
1565.000000	0.004363
1564.000000	0.004365
1563.000000	0.004375
1562.000000	0.004400
1561.000000	0.004466
1560.000000	0.004530
1559.000000	0.004477
1558.000000	0.004409
1557.000000	0.004397
1556.000000	0.004407
1555.000000	0.004417
1554.000000	0.004418
1553.000000	0.004426
1552.000000	0.004450
1551.000000	0.004468
1550.000000	0.004470
1549.000000	0.004477
1548.000000	0.004511
1547.000000	0.004566
1546.000000	0.004621
1545.000000	0.004660
1544.000000	0.004674
1543.000000	0.004661
1542.000000	0.004629
1541.000000	0.004613
1540.000000	0.004633
1539.000000	0.004650
1538.000000	0.004617
1537.000000	0.004568
1536.000000	0.004550
1535.000000	0.004566
1534.000000	0.004582
1533.000000	0.004586
1532.000000	0.004587
1531.000000	0.004585
1530.000000	0.004581
1529.000000	0.004587
1528.000000	0.004591
1527.000000	0.004568
1526.000000	0.004514
1525.000000	0.004462
1524.000000	0.004438
1523.000000	0.004420
1522.000000	0.004383
1521.000000	0.004352
1520.000000	0.004353
1519.000000	0.004354
1518.000000	0.004335
1517.000000	0.004306
1516.000000	0.004271
1515.000000	0.004218
1514.000000	0.004152
1513.000000	0.004109
1512.000000	0.004099
1511.000000	0.004089
1510.000000	0.004056
1509.000000	0.004024
1508.000000	0.004008
1507.000000	0.003977
1506.000000	0.003941
1505.000000	0.003911
1504.000000	0.003880
1503.000000	0.003842
1502.000000	0.003803
1501.000000	0.003775
1500.000000	0.003759
1499.000000	0.003732
1498.000000	0.003696
1497.000000	0.003692
1496.000000	0.003731
1495.000000	0.003749
1494.000000	0.003712
1493.000000	0.003661
1492.000000	0.003638
1491.000000	0.003633
1490.000000	0.003626
1489.000000	0.003640
1488.000000	0.003686
1487.000000	0.003727
1486.000000	0.003738
1485.000000	0.003738
1484.000000	0.003748
1483.000000	0.003772
1482.000000	0.003806
1481.000000	0.003853
1480.000000	0.003909
1479.000000	0.003963
1478.000000	0.004021
1477.000000	0.004090
1476.000000	0.004152
1475.000000	0.004181
1474.000000	0.004200
1473.000000	0.004286
1472.000000	0.004452
1471.000000	0.004600
1470.000000	0.004674
1469.000000	0.004713
1468.000000	0.004752
1467.000000	0.004794
1466.000000	0.004845
1465.000000	0.004925
1464.000000	0.005023
1463.000000	0.005082
1462.000000	0.005087
1461.000000	0.005078
1460.000000	0.005090
1459.000000	0.005128
1458.000000	0.005203
1457.000000	0.005353
1456.000000	0.005524
1455.000000	0.005596
1454.000000	0.005585
1453.000000	0.005578
1452.000000	0.005605
1451.000000	0.005630
1450.000000	0.005629
1449.000000	0.005634
1448.000000	0.005671
1447.000000	0.005712
1446.000000	0.005728
1445.000000	0.005742
1444.000000	0.005781
1443.000000	0.005828
1442.000000	0.005855
1441.000000	0.005867
1440.000000	0.005886
1439.000000	0.005916
1438.000000	0.005966
1437.000000	0.006053
1436.000000	0.006160
1435.000000	0.006218
1434.000000	0.006215
1433.000000	0.006213
1432.000000	0.006255
1431.000000	0.006331
1430.000000	0.006406
1429.000000	0.006476
1428.000000	0.006537
1427.000000	0.006569
1426.000000	0.006575
1425.000000	0.006584
1424.000000	0.006610
1423.000000	0.006619
1422.000000	0.006595
1421.000000	0.006578
1420.000000	0.006608
1419.000000	0.006657
1418.000000	0.006677
1417.000000	0.006674
1416.000000	0.006670
1415.000000	0.006658
1414.000000	0.006628
1413.000000	0.006588
1412.000000	0.006551
1411.000000	0.006510
1410.000000	0.006457
1409.000000	0.006403
1408.000000	0.006352
1407.000000	0.006289
1406.000000	0.006214
1405.000000	0.006153
1404.000000	0.006115
1403.000000	0.006067
1402.000000	0.005994
1401.000000	0.005931
1400.000000	0.005904
1399.000000	0.005898
1398.000000	0.005889
1397.000000	0.005887
1396.000000	0.005902
1395.000000	0.005903
1394.000000	0.005864
1393.000000	0.005802
1392.000000	0.005743
1391.000000	0.005680
1390.000000	0.005609
1389.000000	0.005554
1388.000000	0.005534
1387.000000	0.005520
1386.000000	0.005474
1385.000000	0.005398
1384.000000	0.005322
1383.000000	0.005255
1382.000000	0.005201
1381.000000	0.005167
1380.000000	0.005151
1379.000000	0.005120
1378.000000	0.005059
1377.000000	0.004992
1376.000000	0.004944
1375.000000	0.004908
1374.000000	0.004866
1373.000000	0.004823
1372.000000	0.004789
1371.000000	0.004762
1370.000000	0.004736
1369.000000	0.004711
1368.000000	0.004681
1367.000000	0.004634
1366.000000	0.004584
1365.000000	0.004562
1364.000000	0.004570
1363.000000	0.004561
1362.000000	0.004502
1361.000000	0.004425
1360.000000	0.004371
1359.000000	0.004344
1358.000000	0.004334
1357.000000	0.004342
1356.000000	0.004353
1355.000000	0.004337
1354.000000	0.004278
1353.000000	0.004205
1352.000000	0.004145
1351.000000	0.004095
1350.000000	0.004049
1349.000000	0.004022
1348.000000	0.004019
1347.000000	0.004023
1346.000000	0.004023
1345.000000	0.004038
1344.000000	0.004078
1343.000000	0.004126
1342.000000	0.004168
1341.000000	0.004214
1340.000000	0.004269
1339.000000	0.004313
1338.000000	0.004342
1337.000000	0.004392
1336.000000	0.004486
1335.000000	0.004604
1334.000000	0.004726
1333.000000	0.004859
1332.000000	0.005010
1331.000000	0.005162
1330.000000	0.005302
1329.000000	0.005446
1328.000000	0.005601
1327.000000	0.005743
1326.000000	0.005862
1325.000000	0.005980
1324.000000	0.006111
1323.000000	0.006227
1322.000000	0.006295
1321.000000	0.006312
1320.000000	0.006286
1319.000000	0.006208
1318.000000	0.006084
1317.000000	0.005940
1316.000000	0.005786
1315.000000	0.005601
1314.000000	0.005389
1313.000000	0.005189
1312.000000	0.005026
1311.000000	0.004871
1310.000000	0.004707
1309.000000	0.004556
1308.000000	0.004440
1307.000000	0.004335
1306.000000	0.004216
1305.000000	0.004097
1304.000000	0.003996
1303.000000	0.003898
1302.000000	0.003795
1301.000000	0.003710
1300.000000	0.003657
1299.000000	0.003612
1298.000000	0.003551
1297.000000	0.003487
1296.000000	0.003436
1295.000000	0.003381
1294.000000	0.003310
1293.000000	0.003248
1292.000000	0.003221
1291.000000	0.003210
1290.000000	0.003187
1289.000000	0.003158
1288.000000	0.003133
1287.000000	0.003098
1286.000000	0.003041
1285.000000	0.002989
1284.000000	0.002963
1283.000000	0.002945
1282.000000	0.002910
1281.000000	0.002873
1280.000000	0.002856
1279.000000	0.002850
1278.000000	0.002836
1277.000000	0.002824
1276.000000	0.002827
1275.000000	0.002836
1274.000000	0.002841
1273.000000	0.002854
1272.000000	0.002882
1271.000000	0.002907
1270.000000	0.002923
1269.000000	0.002951
1268.000000	0.002997
1267.000000	0.003032
1266.000000	0.003041
1265.000000	0.003060
1264.000000	0.003114
1263.000000	0.003173
1262.000000	0.003202
1261.000000	0.003214
1260.000000	0.003238
1259.000000	0.003271
1258.000000	0.003302
1257.000000	0.003345
1256.000000	0.003396
1255.000000	0.003417
1254.000000	0.003381
1253.000000	0.003330
1252.000000	0.003316
1251.000000	0.003340
1250.000000	0.003369
1249.000000	0.003387
1248.000000	0.003399
1247.000000	0.003400
1246.000000	0.003397
1245.000000	0.003406
1244.000000	0.003428
1243.000000	0.003430
1242.000000	0.003402
1241.000000	0.003376
1240.000000	0.003373
1239.000000	0.003369
1238.000000	0.003337
1237.000000	0.003291
1236.000000	0.003255
1235.000000	0.003221
1234.000000	0.003177
1233.000000	0.003140
1232.000000	0.003122
1231.000000	0.003102
1230.000000	0.003067
1229.000000	0.003035
1228.000000	0.003012
1227.000000	0.002970
1226.000000	0.002892
1225.000000	0.002807
1224.000000	0.002737
1223.000000	0.002666
1222.000000	0.002577
1221.000000	0.002493
1220.000000	0.002437
1219.000000	0.002399
1218.000000	0.002364
1217.000000	0.002342
1216.000000	0.002329
1215.000000	0.002299
1214.000000	0.002249
1213.000000	0.002212
1212.000000	0.002208
1211.000000	0.002202
1210.000000	0.002169
1209.000000	0.002137
1208.000000	0.002128
1207.000000	0.002114
1206.000000	0.002070
1205.000000	0.002018
1204.000000	0.001992
1203.000000	0.001981
1202.000000	0.001973
1201.000000	0.001986
1200.000000	0.002033
1199.000000	0.002087
1198.000000	0.002117
1197.000000	0.002132
1196.000000	0.002143
1195.000000	0.002131
1194.000000	0.002097
1193.000000	0.002079
1192.000000	0.002101
1191.000000	0.002132
1190.000000	0.002139
1189.000000	0.002140
1188.000000	0.002163
1187.000000	0.002197
1186.000000	0.002231
1185.000000	0.002276
1184.000000	0.002337
1183.000000	0.002385
1182.000000	0.002416
1181.000000	0.002469
1180.000000	0.002560
1179.000000	0.002651
1178.000000	0.002715
1177.000000	0.002788
1176.000000	0.002900
1175.000000	0.003017
1174.000000	0.003101
1173.000000	0.003178
1172.000000	0.003279
1171.000000	0.003383
1170.000000	0.003463
1169.000000	0.003531
1168.000000	0.003612
1167.000000	0.003688
1166.000000	0.003752
1165.000000	0.003833
1164.000000	0.003941
1163.000000	0.004027
1162.000000	0.004053
1161.000000	0.004053
1160.000000	0.004072
1159.000000	0.004094
1158.000000	0.004088
1157.000000	0.004073
1156.000000	0.004080
1155.000000	0.004098
1154.000000	0.004105
1153.000000	0.004118
1152.000000	0.004153
1151.000000	0.004181
1150.000000	0.004170
1149.000000	0.004131
1148.000000	0.004083
1147.000000	0.004015
1146.000000	0.003934
1145.000000	0.003887
1144.000000	0.003891
1143.000000	0.003893
1142.000000	0.003849
1141.000000	0.003789
1140.000000	0.003752
1139.000000	0.003723
1138.000000	0.003680
1137.000000	0.003646
1136.000000	0.003640
1135.000000	0.003632
1134.000000	0.003600
1133.000000	0.003572
1132.000000	0.003572
1131.000000	0.003573
1130.000000	0.003559
1129.000000	0.003563
1128.000000	0.003607
1127.000000	0.003653
1126.000000	0.003670
1125.000000	0.003690
1124.000000	0.003740
1123.000000	0.003789
1122.000000	0.003808
1121.000000	0.003830
1120.000000	0.003888
1119.000000	0.003961
1118.000000	0.004025
1117.000000	0.004105
1116.000000	0.004207
1115.000000	0.004288
1114.000000	0.004324
1113.000000	0.004364
1112.000000	0.004437
1111.000000	0.004500
1110.000000	0.004514
1109.000000	0.004514
1108.000000	0.004534
1107.000000	0.004544
1106.000000	0.004519
1105.000000	0.004498
1104.000000	0.004505
1103.000000	0.004497
1102.000000	0.004440
1101.000000	0.004396
1100.000000	0.004422
1099.000000	0.004485
1098.000000	0.004522
1097.000000	0.004536
1096.000000	0.004560
1095.000000	0.004582
1094.000000	0.004584
1093.000000	0.004591
1092.000000	0.004619
1091.000000	0.004632
1090.000000	0.004614
1089.000000	0.004605
1088.000000	0.004632
1087.000000	0.004647
1086.000000	0.004607
1085.000000	0.004543
1084.000000	0.004481
1083.000000	0.004396
1082.000000	0.004289
1081.000000	0.004224
1080.000000	0.004238
1079.000000	0.004273
1078.000000	0.004277
1077.000000	0.004279
1076.000000	0.004310
1075.000000	0.004325
1074.000000	0.004290
1073.000000	0.004247
1072.000000	0.004240
1071.000000	0.004234
1070.000000	0.004201
1069.000000	0.004182
1068.000000	0.004207
1067.000000	0.004222
1066.000000	0.004184
1065.000000	0.004150
1064.000000	0.004176
1063.000000	0.004225
1062.000000	0.004232
1061.000000	0.004212
1060.000000	0.004202
1059.000000	0.004180
1058.000000	0.004127
1057.000000	0.004085
1056.000000	0.004100
1055.000000	0.004137
1054.000000	0.004145
1053.000000	0.004141
1052.000000	0.004156
1051.000000	0.004166
1050.000000	0.004147
1049.000000	0.004135
1048.000000	0.004157
1047.000000	0.004175
1046.000000	0.004163
1045.000000	0.004162
1044.000000	0.004199
1043.000000	0.004232
1042.000000	0.004229
1041.000000	0.004233
1040.000000	0.004282
1039.000000	0.004340
1038.000000	0.004366
1037.000000	0.004382
1036.000000	0.004405
1035.000000	0.004403
1034.000000	0.004371
1033.000000	0.004370
1032.000000	0.004432
1031.000000	0.004495
1030.000000	0.004518
1029.000000	0.004547
1028.000000	0.004621
1027.000000	0.004686
1026.000000	0.004690
1025.000000	0.004675
1024.000000	0.004689
1023.000000	0.004704
1022.000000	0.004681
1021.000000	0.004649
1020.000000	0.004629
1019.000000	0.004577
1018.000000	0.004476
1017.000000	0.004390
1016.000000	0.004369
1015.000000	0.004367
1014.000000	0.004338
1013.000000	0.004309
1012.000000	0.004311
1011.000000	0.004309
1010.000000	0.004286
1009.000000	0.004285
1008.000000	0.004315
1007.000000	0.004298
1006.000000	0.004193
1005.000000	0.004079
1004.000000	0.004035
1003.000000	0.004028
1002.000000	0.003994
1001.000000	0.003950
1000.000000	0.003935
999.000000	0.003920
998.000000	0.003866
997.000000	0.003804
996.000000	0.003768
995.000000	0.003726
994.000000	0.003653
993.000000	0.003597
992.000000	0.003596
991.000000	0.003604
990.000000	0.003572
989.000000	0.003535
988.000000	0.003531
987.000000	0.003521
986.000000	0.003461
985.000000	0.003384
984.000000	0.003335
983.000000	0.003294
982.000000	0.003233
981.000000	0.003183
980.000000	0.003177
979.000000	0.003180
978.000000	0.003158
977.000000	0.003134
976.000000	0.003119
975.000000	0.003067
974.000000	0.002972
973.000000	0.002919
972.000000	0.002961
971.000000	0.003024
970.000000	0.003011
969.000000	0.002931
968.000000	0.002842
967.000000	0.002755
966.000000	0.002667
965.000000	0.002614
964.000000	0.002610
963.000000	0.002598
962.000000	0.002535
961.000000	0.002467
960.000000	0.002435
959.000000	0.002408
958.000000	0.002352
957.000000	0.002306
956.000000	0.002299
955.000000	0.002282
954.000000	0.002214
953.000000	0.002137
952.000000	0.002094
951.000000	0.002047
950.000000	0.001960
949.000000	0.001885
948.000000	0.001877
947.000000	0.001899
946.000000	0.001887
945.000000	0.001840
944.000000	0.001776
943.000000	0.001676
942.000000	0.001545
941.000000	0.001451
940.000000	0.001432
939.000000	0.001437
938.000000	0.001421
937.000000	0.001413
936.000000	0.001435
935.000000	0.001432
934.000000	0.001369
933.000000	0.001305
932.000000	0.001290
931.000000	0.001290
930.000000	0.001265
929.000000	0.001256
928.000000	0.001290
927.000000	0.001311
926.000000	0.001266
925.000000	0.001203
924.000000	0.001176
923.000000	0.001146
922.000000	0.001068
921.000000	0.000985
920.000000	0.000961
919.000000	0.000978
918.000000	0.000990
917.000000	0.001001
916.000000	0.001022
915.000000	0.001016
914.000000	0.000978
913.000000	0.000968
912.000000	0.001015
911.000000	0.001053
910.000000	0.001031
909.000000	0.000999
908.000000	0.001000
907.000000	0.000995
906.000000	0.000948
905.000000	0.000915
904.000000	0.000940
903.000000	0.000959
902.000000	0.000914
901.000000	0.000848
900.000000	0.000815
899.000000	0.000786
898.000000	0.000727
897.000000	0.000689
896.000000	0.000709
895.000000	0.000725
894.000000	0.000679
893.000000	0.000614
892.000000	0.000583
891.000000	0.000552
890.000000	0.000487
889.000000	0.000453
888.000000	0.000529
887.000000	0.000688
886.000000	0.000861
885.000000	0.001042
884.000000	0.001237
883.000000	0.001402
882.000000	0.001526
881.000000	0.001692
880.000000	0.001956
879.000000	0.002250
878.000000	0.002484
877.000000	0.002674
876.000000	0.002854
875.000000	0.002978
874.000000	0.002998
873.000000	0.002953
872.000000	0.002869
871.000000	0.002699
870.000000	0.002419
869.000000	0.002108
868.000000	0.001838
867.000000	0.001585
866.000000	0.001330
865.000000	0.001139
864.000000	0.001050
863.000000	0.000993
862.000000	0.000906
861.000000	0.000837
860.000000	0.000821
859.000000	0.000788
858.000000	0.000686
857.000000	0.000587
856.000000	0.000563
855.000000	0.000572
854.000000	0.000551
853.000000	0.000529
852.000000	0.000549
851.000000	0.000567
850.000000	0.000544
849.000000	0.000520
848.000000	0.000524
847.000000	0.000504
846.000000	0.000438
845.000000	0.000404
844.000000	0.000445
843.000000	0.000488
842.000000	0.000477
841.000000	0.000472
840.000000	0.000517
839.000000	0.000544
838.000000	0.000504
837.000000	0.000462
836.000000	0.000469
835.000000	0.000455
834.000000	0.000379
833.000000	0.000334
832.000000	0.000398
831.000000	0.000495
830.000000	0.000522
829.000000	0.000514
828.000000	0.000543
827.000000	0.000569
826.000000	0.000536
825.000000	0.000491
824.000000	0.000491
823.000000	0.000486
822.000000	0.000436
821.000000	0.000403
820.000000	0.000435
819.000000	0.000465
818.000000	0.000443
817.000000	0.000426
816.000000	0.000447
815.000000	0.000436
814.000000	0.000368
813.000000	0.000341
812.000000	0.000410
811.000000	0.000481
810.000000	0.000481
809.000000	0.000488
808.000000	0.000567
807.000000	0.000631
806.000000	0.000594
805.000000	0.000524
804.000000	0.000520
803.000000	0.000550
802.000000	0.000556
801.000000	0.000582
800.000000	0.000670
799.000000	0.000751
798.000000	0.000774
797.000000	0.000807
796.000000	0.000898
795.000000	0.000973
794.000000	0.000975
793.000000	0.000988
792.000000	0.001085
791.000000	0.001192
790.000000	0.001233
789.000000	0.001248
788.000000	0.001277
787.000000	0.001250
786.000000	0.001134
785.000000	0.001046
784.000000	0.001085
783.000000	0.001186
782.000000	0.001245
781.000000	0.001275
780.000000	0.001320
779.000000	0.001340
778.000000	0.001310
777.000000	0.001310
776.000000	0.001389
775.000000	0.001452
774.000000	0.001411
773.000000	0.001330
772.000000	0.001300
771.000000	0.001289
770.000000	0.001251
769.000000	0.001241
768.000000	0.001301
767.000000	0.001341
766.000000	0.001273
765.000000	0.001158
764.000000	0.001097
763.000000	0.001083
762.000000	0.001068
761.000000	0.001069
760.000000	0.001094
759.000000	0.001079
758.000000	0.001000
757.000000	0.000947
756.000000	0.000965
755.000000	0.000965
754.000000	0.000885
753.000000	0.000813
752.000000	0.000827
751.000000	0.000855
750.000000	0.000815
749.000000	0.000766
748.000000	0.000784
747.000000	0.000824
746.000000	0.000825
745.000000	0.000829
744.000000	0.000878
743.000000	0.000896
742.000000	0.000829
741.000000	0.000761
740.000000	0.000769
739.000000	0.000790
738.000000	0.000743
737.000000	0.000674
736.000000	0.000654
735.000000	0.000649
734.000000	0.000613
733.000000	0.000601
732.000000	0.000654
731.000000	0.000690
730.000000	0.000639
729.000000	0.000570
728.000000	0.000557
727.000000	0.000545
726.000000	0.000481
725.000000	0.000448
724.000000	0.000515
723.000000	0.000592
722.000000	0.000582
721.000000	0.000547
720.000000	0.000589
719.000000	0.000678
718.000000	0.000756
717.000000	0.000883
716.000000	0.001122
715.000000	0.001391
714.000000	0.001565
713.000000	0.001635
712.000000	0.001647
711.000000	0.001578
710.000000	0.001414
709.000000	0.001248
708.000000	0.001161
707.000000	0.001099
706.000000	0.000994
705.000000	0.000895
704.000000	0.000859
703.000000	0.000843
702.000000	0.000805
701.000000	0.000797
700.000000	0.000843
699.000000	0.000862
698.000000	0.000817
697.000000	0.000816
696.000000	0.000914
695.000000	0.000998
694.000000	0.000962
693.000000	0.000870
692.000000	0.000824
691.000000	0.000788
690.000000	0.000713
689.000000	0.000665
688.000000	0.000681
687.000000	0.000660
686.000000	0.000524
685.000000	0.000369
684.000000	0.000315
683.000000	0.000331
682.000000	0.000344
681.000000	0.000393
680.000000	0.000520
679.000000	0.000628
678.000000	0.000620
677.000000	0.000584
676.000000	0.000641
675.000000	0.000746
674.000000	0.000802
673.000000	0.000836
672.000000	0.000889
671.000000	0.000832
670.000000	0.000533
669.000000	0.000043
668.000000	-0.000216
667.000000	-0.000005
666.000000	0.000261
665.000000	0.000491
664.000000	0.000793
663.000000	0.001006
662.000000	0.001018
661.000000	0.000923
660.000000	0.000871
659.000000	0.000806
658.000000	0.000650
657.000000	0.000528
656.000000	0.000549
655.000000	0.000594
654.000000	0.000546
653.000000	0.000510
652.000000	0.000569
651.000000	0.000600
650.000000	0.000511
649.000000	0.000437
648.000000	0.000479
647.000000	0.000518
646.000000	0.000480
645.000000	0.000498
644.000000	0.000644
643.000000	0.000769
642.000000	0.000785
641.000000	0.000843
640.000000	0.001041
639.000000	0.001201
638.000000	0.001170
637.000000	0.001074
636.000000	0.001056
635.000000	0.001037
634.000000	0.000946
633.000000	0.000921
632.000000	0.001064
631.000000	0.001226
630.000000	0.001264
629.000000	0.001269
628.000000	0.001334
627.000000	0.001350
626.000000	0.001252
625.000000	0.001203
624.000000	0.001303
623.000000	0.001377
622.000000	0.001285
621.000000	0.001190
620.000000	0.001278
619.000000	0.001459
618.000000	0.001563
617.000000	0.001626
616.000000	0.001720
615.000000	0.001736
614.000000	0.001600
613.000000	0.001485
612.000000	0.001545
611.000000	0.001671
610.000000	0.001715
609.000000	0.001747
608.000000	0.001854
607.000000	0.001926
606.000000	0.001874
605.000000	0.001832
604.000000	0.001894
603.000000	0.001915
602.000000	0.001779
601.000000	0.001633
600.000000	0.001621
599.000000	0.001642
598.000000	0.001591
597.000000	0.001592
596.000000	0.001738
595.000000	0.001856
594.000000	0.001767
593.000000	0.001565
592.000000	0.001414
591.000000	0.001298
590.000000	0.001193
589.000000	0.001218
588.000000	0.001403
587.000000	0.001548
586.000000	0.001531
585.000000	0.001484
584.000000	0.001488
583.000000	0.001387
582.000000	0.001131
581.000000	0.000978
580.000000	0.001092
579.000000	0.001254
578.000000	0.001242
577.000000	0.001172
576.000000	0.001199
575.000000	0.001208
574.000000	0.001093
573.000000	0.001020
572.000000	0.001106
571.000000	0.001163
570.000000	0.001023
569.000000	0.000849
568.000000	0.000822
567.000000	0.000834
566.000000	0.000776
565.000000	0.000772
564.000000	0.000870
563.000000	0.000848
562.000000	0.000610
561.000000	0.000434
560.000000	0.000522
559.000000	0.000654
558.000000	0.000601
557.000000	0.000508
556.000000	0.000554
555.000000	0.000600
554.000000	0.000495
553.000000	0.000400
552.000000	0.000449
551.000000	0.000461
550.000000	0.000314
549.000000	0.000253
548.000000	0.000451
547.000000	0.000645
546.000000	0.000572
545.000000	0.000432
544.000000	0.000518
543.000000	0.000739
542.000000	0.000872
541.000000	0.000940
540.000000	0.001012
539.000000	0.000952
538.000000	0.000699
537.000000	0.000477
536.000000	0.000424
535.000000	0.000365
534.000000	0.000225
533.000000	0.000276
532.000000	0.000649
531.000000	0.001050
530.000000	0.001257
529.000000	0.001465
528.000000	0.001811
527.000000	0.001992
526.000000	0.001790
525.000000	0.001539
524.000000	0.001568
523.000000	0.001647
522.000000	0.001493
521.000000	0.001289
520.000000	0.001306
519.000000	0.001409
518.000000	0.001373
517.000000	0.001365
516.000000	0.001581
515.000000	0.001816
514.000000	0.001858
513.000000	0.001866
512.000000	0.001963
511.000000	0.001918
510.000000	0.001586
509.000000	0.001280
508.000000	0.001296
507.000000	0.001467
506.000000	0.001567
505.000000	0.001702
504.000000	0.001905
503.000000	0.001823
502.000000	0.001287
501.000000	0.000745
500.000000	0.000563
499.000000	0.000488
498.000000	0.000262
497.000000	0.000128
496.000000	0.000322
495.000000	0.000589
494.000000	0.000670
493.000000	0.000801
492.000000	0.001191
491.000000	0.001496
490.000000	0.001383
489.000000	0.001122
488.000000	0.001069
487.000000	0.001079
486.000000	0.000917
485.000000	0.000787
484.000000	0.000909
483.000000	0.001028
482.000000	0.000920
481.000000	0.000859
480.000000	0.001043
479.000000	0.001137
478.000000	0.000906
477.000000	0.000737
476.000000	0.000948
475.000000	0.001152
474.000000	0.000910
473.000000	0.000520
472.000000	0.000459
471.000000	0.000485
470.000000	0.000234
469.000000	0.000045
468.000000	0.000334
467.000000	0.000805
466.000000	0.000972
465.000000	0.000982
464.000000	0.001165
463.000000	0.001314
462.000000	0.001125
461.000000	0.000816
460.000000	0.000635
459.000000	0.000283
458.000000	-0.000375
457.000000	-0.000596
456.000000	0.000067
455.000000	0.000850
454.000000	0.001022
453.000000	0.000811
452.000000	0.000725
451.000000	0.000625
450.000000	0.000319
