PE IR       SUBTECH     SPECTRUM    ASCII       PEDS        4.00        
   -1
P12-Noir015_1.ASC
23/06/09
11:51:27.00
23/06/09
11:56:02.00
uco
Sample 015 By uco Date Friday, June 09 2023
450.000000
#HDR
-1
-1
#GR
cm-1
A
1.0
0.0
4000.000000
-1.000000
3551
8
0.011756
-0.000476
#DATA
4000.000000	0.000591
3999.000000	0.000592
3998.000000	0.000589
3997.000000	0.000586
3996.000000	0.000578
3995.000000	0.000563
3994.000000	0.000546
3993.000000	0.000535
3992.000000	0.000540
3991.000000	0.000560
3990.000000	0.000584
3989.000000	0.000598
3988.000000	0.000599
3987.000000	0.000593
3986.000000	0.000594
3985.000000	0.000606
3984.000000	0.000629
3983.000000	0.000653
3982.000000	0.000668
3981.000000	0.000666
3980.000000	0.000644
3979.000000	0.000611
3978.000000	0.000579
3977.000000	0.000560
3976.000000	0.000555
3975.000000	0.000561
3974.000000	0.000573
3973.000000	0.000588
3972.000000	0.000606
3971.000000	0.000624
3970.000000	0.000644
3969.000000	0.000665
3968.000000	0.000688
3967.000000	0.000709
3966.000000	0.000719
3965.000000	0.000716
3964.000000	0.000701
3963.000000	0.000678
3962.000000	0.000655
3961.000000	0.000640
3960.000000	0.000637
3959.000000	0.000647
3958.000000	0.000668
3957.000000	0.000689
3956.000000	0.000701
3955.000000	0.000702
3954.000000	0.000693
3953.000000	0.000682
3952.000000	0.000673
3951.000000	0.000662
3950.000000	0.000645
3949.000000	0.000623
3948.000000	0.000602
3947.000000	0.000589
3946.000000	0.000588
3945.000000	0.000597
3944.000000	0.000611
3943.000000	0.000624
3942.000000	0.000632
3941.000000	0.000636
3940.000000	0.000638
3939.000000	0.000643
3938.000000	0.000652
3937.000000	0.000663
3936.000000	0.000671
3935.000000	0.000675
3934.000000	0.000677
3933.000000	0.000684
3932.000000	0.000697
3931.000000	0.000712
3930.000000	0.000717
3929.000000	0.000707
3928.000000	0.000690
3927.000000	0.000677
3926.000000	0.000678
3925.000000	0.000695
3924.000000	0.000718
3923.000000	0.000733
3922.000000	0.000728
3921.000000	0.000707
3920.000000	0.000687
3919.000000	0.000681
3918.000000	0.000693
3917.000000	0.000705
3916.000000	0.000705
3915.000000	0.000691
3914.000000	0.000676
3913.000000	0.000672
3912.000000	0.000679
3911.000000	0.000689
3910.000000	0.000693
3909.000000	0.000688
3908.000000	0.000677
3907.000000	0.000662
3906.000000	0.000640
3905.000000	0.000611
3904.000000	0.000586
3903.000000	0.000585
3902.000000	0.000614
3901.000000	0.000655
3900.000000	0.000682
3899.000000	0.000679
3898.000000	0.000654
3897.000000	0.000625
3896.000000	0.000604
3895.000000	0.000600
3894.000000	0.000608
3893.000000	0.000618
3892.000000	0.000622
3891.000000	0.000619
3890.000000	0.000616
3889.000000	0.000622
3888.000000	0.000641
3887.000000	0.000657
3886.000000	0.000659
3885.000000	0.000651
3884.000000	0.000650
3883.000000	0.000661
3882.000000	0.000674
3881.000000	0.000671
3880.000000	0.000652
3879.000000	0.000630
3878.000000	0.000620
3877.000000	0.000627
3876.000000	0.000640
3875.000000	0.000641
3874.000000	0.000626
3873.000000	0.000611
3872.000000	0.000611
3871.000000	0.000623
3870.000000	0.000638
3869.000000	0.000652
3868.000000	0.000662
3867.000000	0.000672
3866.000000	0.000681
3865.000000	0.000685
3864.000000	0.000682
3863.000000	0.000674
3862.000000	0.000663
3861.000000	0.000654
3860.000000	0.000647
3859.000000	0.000634
3858.000000	0.000617
3857.000000	0.000608
3856.000000	0.000624
3855.000000	0.000642
3854.000000	0.000638
3853.000000	0.000643
3852.000000	0.000672
3851.000000	0.000701
3850.000000	0.000718
3849.000000	0.000729
3848.000000	0.000736
3847.000000	0.000739
3846.000000	0.000735
3845.000000	0.000723
3844.000000	0.000703
3843.000000	0.000678
3842.000000	0.000653
3841.000000	0.000632
3840.000000	0.000616
3839.000000	0.000609
3838.000000	0.000611
3837.000000	0.000620
3836.000000	0.000633
3835.000000	0.000653
3834.000000	0.000684
3833.000000	0.000726
3832.000000	0.000765
3831.000000	0.000786
3830.000000	0.000787
3829.000000	0.000775
3828.000000	0.000761
3827.000000	0.000746
3826.000000	0.000730
3825.000000	0.000718
3824.000000	0.000721
3823.000000	0.000733
3822.000000	0.000735
3821.000000	0.000727
3820.000000	0.000719
3819.000000	0.000711
3818.000000	0.000704
3817.000000	0.000693
3816.000000	0.000679
3815.000000	0.000671
3814.000000	0.000671
3813.000000	0.000668
3812.000000	0.000659
3811.000000	0.000650
3810.000000	0.000648
3809.000000	0.000652
3808.000000	0.000643
3807.000000	0.000617
3806.000000	0.000590
3805.000000	0.000584
3804.000000	0.000609
3803.000000	0.000652
3802.000000	0.000687
3801.000000	0.000704
3800.000000	0.000708
3799.000000	0.000705
3798.000000	0.000704
3797.000000	0.000705
3796.000000	0.000709
3795.000000	0.000713
3794.000000	0.000712
3793.000000	0.000706
3792.000000	0.000694
3791.000000	0.000685
3790.000000	0.000684
3789.000000	0.000697
3788.000000	0.000720
3787.000000	0.000745
3786.000000	0.000761
3785.000000	0.000764
3784.000000	0.000761
3783.000000	0.000761
3782.000000	0.000769
3781.000000	0.000773
3780.000000	0.000764
3779.000000	0.000749
3778.000000	0.000737
3777.000000	0.000728
3776.000000	0.000715
3775.000000	0.000697
3774.000000	0.000681
3773.000000	0.000681
3772.000000	0.000697
3771.000000	0.000717
3770.000000	0.000734
3769.000000	0.000750
3768.000000	0.000766
3767.000000	0.000775
3766.000000	0.000772
3765.000000	0.000758
3764.000000	0.000745
3763.000000	0.000745
3762.000000	0.000760
3761.000000	0.000781
3760.000000	0.000795
3759.000000	0.000791
3758.000000	0.000765
3757.000000	0.000723
3756.000000	0.000679
3755.000000	0.000643
3754.000000	0.000618
3753.000000	0.000598
3752.000000	0.000589
3751.000000	0.000609
3750.000000	0.000653
3749.000000	0.000679
3748.000000	0.000672
3747.000000	0.000656
3746.000000	0.000643
3745.000000	0.000626
3744.000000	0.000612
3743.000000	0.000605
3742.000000	0.000598
3741.000000	0.000591
3740.000000	0.000594
3739.000000	0.000616
3738.000000	0.000652
3737.000000	0.000677
3736.000000	0.000662
3735.000000	0.000609
3734.000000	0.000549
3733.000000	0.000516
3732.000000	0.000516
3731.000000	0.000538
3730.000000	0.000568
3729.000000	0.000605
3728.000000	0.000646
3727.000000	0.000676
3726.000000	0.000680
3725.000000	0.000655
3724.000000	0.000615
3723.000000	0.000578
3722.000000	0.000558
3721.000000	0.000559
3720.000000	0.000580
3719.000000	0.000610
3718.000000	0.000632
3717.000000	0.000636
3716.000000	0.000624
3715.000000	0.000612
3714.000000	0.000612
3713.000000	0.000630
3712.000000	0.000659
3711.000000	0.000692
3710.000000	0.000726
3709.000000	0.000755
3708.000000	0.000769
3707.000000	0.000758
3706.000000	0.000721
3705.000000	0.000667
3704.000000	0.000608
3703.000000	0.000561
3702.000000	0.000543
3701.000000	0.000564
3700.000000	0.000612
3699.000000	0.000663
3698.000000	0.000698
3697.000000	0.000716
3696.000000	0.000730
3695.000000	0.000752
3694.000000	0.000778
3693.000000	0.000793
3692.000000	0.000780
3691.000000	0.000741
3690.000000	0.000694
3689.000000	0.000668
3688.000000	0.000672
3687.000000	0.000686
3686.000000	0.000687
3685.000000	0.000671
3684.000000	0.000654
3683.000000	0.000655
3682.000000	0.000678
3681.000000	0.000705
3680.000000	0.000714
3679.000000	0.000700
3678.000000	0.000672
3677.000000	0.000627
3676.000000	0.000578
3675.000000	0.000562
3674.000000	0.000579
3673.000000	0.000599
3672.000000	0.000611
3671.000000	0.000617
3670.000000	0.000637
3669.000000	0.000688
3668.000000	0.000749
3667.000000	0.000791
3666.000000	0.000808
3665.000000	0.000813
3664.000000	0.000819
3663.000000	0.000833
3662.000000	0.000850
3661.000000	0.000858
3660.000000	0.000856
3659.000000	0.000850
3658.000000	0.000844
3657.000000	0.000831
3656.000000	0.000808
3655.000000	0.000782
3654.000000	0.000765
3653.000000	0.000770
3652.000000	0.000794
3651.000000	0.000818
3650.000000	0.000833
3649.000000	0.000853
3648.000000	0.000879
3647.000000	0.000892
3646.000000	0.000883
3645.000000	0.000865
3644.000000	0.000856
3643.000000	0.000863
3642.000000	0.000877
3641.000000	0.000888
3640.000000	0.000893
3639.000000	0.000901
3638.000000	0.000921
3637.000000	0.000945
3636.000000	0.000964
3635.000000	0.000969
3634.000000	0.000966
3633.000000	0.000972
3632.000000	0.001010
3631.000000	0.001085
3630.000000	0.001167
3629.000000	0.001220
3628.000000	0.001227
3627.000000	0.001199
3626.000000	0.001165
3625.000000	0.001145
3624.000000	0.001136
3623.000000	0.001128
3622.000000	0.001114
3621.000000	0.001095
3620.000000	0.001088
3619.000000	0.001114
3618.000000	0.001168
3617.000000	0.001226
3616.000000	0.001267
3615.000000	0.001291
3614.000000	0.001310
3613.000000	0.001338
3612.000000	0.001381
3611.000000	0.001438
3610.000000	0.001501
3609.000000	0.001557
3608.000000	0.001587
3607.000000	0.001585
3606.000000	0.001557
3605.000000	0.001525
3604.000000	0.001505
3603.000000	0.001500
3602.000000	0.001501
3601.000000	0.001499
3600.000000	0.001492
3599.000000	0.001489
3598.000000	0.001497
3597.000000	0.001517
3596.000000	0.001548
3595.000000	0.001583
3594.000000	0.001618
3593.000000	0.001647
3592.000000	0.001668
3591.000000	0.001685
3590.000000	0.001700
3589.000000	0.001710
3588.000000	0.001720
3587.000000	0.001743
3586.000000	0.001779
3585.000000	0.001812
3584.000000	0.001832
3583.000000	0.001840
3582.000000	0.001846
3581.000000	0.001856
3580.000000	0.001876
3579.000000	0.001909
3578.000000	0.001950
3577.000000	0.001992
3576.000000	0.002026
3575.000000	0.002049
3574.000000	0.002064
3573.000000	0.002071
3572.000000	0.002067
3571.000000	0.002052
3570.000000	0.002033
3569.000000	0.002014
3568.000000	0.001997
3567.000000	0.001993
3566.000000	0.002014
3565.000000	0.002059
3564.000000	0.002119
3563.000000	0.002180
3562.000000	0.002230
3561.000000	0.002264
3560.000000	0.002285
3559.000000	0.002299
3558.000000	0.002307
3557.000000	0.002308
3556.000000	0.002300
3555.000000	0.002291
3554.000000	0.002291
3553.000000	0.002310
3552.000000	0.002346
3551.000000	0.002390
3550.000000	0.002429
3549.000000	0.002452
3548.000000	0.002456
3547.000000	0.002446
3546.000000	0.002436
3545.000000	0.002440
3544.000000	0.002461
3543.000000	0.002493
3542.000000	0.002527
3541.000000	0.002559
3540.000000	0.002589
3539.000000	0.002617
3538.000000	0.002647
3537.000000	0.002676
3536.000000	0.002704
3535.000000	0.002726
3534.000000	0.002742
3533.000000	0.002752
3532.000000	0.002757
3531.000000	0.002754
3530.000000	0.002742
3529.000000	0.002728
3528.000000	0.002723
3527.000000	0.002733
3526.000000	0.002753
3525.000000	0.002776
3524.000000	0.002796
3523.000000	0.002814
3522.000000	0.002833
3521.000000	0.002853
3520.000000	0.002878
3519.000000	0.002910
3518.000000	0.002945
3517.000000	0.002971
3516.000000	0.002979
3515.000000	0.002972
3514.000000	0.002962
3513.000000	0.002963
3512.000000	0.002984
3511.000000	0.003023
3510.000000	0.003072
3509.000000	0.003112
3508.000000	0.003132
3507.000000	0.003128
3506.000000	0.003105
3505.000000	0.003072
3504.000000	0.003041
3503.000000	0.003021
3502.000000	0.003019
3501.000000	0.003031
3500.000000	0.003048
3499.000000	0.003063
3498.000000	0.003075
3497.000000	0.003089
3496.000000	0.003107
3495.000000	0.003121
3494.000000	0.003126
3493.000000	0.003123
3492.000000	0.003122
3491.000000	0.003135
3490.000000	0.003165
3489.000000	0.003203
3488.000000	0.003243
3487.000000	0.003276
3486.000000	0.003300
3485.000000	0.003312
3484.000000	0.003321
3483.000000	0.003336
3482.000000	0.003363
3481.000000	0.003394
3480.000000	0.003419
3479.000000	0.003436
3478.000000	0.003450
3477.000000	0.003464
3476.000000	0.003477
3475.000000	0.003483
3474.000000	0.003476
3473.000000	0.003458
3472.000000	0.003435
3471.000000	0.003420
3470.000000	0.003424
3469.000000	0.003446
3468.000000	0.003474
3467.000000	0.003496
3466.000000	0.003509
3465.000000	0.003515
3464.000000	0.003515
3463.000000	0.003515
3462.000000	0.003523
3461.000000	0.003544
3460.000000	0.003572
3459.000000	0.003594
3458.000000	0.003601
3457.000000	0.003595
3456.000000	0.003588
3455.000000	0.003592
3454.000000	0.003608
3453.000000	0.003628
3452.000000	0.003644
3451.000000	0.003660
3450.000000	0.003681
3449.000000	0.003707
3448.000000	0.003731
3447.000000	0.003746
3446.000000	0.003753
3445.000000	0.003760
3444.000000	0.003773
3443.000000	0.003794
3442.000000	0.003819
3441.000000	0.003843
3440.000000	0.003860
3439.000000	0.003866
3438.000000	0.003862
3437.000000	0.003854
3436.000000	0.003847
3435.000000	0.003845
3434.000000	0.003848
3433.000000	0.003856
3432.000000	0.003861
3431.000000	0.003861
3430.000000	0.003859
3429.000000	0.003863
3428.000000	0.003884
3427.000000	0.003924
3426.000000	0.003978
3425.000000	0.004032
3424.000000	0.004067
3423.000000	0.004073
3422.000000	0.004055
3421.000000	0.004028
3420.000000	0.004010
3419.000000	0.004009
3418.000000	0.004023
3417.000000	0.004043
3416.000000	0.004063
3415.000000	0.004084
3414.000000	0.004103
3413.000000	0.004122
3412.000000	0.004137
3411.000000	0.004145
3410.000000	0.004144
3409.000000	0.004138
3408.000000	0.004139
3407.000000	0.004156
3406.000000	0.004185
3405.000000	0.004212
3404.000000	0.004222
3403.000000	0.004217
3402.000000	0.004211
3401.000000	0.004216
3400.000000	0.004233
3399.000000	0.004256
3398.000000	0.004278
3397.000000	0.004294
3396.000000	0.004305
3395.000000	0.004312
3394.000000	0.004317
3393.000000	0.004316
3392.000000	0.004306
3391.000000	0.004288
3390.000000	0.004275
3389.000000	0.004279
3388.000000	0.004303
3387.000000	0.004339
3386.000000	0.004374
3385.000000	0.004397
3384.000000	0.004403
3383.000000	0.004392
3382.000000	0.004374
3381.000000	0.004355
3380.000000	0.004342
3379.000000	0.004336
3378.000000	0.004336
3377.000000	0.004342
3376.000000	0.004355
3375.000000	0.004376
3374.000000	0.004402
3373.000000	0.004428
3372.000000	0.004445
3371.000000	0.004451
3370.000000	0.004446
3369.000000	0.004436
3368.000000	0.004427
3367.000000	0.004425
3366.000000	0.004437
3365.000000	0.004461
3364.000000	0.004486
3363.000000	0.004499
3362.000000	0.004492
3361.000000	0.004472
3360.000000	0.004452
3359.000000	0.004441
3358.000000	0.004445
3357.000000	0.004467
3356.000000	0.004500
3355.000000	0.004534
3354.000000	0.004561
3353.000000	0.004575
3352.000000	0.004578
3351.000000	0.004577
3350.000000	0.004573
3349.000000	0.004565
3348.000000	0.004553
3347.000000	0.004539
3346.000000	0.004529
3345.000000	0.004532
3344.000000	0.004548
3343.000000	0.004573
3342.000000	0.004593
3341.000000	0.004595
3340.000000	0.004584
3339.000000	0.004578
3338.000000	0.004593
3337.000000	0.004624
3336.000000	0.004653
3335.000000	0.004664
3334.000000	0.004657
3333.000000	0.004642
3332.000000	0.004627
3331.000000	0.004616
3330.000000	0.004616
3329.000000	0.004634
3328.000000	0.004670
3327.000000	0.004712
3326.000000	0.004745
3325.000000	0.004756
3324.000000	0.004746
3323.000000	0.004723
3322.000000	0.004695
3321.000000	0.004675
3320.000000	0.004673
3319.000000	0.004693
3318.000000	0.004729
3317.000000	0.004763
3316.000000	0.004780
3315.000000	0.004776
3314.000000	0.004758
3313.000000	0.004738
3312.000000	0.004721
3311.000000	0.004707
3310.000000	0.004695
3309.000000	0.004684
3308.000000	0.004674
3307.000000	0.004664
3306.000000	0.004653
3305.000000	0.004642
3304.000000	0.004633
3303.000000	0.004631
3302.000000	0.004640
3301.000000	0.004657
3300.000000	0.004674
3299.000000	0.004683
3298.000000	0.004682
3297.000000	0.004674
3296.000000	0.004666
3295.000000	0.004664
3294.000000	0.004672
3293.000000	0.004685
3292.000000	0.004700
3291.000000	0.004714
3290.000000	0.004726
3289.000000	0.004738
3288.000000	0.004745
3287.000000	0.004742
3286.000000	0.004726
3285.000000	0.004704
3284.000000	0.004687
3283.000000	0.004687
3282.000000	0.004700
3281.000000	0.004718
3280.000000	0.004728
3279.000000	0.004722
3278.000000	0.004701
3277.000000	0.004674
3276.000000	0.004655
3275.000000	0.004656
3274.000000	0.004674
3273.000000	0.004692
3272.000000	0.004694
3271.000000	0.004680
3270.000000	0.004665
3269.000000	0.004665
3268.000000	0.004679
3267.000000	0.004701
3266.000000	0.004719
3265.000000	0.004726
3264.000000	0.004719
3263.000000	0.004702
3262.000000	0.004684
3261.000000	0.004675
3260.000000	0.004675
3259.000000	0.004678
3258.000000	0.004680
3257.000000	0.004685
3256.000000	0.004691
3255.000000	0.004694
3254.000000	0.004689
3253.000000	0.004679
3252.000000	0.004668
3251.000000	0.004656
3250.000000	0.004641
3249.000000	0.004618
3248.000000	0.004593
3247.000000	0.004571
3246.000000	0.004555
3245.000000	0.004543
3244.000000	0.004533
3243.000000	0.004523
3242.000000	0.004516
3241.000000	0.004519
3240.000000	0.004532
3239.000000	0.004551
3238.000000	0.004565
3237.000000	0.004572
3236.000000	0.004571
3235.000000	0.004566
3234.000000	0.004559
3233.000000	0.004550
3232.000000	0.004539
3231.000000	0.004528
3230.000000	0.004519
3229.000000	0.004515
3228.000000	0.004517
3227.000000	0.004519
3226.000000	0.004514
3225.000000	0.004497
3224.000000	0.004471
3223.000000	0.004449
3222.000000	0.004437
3221.000000	0.004436
3220.000000	0.004439
3219.000000	0.004438
3218.000000	0.004426
3217.000000	0.004407
3216.000000	0.004387
3215.000000	0.004372
3214.000000	0.004366
3213.000000	0.004367
3212.000000	0.004373
3211.000000	0.004385
3210.000000	0.004399
3209.000000	0.004417
3208.000000	0.004436
3207.000000	0.004449
3206.000000	0.004444
3205.000000	0.004422
3204.000000	0.004395
3203.000000	0.004378
3202.000000	0.004373
3201.000000	0.004366
3200.000000	0.004348
3199.000000	0.004326
3198.000000	0.004314
3197.000000	0.004315
3196.000000	0.004324
3195.000000	0.004331
3194.000000	0.004330
3193.000000	0.004315
3192.000000	0.004287
3191.000000	0.004255
3190.000000	0.004238
3189.000000	0.004245
3188.000000	0.004273
3187.000000	0.004302
3186.000000	0.004316
3185.000000	0.004310
3184.000000	0.004296
3183.000000	0.004285
3182.000000	0.004282
3181.000000	0.004285
3180.000000	0.004290
3179.000000	0.004293
3178.000000	0.004289
3177.000000	0.004271
3176.000000	0.004242
3175.000000	0.004215
3174.000000	0.004205
3173.000000	0.004211
3172.000000	0.004221
3171.000000	0.004223
3170.000000	0.004216
3169.000000	0.004208
3168.000000	0.004204
3167.000000	0.004200
3166.000000	0.004191
3165.000000	0.004173
3164.000000	0.004149
3163.000000	0.004123
3162.000000	0.004097
3161.000000	0.004072
3160.000000	0.004047
3159.000000	0.004023
3158.000000	0.004007
3157.000000	0.004004
3156.000000	0.004017
3155.000000	0.004039
3154.000000	0.004059
3153.000000	0.004064
3152.000000	0.004054
3151.000000	0.004039
3150.000000	0.004025
3149.000000	0.004009
3148.000000	0.003986
3147.000000	0.003959
3146.000000	0.003935
3145.000000	0.003917
3144.000000	0.003899
3143.000000	0.003876
3142.000000	0.003849
3141.000000	0.003830
3140.000000	0.003829
3139.000000	0.003844
3138.000000	0.003864
3137.000000	0.003876
3136.000000	0.003874
3135.000000	0.003864
3134.000000	0.003854
3133.000000	0.003850
3132.000000	0.003849
3131.000000	0.003848
3130.000000	0.003846
3129.000000	0.003841
3128.000000	0.003838
3127.000000	0.003841
3126.000000	0.003844
3125.000000	0.003833
3124.000000	0.003801
3123.000000	0.003761
3122.000000	0.003735
3121.000000	0.003734
3120.000000	0.003752
3119.000000	0.003777
3118.000000	0.003799
3117.000000	0.003809
3116.000000	0.003797
3115.000000	0.003764
3114.000000	0.003724
3113.000000	0.003696
3112.000000	0.003689
3111.000000	0.003699
3110.000000	0.003713
3109.000000	0.003716
3108.000000	0.003697
3107.000000	0.003663
3106.000000	0.003630
3105.000000	0.003617
3104.000000	0.003625
3103.000000	0.003640
3102.000000	0.003649
3101.000000	0.003648
3100.000000	0.003642
3099.000000	0.003636
3098.000000	0.003630
3097.000000	0.003621
3096.000000	0.003616
3095.000000	0.003624
3094.000000	0.003647
3093.000000	0.003674
3092.000000	0.003688
3091.000000	0.003677
3090.000000	0.003646
3089.000000	0.003607
3088.000000	0.003574
3087.000000	0.003559
3086.000000	0.003565
3085.000000	0.003583
3084.000000	0.003596
3083.000000	0.003590
3082.000000	0.003566
3081.000000	0.003536
3080.000000	0.003506
3079.000000	0.003481
3078.000000	0.003466
3077.000000	0.003465
3076.000000	0.003483
3075.000000	0.003517
3074.000000	0.003553
3073.000000	0.003572
3072.000000	0.003564
3071.000000	0.003533
3070.000000	0.003497
3069.000000	0.003470
3068.000000	0.003461
3067.000000	0.003470
3066.000000	0.003493
3065.000000	0.003516
3064.000000	0.003525
3063.000000	0.003518
3062.000000	0.003507
3061.000000	0.003500
3060.000000	0.003492
3059.000000	0.003480
3058.000000	0.003468
3057.000000	0.003464
3056.000000	0.003465
3055.000000	0.003459
3054.000000	0.003437
3053.000000	0.003406
3052.000000	0.003379
3051.000000	0.003367
3050.000000	0.003370
3049.000000	0.003380
3048.000000	0.003384
3047.000000	0.003374
3046.000000	0.003346
3045.000000	0.003306
3044.000000	0.003266
3043.000000	0.003241
3042.000000	0.003241
3041.000000	0.003264
3040.000000	0.003292
3039.000000	0.003306
3038.000000	0.003303
3037.000000	0.003291
3036.000000	0.003278
3035.000000	0.003263
3034.000000	0.003248
3033.000000	0.003234
3032.000000	0.003225
3031.000000	0.003218
3030.000000	0.003213
3029.000000	0.003210
3028.000000	0.003210
3027.000000	0.003211
3026.000000	0.003212
3025.000000	0.003211
3024.000000	0.003209
3023.000000	0.003202
3022.000000	0.003187
3021.000000	0.003166
3020.000000	0.003142
3019.000000	0.003117
3018.000000	0.003095
3017.000000	0.003083
3016.000000	0.003081
3015.000000	0.003083
3014.000000	0.003082
3013.000000	0.003081
3012.000000	0.003086
3011.000000	0.003097
3010.000000	0.003106
3009.000000	0.003106
3008.000000	0.003105
3007.000000	0.003113
3006.000000	0.003130
3005.000000	0.003147
3004.000000	0.003154
3003.000000	0.003157
3002.000000	0.003164
3001.000000	0.003177
3000.000000	0.003189
2999.000000	0.003195
2998.000000	0.003199
2997.000000	0.003212
2996.000000	0.003238
2995.000000	0.003272
2994.000000	0.003301
2993.000000	0.003320
2992.000000	0.003329
2991.000000	0.003324
2990.000000	0.003307
2989.000000	0.003282
2988.000000	0.003262
2987.000000	0.003261
2986.000000	0.003280
2985.000000	0.003311
2984.000000	0.003345
2983.000000	0.003378
2982.000000	0.003409
2981.000000	0.003438
2980.000000	0.003467
2979.000000	0.003500
2978.000000	0.003539
2977.000000	0.003585
2976.000000	0.003637
2975.000000	0.003689
2974.000000	0.003733
2973.000000	0.003765
2972.000000	0.003791
2971.000000	0.003820
2970.000000	0.003862
2969.000000	0.003920
2968.000000	0.003988
2967.000000	0.004053
2966.000000	0.004099
2965.000000	0.004119
2964.000000	0.004118
2963.000000	0.004113
2962.000000	0.004118
2961.000000	0.004139
2960.000000	0.004165
2959.000000	0.004183
2958.000000	0.004191
2957.000000	0.004196
2956.000000	0.004209
2955.000000	0.004229
2954.000000	0.004243
2953.000000	0.004238
2952.000000	0.004213
2951.000000	0.004179
2950.000000	0.004149
2949.000000	0.004129
2948.000000	0.004121
2947.000000	0.004123
2946.000000	0.004134
2945.000000	0.004161
2944.000000	0.004208
2943.000000	0.004273
2942.000000	0.004345
2941.000000	0.004409
2940.000000	0.004464
2939.000000	0.004520
2938.000000	0.004579
2937.000000	0.004629
2936.000000	0.004659
2935.000000	0.004669
2934.000000	0.004674
2933.000000	0.004682
2932.000000	0.004695
2931.000000	0.004710
2930.000000	0.004725
2929.000000	0.004742
2928.000000	0.004759
2927.000000	0.004772
2926.000000	0.004774
2925.000000	0.004767
2924.000000	0.004757
2923.000000	0.004748
2922.000000	0.004737
2921.000000	0.004714
2920.000000	0.004673
2919.000000	0.004624
2918.000000	0.004582
2917.000000	0.004555
2916.000000	0.004535
2915.000000	0.004505
2914.000000	0.004459
2913.000000	0.004399
2912.000000	0.004339
2911.000000	0.004287
2910.000000	0.004248
2909.000000	0.004219
2908.000000	0.004197
2907.000000	0.004178
2906.000000	0.004152
2905.000000	0.004112
2904.000000	0.004055
2903.000000	0.003992
2902.000000	0.003935
2901.000000	0.003892
2900.000000	0.003865
2899.000000	0.003850
2898.000000	0.003836
2897.000000	0.003814
2896.000000	0.003781
2895.000000	0.003747
2894.000000	0.003716
2893.000000	0.003688
2892.000000	0.003662
2891.000000	0.003638
2890.000000	0.003618
2889.000000	0.003597
2888.000000	0.003565
2887.000000	0.003522
2886.000000	0.003482
2885.000000	0.003464
2884.000000	0.003476
2883.000000	0.003510
2882.000000	0.003554
2881.000000	0.003602
2880.000000	0.003648
2879.000000	0.003687
2878.000000	0.003709
2877.000000	0.003716
2876.000000	0.003719
2875.000000	0.003726
2874.000000	0.003736
2873.000000	0.003740
2872.000000	0.003737
2871.000000	0.003733
2870.000000	0.003732
2869.000000	0.003732
2868.000000	0.003729
2867.000000	0.003723
2866.000000	0.003715
2865.000000	0.003705
2864.000000	0.003695
2863.000000	0.003695
2862.000000	0.003710
2861.000000	0.003737
2860.000000	0.003764
2859.000000	0.003785
2858.000000	0.003796
2857.000000	0.003798
2856.000000	0.003789
2855.000000	0.003771
2854.000000	0.003746
2853.000000	0.003710
2852.000000	0.003664
2851.000000	0.003613
2850.000000	0.003563
2849.000000	0.003518
2848.000000	0.003477
2847.000000	0.003438
2846.000000	0.003402
2845.000000	0.003362
2844.000000	0.003314
2843.000000	0.003263
2842.000000	0.003219
2841.000000	0.003183
2840.000000	0.003145
2839.000000	0.003103
2838.000000	0.003065
2837.000000	0.003037
2836.000000	0.003014
2835.000000	0.002990
2834.000000	0.002970
2833.000000	0.002962
2832.000000	0.002964
2831.000000	0.002965
2830.000000	0.002957
2829.000000	0.002943
2828.000000	0.002931
2827.000000	0.002924
2826.000000	0.002920
2825.000000	0.002917
2824.000000	0.002907
2823.000000	0.002890
2822.000000	0.002870
2821.000000	0.002853
2820.000000	0.002839
2819.000000	0.002826
2818.000000	0.002816
2817.000000	0.002810
2816.000000	0.002804
2815.000000	0.002795
2814.000000	0.002781
2813.000000	0.002766
2812.000000	0.002750
2811.000000	0.002740
2810.000000	0.002744
2809.000000	0.002764
2808.000000	0.002785
2807.000000	0.002789
2806.000000	0.002771
2805.000000	0.002751
2804.000000	0.002746
2803.000000	0.002758
2802.000000	0.002771
2801.000000	0.002769
2800.000000	0.002748
2799.000000	0.002720
2798.000000	0.002699
2797.000000	0.002696
2796.000000	0.002703
2795.000000	0.002703
2794.000000	0.002690
2793.000000	0.002670
2792.000000	0.002658
2791.000000	0.002659
2790.000000	0.002664
2789.000000	0.002667
2788.000000	0.002662
2787.000000	0.002652
2786.000000	0.002641
2785.000000	0.002634
2784.000000	0.002638
2783.000000	0.002647
2782.000000	0.002655
2781.000000	0.002655
2780.000000	0.002646
2779.000000	0.002635
2778.000000	0.002628
2777.000000	0.002631
2776.000000	0.002641
2775.000000	0.002651
2774.000000	0.002650
2773.000000	0.002636
2772.000000	0.002620
2771.000000	0.002607
2770.000000	0.002597
2769.000000	0.002585
2768.000000	0.002575
2767.000000	0.002575
2766.000000	0.002585
2765.000000	0.002599
2764.000000	0.002608
2763.000000	0.002611
2762.000000	0.002613
2761.000000	0.002617
2760.000000	0.002620
2759.000000	0.002614
2758.000000	0.002600
2757.000000	0.002584
2756.000000	0.002576
2755.000000	0.002578
2754.000000	0.002589
2753.000000	0.002601
2752.000000	0.002610
2751.000000	0.002614
2750.000000	0.002611
2749.000000	0.002597
2748.000000	0.002572
2747.000000	0.002542
2746.000000	0.002517
2745.000000	0.002506
2744.000000	0.002506
2743.000000	0.002511
2742.000000	0.002516
2741.000000	0.002522
2740.000000	0.002531
2739.000000	0.002544
2738.000000	0.002559
2737.000000	0.002572
2736.000000	0.002575
2735.000000	0.002565
2734.000000	0.002547
2733.000000	0.002530
2732.000000	0.002520
2731.000000	0.002518
2730.000000	0.002519
2729.000000	0.002520
2728.000000	0.002520
2727.000000	0.002522
2726.000000	0.002524
2725.000000	0.002527
2724.000000	0.002530
2723.000000	0.002533
2722.000000	0.002534
2721.000000	0.002532
2720.000000	0.002524
2719.000000	0.002510
2718.000000	0.002494
2717.000000	0.002479
2716.000000	0.002466
2715.000000	0.002453
2714.000000	0.002439
2713.000000	0.002431
2712.000000	0.002438
2711.000000	0.002457
2710.000000	0.002478
2709.000000	0.002493
2708.000000	0.002499
2707.000000	0.002499
2706.000000	0.002493
2705.000000	0.002477
2704.000000	0.002458
2703.000000	0.002445
2702.000000	0.002447
2701.000000	0.002458
2700.000000	0.002462
2699.000000	0.002452
2698.000000	0.002430
2697.000000	0.002407
2696.000000	0.002390
2695.000000	0.002381
2694.000000	0.002380
2693.000000	0.002386
2692.000000	0.002398
2691.000000	0.002416
2690.000000	0.002433
2689.000000	0.002442
2688.000000	0.002440
2687.000000	0.002431
2686.000000	0.002423
2685.000000	0.002423
2684.000000	0.002428
2683.000000	0.002438
2682.000000	0.002449
2681.000000	0.002460
2680.000000	0.002469
2679.000000	0.002476
2678.000000	0.002482
2677.000000	0.002488
2676.000000	0.002488
2675.000000	0.002482
2674.000000	0.002470
2673.000000	0.002456
2672.000000	0.002443
2671.000000	0.002434
2670.000000	0.002432
2669.000000	0.002436
2668.000000	0.002440
2667.000000	0.002435
2666.000000	0.002417
2665.000000	0.002397
2664.000000	0.002390
2663.000000	0.002403
2662.000000	0.002432
2661.000000	0.002463
2660.000000	0.002485
2659.000000	0.002495
2658.000000	0.002494
2657.000000	0.002483
2656.000000	0.002463
2655.000000	0.002437
2654.000000	0.002414
2653.000000	0.002401
2652.000000	0.002397
2651.000000	0.002394
2650.000000	0.002390
2649.000000	0.002391
2648.000000	0.002405
2647.000000	0.002430
2646.000000	0.002453
2645.000000	0.002462
2644.000000	0.002451
2643.000000	0.002428
2642.000000	0.002402
2641.000000	0.002376
2640.000000	0.002351
2639.000000	0.002328
2638.000000	0.002312
2637.000000	0.002305
2636.000000	0.002306
2635.000000	0.002311
2634.000000	0.002318
2633.000000	0.002322
2632.000000	0.002319
2631.000000	0.002304
2630.000000	0.002280
2629.000000	0.002259
2628.000000	0.002255
2627.000000	0.002268
2626.000000	0.002286
2625.000000	0.002287
2624.000000	0.002263
2623.000000	0.002226
2622.000000	0.002198
2621.000000	0.002184
2620.000000	0.002170
2619.000000	0.002141
2618.000000	0.002108
2617.000000	0.002099
2616.000000	0.002126
2615.000000	0.002171
2614.000000	0.002205
2613.000000	0.002217
2612.000000	0.002219
2611.000000	0.002227
2610.000000	0.002236
2609.000000	0.002231
2608.000000	0.002206
2607.000000	0.002170
2606.000000	0.002140
2605.000000	0.002129
2604.000000	0.002131
2603.000000	0.002134
2602.000000	0.002128
2601.000000	0.002114
2600.000000	0.002104
2599.000000	0.002104
2598.000000	0.002114
2597.000000	0.002124
2596.000000	0.002127
2595.000000	0.002126
2594.000000	0.002127
2593.000000	0.002126
2592.000000	0.002114
2591.000000	0.002090
2590.000000	0.002062
2589.000000	0.002039
2588.000000	0.002024
2587.000000	0.002018
2586.000000	0.002023
2585.000000	0.002036
2584.000000	0.002051
2583.000000	0.002058
2582.000000	0.002053
2581.000000	0.002041
2580.000000	0.002024
2579.000000	0.002006
2578.000000	0.001991
2577.000000	0.001991
2576.000000	0.002010
2575.000000	0.002040
2574.000000	0.002070
2573.000000	0.002087
2572.000000	0.002087
2571.000000	0.002066
2570.000000	0.002030
2569.000000	0.002002
2568.000000	0.002009
2567.000000	0.002059
2566.000000	0.002126
2565.000000	0.002162
2564.000000	0.002136
2563.000000	0.002059
2562.000000	0.001978
2561.000000	0.001940
2560.000000	0.001956
2559.000000	0.002004
2558.000000	0.002053
2557.000000	0.002083
2556.000000	0.002084
2555.000000	0.002052
2554.000000	0.001990
2553.000000	0.001922
2552.000000	0.001880
2551.000000	0.001882
2550.000000	0.001913
2549.000000	0.001938
2548.000000	0.001936
2547.000000	0.001913
2546.000000	0.001891
2545.000000	0.001886
2544.000000	0.001902
2543.000000	0.001937
2542.000000	0.001978
2541.000000	0.002008
2540.000000	0.002010
2539.000000	0.001986
2538.000000	0.001962
2537.000000	0.001962
2536.000000	0.001985
2535.000000	0.002002
2534.000000	0.001989
2533.000000	0.001954
2532.000000	0.001934
2531.000000	0.001953
2530.000000	0.001999
2529.000000	0.002038
2528.000000	0.002049
2527.000000	0.002036
2526.000000	0.002008
2525.000000	0.001966
2524.000000	0.001918
2523.000000	0.001878
2522.000000	0.001860
2521.000000	0.001861
2520.000000	0.001871
2519.000000	0.001880
2518.000000	0.001884
2517.000000	0.001879
2516.000000	0.001869
2515.000000	0.001871
2514.000000	0.001894
2513.000000	0.001924
2512.000000	0.001935
2511.000000	0.001915
2510.000000	0.001877
2509.000000	0.001840
2508.000000	0.001813
2507.000000	0.001803
2506.000000	0.001816
2505.000000	0.001856
2504.000000	0.001910
2503.000000	0.001958
2502.000000	0.001982
2501.000000	0.001973
2500.000000	0.001938
2499.000000	0.001891
2498.000000	0.001845
2497.000000	0.001809
2496.000000	0.001786
2495.000000	0.001780
2494.000000	0.001789
2493.000000	0.001805
2492.000000	0.001817
2491.000000	0.001827
2490.000000	0.001840
2489.000000	0.001856
2488.000000	0.001863
2487.000000	0.001855
2486.000000	0.001839
2485.000000	0.001827
2484.000000	0.001827
2483.000000	0.001841
2482.000000	0.001863
2481.000000	0.001882
2480.000000	0.001882
2479.000000	0.001863
2478.000000	0.001835
2477.000000	0.001815
2476.000000	0.001809
2475.000000	0.001818
2474.000000	0.001839
2473.000000	0.001861
2472.000000	0.001866
2471.000000	0.001840
2470.000000	0.001787
2469.000000	0.001727
2468.000000	0.001677
2467.000000	0.001653
2466.000000	0.001661
2465.000000	0.001695
2464.000000	0.001738
2463.000000	0.001775
2462.000000	0.001800
2461.000000	0.001820
2460.000000	0.001844
2459.000000	0.001873
2458.000000	0.001904
2457.000000	0.001933
2456.000000	0.001958
2455.000000	0.001971
2454.000000	0.001967
2453.000000	0.001940
2452.000000	0.001900
2451.000000	0.001869
2450.000000	0.001857
2449.000000	0.001851
2448.000000	0.001830
2447.000000	0.001798
2446.000000	0.001784
2445.000000	0.001802
2444.000000	0.001830
2443.000000	0.001842
2442.000000	0.001835
2441.000000	0.001826
2440.000000	0.001823
2439.000000	0.001828
2438.000000	0.001841
2437.000000	0.001861
2436.000000	0.001873
2435.000000	0.001857
2434.000000	0.001812
2433.000000	0.001764
2432.000000	0.001742
2431.000000	0.001755
2430.000000	0.001787
2429.000000	0.001814
2428.000000	0.001818
2427.000000	0.001792
2426.000000	0.001747
2425.000000	0.001704
2424.000000	0.001685
2423.000000	0.001697
2422.000000	0.001725
2421.000000	0.001747
2420.000000	0.001755
2419.000000	0.001759
2418.000000	0.001773
2417.000000	0.001791
2416.000000	0.001794
2415.000000	0.001769
2414.000000	0.001722
2413.000000	0.001664
2412.000000	0.001609
2411.000000	0.001572
2410.000000	0.001570
2409.000000	0.001609
2408.000000	0.001668
2407.000000	0.001719
2406.000000	0.001744
2405.000000	0.001747
2404.000000	0.001739
2403.000000	0.001731
2402.000000	0.001724
2401.000000	0.001716
2400.000000	0.001710
2399.000000	0.001710
2398.000000	0.001723
2397.000000	0.001741
2396.000000	0.001751
2395.000000	0.001743
2394.000000	0.001720
2393.000000	0.001692
2392.000000	0.001668
2391.000000	0.001657
2390.000000	0.001663
2389.000000	0.001683
2388.000000	0.001709
2387.000000	0.001740
2386.000000	0.001776
2385.000000	0.001802
2384.000000	0.001792
2383.000000	0.001734
2382.000000	0.001655
2381.000000	0.001601
2380.000000	0.001594
2379.000000	0.001631
2378.000000	0.001689
2377.000000	0.001745
2376.000000	0.001775
2375.000000	0.001773
2374.000000	0.001749
2373.000000	0.001714
2372.000000	0.001671
2371.000000	0.001625
2370.000000	0.001586
2369.000000	0.001550
2368.000000	0.001508
2367.000000	0.001479
2366.000000	0.001502
2365.000000	0.001584
2364.000000	0.001682
2363.000000	0.001761
2362.000000	0.001816
2361.000000	0.001838
2360.000000	0.001822
2359.000000	0.001779
2358.000000	0.001737
2357.000000	0.001711
2356.000000	0.001702
2355.000000	0.001718
2354.000000	0.001717
2353.000000	0.001641
2352.000000	0.001518
2351.000000	0.001449
2350.000000	0.001489
2349.000000	0.001604
2348.000000	0.001728
2347.000000	0.001799
2346.000000	0.001805
2345.000000	0.001808
2344.000000	0.001855
2343.000000	0.001916
2342.000000	0.001931
2341.000000	0.001884
2340.000000	0.001827
2339.000000	0.001825
2338.000000	0.001880
2337.000000	0.001930
2336.000000	0.001925
2335.000000	0.001865
2334.000000	0.001772
2333.000000	0.001669
2332.000000	0.001589
2331.000000	0.001562
2330.000000	0.001592
2329.000000	0.001660
2328.000000	0.001763
2327.000000	0.001903
2326.000000	0.002051
2325.000000	0.002159
2324.000000	0.002190
2323.000000	0.002160
2322.000000	0.002113
2321.000000	0.002097
2320.000000	0.002130
2319.000000	0.002195
2318.000000	0.002254
2317.000000	0.002275
2316.000000	0.002257
2315.000000	0.002222
2314.000000	0.002195
2313.000000	0.002180
2312.000000	0.002168
2311.000000	0.002147
2310.000000	0.002117
2309.000000	0.002084
2308.000000	0.002053
2307.000000	0.002028
2306.000000	0.002009
2305.000000	0.001999
2304.000000	0.001990
2303.000000	0.001980
2302.000000	0.001972
2301.000000	0.001973
2300.000000	0.001985
2299.000000	0.001999
2298.000000	0.002009
2297.000000	0.002011
2296.000000	0.002002
2295.000000	0.001981
2294.000000	0.001956
2293.000000	0.001946
2292.000000	0.001961
2291.000000	0.001999
2290.000000	0.002044
2289.000000	0.002088
2288.000000	0.002136
2287.000000	0.002190
2286.000000	0.002234
2285.000000	0.002232
2284.000000	0.002162
2283.000000	0.002049
2282.000000	0.001948
2281.000000	0.001894
2280.000000	0.001871
2279.000000	0.001846
2278.000000	0.001815
2277.000000	0.001803
2276.000000	0.001825
2275.000000	0.001868
2274.000000	0.001904
2273.000000	0.001908
2272.000000	0.001863
2271.000000	0.001777
2270.000000	0.001692
2269.000000	0.001658
2268.000000	0.001689
2267.000000	0.001755
2266.000000	0.001809
2265.000000	0.001819
2264.000000	0.001783
2263.000000	0.001729
2262.000000	0.001701
2261.000000	0.001726
2260.000000	0.001790
2259.000000	0.001852
2258.000000	0.001872
2257.000000	0.001829
2256.000000	0.001718
2255.000000	0.001575
2254.000000	0.001467
2253.000000	0.001461
2252.000000	0.001557
2251.000000	0.001694
2250.000000	0.001799
2249.000000	0.001830
2248.000000	0.001791
2247.000000	0.001727
2246.000000	0.001694
2245.000000	0.001715
2244.000000	0.001761
2243.000000	0.001788
2242.000000	0.001797
2241.000000	0.001814
2240.000000	0.001846
2239.000000	0.001875
2238.000000	0.001905
2237.000000	0.001954
2236.000000	0.002002
2235.000000	0.002002
2234.000000	0.001954
2233.000000	0.001914
2232.000000	0.001920
2231.000000	0.001940
2230.000000	0.001931
2229.000000	0.001890
2228.000000	0.001846
2227.000000	0.001806
2226.000000	0.001760
2225.000000	0.001705
2224.000000	0.001658
2223.000000	0.001639
2222.000000	0.001664
2221.000000	0.001722
2220.000000	0.001764
2219.000000	0.001745
2218.000000	0.001694
2217.000000	0.001702
2216.000000	0.001798
2215.000000	0.001897
2214.000000	0.001893
2213.000000	0.001779
2212.000000	0.001626
2211.000000	0.001497
2210.000000	0.001403
2209.000000	0.001358
2208.000000	0.001386
2207.000000	0.001486
2206.000000	0.001619
2205.000000	0.001739
2204.000000	0.001808
2203.000000	0.001796
2202.000000	0.001685
2201.000000	0.001497
2200.000000	0.001300
2199.000000	0.001172
2198.000000	0.001156
2197.000000	0.001228
2196.000000	0.001321
2195.000000	0.001385
2194.000000	0.001429
2193.000000	0.001490
2192.000000	0.001553
2191.000000	0.001554
2190.000000	0.001473
2189.000000	0.001390
2188.000000	0.001406
2187.000000	0.001519
2186.000000	0.001638
2185.000000	0.001691
2184.000000	0.001676
2183.000000	0.001636
2182.000000	0.001599
2181.000000	0.001587
2180.000000	0.001618
2179.000000	0.001679
2178.000000	0.001716
2177.000000	0.001673
2176.000000	0.001560
2175.000000	0.001466
2174.000000	0.001483
2173.000000	0.001620
2172.000000	0.001797
2171.000000	0.001933
2170.000000	0.002013
2169.000000	0.002056
2168.000000	0.002066
2167.000000	0.002041
2166.000000	0.002014
2165.000000	0.002043
2164.000000	0.002133
2163.000000	0.002210
2162.000000	0.002181
2161.000000	0.001992
2160.000000	0.001628
2159.000000	0.001141
2158.000000	0.000705
2157.000000	0.000532
2156.000000	0.000659
2155.000000	0.000909
2154.000000	0.001070
2153.000000	0.001058
2152.000000	0.000922
2151.000000	0.000744
2150.000000	0.000566
2149.000000	0.000406
2148.000000	0.000293
2147.000000	0.000267
2146.000000	0.000360
2145.000000	0.000555
2144.000000	0.000799
2143.000000	0.001040
2142.000000	0.001263
2141.000000	0.001459
2140.000000	0.001588
2139.000000	0.001596
2138.000000	0.001487
2137.000000	0.001325
2136.000000	0.001164
2135.000000	0.001008
2134.000000	0.000845
2133.000000	0.000701
2132.000000	0.000621
2131.000000	0.000610
2130.000000	0.000642
2129.000000	0.000707
2128.000000	0.000811
2127.000000	0.000939
2126.000000	0.001042
2125.000000	0.001086
2124.000000	0.001096
2123.000000	0.001135
2122.000000	0.001236
2121.000000	0.001359
2120.000000	0.001436
2119.000000	0.001440
2118.000000	0.001408
2117.000000	0.001396
2116.000000	0.001437
2115.000000	0.001526
2114.000000	0.001636
2113.000000	0.001733
2112.000000	0.001775
2111.000000	0.001743
2110.000000	0.001655
2109.000000	0.001558
2108.000000	0.001493
2107.000000	0.001475
2106.000000	0.001505
2105.000000	0.001577
2104.000000	0.001669
2103.000000	0.001741
2102.000000	0.001760
2101.000000	0.001721
2100.000000	0.001645
2099.000000	0.001552
2098.000000	0.001442
2097.000000	0.001321
2096.000000	0.001214
2095.000000	0.001159
2094.000000	0.001170
2093.000000	0.001233
2092.000000	0.001321
2091.000000	0.001413
2090.000000	0.001487
2089.000000	0.001518
2088.000000	0.001501
2087.000000	0.001476
2086.000000	0.001496
2085.000000	0.001557
2084.000000	0.001594
2083.000000	0.001557
2082.000000	0.001476
2081.000000	0.001427
2080.000000	0.001464
2079.000000	0.001577
2078.000000	0.001707
2077.000000	0.001774
2076.000000	0.001723
2075.000000	0.001571
2074.000000	0.001394
2073.000000	0.001264
2072.000000	0.001194
2071.000000	0.001181
2070.000000	0.001237
2069.000000	0.001353
2068.000000	0.001456
2067.000000	0.001476
2066.000000	0.001438
2065.000000	0.001426
2064.000000	0.001459
2063.000000	0.001464
2062.000000	0.001383
2061.000000	0.001254
2060.000000	0.001161
2059.000000	0.001139
2058.000000	0.001160
2057.000000	0.001165
2056.000000	0.001115
2055.000000	0.001034
2054.000000	0.001017
2053.000000	0.001151
2052.000000	0.001416
2051.000000	0.001691
2050.000000	0.001854
2049.000000	0.001862
2048.000000	0.001735
2047.000000	0.001516
2046.000000	0.001277
2045.000000	0.001115
2044.000000	0.001077
2043.000000	0.001105
2042.000000	0.001099
2041.000000	0.001013
2040.000000	0.000885
2039.000000	0.000770
2038.000000	0.000700
2037.000000	0.000684
2036.000000	0.000710
2035.000000	0.000752
2034.000000	0.000784
2033.000000	0.000775
2032.000000	0.000688
2031.000000	0.000521
2030.000000	0.000354
2029.000000	0.000307
2028.000000	0.000430
2027.000000	0.000655
2026.000000	0.000862
2025.000000	0.000967
2024.000000	0.000953
2023.000000	0.000880
2022.000000	0.000851
2021.000000	0.000915
2020.000000	0.001003
2019.000000	0.000998
2018.000000	0.000885
2017.000000	0.000771
2016.000000	0.000750
2015.000000	0.000803
2014.000000	0.000852
2013.000000	0.000854
2012.000000	0.000823
2011.000000	0.000807
2010.000000	0.000844
2009.000000	0.000913
2008.000000	0.000938
2007.000000	0.000882
2006.000000	0.000819
2005.000000	0.000851
2004.000000	0.000970
2003.000000	0.001071
2002.000000	0.001093
2001.000000	0.001073
2000.000000	0.001069
1999.000000	0.001080
1998.000000	0.001072
1997.000000	0.001031
1996.000000	0.000969
1995.000000	0.000908
1994.000000	0.000867
1993.000000	0.000852
1992.000000	0.000857
1991.000000	0.000887
1990.000000	0.000976
1989.000000	0.001123
1988.000000	0.001240
1987.000000	0.001240
1986.000000	0.001147
1985.000000	0.001089
1984.000000	0.001145
1983.000000	0.001279
1982.000000	0.001402
1981.000000	0.001451
1980.000000	0.001384
1979.000000	0.001191
1978.000000	0.000946
1977.000000	0.000783
1976.000000	0.000757
1975.000000	0.000800
1974.000000	0.000829
1973.000000	0.000814
1972.000000	0.000731
1971.000000	0.000571
1970.000000	0.000408
1969.000000	0.000375
1968.000000	0.000520
1967.000000	0.000740
1966.000000	0.000914
1965.000000	0.001027
1964.000000	0.001119
1963.000000	0.001191
1962.000000	0.001223
1961.000000	0.001202
1960.000000	0.001107
1959.000000	0.000907
1958.000000	0.000637
1957.000000	0.000410
1956.000000	0.000320
1955.000000	0.000352
1954.000000	0.000437
1953.000000	0.000546
1952.000000	0.000683
1951.000000	0.000840
1950.000000	0.000983
1949.000000	0.001079
1948.000000	0.001102
1947.000000	0.001035
1946.000000	0.000904
1945.000000	0.000792
1944.000000	0.000771
1943.000000	0.000826
1942.000000	0.000875
1941.000000	0.000861
1940.000000	0.000806
1939.000000	0.000767
1938.000000	0.000777
1937.000000	0.000822
1936.000000	0.000864
1935.000000	0.000889
1934.000000	0.000927
1933.000000	0.001011
1932.000000	0.001109
1931.000000	0.001142
1930.000000	0.001084
1929.000000	0.001005
1928.000000	0.000991
1927.000000	0.001052
1926.000000	0.001129
1925.000000	0.001167
1924.000000	0.001139
1923.000000	0.001050
1922.000000	0.000926
1921.000000	0.000820
1920.000000	0.000766
1919.000000	0.000754
1918.000000	0.000746
1917.000000	0.000731
1916.000000	0.000737
1915.000000	0.000788
1914.000000	0.000874
1913.000000	0.000963
1912.000000	0.001025
1911.000000	0.001044
1910.000000	0.001018
1909.000000	0.000960
1908.000000	0.000907
1907.000000	0.000893
1906.000000	0.000926
1905.000000	0.000971
1904.000000	0.000984
1903.000000	0.000952
1902.000000	0.000905
1901.000000	0.000880
1900.000000	0.000892
1899.000000	0.000928
1898.000000	0.000961
1897.000000	0.000970
1896.000000	0.000955
1895.000000	0.000942
1894.000000	0.000955
1893.000000	0.000977
1892.000000	0.000966
1891.000000	0.000912
1890.000000	0.000862
1889.000000	0.000876
1888.000000	0.000951
1887.000000	0.001037
1886.000000	0.001095
1885.000000	0.001106
1884.000000	0.001069
1883.000000	0.001001
1882.000000	0.000941
1881.000000	0.000918
1880.000000	0.000919
1879.000000	0.000909
1878.000000	0.000877
1877.000000	0.000837
1876.000000	0.000809
1875.000000	0.000798
1874.000000	0.000807
1873.000000	0.000829
1872.000000	0.000845
1871.000000	0.000839
1870.000000	0.000829
1869.000000	0.000845
1868.000000	0.000874
1867.000000	0.000868
1866.000000	0.000831
1865.000000	0.000814
1864.000000	0.000847
1863.000000	0.000906
1862.000000	0.000946
1861.000000	0.000945
1860.000000	0.000909
1859.000000	0.000854
1858.000000	0.000802
1857.000000	0.000774
1856.000000	0.000769
1855.000000	0.000770
1854.000000	0.000768
1853.000000	0.000771
1852.000000	0.000789
1851.000000	0.000821
1850.000000	0.000862
1849.000000	0.000899
1848.000000	0.000916
1847.000000	0.000902
1846.000000	0.000864
1845.000000	0.000823
1844.000000	0.000790
1843.000000	0.000764
1842.000000	0.000752
1841.000000	0.000763
1840.000000	0.000794
1839.000000	0.000821
1838.000000	0.000826
1837.000000	0.000816
1836.000000	0.000807
1835.000000	0.000800
1834.000000	0.000785
1833.000000	0.000755
1832.000000	0.000709
1831.000000	0.000658
1830.000000	0.000630
1829.000000	0.000648
1828.000000	0.000695
1827.000000	0.000735
1826.000000	0.000750
1825.000000	0.000748
1824.000000	0.000737
1823.000000	0.000720
1822.000000	0.000698
1821.000000	0.000675
1820.000000	0.000650
1819.000000	0.000612
1818.000000	0.000571
1817.000000	0.000549
1816.000000	0.000555
1815.000000	0.000564
1814.000000	0.000560
1813.000000	0.000550
1812.000000	0.000550
1811.000000	0.000564
1810.000000	0.000593
1809.000000	0.000641
1808.000000	0.000698
1807.000000	0.000737
1806.000000	0.000746
1805.000000	0.000745
1804.000000	0.000752
1803.000000	0.000765
1802.000000	0.000770
1801.000000	0.000771
1800.000000	0.000779
1799.000000	0.000794
1798.000000	0.000807
1797.000000	0.000811
1796.000000	0.000801
1795.000000	0.000784
1794.000000	0.000779
1793.000000	0.000807
1792.000000	0.000852
1791.000000	0.000867
1790.000000	0.000833
1789.000000	0.000778
1788.000000	0.000733
1787.000000	0.000707
1786.000000	0.000697
1785.000000	0.000694
1784.000000	0.000683
1783.000000	0.000651
1782.000000	0.000606
1781.000000	0.000572
1780.000000	0.000568
1779.000000	0.000582
1778.000000	0.000589
1777.000000	0.000574
1776.000000	0.000541
1775.000000	0.000516
1774.000000	0.000535
1773.000000	0.000608
1772.000000	0.000691
1771.000000	0.000724
1770.000000	0.000708
1769.000000	0.000692
1768.000000	0.000705
1767.000000	0.000728
1766.000000	0.000741
1765.000000	0.000751
1764.000000	0.000785
1763.000000	0.000851
1762.000000	0.000933
1761.000000	0.001009
1760.000000	0.001069
1759.000000	0.001126
1758.000000	0.001211
1757.000000	0.001338
1756.000000	0.001476
1755.000000	0.001581
1754.000000	0.001659
1753.000000	0.001770
1752.000000	0.001955
1751.000000	0.002193
1750.000000	0.002432
1749.000000	0.002655
1748.000000	0.002858
1747.000000	0.003014
1746.000000	0.003114
1745.000000	0.003198
1744.000000	0.003302
1743.000000	0.003406
1742.000000	0.003476
1741.000000	0.003522
1740.000000	0.003564
1739.000000	0.003569
1738.000000	0.003486
1737.000000	0.003327
1736.000000	0.003163
1735.000000	0.003071
1734.000000	0.003075
1733.000000	0.003102
1732.000000	0.003067
1731.000000	0.002972
1730.000000	0.002851
1729.000000	0.002732
1728.000000	0.002620
1727.000000	0.002509
1726.000000	0.002399
1725.000000	0.002301
1724.000000	0.002220
1723.000000	0.002140
1722.000000	0.002048
1721.000000	0.001948
1720.000000	0.001854
1719.000000	0.001778
1718.000000	0.001735
1717.000000	0.001752
1716.000000	0.001804
1715.000000	0.001832
1714.000000	0.001826
1713.000000	0.001815
1712.000000	0.001823
1711.000000	0.001850
1710.000000	0.001888
1709.000000	0.001929
1708.000000	0.001972
1707.000000	0.002021
1706.000000	0.002079
1705.000000	0.002138
1704.000000	0.002165
1703.000000	0.002154
1702.000000	0.002158
1701.000000	0.002246
1700.000000	0.002395
1699.000000	0.002505
1698.000000	0.002577
1697.000000	0.002707
1696.000000	0.002931
1695.000000	0.003158
1694.000000	0.003315
1693.000000	0.003437
1692.000000	0.003562
1691.000000	0.003690
1690.000000	0.003801
1689.000000	0.003886
1688.000000	0.003949
1687.000000	0.004008
1686.000000	0.004119
1685.000000	0.004361
1684.000000	0.004710
1683.000000	0.005002
1682.000000	0.005174
1681.000000	0.005306
1680.000000	0.005442
1679.000000	0.005569
1678.000000	0.005681
1677.000000	0.005820
1676.000000	0.006032
1675.000000	0.006283
1674.000000	0.006486
1673.000000	0.006619
1672.000000	0.006734
1671.000000	0.006874
1670.000000	0.007061
1669.000000	0.007281
1668.000000	0.007490
1667.000000	0.007659
1666.000000	0.007799
1665.000000	0.007940
1664.000000	0.008094
1663.000000	0.008241
1662.000000	0.008373
1661.000000	0.008515
1660.000000	0.008683
1659.000000	0.008853
1658.000000	0.009000
1657.000000	0.009115
1656.000000	0.009219
1655.000000	0.009346
1654.000000	0.009505
1653.000000	0.009678
1652.000000	0.009845
1651.000000	0.009989
1650.000000	0.010118
1649.000000	0.010250
1648.000000	0.010400
1647.000000	0.010568
1646.000000	0.010715
1645.000000	0.010829
1644.000000	0.010919
1643.000000	0.010995
1642.000000	0.011055
1641.000000	0.011106
1640.000000	0.011154
1639.000000	0.011199
1638.000000	0.011239
1637.000000	0.011267
1636.000000	0.011261
1635.000000	0.011231
1634.000000	0.011227
1633.000000	0.011269
1632.000000	0.011342
1631.000000	0.011416
1630.000000	0.011477
1629.000000	0.011520
1628.000000	0.011545
1627.000000	0.011559
1626.000000	0.011571
1625.000000	0.011591
1624.000000	0.011609
1623.000000	0.011610
1622.000000	0.011606
1621.000000	0.011625
1620.000000	0.011671
1619.000000	0.011726
1618.000000	0.011756
1617.000000	0.011743
1616.000000	0.011716
1615.000000	0.011714
1614.000000	0.011729
1613.000000	0.011733
1612.000000	0.011711
1611.000000	0.011662
1610.000000	0.011599
1609.000000	0.011533
1608.000000	0.011466
1607.000000	0.011391
1606.000000	0.011311
1605.000000	0.011221
1604.000000	0.011116
1603.000000	0.010984
1602.000000	0.010825
1601.000000	0.010651
1600.000000	0.010476
1599.000000	0.010311
1598.000000	0.010159
1597.000000	0.010016
1596.000000	0.009870
1595.000000	0.009711
1594.000000	0.009546
1593.000000	0.009390
1592.000000	0.009252
1591.000000	0.009126
1590.000000	0.009011
1589.000000	0.008903
1588.000000	0.008796
1587.000000	0.008688
1586.000000	0.008582
1585.000000	0.008488
1584.000000	0.008405
1583.000000	0.008325
1582.000000	0.008239
1581.000000	0.008146
1580.000000	0.008050
1579.000000	0.007956
1578.000000	0.007864
1577.000000	0.007759
1576.000000	0.007630
1575.000000	0.007510
1574.000000	0.007430
1573.000000	0.007381
1572.000000	0.007349
1571.000000	0.007319
1570.000000	0.007272
1569.000000	0.007204
1568.000000	0.007136
1567.000000	0.007085
1566.000000	0.007048
1565.000000	0.007011
1564.000000	0.006960
1563.000000	0.006904
1562.000000	0.006862
1561.000000	0.006858
1560.000000	0.006856
1559.000000	0.006787
1558.000000	0.006725
1557.000000	0.006711
1556.000000	0.006701
1555.000000	0.006696
1554.000000	0.006688
1553.000000	0.006689
1552.000000	0.006699
1551.000000	0.006719
1550.000000	0.006734
1549.000000	0.006739
1548.000000	0.006741
1547.000000	0.006756
1546.000000	0.006785
1545.000000	0.006807
1544.000000	0.006790
1543.000000	0.006721
1542.000000	0.006613
1541.000000	0.006504
1540.000000	0.006454
1539.000000	0.006475
1538.000000	0.006505
1537.000000	0.006508
1536.000000	0.006495
1535.000000	0.006481
1534.000000	0.006470
1533.000000	0.006453
1532.000000	0.006426
1531.000000	0.006392
1530.000000	0.006358
1529.000000	0.006326
1528.000000	0.006283
1527.000000	0.006224
1526.000000	0.006161
1525.000000	0.006104
1524.000000	0.006054
1523.000000	0.006007
1522.000000	0.005971
1521.000000	0.005950
1520.000000	0.005937
1519.000000	0.005921
1518.000000	0.005907
1517.000000	0.005895
1516.000000	0.005869
1515.000000	0.005818
1514.000000	0.005756
1513.000000	0.005702
1512.000000	0.005654
1511.000000	0.005593
1510.000000	0.005509
1509.000000	0.005416
1508.000000	0.005336
1507.000000	0.005288
1506.000000	0.005280
1505.000000	0.005279
1504.000000	0.005265
1503.000000	0.005240
1502.000000	0.005202
1501.000000	0.005157
1500.000000	0.005103
1499.000000	0.005041
1498.000000	0.004995
1497.000000	0.005003
1496.000000	0.005052
1495.000000	0.005079
1494.000000	0.005053
1493.000000	0.005001
1492.000000	0.004959
1491.000000	0.004943
1490.000000	0.004955
1489.000000	0.004996
1488.000000	0.005046
1487.000000	0.005080
1486.000000	0.005101
1485.000000	0.005124
1484.000000	0.005161
1483.000000	0.005214
1482.000000	0.005282
1481.000000	0.005353
1480.000000	0.005414
1479.000000	0.005470
1478.000000	0.005536
1477.000000	0.005607
1476.000000	0.005653
1475.000000	0.005669
1474.000000	0.005713
1473.000000	0.005855
1472.000000	0.006068
1471.000000	0.006237
1470.000000	0.006327
1469.000000	0.006375
1468.000000	0.006413
1467.000000	0.006456
1466.000000	0.006527
1465.000000	0.006636
1464.000000	0.006750
1463.000000	0.006815
1462.000000	0.006828
1461.000000	0.006823
1460.000000	0.006828
1459.000000	0.006874
1458.000000	0.006999
1457.000000	0.007191
1456.000000	0.007339
1455.000000	0.007384
1454.000000	0.007383
1453.000000	0.007394
1452.000000	0.007419
1451.000000	0.007434
1450.000000	0.007440
1449.000000	0.007470
1448.000000	0.007544
1447.000000	0.007628
1446.000000	0.007681
1445.000000	0.007707
1444.000000	0.007730
1443.000000	0.007764
1442.000000	0.007806
1441.000000	0.007847
1440.000000	0.007875
1439.000000	0.007900
1438.000000	0.007956
1437.000000	0.008070
1436.000000	0.008203
1435.000000	0.008287
1434.000000	0.008320
1433.000000	0.008350
1432.000000	0.008406
1431.000000	0.008486
1430.000000	0.008573
1429.000000	0.008657
1428.000000	0.008723
1427.000000	0.008759
1426.000000	0.008777
1425.000000	0.008800
1424.000000	0.008824
1423.000000	0.008826
1422.000000	0.008806
1421.000000	0.008807
1420.000000	0.008869
1419.000000	0.008968
1418.000000	0.009032
1417.000000	0.009042
1416.000000	0.009027
1415.000000	0.009008
1414.000000	0.008984
1413.000000	0.008952
1412.000000	0.008914
1411.000000	0.008872
1410.000000	0.008825
1409.000000	0.008769
1408.000000	0.008697
1407.000000	0.008607
1406.000000	0.008515
1405.000000	0.008444
1404.000000	0.008394
1403.000000	0.008344
1402.000000	0.008280
1401.000000	0.008216
1400.000000	0.008167
1399.000000	0.008130
1398.000000	0.008094
1397.000000	0.008056
1396.000000	0.008030
1395.000000	0.008023
1394.000000	0.008023
1393.000000	0.008011
1392.000000	0.007978
1391.000000	0.007926
1390.000000	0.007862
1389.000000	0.007804
1388.000000	0.007765
1387.000000	0.007739
1386.000000	0.007704
1385.000000	0.007649
1384.000000	0.007582
1383.000000	0.007521
1382.000000	0.007472
1381.000000	0.007435
1380.000000	0.007398
1379.000000	0.007353
1378.000000	0.007298
1377.000000	0.007241
1376.000000	0.007191
1375.000000	0.007157
1374.000000	0.007133
1373.000000	0.007107
1372.000000	0.007071
1371.000000	0.007039
1370.000000	0.007026
1369.000000	0.007025
1368.000000	0.007013
1367.000000	0.006983
1366.000000	0.006948
1365.000000	0.006923
1364.000000	0.006901
1363.000000	0.006867
1362.000000	0.006820
1361.000000	0.006774
1360.000000	0.006733
1359.000000	0.006690
1358.000000	0.006643
1357.000000	0.006598
1356.000000	0.006556
1355.000000	0.006511
1354.000000	0.006458
1353.000000	0.006401
1352.000000	0.006343
1351.000000	0.006287
1350.000000	0.006237
1349.000000	0.006199
1348.000000	0.006178
1347.000000	0.006176
1346.000000	0.006192
1345.000000	0.006217
1344.000000	0.006246
1343.000000	0.006278
1342.000000	0.006325
1341.000000	0.006397
1340.000000	0.006499
1339.000000	0.006630
1338.000000	0.006787
1337.000000	0.006970
1336.000000	0.007176
1335.000000	0.007402
1334.000000	0.007645
1333.000000	0.007905
1332.000000	0.008188
1331.000000	0.008498
1330.000000	0.008838
1329.000000	0.009201
1328.000000	0.009565
1327.000000	0.009916
1326.000000	0.010250
1325.000000	0.010574
1324.000000	0.010883
1323.000000	0.011159
1322.000000	0.011378
1321.000000	0.011530
1320.000000	0.011603
1319.000000	0.011585
1318.000000	0.011469
1317.000000	0.011258
1316.000000	0.010960
1315.000000	0.010595
1314.000000	0.010199
1313.000000	0.009813
1312.000000	0.009446
1311.000000	0.009087
1310.000000	0.008734
1309.000000	0.008404
1308.000000	0.008109
1307.000000	0.007839
1306.000000	0.007574
1305.000000	0.007310
1304.000000	0.007064
1303.000000	0.006850
1302.000000	0.006667
1301.000000	0.006497
1300.000000	0.006328
1299.000000	0.006165
1298.000000	0.006022
1297.000000	0.005906
1296.000000	0.005804
1295.000000	0.005702
1294.000000	0.005596
1293.000000	0.005489
1292.000000	0.005379
1291.000000	0.005268
1290.000000	0.005167
1289.000000	0.005092
1288.000000	0.005040
1287.000000	0.004984
1286.000000	0.004908
1285.000000	0.004822
1284.000000	0.004747
1283.000000	0.004689
1282.000000	0.004640
1281.000000	0.004590
1280.000000	0.004538
1279.000000	0.004487
1278.000000	0.004441
1277.000000	0.004410
1276.000000	0.004399
1275.000000	0.004406
1274.000000	0.004420
1273.000000	0.004433
1272.000000	0.004443
1271.000000	0.004454
1270.000000	0.004469
1269.000000	0.004487
1268.000000	0.004507
1267.000000	0.004531
1266.000000	0.004561
1265.000000	0.004602
1264.000000	0.004647
1263.000000	0.004684
1262.000000	0.004708
1261.000000	0.004726
1260.000000	0.004751
1259.000000	0.004788
1258.000000	0.004826
1257.000000	0.004855
1256.000000	0.004871
1255.000000	0.004872
1254.000000	0.004859
1253.000000	0.004834
1252.000000	0.004807
1251.000000	0.004786
1250.000000	0.004773
1249.000000	0.004762
1248.000000	0.004748
1247.000000	0.004734
1246.000000	0.004723
1245.000000	0.004712
1244.000000	0.004692
1243.000000	0.004664
1242.000000	0.004634
1241.000000	0.004608
1240.000000	0.004584
1239.000000	0.004557
1238.000000	0.004523
1237.000000	0.004486
1236.000000	0.004447
1235.000000	0.004402
1234.000000	0.004349
1233.000000	0.004291
1232.000000	0.004238
1231.000000	0.004194
1230.000000	0.004152
1229.000000	0.004100
1228.000000	0.004031
1227.000000	0.003942
1226.000000	0.003838
1225.000000	0.003729
1224.000000	0.003623
1223.000000	0.003529
1222.000000	0.003447
1221.000000	0.003373
1220.000000	0.003303
1219.000000	0.003239
1218.000000	0.003191
1217.000000	0.003158
1216.000000	0.003131
1215.000000	0.003100
1214.000000	0.003061
1213.000000	0.003019
1212.000000	0.002976
1211.000000	0.002935
1210.000000	0.002902
1209.000000	0.002882
1208.000000	0.002870
1207.000000	0.002855
1206.000000	0.002827
1205.000000	0.002786
1204.000000	0.002745
1203.000000	0.002718
1202.000000	0.002714
1201.000000	0.002730
1200.000000	0.002755
1199.000000	0.002776
1198.000000	0.002788
1197.000000	0.002797
1196.000000	0.002801
1195.000000	0.002791
1194.000000	0.002766
1193.000000	0.002738
1192.000000	0.002728
1191.000000	0.002740
1190.000000	0.002763
1189.000000	0.002784
1188.000000	0.002807
1187.000000	0.002849
1186.000000	0.002916
1185.000000	0.002995
1184.000000	0.003064
1183.000000	0.003117
1182.000000	0.003170
1181.000000	0.003244
1180.000000	0.003338
1179.000000	0.003442
1178.000000	0.003547
1177.000000	0.003660
1176.000000	0.003781
1175.000000	0.003901
1174.000000	0.004015
1173.000000	0.004131
1172.000000	0.004262
1171.000000	0.004401
1170.000000	0.004532
1169.000000	0.004641
1168.000000	0.004729
1167.000000	0.004812
1166.000000	0.004911
1165.000000	0.005030
1164.000000	0.005149
1163.000000	0.005232
1162.000000	0.005269
1161.000000	0.005286
1160.000000	0.005318
1159.000000	0.005371
1158.000000	0.005423
1157.000000	0.005454
1156.000000	0.005467
1155.000000	0.005473
1154.000000	0.005475
1153.000000	0.005471
1152.000000	0.005465
1151.000000	0.005456
1150.000000	0.005435
1149.000000	0.005395
1148.000000	0.005335
1147.000000	0.005269
1146.000000	0.005213
1145.000000	0.005173
1144.000000	0.005141
1143.000000	0.005099
1142.000000	0.005030
1141.000000	0.004937
1140.000000	0.004845
1139.000000	0.004775
1138.000000	0.004731
1137.000000	0.004696
1136.000000	0.004652
1135.000000	0.004597
1134.000000	0.004544
1133.000000	0.004508
1132.000000	0.004500
1131.000000	0.004515
1130.000000	0.004543
1129.000000	0.004580
1128.000000	0.004626
1127.000000	0.004681
1126.000000	0.004738
1125.000000	0.004790
1124.000000	0.004833
1123.000000	0.004876
1122.000000	0.004929
1121.000000	0.004999
1120.000000	0.005087
1119.000000	0.005187
1118.000000	0.005289
1117.000000	0.005386
1116.000000	0.005478
1115.000000	0.005570
1114.000000	0.005664
1113.000000	0.005753
1112.000000	0.005826
1111.000000	0.005877
1110.000000	0.005907
1109.000000	0.005917
1108.000000	0.005912
1107.000000	0.005902
1106.000000	0.005901
1105.000000	0.005913
1104.000000	0.005927
1103.000000	0.005934
1102.000000	0.005930
1101.000000	0.005921
1100.000000	0.005912
1099.000000	0.005909
1098.000000	0.005921
1097.000000	0.005952
1096.000000	0.005998
1095.000000	0.006055
1094.000000	0.006114
1093.000000	0.006166
1092.000000	0.006194
1091.000000	0.006190
1090.000000	0.006160
1089.000000	0.006122
1088.000000	0.006091
1087.000000	0.006077
1086.000000	0.006072
1085.000000	0.006049
1084.000000	0.005983
1083.000000	0.005884
1082.000000	0.005798
1081.000000	0.005770
1080.000000	0.005803
1079.000000	0.005859
1078.000000	0.005906
1077.000000	0.005932
1076.000000	0.005937
1075.000000	0.005929
1074.000000	0.005921
1073.000000	0.005922
1072.000000	0.005919
1071.000000	0.005900
1070.000000	0.005871
1069.000000	0.005857
1068.000000	0.005866
1067.000000	0.005886
1066.000000	0.005904
1065.000000	0.005931
1064.000000	0.005973
1063.000000	0.006013
1062.000000	0.006027
1061.000000	0.006014
1060.000000	0.005990
1059.000000	0.005967
1058.000000	0.005946
1057.000000	0.005929
1056.000000	0.005926
1055.000000	0.005940
1054.000000	0.005964
1053.000000	0.005985
1052.000000	0.006002
1051.000000	0.006018
1050.000000	0.006037
1049.000000	0.006052
1048.000000	0.006058
1047.000000	0.006054
1046.000000	0.006045
1045.000000	0.006036
1044.000000	0.006037
1043.000000	0.006060
1042.000000	0.006117
1041.000000	0.006203
1040.000000	0.006301
1039.000000	0.006390
1038.000000	0.006459
1037.000000	0.006496
1036.000000	0.006489
1035.000000	0.006448
1034.000000	0.006415
1033.000000	0.006423
1032.000000	0.006468
1031.000000	0.006520
1030.000000	0.006565
1029.000000	0.006612
1028.000000	0.006660
1027.000000	0.006693
1026.000000	0.006703
1025.000000	0.006707
1024.000000	0.006719
1023.000000	0.006734
1022.000000	0.006741
1021.000000	0.006739
1020.000000	0.006724
1019.000000	0.006692
1018.000000	0.006645
1017.000000	0.006592
1016.000000	0.006538
1015.000000	0.006482
1014.000000	0.006425
1013.000000	0.006375
1012.000000	0.006329
1011.000000	0.006275
1010.000000	0.006216
1009.000000	0.006168
1008.000000	0.006134
1007.000000	0.006096
1006.000000	0.006043
1005.000000	0.005980
1004.000000	0.005918
1003.000000	0.005851
1002.000000	0.005778
1001.000000	0.005713
1000.000000	0.005672
999.000000	0.005646
998.000000	0.005611
997.000000	0.005555
996.000000	0.005487
995.000000	0.005423
994.000000	0.005365
993.000000	0.005304
992.000000	0.005236
991.000000	0.005159
990.000000	0.005081
989.000000	0.005014
988.000000	0.004959
987.000000	0.004908
986.000000	0.004852
985.000000	0.004788
984.000000	0.004718
983.000000	0.004641
982.000000	0.004565
981.000000	0.004495
980.000000	0.004434
979.000000	0.004377
978.000000	0.004325
977.000000	0.004280
976.000000	0.004234
975.000000	0.004177
974.000000	0.004119
973.000000	0.004085
972.000000	0.004080
971.000000	0.004069
970.000000	0.004015
969.000000	0.003917
968.000000	0.003805
967.000000	0.003706
966.000000	0.003632
965.000000	0.003583
964.000000	0.003545
963.000000	0.003489
962.000000	0.003403
961.000000	0.003311
960.000000	0.003250
959.000000	0.003224
958.000000	0.003195
957.000000	0.003140
956.000000	0.003068
955.000000	0.003003
954.000000	0.002944
953.000000	0.002868
952.000000	0.002761
951.000000	0.002631
950.000000	0.002510
949.000000	0.002430
948.000000	0.002400
947.000000	0.002398
946.000000	0.002379
945.000000	0.002316
944.000000	0.002212
943.000000	0.002090
942.000000	0.001972
941.000000	0.001876
940.000000	0.001815
939.000000	0.001792
938.000000	0.001792
937.000000	0.001795
936.000000	0.001789
935.000000	0.001764
934.000000	0.001716
933.000000	0.001645
932.000000	0.001562
931.000000	0.001489
930.000000	0.001445
929.000000	0.001441
928.000000	0.001466
927.000000	0.001497
926.000000	0.001508
925.000000	0.001495
924.000000	0.001468
923.000000	0.001434
922.000000	0.001396
921.000000	0.001356
920.000000	0.001329
919.000000	0.001322
918.000000	0.001325
917.000000	0.001309
916.000000	0.001260
915.000000	0.001198
914.000000	0.001161
913.000000	0.001169
912.000000	0.001199
911.000000	0.001209
910.000000	0.001180
909.000000	0.001125
908.000000	0.001073
907.000000	0.001036
906.000000	0.001013
905.000000	0.001001
904.000000	0.000991
903.000000	0.000961
902.000000	0.000889
901.000000	0.000783
900.000000	0.000676
899.000000	0.000598
898.000000	0.000553
897.000000	0.000533
896.000000	0.000535
895.000000	0.000557
894.000000	0.000590
893.000000	0.000612
892.000000	0.000601
891.000000	0.000552
890.000000	0.000488
889.000000	0.000465
888.000000	0.000536
887.000000	0.000710
886.000000	0.000949
885.000000	0.001202
884.000000	0.001444
883.000000	0.001664
882.000000	0.001868
881.000000	0.002085
880.000000	0.002364
879.000000	0.002729
878.000000	0.003133
877.000000	0.003487
876.000000	0.003728
875.000000	0.003855
874.000000	0.003889
873.000000	0.003836
872.000000	0.003697
871.000000	0.003482
870.000000	0.003211
869.000000	0.002894
868.000000	0.002534
867.000000	0.002158
866.000000	0.001815
865.000000	0.001549
864.000000	0.001374
863.000000	0.001268
862.000000	0.001195
861.000000	0.001120
860.000000	0.001026
859.000000	0.000917
858.000000	0.000820
857.000000	0.000751
856.000000	0.000708
855.000000	0.000675
854.000000	0.000643
853.000000	0.000612
852.000000	0.000592
851.000000	0.000594
850.000000	0.000623
849.000000	0.000664
848.000000	0.000681
847.000000	0.000647
846.000000	0.000577
845.000000	0.000510
844.000000	0.000477
843.000000	0.000478
842.000000	0.000503
841.000000	0.000546
840.000000	0.000603
839.000000	0.000653
838.000000	0.000678
837.000000	0.000680
836.000000	0.000667
835.000000	0.000641
834.000000	0.000610
833.000000	0.000597
832.000000	0.000617
831.000000	0.000650
830.000000	0.000652
829.000000	0.000618
828.000000	0.000595
827.000000	0.000620
826.000000	0.000667
825.000000	0.000680
824.000000	0.000643
823.000000	0.000590
822.000000	0.000558
821.000000	0.000551
820.000000	0.000554
819.000000	0.000566
818.000000	0.000583
817.000000	0.000593
816.000000	0.000586
815.000000	0.000572
814.000000	0.000570
813.000000	0.000574
812.000000	0.000554
811.000000	0.000505
810.000000	0.000474
809.000000	0.000517
808.000000	0.000631
807.000000	0.000757
806.000000	0.000832
805.000000	0.000850
804.000000	0.000842
803.000000	0.000838
802.000000	0.000853
801.000000	0.000900
800.000000	0.000991
799.000000	0.001119
798.000000	0.001252
797.000000	0.001366
796.000000	0.001465
795.000000	0.001574
794.000000	0.001706
793.000000	0.001849
792.000000	0.001971
791.000000	0.002048
790.000000	0.002079
789.000000	0.002082
788.000000	0.002069
787.000000	0.002047
786.000000	0.002028
785.000000	0.002037
784.000000	0.002094
783.000000	0.002186
782.000000	0.002269
781.000000	0.002303
780.000000	0.002285
779.000000	0.002254
778.000000	0.002251
777.000000	0.002289
776.000000	0.002341
775.000000	0.002363
774.000000	0.002336
773.000000	0.002273
772.000000	0.002209
771.000000	0.002171
770.000000	0.002165
769.000000	0.002185
768.000000	0.002208
767.000000	0.002203
766.000000	0.002146
765.000000	0.002049
764.000000	0.001964
763.000000	0.001935
762.000000	0.001959
761.000000	0.001990
760.000000	0.001985
759.000000	0.001949
758.000000	0.001920
757.000000	0.001915
756.000000	0.001914
755.000000	0.001889
754.000000	0.001839
753.000000	0.001783
752.000000	0.001730
751.000000	0.001672
750.000000	0.001607
749.000000	0.001544
748.000000	0.001496
747.000000	0.001461
746.000000	0.001443
745.000000	0.001446
744.000000	0.001456
743.000000	0.001446
742.000000	0.001405
741.000000	0.001363
740.000000	0.001356
739.000000	0.001380
738.000000	0.001396
737.000000	0.001387
736.000000	0.001369
735.000000	0.001362
734.000000	0.001352
733.000000	0.001324
732.000000	0.001289
731.000000	0.001267
730.000000	0.001254
729.000000	0.001234
728.000000	0.001213
727.000000	0.001200
726.000000	0.001186
725.000000	0.001153
724.000000	0.001095
723.000000	0.001027
722.000000	0.000976
721.000000	0.000962
720.000000	0.000993
719.000000	0.001057
718.000000	0.001149
717.000000	0.001286
716.000000	0.001511
715.000000	0.001829
714.000000	0.002156
713.000000	0.002360
712.000000	0.002365
711.000000	0.002205
710.000000	0.001981
709.000000	0.001780
708.000000	0.001643
707.000000	0.001564
706.000000	0.001520
705.000000	0.001488
704.000000	0.001453
703.000000	0.001413
702.000000	0.001376
701.000000	0.001344
700.000000	0.001312
699.000000	0.001274
698.000000	0.001239
697.000000	0.001228
696.000000	0.001249
695.000000	0.001291
694.000000	0.001327
693.000000	0.001327
692.000000	0.001284
691.000000	0.001207
690.000000	0.001111
689.000000	0.001012
688.000000	0.000923
687.000000	0.000841
686.000000	0.000739
685.000000	0.000610
684.000000	0.000507
683.000000	0.000497
682.000000	0.000567
681.000000	0.000633
680.000000	0.000648
679.000000	0.000635
678.000000	0.000631
677.000000	0.000669
676.000000	0.000782
675.000000	0.000962
674.000000	0.001149
673.000000	0.001269
672.000000	0.001276
671.000000	0.001134
670.000000	0.000796
669.000000	0.000259
668.000000	-0.000113
667.000000	0.000092
666.000000	0.000469
665.000000	0.000755
664.000000	0.000967
663.000000	0.001063
662.000000	0.001046
661.000000	0.000981
660.000000	0.000934
659.000000	0.000900
658.000000	0.000855
657.000000	0.000836
656.000000	0.000869
655.000000	0.000903
654.000000	0.000894
653.000000	0.000882
652.000000	0.000893
651.000000	0.000889
650.000000	0.000855
649.000000	0.000853
648.000000	0.000913
647.000000	0.000974
646.000000	0.000990
645.000000	0.000998
644.000000	0.001030
643.000000	0.001080
642.000000	0.001154
641.000000	0.001296
640.000000	0.001492
639.000000	0.001628
638.000000	0.001629
637.000000	0.001553
636.000000	0.001493
635.000000	0.001470
634.000000	0.001466
633.000000	0.001487
632.000000	0.001535
631.000000	0.001576
630.000000	0.001595
629.000000	0.001641
628.000000	0.001740
627.000000	0.001840
626.000000	0.001886
625.000000	0.001896
624.000000	0.001899
623.000000	0.001887
622.000000	0.001844
621.000000	0.001815
620.000000	0.001851
619.000000	0.001953
618.000000	0.002084
617.000000	0.002214
616.000000	0.002306
615.000000	0.002319
614.000000	0.002271
613.000000	0.002255
612.000000	0.002331
611.000000	0.002435
610.000000	0.002465
609.000000	0.002416
608.000000	0.002375
607.000000	0.002401
606.000000	0.002495
605.000000	0.002628
604.000000	0.002766
603.000000	0.002850
602.000000	0.002829
601.000000	0.002711
600.000000	0.002563
599.000000	0.002462
598.000000	0.002450
597.000000	0.002515
596.000000	0.002593
595.000000	0.002610
594.000000	0.002543
593.000000	0.002435
592.000000	0.002328
591.000000	0.002220
590.000000	0.002104
589.000000	0.002011
588.000000	0.001978
587.000000	0.001978
586.000000	0.001945
585.000000	0.001839
584.000000	0.001682
583.000000	0.001533
582.000000	0.001447
581.000000	0.001439
580.000000	0.001468
579.000000	0.001471
578.000000	0.001424
577.000000	0.001349
576.000000	0.001277
575.000000	0.001227
574.000000	0.001217
573.000000	0.001249
572.000000	0.001278
571.000000	0.001244
570.000000	0.001155
569.000000	0.001088
568.000000	0.001092
567.000000	0.001135
566.000000	0.001175
565.000000	0.001202
564.000000	0.001177
563.000000	0.001037
562.000000	0.000811
561.000000	0.000639
560.000000	0.000611
559.000000	0.000645
558.000000	0.000619
557.000000	0.000542
556.000000	0.000512
555.000000	0.000547
554.000000	0.000573
553.000000	0.000556
552.000000	0.000541
551.000000	0.000558
550.000000	0.000592
549.000000	0.000641
548.000000	0.000710
547.000000	0.000768
546.000000	0.000757
545.000000	0.000690
544.000000	0.000648
543.000000	0.000677
542.000000	0.000737
541.000000	0.000762
540.000000	0.000730
539.000000	0.000657
538.000000	0.000576
537.000000	0.000526
536.000000	0.000542
535.000000	0.000621
534.000000	0.000728
533.000000	0.000834
532.000000	0.000935
531.000000	0.001049
530.000000	0.001191
529.000000	0.001328
528.000000	0.001379
527.000000	0.001301
526.000000	0.001178
525.000000	0.001148
524.000000	0.001197
523.000000	0.001174
522.000000	0.001023
521.000000	0.000889
520.000000	0.000954
519.000000	0.001227
518.000000	0.001556
517.000000	0.001825
516.000000	0.002021
515.000000	0.002155
514.000000	0.002216
513.000000	0.002190
512.000000	0.002068
511.000000	0.001858
510.000000	0.001632
509.000000	0.001495
508.000000	0.001480
507.000000	0.001537
506.000000	0.001655
505.000000	0.001882
504.000000	0.002169
503.000000	0.002304
502.000000	0.002133
501.000000	0.001781
500.000000	0.001474
499.000000	0.001282
498.000000	0.001190
497.000000	0.001265
496.000000	0.001555
495.000000	0.001915
494.000000	0.002127
493.000000	0.002155
492.000000	0.002140
491.000000	0.002161
490.000000	0.002184
489.000000	0.002232
488.000000	0.002377
487.000000	0.002545
486.000000	0.002515
485.000000	0.002172
484.000000	0.001655
483.000000	0.001197
482.000000	0.000913
481.000000	0.000789
480.000000	0.000775
479.000000	0.000819
478.000000	0.000907
477.000000	0.001079
476.000000	0.001325
475.000000	0.001502
474.000000	0.001452
473.000000	0.001225
472.000000	0.001027
471.000000	0.000901
470.000000	0.000684
469.000000	0.000360
468.000000	0.000168
467.000000	0.000295
466.000000	0.000609
465.000000	0.000832
464.000000	0.000866
463.000000	0.000810
462.000000	0.000786
461.000000	0.000811
460.000000	0.000773
459.000000	0.000490
458.000000	-0.000052
457.000000	-0.000476
456.000000	-0.000367
455.000000	0.000199
454.000000	0.000821
453.000000	0.001208
452.000000	0.001351
451.000000	0.001361
450.000000	0.001275
