PE IR       SUBTECH     SPECTRUM    ASCII       PEDS        4.00        
   -1
P12-Noir049_1.ASC
23/06/09
15:44:31.00
23/06/09
15:45:29.00
uco
Sample 049 By uco Date Friday, June 09 2023
450.000000
#HDR
-1
-1
#GR
cm-1
A
1.0
0.0
4000.000000
-1.000000
3551
8
0.002270
-0.003503
#DATA
4000.000000	-0.001294
3999.000000	-0.001317
3998.000000	-0.001331
3997.000000	-0.001338
3996.000000	-0.001326
3995.000000	-0.001300
3994.000000	-0.001265
3993.000000	-0.001231
3992.000000	-0.001207
3991.000000	-0.001198
3990.000000	-0.001201
3989.000000	-0.001210
3988.000000	-0.001220
3987.000000	-0.001228
3986.000000	-0.001230
3985.000000	-0.001225
3984.000000	-0.001212
3983.000000	-0.001201
3982.000000	-0.001203
3981.000000	-0.001222
3980.000000	-0.001253
3979.000000	-0.001279
3978.000000	-0.001293
3977.000000	-0.001297
3976.000000	-0.001300
3975.000000	-0.001303
3974.000000	-0.001302
3973.000000	-0.001290
3972.000000	-0.001269
3971.000000	-0.001246
3970.000000	-0.001229
3969.000000	-0.001223
3968.000000	-0.001229
3967.000000	-0.001242
3966.000000	-0.001260
3965.000000	-0.001276
3964.000000	-0.001285
3963.000000	-0.001284
3962.000000	-0.001272
3961.000000	-0.001253
3960.000000	-0.001236
3959.000000	-0.001225
3958.000000	-0.001222
3957.000000	-0.001227
3956.000000	-0.001239
3955.000000	-0.001257
3954.000000	-0.001278
3953.000000	-0.001295
3952.000000	-0.001301
3951.000000	-0.001293
3950.000000	-0.001277
3949.000000	-0.001261
3948.000000	-0.001249
3947.000000	-0.001239
3946.000000	-0.001228
3945.000000	-0.001219
3944.000000	-0.001216
3943.000000	-0.001220
3942.000000	-0.001222
3941.000000	-0.001216
3940.000000	-0.001201
3939.000000	-0.001187
3938.000000	-0.001186
3937.000000	-0.001202
3936.000000	-0.001231
3935.000000	-0.001263
3934.000000	-0.001291
3933.000000	-0.001310
3932.000000	-0.001318
3931.000000	-0.001316
3930.000000	-0.001303
3929.000000	-0.001283
3928.000000	-0.001258
3927.000000	-0.001229
3926.000000	-0.001194
3925.000000	-0.001160
3924.000000	-0.001139
3923.000000	-0.001139
3922.000000	-0.001157
3921.000000	-0.001179
3920.000000	-0.001197
3919.000000	-0.001212
3918.000000	-0.001230
3917.000000	-0.001249
3916.000000	-0.001262
3915.000000	-0.001266
3914.000000	-0.001261
3913.000000	-0.001254
3912.000000	-0.001248
3911.000000	-0.001243
3910.000000	-0.001240
3909.000000	-0.001240
3908.000000	-0.001244
3907.000000	-0.001249
3906.000000	-0.001248
3905.000000	-0.001229
3904.000000	-0.001186
3903.000000	-0.001129
3902.000000	-0.001085
3901.000000	-0.001082
3900.000000	-0.001123
3899.000000	-0.001186
3898.000000	-0.001238
3897.000000	-0.001264
3896.000000	-0.001266
3895.000000	-0.001255
3894.000000	-0.001242
3893.000000	-0.001233
3892.000000	-0.001230
3891.000000	-0.001224
3890.000000	-0.001205
3889.000000	-0.001177
3888.000000	-0.001156
3887.000000	-0.001156
3886.000000	-0.001181
3885.000000	-0.001207
3884.000000	-0.001211
3883.000000	-0.001192
3882.000000	-0.001171
3881.000000	-0.001167
3880.000000	-0.001178
3879.000000	-0.001188
3878.000000	-0.001183
3877.000000	-0.001167
3876.000000	-0.001151
3875.000000	-0.001141
3874.000000	-0.001135
3873.000000	-0.001127
3872.000000	-0.001122
3871.000000	-0.001139
3870.000000	-0.001182
3869.000000	-0.001231
3868.000000	-0.001257
3867.000000	-0.001250
3866.000000	-0.001220
3865.000000	-0.001179
3864.000000	-0.001137
3863.000000	-0.001109
3862.000000	-0.001101
3861.000000	-0.001108
3860.000000	-0.001119
3859.000000	-0.001123
3858.000000	-0.001123
3857.000000	-0.001118
3856.000000	-0.001109
3855.000000	-0.001109
3854.000000	-0.001149
3853.000000	-0.001232
3852.000000	-0.001306
3851.000000	-0.001332
3850.000000	-0.001319
3849.000000	-0.001288
3848.000000	-0.001252
3847.000000	-0.001215
3846.000000	-0.001180
3845.000000	-0.001152
3844.000000	-0.001131
3843.000000	-0.001115
3842.000000	-0.001104
3841.000000	-0.001107
3840.000000	-0.001134
3839.000000	-0.001183
3838.000000	-0.001234
3837.000000	-0.001260
3836.000000	-0.001255
3835.000000	-0.001236
3834.000000	-0.001223
3833.000000	-0.001223
3832.000000	-0.001229
3831.000000	-0.001227
3830.000000	-0.001211
3829.000000	-0.001188
3828.000000	-0.001170
3827.000000	-0.001167
3826.000000	-0.001174
3825.000000	-0.001183
3824.000000	-0.001185
3823.000000	-0.001183
3822.000000	-0.001187
3821.000000	-0.001199
3820.000000	-0.001210
3819.000000	-0.001216
3818.000000	-0.001222
3817.000000	-0.001233
3816.000000	-0.001248
3815.000000	-0.001258
3814.000000	-0.001249
3813.000000	-0.001222
3812.000000	-0.001184
3811.000000	-0.001143
3810.000000	-0.001103
3809.000000	-0.001075
3808.000000	-0.001069
3807.000000	-0.001093
3806.000000	-0.001132
3805.000000	-0.001169
3804.000000	-0.001203
3803.000000	-0.001241
3802.000000	-0.001280
3801.000000	-0.001301
3800.000000	-0.001288
3799.000000	-0.001250
3798.000000	-0.001212
3797.000000	-0.001187
3796.000000	-0.001174
3795.000000	-0.001164
3794.000000	-0.001157
3793.000000	-0.001160
3792.000000	-0.001176
3791.000000	-0.001201
3790.000000	-0.001228
3789.000000	-0.001247
3788.000000	-0.001251
3787.000000	-0.001237
3786.000000	-0.001216
3785.000000	-0.001203
3784.000000	-0.001207
3783.000000	-0.001219
3782.000000	-0.001227
3781.000000	-0.001228
3780.000000	-0.001230
3779.000000	-0.001233
3778.000000	-0.001226
3777.000000	-0.001201
3776.000000	-0.001162
3775.000000	-0.001125
3774.000000	-0.001104
3773.000000	-0.001106
3772.000000	-0.001133
3771.000000	-0.001178
3770.000000	-0.001228
3769.000000	-0.001262
3768.000000	-0.001266
3767.000000	-0.001246
3766.000000	-0.001217
3765.000000	-0.001193
3764.000000	-0.001178
3763.000000	-0.001170
3762.000000	-0.001164
3761.000000	-0.001162
3760.000000	-0.001166
3759.000000	-0.001178
3758.000000	-0.001194
3757.000000	-0.001209
3756.000000	-0.001221
3755.000000	-0.001234
3754.000000	-0.001250
3753.000000	-0.001266
3752.000000	-0.001277
3751.000000	-0.001278
3750.000000	-0.001272
3749.000000	-0.001267
3748.000000	-0.001272
3747.000000	-0.001285
3746.000000	-0.001296
3745.000000	-0.001299
3744.000000	-0.001299
3743.000000	-0.001303
3742.000000	-0.001311
3741.000000	-0.001324
3740.000000	-0.001335
3739.000000	-0.001328
3738.000000	-0.001295
3737.000000	-0.001242
3736.000000	-0.001196
3735.000000	-0.001183
3734.000000	-0.001207
3733.000000	-0.001251
3732.000000	-0.001290
3731.000000	-0.001309
3730.000000	-0.001301
3729.000000	-0.001270
3728.000000	-0.001228
3727.000000	-0.001188
3726.000000	-0.001153
3725.000000	-0.001125
3724.000000	-0.001107
3723.000000	-0.001113
3722.000000	-0.001148
3721.000000	-0.001203
3720.000000	-0.001257
3719.000000	-0.001292
3718.000000	-0.001304
3717.000000	-0.001300
3716.000000	-0.001288
3715.000000	-0.001271
3714.000000	-0.001245
3713.000000	-0.001202
3712.000000	-0.001145
3711.000000	-0.001094
3710.000000	-0.001072
3709.000000	-0.001082
3708.000000	-0.001110
3707.000000	-0.001143
3706.000000	-0.001175
3705.000000	-0.001210
3704.000000	-0.001257
3703.000000	-0.001310
3702.000000	-0.001352
3701.000000	-0.001367
3700.000000	-0.001352
3699.000000	-0.001322
3698.000000	-0.001290
3697.000000	-0.001264
3696.000000	-0.001245
3695.000000	-0.001225
3694.000000	-0.001200
3693.000000	-0.001173
3692.000000	-0.001149
3691.000000	-0.001141
3690.000000	-0.001159
3689.000000	-0.001199
3688.000000	-0.001232
3687.000000	-0.001229
3686.000000	-0.001194
3685.000000	-0.001152
3684.000000	-0.001125
3683.000000	-0.001121
3682.000000	-0.001133
3681.000000	-0.001150
3680.000000	-0.001158
3679.000000	-0.001153
3678.000000	-0.001141
3677.000000	-0.001143
3676.000000	-0.001183
3675.000000	-0.001248
3674.000000	-0.001296
3673.000000	-0.001309
3672.000000	-0.001299
3671.000000	-0.001281
3670.000000	-0.001264
3669.000000	-0.001245
3668.000000	-0.001219
3667.000000	-0.001189
3666.000000	-0.001165
3665.000000	-0.001153
3664.000000	-0.001157
3663.000000	-0.001170
3662.000000	-0.001181
3661.000000	-0.001183
3660.000000	-0.001173
3659.000000	-0.001158
3658.000000	-0.001148
3657.000000	-0.001147
3656.000000	-0.001151
3655.000000	-0.001148
3654.000000	-0.001136
3653.000000	-0.001126
3652.000000	-0.001127
3651.000000	-0.001139
3650.000000	-0.001155
3649.000000	-0.001168
3648.000000	-0.001179
3647.000000	-0.001182
3646.000000	-0.001173
3645.000000	-0.001158
3644.000000	-0.001149
3643.000000	-0.001157
3642.000000	-0.001183
3641.000000	-0.001215
3640.000000	-0.001235
3639.000000	-0.001237
3638.000000	-0.001224
3637.000000	-0.001206
3636.000000	-0.001192
3635.000000	-0.001190
3634.000000	-0.001203
3633.000000	-0.001227
3632.000000	-0.001249
3631.000000	-0.001256
3630.000000	-0.001238
3629.000000	-0.001203
3628.000000	-0.001167
3627.000000	-0.001138
3626.000000	-0.001111
3625.000000	-0.001084
3624.000000	-0.001066
3623.000000	-0.001067
3622.000000	-0.001098
3621.000000	-0.001152
3620.000000	-0.001200
3619.000000	-0.001211
3618.000000	-0.001179
3617.000000	-0.001132
3616.000000	-0.001098
3615.000000	-0.001085
3614.000000	-0.001079
3613.000000	-0.001063
3612.000000	-0.001029
3611.000000	-0.000987
3610.000000	-0.000952
3609.000000	-0.000933
3608.000000	-0.000931
3607.000000	-0.000935
3606.000000	-0.000935
3605.000000	-0.000924
3604.000000	-0.000903
3603.000000	-0.000879
3602.000000	-0.000868
3601.000000	-0.000884
3600.000000	-0.000920
3599.000000	-0.000954
3598.000000	-0.000968
3597.000000	-0.000965
3596.000000	-0.000958
3595.000000	-0.000955
3594.000000	-0.000950
3593.000000	-0.000938
3592.000000	-0.000924
3591.000000	-0.000917
3590.000000	-0.000921
3589.000000	-0.000928
3588.000000	-0.000929
3587.000000	-0.000918
3586.000000	-0.000899
3585.000000	-0.000882
3584.000000	-0.000874
3583.000000	-0.000874
3582.000000	-0.000875
3581.000000	-0.000870
3580.000000	-0.000862
3579.000000	-0.000859
3578.000000	-0.000864
3577.000000	-0.000875
3576.000000	-0.000884
3575.000000	-0.000883
3574.000000	-0.000872
3573.000000	-0.000855
3572.000000	-0.000837
3571.000000	-0.000821
3570.000000	-0.000804
3569.000000	-0.000789
3568.000000	-0.000783
3567.000000	-0.000795
3566.000000	-0.000816
3565.000000	-0.000827
3564.000000	-0.000817
3563.000000	-0.000795
3562.000000	-0.000769
3561.000000	-0.000748
3560.000000	-0.000730
3559.000000	-0.000717
3558.000000	-0.000707
3557.000000	-0.000695
3556.000000	-0.000678
3555.000000	-0.000654
3554.000000	-0.000636
3553.000000	-0.000635
3552.000000	-0.000654
3551.000000	-0.000676
3550.000000	-0.000678
3549.000000	-0.000655
3548.000000	-0.000620
3547.000000	-0.000596
3546.000000	-0.000598
3545.000000	-0.000621
3544.000000	-0.000644
3543.000000	-0.000656
3542.000000	-0.000658
3541.000000	-0.000660
3540.000000	-0.000668
3539.000000	-0.000679
3538.000000	-0.000683
3537.000000	-0.000677
3536.000000	-0.000661
3535.000000	-0.000643
3534.000000	-0.000627
3533.000000	-0.000609
3532.000000	-0.000587
3531.000000	-0.000564
3530.000000	-0.000547
3529.000000	-0.000544
3528.000000	-0.000555
3527.000000	-0.000573
3526.000000	-0.000591
3525.000000	-0.000606
3524.000000	-0.000618
3523.000000	-0.000624
3522.000000	-0.000620
3521.000000	-0.000608
3520.000000	-0.000590
3519.000000	-0.000575
3518.000000	-0.000564
3517.000000	-0.000559
3516.000000	-0.000565
3515.000000	-0.000582
3514.000000	-0.000607
3513.000000	-0.000630
3512.000000	-0.000640
3511.000000	-0.000632
3510.000000	-0.000607
3509.000000	-0.000577
3508.000000	-0.000555
3507.000000	-0.000552
3506.000000	-0.000572
3505.000000	-0.000598
3504.000000	-0.000609
3503.000000	-0.000592
3502.000000	-0.000557
3501.000000	-0.000525
3500.000000	-0.000509
3499.000000	-0.000507
3498.000000	-0.000507
3497.000000	-0.000500
3496.000000	-0.000484
3495.000000	-0.000463
3494.000000	-0.000444
3493.000000	-0.000434
3492.000000	-0.000435
3491.000000	-0.000442
3490.000000	-0.000452
3489.000000	-0.000457
3488.000000	-0.000457
3487.000000	-0.000451
3486.000000	-0.000442
3485.000000	-0.000436
3484.000000	-0.000434
3483.000000	-0.000438
3482.000000	-0.000444
3481.000000	-0.000450
3480.000000	-0.000450
3479.000000	-0.000442
3478.000000	-0.000429
3477.000000	-0.000418
3476.000000	-0.000416
3475.000000	-0.000420
3474.000000	-0.000429
3473.000000	-0.000436
3472.000000	-0.000442
3471.000000	-0.000445
3470.000000	-0.000447
3469.000000	-0.000450
3468.000000	-0.000452
3467.000000	-0.000450
3466.000000	-0.000440
3465.000000	-0.000425
3464.000000	-0.000409
3463.000000	-0.000394
3462.000000	-0.000378
3461.000000	-0.000361
3460.000000	-0.000352
3459.000000	-0.000358
3458.000000	-0.000381
3457.000000	-0.000412
3456.000000	-0.000440
3455.000000	-0.000457
3454.000000	-0.000466
3453.000000	-0.000472
3452.000000	-0.000475
3451.000000	-0.000471
3450.000000	-0.000460
3449.000000	-0.000451
3448.000000	-0.000450
3447.000000	-0.000455
3446.000000	-0.000456
3445.000000	-0.000451
3444.000000	-0.000448
3443.000000	-0.000452
3442.000000	-0.000458
3441.000000	-0.000456
3440.000000	-0.000438
3439.000000	-0.000404
3438.000000	-0.000364
3437.000000	-0.000330
3436.000000	-0.000311
3435.000000	-0.000309
3434.000000	-0.000318
3433.000000	-0.000335
3432.000000	-0.000352
3431.000000	-0.000366
3430.000000	-0.000374
3429.000000	-0.000378
3428.000000	-0.000383
3427.000000	-0.000389
3426.000000	-0.000395
3425.000000	-0.000392
3424.000000	-0.000377
3423.000000	-0.000351
3422.000000	-0.000323
3421.000000	-0.000298
3420.000000	-0.000278
3419.000000	-0.000261
3418.000000	-0.000247
3417.000000	-0.000241
3416.000000	-0.000243
3415.000000	-0.000245
3414.000000	-0.000235
3413.000000	-0.000215
3412.000000	-0.000194
3411.000000	-0.000183
3410.000000	-0.000178
3409.000000	-0.000175
3408.000000	-0.000172
3407.000000	-0.000170
3406.000000	-0.000169
3405.000000	-0.000168
3404.000000	-0.000168
3403.000000	-0.000170
3402.000000	-0.000169
3401.000000	-0.000164
3400.000000	-0.000156
3399.000000	-0.000150
3398.000000	-0.000147
3397.000000	-0.000148
3396.000000	-0.000154
3395.000000	-0.000167
3394.000000	-0.000180
3393.000000	-0.000186
3392.000000	-0.000184
3391.000000	-0.000180
3390.000000	-0.000176
3389.000000	-0.000164
3388.000000	-0.000138
3387.000000	-0.000105
3386.000000	-0.000084
3385.000000	-0.000091
3384.000000	-0.000125
3383.000000	-0.000172
3382.000000	-0.000209
3381.000000	-0.000229
3380.000000	-0.000239
3379.000000	-0.000247
3378.000000	-0.000255
3377.000000	-0.000255
3376.000000	-0.000242
3375.000000	-0.000222
3374.000000	-0.000201
3373.000000	-0.000186
3372.000000	-0.000180
3371.000000	-0.000181
3370.000000	-0.000183
3369.000000	-0.000182
3368.000000	-0.000181
3367.000000	-0.000187
3366.000000	-0.000198
3365.000000	-0.000205
3364.000000	-0.000199
3363.000000	-0.000182
3362.000000	-0.000164
3361.000000	-0.000150
3360.000000	-0.000144
3359.000000	-0.000140
3358.000000	-0.000134
3357.000000	-0.000125
3356.000000	-0.000115
3355.000000	-0.000112
3354.000000	-0.000119
3353.000000	-0.000128
3352.000000	-0.000128
3351.000000	-0.000118
3350.000000	-0.000105
3349.000000	-0.000099
3348.000000	-0.000103
3347.000000	-0.000112
3346.000000	-0.000115
3345.000000	-0.000106
3344.000000	-0.000093
3343.000000	-0.000088
3342.000000	-0.000100
3341.000000	-0.000122
3340.000000	-0.000142
3339.000000	-0.000150
3338.000000	-0.000145
3337.000000	-0.000131
3336.000000	-0.000112
3335.000000	-0.000093
3334.000000	-0.000083
3333.000000	-0.000086
3332.000000	-0.000100
3331.000000	-0.000118
3330.000000	-0.000132
3329.000000	-0.000139
3328.000000	-0.000140
3327.000000	-0.000136
3326.000000	-0.000131
3325.000000	-0.000129
3324.000000	-0.000132
3323.000000	-0.000136
3322.000000	-0.000135
3321.000000	-0.000129
3320.000000	-0.000124
3319.000000	-0.000128
3318.000000	-0.000137
3317.000000	-0.000144
3316.000000	-0.000141
3315.000000	-0.000131
3314.000000	-0.000118
3313.000000	-0.000104
3312.000000	-0.000085
3311.000000	-0.000065
3310.000000	-0.000049
3309.000000	-0.000044
3308.000000	-0.000052
3307.000000	-0.000067
3306.000000	-0.000081
3305.000000	-0.000084
3304.000000	-0.000074
3303.000000	-0.000053
3302.000000	-0.000031
3301.000000	-0.000014
3300.000000	-0.000007
3299.000000	-0.000014
3298.000000	-0.000033
3297.000000	-0.000056
3296.000000	-0.000071
3295.000000	-0.000073
3294.000000	-0.000071
3293.000000	-0.000071
3292.000000	-0.000070
3291.000000	-0.000062
3290.000000	-0.000048
3289.000000	-0.000038
3288.000000	-0.000037
3287.000000	-0.000040
3286.000000	-0.000038
3285.000000	-0.000028
3284.000000	-0.000016
3283.000000	-0.000011
3282.000000	-0.000011
3281.000000	-0.000012
3280.000000	-0.000008
3279.000000	-0.000006
3278.000000	-0.000013
3277.000000	-0.000030
3276.000000	-0.000052
3275.000000	-0.000066
3274.000000	-0.000072
3273.000000	-0.000075
3272.000000	-0.000084
3271.000000	-0.000099
3270.000000	-0.000112
3269.000000	-0.000114
3268.000000	-0.000098
3267.000000	-0.000064
3266.000000	-0.000021
3265.000000	0.000015
3264.000000	0.000033
3263.000000	0.000031
3262.000000	0.000013
3261.000000	-0.000013
3260.000000	-0.000039
3259.000000	-0.000060
3258.000000	-0.000072
3257.000000	-0.000074
3256.000000	-0.000068
3255.000000	-0.000059
3254.000000	-0.000050
3253.000000	-0.000046
3252.000000	-0.000050
3251.000000	-0.000067
3250.000000	-0.000094
3249.000000	-0.000119
3248.000000	-0.000128
3247.000000	-0.000113
3246.000000	-0.000083
3245.000000	-0.000050
3244.000000	-0.000021
3243.000000	0.000004
3242.000000	0.000024
3241.000000	0.000036
3240.000000	0.000035
3239.000000	0.000022
3238.000000	0.000001
3237.000000	-0.000016
3236.000000	-0.000027
3235.000000	-0.000031
3234.000000	-0.000035
3233.000000	-0.000041
3232.000000	-0.000048
3231.000000	-0.000049
3230.000000	-0.000047
3229.000000	-0.000050
3228.000000	-0.000060
3227.000000	-0.000068
3226.000000	-0.000064
3225.000000	-0.000052
3224.000000	-0.000049
3223.000000	-0.000064
3222.000000	-0.000083
3221.000000	-0.000091
3220.000000	-0.000084
3219.000000	-0.000072
3218.000000	-0.000067
3217.000000	-0.000074
3216.000000	-0.000091
3215.000000	-0.000110
3214.000000	-0.000122
3213.000000	-0.000124
3212.000000	-0.000118
3211.000000	-0.000113
3210.000000	-0.000113
3209.000000	-0.000122
3208.000000	-0.000137
3207.000000	-0.000151
3206.000000	-0.000154
3205.000000	-0.000141
3204.000000	-0.000120
3203.000000	-0.000104
3202.000000	-0.000099
3201.000000	-0.000103
3200.000000	-0.000110
3199.000000	-0.000121
3198.000000	-0.000133
3197.000000	-0.000139
3196.000000	-0.000135
3195.000000	-0.000121
3194.000000	-0.000104
3193.000000	-0.000088
3192.000000	-0.000075
3191.000000	-0.000066
3190.000000	-0.000059
3189.000000	-0.000058
3188.000000	-0.000070
3187.000000	-0.000099
3186.000000	-0.000140
3185.000000	-0.000172
3184.000000	-0.000176
3183.000000	-0.000148
3182.000000	-0.000107
3181.000000	-0.000077
3180.000000	-0.000074
3179.000000	-0.000087
3178.000000	-0.000103
3177.000000	-0.000120
3176.000000	-0.000142
3175.000000	-0.000173
3174.000000	-0.000201
3173.000000	-0.000212
3172.000000	-0.000201
3171.000000	-0.000177
3170.000000	-0.000154
3169.000000	-0.000143
3168.000000	-0.000148
3167.000000	-0.000167
3166.000000	-0.000190
3165.000000	-0.000207
3164.000000	-0.000214
3163.000000	-0.000210
3162.000000	-0.000196
3161.000000	-0.000173
3160.000000	-0.000148
3159.000000	-0.000126
3158.000000	-0.000115
3157.000000	-0.000117
3156.000000	-0.000133
3155.000000	-0.000158
3154.000000	-0.000185
3153.000000	-0.000200
3152.000000	-0.000199
3151.000000	-0.000190
3150.000000	-0.000186
3149.000000	-0.000195
3148.000000	-0.000210
3147.000000	-0.000221
3146.000000	-0.000219
3145.000000	-0.000211
3144.000000	-0.000209
3143.000000	-0.000224
3142.000000	-0.000251
3141.000000	-0.000274
3140.000000	-0.000280
3139.000000	-0.000268
3138.000000	-0.000245
3137.000000	-0.000223
3136.000000	-0.000212
3135.000000	-0.000214
3134.000000	-0.000226
3133.000000	-0.000239
3132.000000	-0.000246
3131.000000	-0.000246
3130.000000	-0.000241
3129.000000	-0.000237
3128.000000	-0.000233
3127.000000	-0.000233
3126.000000	-0.000236
3125.000000	-0.000241
3124.000000	-0.000244
3123.000000	-0.000248
3122.000000	-0.000255
3121.000000	-0.000269
3120.000000	-0.000287
3119.000000	-0.000298
3118.000000	-0.000292
3117.000000	-0.000270
3116.000000	-0.000245
3115.000000	-0.000229
3114.000000	-0.000223
3113.000000	-0.000219
3112.000000	-0.000211
3111.000000	-0.000202
3110.000000	-0.000199
3109.000000	-0.000206
3108.000000	-0.000221
3107.000000	-0.000233
3106.000000	-0.000237
3105.000000	-0.000231
3104.000000	-0.000224
3103.000000	-0.000227
3102.000000	-0.000249
3101.000000	-0.000286
3100.000000	-0.000326
3099.000000	-0.000359
3098.000000	-0.000378
3097.000000	-0.000382
3096.000000	-0.000374
3095.000000	-0.000361
3094.000000	-0.000344
3093.000000	-0.000323
3092.000000	-0.000301
3091.000000	-0.000284
3090.000000	-0.000278
3089.000000	-0.000278
3088.000000	-0.000280
3087.000000	-0.000283
3086.000000	-0.000290
3085.000000	-0.000302
3084.000000	-0.000311
3083.000000	-0.000313
3082.000000	-0.000307
3081.000000	-0.000302
3080.000000	-0.000307
3079.000000	-0.000324
3078.000000	-0.000345
3077.000000	-0.000358
3076.000000	-0.000358
3075.000000	-0.000347
3074.000000	-0.000335
3073.000000	-0.000326
3072.000000	-0.000312
3071.000000	-0.000290
3070.000000	-0.000264
3069.000000	-0.000247
3068.000000	-0.000248
3067.000000	-0.000265
3066.000000	-0.000288
3065.000000	-0.000308
3064.000000	-0.000320
3063.000000	-0.000327
3062.000000	-0.000330
3061.000000	-0.000332
3060.000000	-0.000330
3059.000000	-0.000322
3058.000000	-0.000313
3057.000000	-0.000305
3056.000000	-0.000303
3055.000000	-0.000305
3054.000000	-0.000304
3053.000000	-0.000298
3052.000000	-0.000290
3051.000000	-0.000288
3050.000000	-0.000300
3049.000000	-0.000320
3048.000000	-0.000337
3047.000000	-0.000339
3046.000000	-0.000327
3045.000000	-0.000308
3044.000000	-0.000292
3043.000000	-0.000286
3042.000000	-0.000289
3041.000000	-0.000299
3040.000000	-0.000314
3039.000000	-0.000330
3038.000000	-0.000342
3037.000000	-0.000343
3036.000000	-0.000336
3035.000000	-0.000333
3034.000000	-0.000345
3033.000000	-0.000368
3032.000000	-0.000388
3031.000000	-0.000398
3030.000000	-0.000403
3029.000000	-0.000413
3028.000000	-0.000424
3027.000000	-0.000431
3026.000000	-0.000427
3025.000000	-0.000413
3024.000000	-0.000395
3023.000000	-0.000377
3022.000000	-0.000361
3021.000000	-0.000351
3020.000000	-0.000344
3019.000000	-0.000339
3018.000000	-0.000338
3017.000000	-0.000347
3016.000000	-0.000361
3015.000000	-0.000373
3014.000000	-0.000377
3013.000000	-0.000376
3012.000000	-0.000375
3011.000000	-0.000383
3010.000000	-0.000399
3009.000000	-0.000418
3008.000000	-0.000430
3007.000000	-0.000428
3006.000000	-0.000412
3005.000000	-0.000394
3004.000000	-0.000384
3003.000000	-0.000385
3002.000000	-0.000388
3001.000000	-0.000390
3000.000000	-0.000392
2999.000000	-0.000399
2998.000000	-0.000407
2997.000000	-0.000410
2996.000000	-0.000400
2995.000000	-0.000383
2994.000000	-0.000369
2993.000000	-0.000366
2992.000000	-0.000371
2991.000000	-0.000373
2990.000000	-0.000366
2989.000000	-0.000353
2988.000000	-0.000340
2987.000000	-0.000331
2986.000000	-0.000322
2985.000000	-0.000306
2984.000000	-0.000284
2983.000000	-0.000262
2982.000000	-0.000251
2981.000000	-0.000254
2980.000000	-0.000270
2979.000000	-0.000293
2978.000000	-0.000317
2977.000000	-0.000341
2976.000000	-0.000367
2975.000000	-0.000392
2974.000000	-0.000409
2973.000000	-0.000411
2972.000000	-0.000392
2971.000000	-0.000357
2970.000000	-0.000313
2969.000000	-0.000269
2968.000000	-0.000227
2967.000000	-0.000191
2966.000000	-0.000165
2965.000000	-0.000150
2964.000000	-0.000144
2963.000000	-0.000145
2962.000000	-0.000154
2961.000000	-0.000169
2960.000000	-0.000188
2959.000000	-0.000206
2958.000000	-0.000217
2957.000000	-0.000220
2956.000000	-0.000218
2955.000000	-0.000210
2954.000000	-0.000201
2953.000000	-0.000193
2952.000000	-0.000188
2951.000000	-0.000186
2950.000000	-0.000181
2949.000000	-0.000166
2948.000000	-0.000139
2947.000000	-0.000112
2946.000000	-0.000098
2945.000000	-0.000109
2944.000000	-0.000134
2943.000000	-0.000154
2942.000000	-0.000154
2941.000000	-0.000134
2940.000000	-0.000105
2939.000000	-0.000078
2938.000000	-0.000060
2937.000000	-0.000052
2936.000000	-0.000048
2935.000000	-0.000045
2934.000000	-0.000037
2933.000000	-0.000026
2932.000000	-0.000020
2931.000000	-0.000029
2930.000000	-0.000053
2929.000000	-0.000083
2928.000000	-0.000112
2927.000000	-0.000135
2926.000000	-0.000159
2925.000000	-0.000183
2924.000000	-0.000204
2923.000000	-0.000214
2922.000000	-0.000215
2921.000000	-0.000214
2920.000000	-0.000223
2919.000000	-0.000244
2918.000000	-0.000273
2917.000000	-0.000301
2916.000000	-0.000317
2915.000000	-0.000318
2914.000000	-0.000305
2913.000000	-0.000286
2912.000000	-0.000271
2911.000000	-0.000269
2910.000000	-0.000284
2909.000000	-0.000309
2908.000000	-0.000326
2907.000000	-0.000327
2906.000000	-0.000315
2905.000000	-0.000304
2904.000000	-0.000299
2903.000000	-0.000295
2902.000000	-0.000288
2901.000000	-0.000281
2900.000000	-0.000278
2899.000000	-0.000276
2898.000000	-0.000269
2897.000000	-0.000257
2896.000000	-0.000245
2895.000000	-0.000239
2894.000000	-0.000243
2893.000000	-0.000262
2892.000000	-0.000292
2891.000000	-0.000323
2890.000000	-0.000339
2889.000000	-0.000338
2888.000000	-0.000335
2887.000000	-0.000341
2886.000000	-0.000357
2885.000000	-0.000368
2884.000000	-0.000365
2883.000000	-0.000349
2882.000000	-0.000327
2881.000000	-0.000306
2880.000000	-0.000292
2879.000000	-0.000292
2878.000000	-0.000303
2877.000000	-0.000312
2876.000000	-0.000306
2875.000000	-0.000286
2874.000000	-0.000265
2873.000000	-0.000259
2872.000000	-0.000275
2871.000000	-0.000305
2870.000000	-0.000336
2869.000000	-0.000353
2868.000000	-0.000349
2867.000000	-0.000329
2866.000000	-0.000305
2865.000000	-0.000289
2864.000000	-0.000282
2863.000000	-0.000278
2862.000000	-0.000276
2861.000000	-0.000278
2860.000000	-0.000279
2859.000000	-0.000281
2858.000000	-0.000289
2857.000000	-0.000310
2856.000000	-0.000339
2855.000000	-0.000361
2854.000000	-0.000366
2853.000000	-0.000360
2852.000000	-0.000356
2851.000000	-0.000363
2850.000000	-0.000382
2849.000000	-0.000415
2848.000000	-0.000452
2847.000000	-0.000477
2846.000000	-0.000476
2845.000000	-0.000453
2844.000000	-0.000423
2843.000000	-0.000399
2842.000000	-0.000385
2841.000000	-0.000377
2840.000000	-0.000373
2839.000000	-0.000372
2838.000000	-0.000374
2837.000000	-0.000381
2836.000000	-0.000397
2835.000000	-0.000419
2834.000000	-0.000444
2833.000000	-0.000467
2832.000000	-0.000487
2831.000000	-0.000503
2830.000000	-0.000514
2829.000000	-0.000516
2828.000000	-0.000512
2827.000000	-0.000507
2826.000000	-0.000500
2825.000000	-0.000487
2824.000000	-0.000466
2823.000000	-0.000440
2822.000000	-0.000419
2821.000000	-0.000407
2820.000000	-0.000408
2819.000000	-0.000427
2818.000000	-0.000461
2817.000000	-0.000494
2816.000000	-0.000505
2815.000000	-0.000486
2814.000000	-0.000454
2813.000000	-0.000435
2812.000000	-0.000442
2811.000000	-0.000471
2810.000000	-0.000513
2809.000000	-0.000553
2808.000000	-0.000574
2807.000000	-0.000565
2806.000000	-0.000534
2805.000000	-0.000502
2804.000000	-0.000483
2803.000000	-0.000469
2802.000000	-0.000442
2801.000000	-0.000402
2800.000000	-0.000362
2799.000000	-0.000337
2798.000000	-0.000332
2797.000000	-0.000343
2796.000000	-0.000365
2795.000000	-0.000388
2794.000000	-0.000408
2793.000000	-0.000429
2792.000000	-0.000450
2791.000000	-0.000466
2790.000000	-0.000466
2789.000000	-0.000459
2788.000000	-0.000459
2787.000000	-0.000472
2786.000000	-0.000485
2785.000000	-0.000486
2784.000000	-0.000478
2783.000000	-0.000478
2782.000000	-0.000490
2781.000000	-0.000504
2780.000000	-0.000506
2779.000000	-0.000489
2778.000000	-0.000451
2777.000000	-0.000402
2776.000000	-0.000362
2775.000000	-0.000351
2774.000000	-0.000369
2773.000000	-0.000389
2772.000000	-0.000388
2771.000000	-0.000365
2770.000000	-0.000346
2769.000000	-0.000351
2768.000000	-0.000382
2767.000000	-0.000427
2766.000000	-0.000466
2765.000000	-0.000485
2764.000000	-0.000476
2763.000000	-0.000450
2762.000000	-0.000432
2761.000000	-0.000432
2760.000000	-0.000443
2759.000000	-0.000448
2758.000000	-0.000438
2757.000000	-0.000422
2756.000000	-0.000399
2755.000000	-0.000370
2754.000000	-0.000339
2753.000000	-0.000325
2752.000000	-0.000338
2751.000000	-0.000371
2750.000000	-0.000408
2749.000000	-0.000441
2748.000000	-0.000471
2747.000000	-0.000494
2746.000000	-0.000506
2745.000000	-0.000511
2744.000000	-0.000513
2743.000000	-0.000510
2742.000000	-0.000498
2741.000000	-0.000485
2740.000000	-0.000486
2739.000000	-0.000501
2738.000000	-0.000515
2737.000000	-0.000512
2736.000000	-0.000488
2735.000000	-0.000451
2734.000000	-0.000409
2733.000000	-0.000375
2732.000000	-0.000366
2731.000000	-0.000385
2730.000000	-0.000417
2729.000000	-0.000442
2728.000000	-0.000450
2727.000000	-0.000449
2726.000000	-0.000446
2725.000000	-0.000444
2724.000000	-0.000447
2723.000000	-0.000458
2722.000000	-0.000473
2721.000000	-0.000481
2720.000000	-0.000476
2719.000000	-0.000463
2718.000000	-0.000454
2717.000000	-0.000454
2716.000000	-0.000467
2715.000000	-0.000489
2714.000000	-0.000513
2713.000000	-0.000521
2712.000000	-0.000503
2711.000000	-0.000467
2710.000000	-0.000434
2709.000000	-0.000423
2708.000000	-0.000433
2707.000000	-0.000454
2706.000000	-0.000474
2705.000000	-0.000487
2704.000000	-0.000486
2703.000000	-0.000473
2702.000000	-0.000456
2701.000000	-0.000447
2700.000000	-0.000451
2699.000000	-0.000464
2698.000000	-0.000477
2697.000000	-0.000489
2696.000000	-0.000497
2695.000000	-0.000498
2694.000000	-0.000490
2693.000000	-0.000477
2692.000000	-0.000466
2691.000000	-0.000459
2690.000000	-0.000450
2689.000000	-0.000440
2688.000000	-0.000438
2687.000000	-0.000448
2686.000000	-0.000466
2685.000000	-0.000482
2684.000000	-0.000487
2683.000000	-0.000482
2682.000000	-0.000468
2681.000000	-0.000452
2680.000000	-0.000445
2679.000000	-0.000448
2678.000000	-0.000458
2677.000000	-0.000465
2676.000000	-0.000465
2675.000000	-0.000462
2674.000000	-0.000459
2673.000000	-0.000459
2672.000000	-0.000465
2671.000000	-0.000478
2670.000000	-0.000492
2669.000000	-0.000498
2668.000000	-0.000492
2667.000000	-0.000480
2666.000000	-0.000467
2665.000000	-0.000452
2664.000000	-0.000431
2663.000000	-0.000409
2662.000000	-0.000395
2661.000000	-0.000393
2660.000000	-0.000394
2659.000000	-0.000388
2658.000000	-0.000376
2657.000000	-0.000367
2656.000000	-0.000368
2655.000000	-0.000374
2654.000000	-0.000376
2653.000000	-0.000371
2652.000000	-0.000365
2651.000000	-0.000359
2650.000000	-0.000355
2649.000000	-0.000350
2648.000000	-0.000342
2647.000000	-0.000333
2646.000000	-0.000325
2645.000000	-0.000327
2644.000000	-0.000347
2643.000000	-0.000378
2642.000000	-0.000411
2641.000000	-0.000439
2640.000000	-0.000463
2639.000000	-0.000479
2638.000000	-0.000471
2637.000000	-0.000439
2636.000000	-0.000402
2635.000000	-0.000386
2634.000000	-0.000398
2633.000000	-0.000420
2632.000000	-0.000436
2631.000000	-0.000443
2630.000000	-0.000445
2629.000000	-0.000445
2628.000000	-0.000443
2627.000000	-0.000445
2626.000000	-0.000452
2625.000000	-0.000461
2624.000000	-0.000466
2623.000000	-0.000469
2622.000000	-0.000471
2621.000000	-0.000469
2620.000000	-0.000463
2619.000000	-0.000460
2618.000000	-0.000466
2617.000000	-0.000476
2616.000000	-0.000478
2615.000000	-0.000470
2614.000000	-0.000459
2613.000000	-0.000455
2612.000000	-0.000462
2611.000000	-0.000483
2610.000000	-0.000516
2609.000000	-0.000555
2608.000000	-0.000593
2607.000000	-0.000622
2606.000000	-0.000641
2605.000000	-0.000649
2604.000000	-0.000644
2603.000000	-0.000627
2602.000000	-0.000605
2601.000000	-0.000589
2600.000000	-0.000584
2599.000000	-0.000587
2598.000000	-0.000597
2597.000000	-0.000612
2596.000000	-0.000627
2595.000000	-0.000633
2594.000000	-0.000625
2593.000000	-0.000608
2592.000000	-0.000596
2591.000000	-0.000596
2590.000000	-0.000605
2589.000000	-0.000616
2588.000000	-0.000624
2587.000000	-0.000630
2586.000000	-0.000627
2585.000000	-0.000609
2584.000000	-0.000581
2583.000000	-0.000551
2582.000000	-0.000531
2581.000000	-0.000520
2580.000000	-0.000521
2579.000000	-0.000533
2578.000000	-0.000551
2577.000000	-0.000566
2576.000000	-0.000576
2575.000000	-0.000592
2574.000000	-0.000621
2573.000000	-0.000656
2572.000000	-0.000677
2571.000000	-0.000678
2570.000000	-0.000670
2569.000000	-0.000672
2568.000000	-0.000687
2567.000000	-0.000708
2566.000000	-0.000725
2565.000000	-0.000735
2564.000000	-0.000735
2563.000000	-0.000730
2562.000000	-0.000722
2561.000000	-0.000716
2560.000000	-0.000718
2559.000000	-0.000729
2558.000000	-0.000746
2557.000000	-0.000757
2556.000000	-0.000744
2555.000000	-0.000703
2554.000000	-0.000648
2553.000000	-0.000610
2552.000000	-0.000608
2551.000000	-0.000641
2550.000000	-0.000692
2549.000000	-0.000739
2548.000000	-0.000768
2547.000000	-0.000779
2546.000000	-0.000778
2545.000000	-0.000777
2544.000000	-0.000783
2543.000000	-0.000788
2542.000000	-0.000781
2541.000000	-0.000757
2540.000000	-0.000721
2539.000000	-0.000684
2538.000000	-0.000654
2537.000000	-0.000637
2536.000000	-0.000643
2535.000000	-0.000672
2534.000000	-0.000703
2533.000000	-0.000707
2532.000000	-0.000676
2531.000000	-0.000636
2530.000000	-0.000618
2529.000000	-0.000627
2528.000000	-0.000642
2527.000000	-0.000643
2526.000000	-0.000638
2525.000000	-0.000640
2524.000000	-0.000649
2523.000000	-0.000654
2522.000000	-0.000654
2521.000000	-0.000663
2520.000000	-0.000685
2519.000000	-0.000703
2518.000000	-0.000697
2517.000000	-0.000671
2516.000000	-0.000650
2515.000000	-0.000647
2514.000000	-0.000657
2513.000000	-0.000669
2512.000000	-0.000681
2511.000000	-0.000696
2510.000000	-0.000711
2509.000000	-0.000717
2508.000000	-0.000707
2507.000000	-0.000682
2506.000000	-0.000649
2505.000000	-0.000620
2504.000000	-0.000609
2503.000000	-0.000619
2502.000000	-0.000638
2501.000000	-0.000648
2500.000000	-0.000640
2499.000000	-0.000622
2498.000000	-0.000610
2497.000000	-0.000613
2496.000000	-0.000627
2495.000000	-0.000645
2494.000000	-0.000668
2493.000000	-0.000703
2492.000000	-0.000749
2491.000000	-0.000782
2490.000000	-0.000772
2489.000000	-0.000713
2488.000000	-0.000634
2487.000000	-0.000573
2486.000000	-0.000549
2485.000000	-0.000554
2484.000000	-0.000569
2483.000000	-0.000584
2482.000000	-0.000593
2481.000000	-0.000599
2480.000000	-0.000608
2479.000000	-0.000624
2478.000000	-0.000645
2477.000000	-0.000662
2476.000000	-0.000667
2475.000000	-0.000662
2474.000000	-0.000653
2473.000000	-0.000647
2472.000000	-0.000645
2471.000000	-0.000650
2470.000000	-0.000660
2469.000000	-0.000668
2468.000000	-0.000663
2467.000000	-0.000645
2466.000000	-0.000627
2465.000000	-0.000626
2464.000000	-0.000642
2463.000000	-0.000655
2462.000000	-0.000647
2461.000000	-0.000622
2460.000000	-0.000604
2459.000000	-0.000610
2458.000000	-0.000639
2457.000000	-0.000673
2456.000000	-0.000701
2455.000000	-0.000722
2454.000000	-0.000742
2453.000000	-0.000760
2452.000000	-0.000767
2451.000000	-0.000754
2450.000000	-0.000726
2449.000000	-0.000701
2448.000000	-0.000693
2447.000000	-0.000702
2446.000000	-0.000704
2445.000000	-0.000681
2444.000000	-0.000641
2443.000000	-0.000614
2442.000000	-0.000617
2441.000000	-0.000639
2440.000000	-0.000656
2439.000000	-0.000658
2438.000000	-0.000656
2437.000000	-0.000669
2436.000000	-0.000695
2435.000000	-0.000720
2434.000000	-0.000735
2433.000000	-0.000746
2432.000000	-0.000763
2431.000000	-0.000774
2430.000000	-0.000765
2429.000000	-0.000732
2428.000000	-0.000694
2427.000000	-0.000675
2426.000000	-0.000682
2425.000000	-0.000702
2424.000000	-0.000722
2423.000000	-0.000739
2422.000000	-0.000752
2421.000000	-0.000764
2420.000000	-0.000773
2419.000000	-0.000780
2418.000000	-0.000791
2417.000000	-0.000805
2416.000000	-0.000816
2415.000000	-0.000811
2414.000000	-0.000791
2413.000000	-0.000767
2412.000000	-0.000747
2411.000000	-0.000726
2410.000000	-0.000696
2409.000000	-0.000667
2408.000000	-0.000655
2407.000000	-0.000663
2406.000000	-0.000678
2405.000000	-0.000690
2404.000000	-0.000701
2403.000000	-0.000717
2402.000000	-0.000739
2401.000000	-0.000766
2400.000000	-0.000797
2399.000000	-0.000824
2398.000000	-0.000839
2397.000000	-0.000839
2396.000000	-0.000826
2395.000000	-0.000803
2394.000000	-0.000767
2393.000000	-0.000723
2392.000000	-0.000692
2391.000000	-0.000685
2390.000000	-0.000696
2389.000000	-0.000715
2388.000000	-0.000739
2387.000000	-0.000772
2386.000000	-0.000811
2385.000000	-0.000851
2384.000000	-0.000894
2383.000000	-0.000949
2382.000000	-0.001011
2381.000000	-0.001070
2380.000000	-0.001120
2379.000000	-0.001155
2378.000000	-0.001157
2377.000000	-0.001112
2376.000000	-0.001033
2375.000000	-0.000959
2374.000000	-0.000930
2373.000000	-0.000960
2372.000000	-0.001028
2371.000000	-0.001098
2370.000000	-0.001141
2369.000000	-0.001161
2368.000000	-0.001168
2367.000000	-0.001159
2366.000000	-0.001126
2365.000000	-0.001086
2364.000000	-0.001060
2363.000000	-0.001038
2362.000000	-0.000999
2361.000000	-0.000960
2360.000000	-0.000947
2359.000000	-0.000954
2358.000000	-0.000962
2357.000000	-0.000973
2356.000000	-0.000989
2355.000000	-0.000981
2354.000000	-0.000956
2353.000000	-0.000974
2352.000000	-0.001053
2351.000000	-0.001129
2350.000000	-0.001135
2349.000000	-0.001064
2348.000000	-0.000960
2347.000000	-0.000890
2346.000000	-0.000877
2345.000000	-0.000865
2344.000000	-0.000807
2343.000000	-0.000720
2342.000000	-0.000669
2341.000000	-0.000681
2340.000000	-0.000722
2339.000000	-0.000744
2338.000000	-0.000747
2337.000000	-0.000759
2336.000000	-0.000779
2335.000000	-0.000790
2334.000000	-0.000808
2333.000000	-0.000860
2332.000000	-0.000925
2331.000000	-0.000939
2330.000000	-0.000862
2329.000000	-0.000732
2328.000000	-0.000609
2327.000000	-0.000530
2326.000000	-0.000506
2325.000000	-0.000524
2324.000000	-0.000564
2323.000000	-0.000594
2322.000000	-0.000592
2321.000000	-0.000542
2320.000000	-0.000452
2319.000000	-0.000348
2318.000000	-0.000269
2317.000000	-0.000244
2316.000000	-0.000281
2315.000000	-0.000367
2314.000000	-0.000466
2313.000000	-0.000538
2312.000000	-0.000565
2311.000000	-0.000570
2310.000000	-0.000580
2309.000000	-0.000595
2308.000000	-0.000601
2307.000000	-0.000600
2306.000000	-0.000607
2305.000000	-0.000626
2304.000000	-0.000649
2303.000000	-0.000666
2302.000000	-0.000675
2301.000000	-0.000667
2300.000000	-0.000634
2299.000000	-0.000587
2298.000000	-0.000550
2297.000000	-0.000532
2296.000000	-0.000517
2295.000000	-0.000499
2294.000000	-0.000489
2293.000000	-0.000497
2292.000000	-0.000507
2291.000000	-0.000498
2290.000000	-0.000462
2289.000000	-0.000408
2288.000000	-0.000349
2287.000000	-0.000301
2286.000000	-0.000280
2285.000000	-0.000293
2284.000000	-0.000327
2283.000000	-0.000372
2282.000000	-0.000434
2281.000000	-0.000508
2280.000000	-0.000560
2279.000000	-0.000550
2278.000000	-0.000479
2277.000000	-0.000402
2276.000000	-0.000373
2275.000000	-0.000394
2274.000000	-0.000421
2273.000000	-0.000426
2272.000000	-0.000413
2271.000000	-0.000398
2270.000000	-0.000372
2269.000000	-0.000321
2268.000000	-0.000267
2267.000000	-0.000263
2266.000000	-0.000334
2265.000000	-0.000443
2264.000000	-0.000526
2263.000000	-0.000563
2262.000000	-0.000580
2261.000000	-0.000601
2260.000000	-0.000622
2259.000000	-0.000637
2258.000000	-0.000655
2257.000000	-0.000674
2256.000000	-0.000671
2255.000000	-0.000629
2254.000000	-0.000576
2253.000000	-0.000552
2252.000000	-0.000564
2251.000000	-0.000581
2250.000000	-0.000586
2249.000000	-0.000590
2248.000000	-0.000611
2247.000000	-0.000650
2246.000000	-0.000707
2245.000000	-0.000773
2244.000000	-0.000812
2243.000000	-0.000773
2242.000000	-0.000652
2241.000000	-0.000517
2240.000000	-0.000460
2239.000000	-0.000513
2238.000000	-0.000635
2237.000000	-0.000765
2236.000000	-0.000867
2235.000000	-0.000927
2234.000000	-0.000933
2233.000000	-0.000890
2232.000000	-0.000821
2231.000000	-0.000763
2230.000000	-0.000740
2229.000000	-0.000754
2228.000000	-0.000780
2227.000000	-0.000781
2226.000000	-0.000740
2225.000000	-0.000699
2224.000000	-0.000719
2223.000000	-0.000803
2222.000000	-0.000876
2221.000000	-0.000858
2220.000000	-0.000754
2219.000000	-0.000630
2218.000000	-0.000539
2217.000000	-0.000491
2216.000000	-0.000480
2215.000000	-0.000501
2214.000000	-0.000543
2213.000000	-0.000585
2212.000000	-0.000624
2211.000000	-0.000663
2210.000000	-0.000681
2209.000000	-0.000641
2208.000000	-0.000556
2207.000000	-0.000494
2206.000000	-0.000498
2205.000000	-0.000527
2204.000000	-0.000515
2203.000000	-0.000465
2202.000000	-0.000442
2201.000000	-0.000482
2200.000000	-0.000551
2199.000000	-0.000591
2198.000000	-0.000586
2197.000000	-0.000557
2196.000000	-0.000536
2195.000000	-0.000554
2194.000000	-0.000624
2193.000000	-0.000723
2192.000000	-0.000795
2191.000000	-0.000798
2190.000000	-0.000737
2189.000000	-0.000656
2188.000000	-0.000602
2187.000000	-0.000607
2186.000000	-0.000681
2185.000000	-0.000797
2184.000000	-0.000896
2183.000000	-0.000907
2182.000000	-0.000798
2181.000000	-0.000601
2180.000000	-0.000403
2179.000000	-0.000302
2178.000000	-0.000361
2177.000000	-0.000578
2176.000000	-0.000887
2175.000000	-0.001168
2174.000000	-0.001294
2173.000000	-0.001192
2172.000000	-0.000901
2171.000000	-0.000557
2170.000000	-0.000310
2169.000000	-0.000227
2168.000000	-0.000281
2167.000000	-0.000414
2166.000000	-0.000584
2165.000000	-0.000743
2164.000000	-0.000801
2163.000000	-0.000679
2162.000000	-0.000428
2161.000000	-0.000255
2160.000000	-0.000364
2159.000000	-0.000748
2158.000000	-0.001183
2157.000000	-0.001480
2156.000000	-0.001640
2155.000000	-0.001727
2154.000000	-0.001730
2153.000000	-0.001593
2152.000000	-0.001348
2151.000000	-0.001118
2150.000000	-0.001016
2149.000000	-0.001059
2148.000000	-0.001176
2147.000000	-0.001281
2146.000000	-0.001326
2145.000000	-0.001323
2144.000000	-0.001314
2143.000000	-0.001325
2142.000000	-0.001337
2141.000000	-0.001328
2140.000000	-0.001303
2139.000000	-0.001268
2138.000000	-0.001198
2137.000000	-0.001067
2136.000000	-0.000918
2135.000000	-0.000830
2134.000000	-0.000833
2133.000000	-0.000875
2132.000000	-0.000906
2131.000000	-0.000923
2130.000000	-0.000936
2129.000000	-0.000930
2128.000000	-0.000899
2127.000000	-0.000879
2126.000000	-0.000908
2125.000000	-0.000965
2124.000000	-0.000992
2123.000000	-0.000961
2122.000000	-0.000906
2121.000000	-0.000874
2120.000000	-0.000880
2119.000000	-0.000900
2118.000000	-0.000900
2117.000000	-0.000860
2116.000000	-0.000788
2115.000000	-0.000712
2114.000000	-0.000656
2113.000000	-0.000615
2112.000000	-0.000570
2111.000000	-0.000520
2110.000000	-0.000484
2109.000000	-0.000485
2108.000000	-0.000528
2107.000000	-0.000606
2106.000000	-0.000691
2105.000000	-0.000745
2104.000000	-0.000739
2103.000000	-0.000689
2102.000000	-0.000640
2101.000000	-0.000623
2100.000000	-0.000631
2099.000000	-0.000650
2098.000000	-0.000672
2097.000000	-0.000686
2096.000000	-0.000675
2095.000000	-0.000644
2094.000000	-0.000627
2093.000000	-0.000647
2092.000000	-0.000681
2091.000000	-0.000687
2090.000000	-0.000652
2089.000000	-0.000598
2088.000000	-0.000551
2087.000000	-0.000518
2086.000000	-0.000504
2085.000000	-0.000518
2084.000000	-0.000566
2083.000000	-0.000640
2082.000000	-0.000727
2081.000000	-0.000818
2080.000000	-0.000894
2079.000000	-0.000923
2078.000000	-0.000877
2077.000000	-0.000775
2076.000000	-0.000681
2075.000000	-0.000661
2074.000000	-0.000714
2073.000000	-0.000778
2072.000000	-0.000782
2071.000000	-0.000718
2070.000000	-0.000643
2069.000000	-0.000622
2068.000000	-0.000667
2067.000000	-0.000744
2066.000000	-0.000817
2065.000000	-0.000874
2064.000000	-0.000919
2063.000000	-0.000938
2062.000000	-0.000909
2061.000000	-0.000836
2060.000000	-0.000759
2059.000000	-0.000718
2058.000000	-0.000708
2057.000000	-0.000683
2056.000000	-0.000612
2055.000000	-0.000520
2054.000000	-0.000457
2053.000000	-0.000441
2052.000000	-0.000446
2051.000000	-0.000437
2050.000000	-0.000406
2049.000000	-0.000378
2048.000000	-0.000378
2047.000000	-0.000412
2046.000000	-0.000469
2045.000000	-0.000541
2044.000000	-0.000631
2043.000000	-0.000740
2042.000000	-0.000848
2041.000000	-0.000912
2040.000000	-0.000895
2039.000000	-0.000797
2038.000000	-0.000655
2037.000000	-0.000537
2036.000000	-0.000521
2035.000000	-0.000627
2034.000000	-0.000776
2033.000000	-0.000846
2032.000000	-0.000812
2031.000000	-0.000776
2030.000000	-0.000836
2029.000000	-0.000948
2028.000000	-0.000972
2027.000000	-0.000837
2026.000000	-0.000609
2025.000000	-0.000418
2024.000000	-0.000359
2023.000000	-0.000447
2022.000000	-0.000632
2021.000000	-0.000831
2020.000000	-0.000966
2019.000000	-0.001018
2018.000000	-0.001009
2017.000000	-0.000945
2016.000000	-0.000824
2015.000000	-0.000679
2014.000000	-0.000589
2013.000000	-0.000618
2012.000000	-0.000749
2011.000000	-0.000896
2010.000000	-0.000970
2009.000000	-0.000940
2008.000000	-0.000860
2007.000000	-0.000819
2006.000000	-0.000842
2005.000000	-0.000849
2004.000000	-0.000748
2003.000000	-0.000565
2002.000000	-0.000433
2001.000000	-0.000466
2000.000000	-0.000649
1999.000000	-0.000877
1998.000000	-0.001059
1997.000000	-0.001164
1996.000000	-0.001200
1995.000000	-0.001189
1994.000000	-0.001150
1993.000000	-0.001076
1992.000000	-0.000933
1991.000000	-0.000713
1990.000000	-0.000479
1989.000000	-0.000329
1988.000000	-0.000304
1987.000000	-0.000372
1986.000000	-0.000477
1985.000000	-0.000596
1984.000000	-0.000715
1983.000000	-0.000788
1982.000000	-0.000759
1981.000000	-0.000630
1980.000000	-0.000481
1979.000000	-0.000406
1978.000000	-0.000444
1977.000000	-0.000569
1976.000000	-0.000755
1975.000000	-0.001003
1974.000000	-0.001289
1973.000000	-0.001514
1972.000000	-0.001556
1971.000000	-0.001394
1970.000000	-0.001149
1969.000000	-0.000985
1968.000000	-0.000981
1967.000000	-0.001088
1966.000000	-0.001209
1965.000000	-0.001284
1964.000000	-0.001312
1963.000000	-0.001315
1962.000000	-0.001316
1961.000000	-0.001333
1960.000000	-0.001357
1959.000000	-0.001363
1958.000000	-0.001339
1957.000000	-0.001299
1956.000000	-0.001248
1955.000000	-0.001160
1954.000000	-0.001016
1953.000000	-0.000857
1952.000000	-0.000758
1951.000000	-0.000757
1950.000000	-0.000821
1949.000000	-0.000890
1948.000000	-0.000927
1947.000000	-0.000923
1946.000000	-0.000883
1945.000000	-0.000821
1944.000000	-0.000765
1943.000000	-0.000743
1942.000000	-0.000765
1941.000000	-0.000822
1940.000000	-0.000897
1939.000000	-0.000961
1938.000000	-0.000984
1937.000000	-0.000954
1936.000000	-0.000908
1935.000000	-0.000892
1934.000000	-0.000919
1933.000000	-0.000957
1932.000000	-0.000972
1931.000000	-0.000965
1930.000000	-0.000959
1929.000000	-0.000965
1928.000000	-0.000967
1927.000000	-0.000943
1926.000000	-0.000888
1925.000000	-0.000819
1924.000000	-0.000767
1923.000000	-0.000746
1922.000000	-0.000758
1921.000000	-0.000795
1920.000000	-0.000848
1919.000000	-0.000898
1918.000000	-0.000912
1917.000000	-0.000873
1916.000000	-0.000811
1915.000000	-0.000770
1914.000000	-0.000766
1913.000000	-0.000781
1912.000000	-0.000789
1911.000000	-0.000787
1910.000000	-0.000797
1909.000000	-0.000839
1908.000000	-0.000901
1907.000000	-0.000944
1906.000000	-0.000944
1905.000000	-0.000917
1904.000000	-0.000906
1903.000000	-0.000934
1902.000000	-0.000974
1901.000000	-0.000986
1900.000000	-0.000961
1899.000000	-0.000921
1898.000000	-0.000882
1897.000000	-0.000843
1896.000000	-0.000817
1895.000000	-0.000834
1894.000000	-0.000905
1893.000000	-0.000991
1892.000000	-0.001039
1891.000000	-0.001027
1890.000000	-0.000977
1889.000000	-0.000927
1888.000000	-0.000902
1887.000000	-0.000898
1886.000000	-0.000894
1885.000000	-0.000883
1884.000000	-0.000876
1883.000000	-0.000890
1882.000000	-0.000917
1881.000000	-0.000930
1880.000000	-0.000913
1879.000000	-0.000884
1878.000000	-0.000866
1877.000000	-0.000854
1876.000000	-0.000837
1875.000000	-0.000825
1874.000000	-0.000846
1873.000000	-0.000903
1872.000000	-0.000962
1871.000000	-0.000992
1870.000000	-0.000989
1869.000000	-0.000968
1868.000000	-0.000940
1867.000000	-0.000911
1866.000000	-0.000892
1865.000000	-0.000891
1864.000000	-0.000909
1863.000000	-0.000938
1862.000000	-0.000967
1861.000000	-0.000986
1860.000000	-0.000989
1859.000000	-0.000980
1858.000000	-0.000972
1857.000000	-0.000980
1856.000000	-0.001008
1855.000000	-0.001041
1854.000000	-0.001056
1853.000000	-0.001037
1852.000000	-0.000992
1851.000000	-0.000948
1850.000000	-0.000931
1849.000000	-0.000943
1848.000000	-0.000967
1847.000000	-0.000985
1846.000000	-0.000996
1845.000000	-0.001006
1844.000000	-0.001017
1843.000000	-0.001026
1842.000000	-0.001033
1841.000000	-0.001036
1840.000000	-0.001032
1839.000000	-0.001016
1838.000000	-0.000989
1837.000000	-0.000958
1836.000000	-0.000936
1835.000000	-0.000933
1834.000000	-0.000952
1833.000000	-0.000989
1832.000000	-0.001036
1831.000000	-0.001085
1830.000000	-0.001116
1829.000000	-0.001114
1828.000000	-0.001088
1827.000000	-0.001056
1826.000000	-0.001023
1825.000000	-0.000994
1824.000000	-0.000981
1823.000000	-0.001002
1822.000000	-0.001058
1821.000000	-0.001132
1820.000000	-0.001203
1819.000000	-0.001254
1818.000000	-0.001283
1817.000000	-0.001285
1816.000000	-0.001259
1815.000000	-0.001212
1814.000000	-0.001167
1813.000000	-0.001142
1812.000000	-0.001130
1811.000000	-0.001109
1810.000000	-0.001072
1809.000000	-0.001041
1808.000000	-0.001038
1807.000000	-0.001059
1806.000000	-0.001087
1805.000000	-0.001117
1804.000000	-0.001153
1803.000000	-0.001191
1802.000000	-0.001213
1801.000000	-0.001197
1800.000000	-0.001145
1799.000000	-0.001078
1798.000000	-0.001018
1797.000000	-0.000983
1796.000000	-0.000980
1795.000000	-0.001003
1794.000000	-0.001031
1793.000000	-0.001043
1792.000000	-0.001040
1791.000000	-0.001047
1790.000000	-0.001075
1789.000000	-0.001111
1788.000000	-0.001139
1787.000000	-0.001153
1786.000000	-0.001154
1785.000000	-0.001143
1784.000000	-0.001129
1783.000000	-0.001120
1782.000000	-0.001116
1781.000000	-0.001104
1780.000000	-0.001079
1779.000000	-0.001049
1778.000000	-0.001027
1777.000000	-0.001016
1776.000000	-0.001016
1775.000000	-0.001031
1774.000000	-0.001054
1773.000000	-0.001068
1772.000000	-0.001061
1771.000000	-0.001046
1770.000000	-0.001039
1769.000000	-0.001032
1768.000000	-0.001011
1767.000000	-0.000980
1766.000000	-0.000960
1765.000000	-0.000960
1764.000000	-0.000970
1763.000000	-0.000981
1762.000000	-0.000982
1761.000000	-0.000971
1760.000000	-0.000948
1759.000000	-0.000914
1758.000000	-0.000868
1757.000000	-0.000813
1756.000000	-0.000759
1755.000000	-0.000720
1754.000000	-0.000691
1753.000000	-0.000660
1752.000000	-0.000616
1751.000000	-0.000565
1750.000000	-0.000523
1749.000000	-0.000498
1748.000000	-0.000480
1747.000000	-0.000455
1746.000000	-0.000420
1745.000000	-0.000387
1744.000000	-0.000379
1743.000000	-0.000404
1742.000000	-0.000442
1741.000000	-0.000468
1740.000000	-0.000477
1739.000000	-0.000482
1738.000000	-0.000493
1737.000000	-0.000511
1736.000000	-0.000532
1735.000000	-0.000565
1734.000000	-0.000617
1733.000000	-0.000672
1732.000000	-0.000724
1731.000000	-0.000771
1730.000000	-0.000808
1729.000000	-0.000833
1728.000000	-0.000855
1727.000000	-0.000881
1726.000000	-0.000900
1725.000000	-0.000901
1724.000000	-0.000889
1723.000000	-0.000879
1722.000000	-0.000878
1721.000000	-0.000878
1720.000000	-0.000875
1719.000000	-0.000865
1718.000000	-0.000837
1717.000000	-0.000777
1716.000000	-0.000710
1715.000000	-0.000674
1714.000000	-0.000681
1713.000000	-0.000716
1712.000000	-0.000749
1711.000000	-0.000768
1710.000000	-0.000769
1709.000000	-0.000756
1708.000000	-0.000733
1707.000000	-0.000705
1706.000000	-0.000669
1705.000000	-0.000612
1704.000000	-0.000537
1703.000000	-0.000454
1702.000000	-0.000372
1701.000000	-0.000310
1700.000000	-0.000297
1699.000000	-0.000333
1698.000000	-0.000391
1697.000000	-0.000435
1696.000000	-0.000425
1695.000000	-0.000367
1694.000000	-0.000311
1693.000000	-0.000279
1692.000000	-0.000251
1691.000000	-0.000205
1690.000000	-0.000139
1689.000000	-0.000071
1688.000000	-0.000014
1687.000000	0.000037
1686.000000	0.000103
1685.000000	0.000191
1684.000000	0.000281
1683.000000	0.000331
1682.000000	0.000339
1681.000000	0.000345
1680.000000	0.000376
1679.000000	0.000423
1678.000000	0.000471
1677.000000	0.000514
1676.000000	0.000557
1675.000000	0.000607
1674.000000	0.000662
1673.000000	0.000714
1672.000000	0.000756
1671.000000	0.000795
1670.000000	0.000850
1669.000000	0.000935
1668.000000	0.001021
1667.000000	0.001079
1666.000000	0.001113
1665.000000	0.001140
1664.000000	0.001165
1663.000000	0.001184
1662.000000	0.001207
1661.000000	0.001251
1660.000000	0.001313
1659.000000	0.001375
1658.000000	0.001428
1657.000000	0.001478
1656.000000	0.001530
1655.000000	0.001582
1654.000000	0.001631
1653.000000	0.001705
1652.000000	0.001783
1651.000000	0.001809
1650.000000	0.001804
1649.000000	0.001807
1648.000000	0.001838
1647.000000	0.001899
1646.000000	0.001961
1645.000000	0.002000
1644.000000	0.002021
1643.000000	0.002037
1642.000000	0.002053
1641.000000	0.002077
1640.000000	0.002108
1639.000000	0.002136
1638.000000	0.002147
1637.000000	0.002135
1636.000000	0.002116
1635.000000	0.002106
1634.000000	0.002098
1633.000000	0.002086
1632.000000	0.002083
1631.000000	0.002094
1630.000000	0.002106
1629.000000	0.002115
1628.000000	0.002131
1627.000000	0.002165
1626.000000	0.002210
1625.000000	0.002250
1624.000000	0.002270
1623.000000	0.002265
1622.000000	0.002246
1621.000000	0.002230
1620.000000	0.002224
1619.000000	0.002220
1618.000000	0.002206
1617.000000	0.002182
1616.000000	0.002162
1615.000000	0.002149
1614.000000	0.002133
1613.000000	0.002110
1612.000000	0.002081
1611.000000	0.002043
1610.000000	0.001996
1609.000000	0.001949
1608.000000	0.001910
1607.000000	0.001875
1606.000000	0.001832
1605.000000	0.001777
1604.000000	0.001714
1603.000000	0.001654
1602.000000	0.001610
1601.000000	0.001587
1600.000000	0.001574
1599.000000	0.001552
1598.000000	0.001511
1597.000000	0.001454
1596.000000	0.001393
1595.000000	0.001339
1594.000000	0.001292
1593.000000	0.001250
1592.000000	0.001208
1591.000000	0.001164
1590.000000	0.001124
1589.000000	0.001096
1588.000000	0.001082
1587.000000	0.001070
1586.000000	0.001047
1585.000000	0.001014
1584.000000	0.000984
1583.000000	0.000967
1582.000000	0.000960
1581.000000	0.000956
1580.000000	0.000948
1579.000000	0.000936
1578.000000	0.000921
1577.000000	0.000899
1576.000000	0.000873
1575.000000	0.000854
1574.000000	0.000846
1573.000000	0.000841
1572.000000	0.000835
1571.000000	0.000821
1570.000000	0.000802
1569.000000	0.000795
1568.000000	0.000803
1567.000000	0.000814
1566.000000	0.000818
1565.000000	0.000813
1564.000000	0.000792
1563.000000	0.000767
1562.000000	0.000752
1561.000000	0.000756
1560.000000	0.000751
1559.000000	0.000739
1558.000000	0.000773
1557.000000	0.000815
1556.000000	0.000836
1555.000000	0.000844
1554.000000	0.000840
1553.000000	0.000822
1552.000000	0.000792
1551.000000	0.000763
1550.000000	0.000743
1549.000000	0.000733
1548.000000	0.000729
1547.000000	0.000729
1546.000000	0.000739
1545.000000	0.000760
1544.000000	0.000786
1543.000000	0.000804
1542.000000	0.000804
1541.000000	0.000789
1540.000000	0.000785
1539.000000	0.000791
1538.000000	0.000775
1537.000000	0.000744
1536.000000	0.000718
1535.000000	0.000703
1534.000000	0.000699
1533.000000	0.000702
1532.000000	0.000699
1531.000000	0.000681
1530.000000	0.000650
1529.000000	0.000618
1528.000000	0.000596
1527.000000	0.000590
1526.000000	0.000592
1525.000000	0.000593
1524.000000	0.000592
1523.000000	0.000589
1522.000000	0.000578
1521.000000	0.000555
1520.000000	0.000525
1519.000000	0.000487
1518.000000	0.000444
1517.000000	0.000405
1516.000000	0.000385
1515.000000	0.000384
1514.000000	0.000383
1513.000000	0.000369
1512.000000	0.000343
1511.000000	0.000319
1510.000000	0.000308
1509.000000	0.000311
1508.000000	0.000306
1507.000000	0.000276
1506.000000	0.000233
1505.000000	0.000190
1504.000000	0.000150
1503.000000	0.000121
1502.000000	0.000107
1501.000000	0.000107
1500.000000	0.000114
1499.000000	0.000122
1498.000000	0.000115
1497.000000	0.000079
1496.000000	0.000014
1495.000000	-0.000049
1494.000000	-0.000088
1493.000000	-0.000100
1492.000000	-0.000103
1491.000000	-0.000118
1490.000000	-0.000147
1489.000000	-0.000166
1488.000000	-0.000159
1487.000000	-0.000142
1486.000000	-0.000138
1485.000000	-0.000154
1484.000000	-0.000176
1483.000000	-0.000189
1482.000000	-0.000181
1481.000000	-0.000149
1480.000000	-0.000103
1479.000000	-0.000058
1478.000000	-0.000024
1477.000000	-0.000006
1476.000000	-0.000003
1475.000000	-0.000013
1474.000000	-0.000024
1473.000000	-0.000019
1472.000000	0.000011
1471.000000	0.000050
1470.000000	0.000074
1469.000000	0.000085
1468.000000	0.000096
1467.000000	0.000111
1466.000000	0.000129
1465.000000	0.000147
1464.000000	0.000164
1463.000000	0.000174
1462.000000	0.000173
1461.000000	0.000164
1460.000000	0.000151
1459.000000	0.000144
1458.000000	0.000152
1457.000000	0.000173
1456.000000	0.000188
1455.000000	0.000188
1454.000000	0.000191
1453.000000	0.000208
1452.000000	0.000231
1451.000000	0.000250
1450.000000	0.000258
1449.000000	0.000252
1448.000000	0.000242
1447.000000	0.000242
1446.000000	0.000259
1445.000000	0.000285
1444.000000	0.000299
1443.000000	0.000288
1442.000000	0.000255
1441.000000	0.000222
1440.000000	0.000204
1439.000000	0.000205
1438.000000	0.000216
1437.000000	0.000224
1436.000000	0.000224
1435.000000	0.000222
1434.000000	0.000222
1433.000000	0.000225
1432.000000	0.000232
1431.000000	0.000245
1430.000000	0.000260
1429.000000	0.000267
1428.000000	0.000260
1427.000000	0.000244
1426.000000	0.000232
1425.000000	0.000233
1424.000000	0.000242
1423.000000	0.000250
1422.000000	0.000257
1421.000000	0.000265
1420.000000	0.000265
1419.000000	0.000250
1418.000000	0.000228
1417.000000	0.000215
1416.000000	0.000215
1415.000000	0.000229
1414.000000	0.000251
1413.000000	0.000266
1412.000000	0.000264
1411.000000	0.000245
1410.000000	0.000225
1409.000000	0.000216
1408.000000	0.000213
1407.000000	0.000207
1406.000000	0.000197
1405.000000	0.000194
1404.000000	0.000202
1403.000000	0.000216
1402.000000	0.000231
1401.000000	0.000247
1400.000000	0.000258
1399.000000	0.000258
1398.000000	0.000244
1397.000000	0.000222
1396.000000	0.000201
1395.000000	0.000189
1394.000000	0.000185
1393.000000	0.000185
1392.000000	0.000181
1391.000000	0.000176
1390.000000	0.000173
1389.000000	0.000171
1388.000000	0.000158
1387.000000	0.000131
1386.000000	0.000105
1385.000000	0.000093
1384.000000	0.000092
1383.000000	0.000090
1382.000000	0.000083
1381.000000	0.000070
1380.000000	0.000055
1379.000000	0.000040
1378.000000	0.000029
1377.000000	0.000026
1376.000000	0.000033
1375.000000	0.000047
1374.000000	0.000071
1373.000000	0.000103
1372.000000	0.000131
1371.000000	0.000139
1370.000000	0.000122
1369.000000	0.000092
1368.000000	0.000066
1367.000000	0.000054
1366.000000	0.000058
1365.000000	0.000076
1364.000000	0.000095
1363.000000	0.000102
1362.000000	0.000091
1361.000000	0.000073
1360.000000	0.000058
1359.000000	0.000045
1358.000000	0.000029
1357.000000	0.000019
1356.000000	0.000021
1355.000000	0.000027
1354.000000	0.000026
1353.000000	0.000013
1352.000000	-0.000001
1351.000000	-0.000008
1350.000000	-0.000005
1349.000000	0.000008
1348.000000	0.000029
1347.000000	0.000051
1346.000000	0.000068
1345.000000	0.000080
1344.000000	0.000089
1343.000000	0.000095
1342.000000	0.000092
1341.000000	0.000090
1340.000000	0.000102
1339.000000	0.000133
1338.000000	0.000174
1337.000000	0.000216
1336.000000	0.000262
1335.000000	0.000313
1334.000000	0.000368
1333.000000	0.000429
1332.000000	0.000508
1331.000000	0.000610
1330.000000	0.000727
1329.000000	0.000850
1328.000000	0.000969
1327.000000	0.001075
1326.000000	0.001160
1325.000000	0.001227
1324.000000	0.001289
1323.000000	0.001352
1322.000000	0.001408
1321.000000	0.001444
1320.000000	0.001451
1319.000000	0.001422
1318.000000	0.001357
1317.000000	0.001268
1316.000000	0.001169
1315.000000	0.001067
1314.000000	0.000966
1313.000000	0.000875
1312.000000	0.000799
1311.000000	0.000735
1310.000000	0.000669
1309.000000	0.000593
1308.000000	0.000512
1307.000000	0.000431
1306.000000	0.000354
1305.000000	0.000290
1304.000000	0.000249
1303.000000	0.000233
1302.000000	0.000221
1301.000000	0.000192
1300.000000	0.000147
1299.000000	0.000108
1298.000000	0.000090
1297.000000	0.000087
1296.000000	0.000085
1295.000000	0.000071
1294.000000	0.000040
1293.000000	-0.000004
1292.000000	-0.000046
1291.000000	-0.000077
1290.000000	-0.000099
1289.000000	-0.000123
1288.000000	-0.000153
1287.000000	-0.000179
1286.000000	-0.000195
1285.000000	-0.000203
1284.000000	-0.000208
1283.000000	-0.000210
1282.000000	-0.000211
1281.000000	-0.000215
1280.000000	-0.000222
1279.000000	-0.000230
1278.000000	-0.000237
1277.000000	-0.000249
1276.000000	-0.000268
1275.000000	-0.000286
1274.000000	-0.000294
1273.000000	-0.000289
1272.000000	-0.000283
1271.000000	-0.000284
1270.000000	-0.000293
1269.000000	-0.000302
1268.000000	-0.000310
1267.000000	-0.000321
1266.000000	-0.000334
1265.000000	-0.000340
1264.000000	-0.000334
1263.000000	-0.000323
1262.000000	-0.000322
1261.000000	-0.000337
1260.000000	-0.000356
1259.000000	-0.000360
1258.000000	-0.000346
1257.000000	-0.000319
1256.000000	-0.000290
1255.000000	-0.000263
1254.000000	-0.000237
1253.000000	-0.000216
1252.000000	-0.000209
1251.000000	-0.000223
1250.000000	-0.000259
1249.000000	-0.000300
1248.000000	-0.000323
1247.000000	-0.000316
1246.000000	-0.000290
1245.000000	-0.000268
1244.000000	-0.000265
1243.000000	-0.000279
1242.000000	-0.000304
1241.000000	-0.000327
1240.000000	-0.000333
1239.000000	-0.000312
1238.000000	-0.000280
1237.000000	-0.000264
1236.000000	-0.000275
1235.000000	-0.000296
1234.000000	-0.000307
1233.000000	-0.000308
1232.000000	-0.000313
1231.000000	-0.000326
1230.000000	-0.000339
1229.000000	-0.000348
1228.000000	-0.000361
1227.000000	-0.000388
1226.000000	-0.000423
1225.000000	-0.000452
1224.000000	-0.000465
1223.000000	-0.000459
1222.000000	-0.000440
1221.000000	-0.000419
1220.000000	-0.000407
1219.000000	-0.000411
1218.000000	-0.000428
1217.000000	-0.000452
1216.000000	-0.000476
1215.000000	-0.000492
1214.000000	-0.000502
1213.000000	-0.000507
1212.000000	-0.000511
1211.000000	-0.000515
1210.000000	-0.000522
1209.000000	-0.000533
1208.000000	-0.000546
1207.000000	-0.000559
1206.000000	-0.000571
1205.000000	-0.000582
1204.000000	-0.000588
1203.000000	-0.000586
1202.000000	-0.000580
1201.000000	-0.000579
1200.000000	-0.000586
1199.000000	-0.000593
1198.000000	-0.000591
1197.000000	-0.000579
1196.000000	-0.000564
1195.000000	-0.000548
1194.000000	-0.000533
1193.000000	-0.000523
1192.000000	-0.000519
1191.000000	-0.000518
1190.000000	-0.000517
1189.000000	-0.000520
1188.000000	-0.000534
1187.000000	-0.000555
1186.000000	-0.000569
1185.000000	-0.000565
1184.000000	-0.000546
1183.000000	-0.000523
1182.000000	-0.000498
1181.000000	-0.000468
1180.000000	-0.000432
1179.000000	-0.000390
1178.000000	-0.000344
1177.000000	-0.000298
1176.000000	-0.000264
1175.000000	-0.000248
1174.000000	-0.000242
1173.000000	-0.000223
1172.000000	-0.000182
1171.000000	-0.000132
1170.000000	-0.000098
1169.000000	-0.000082
1168.000000	-0.000070
1167.000000	-0.000049
1166.000000	-0.000023
1165.000000	0.000000
1164.000000	0.000024
1163.000000	0.000058
1162.000000	0.000101
1161.000000	0.000135
1160.000000	0.000155
1159.000000	0.000167
1158.000000	0.000185
1157.000000	0.000208
1156.000000	0.000228
1155.000000	0.000242
1154.000000	0.000263
1153.000000	0.000302
1152.000000	0.000354
1151.000000	0.000397
1150.000000	0.000408
1149.000000	0.000383
1148.000000	0.000347
1147.000000	0.000331
1146.000000	0.000350
1145.000000	0.000393
1144.000000	0.000435
1143.000000	0.000456
1142.000000	0.000450
1141.000000	0.000425
1140.000000	0.000394
1139.000000	0.000372
1138.000000	0.000368
1137.000000	0.000377
1136.000000	0.000390
1135.000000	0.000402
1134.000000	0.000412
1133.000000	0.000427
1132.000000	0.000444
1131.000000	0.000458
1130.000000	0.000465
1129.000000	0.000469
1128.000000	0.000474
1127.000000	0.000480
1126.000000	0.000480
1125.000000	0.000466
1124.000000	0.000444
1123.000000	0.000427
1122.000000	0.000427
1121.000000	0.000448
1120.000000	0.000486
1119.000000	0.000532
1118.000000	0.000575
1117.000000	0.000605
1116.000000	0.000620
1115.000000	0.000628
1114.000000	0.000640
1113.000000	0.000660
1112.000000	0.000688
1111.000000	0.000719
1110.000000	0.000745
1109.000000	0.000758
1108.000000	0.000754
1107.000000	0.000740
1106.000000	0.000720
1105.000000	0.000697
1104.000000	0.000674
1103.000000	0.000660
1102.000000	0.000669
1101.000000	0.000691
1100.000000	0.000703
1099.000000	0.000685
1098.000000	0.000644
1097.000000	0.000606
1096.000000	0.000593
1095.000000	0.000610
1094.000000	0.000636
1093.000000	0.000653
1092.000000	0.000656
1091.000000	0.000656
1090.000000	0.000661
1089.000000	0.000666
1088.000000	0.000670
1087.000000	0.000685
1086.000000	0.000720
1085.000000	0.000758
1084.000000	0.000775
1083.000000	0.000767
1082.000000	0.000752
1081.000000	0.000748
1080.000000	0.000751
1079.000000	0.000749
1078.000000	0.000739
1077.000000	0.000732
1076.000000	0.000736
1075.000000	0.000754
1074.000000	0.000778
1073.000000	0.000788
1072.000000	0.000772
1071.000000	0.000746
1070.000000	0.000738
1069.000000	0.000754
1068.000000	0.000766
1067.000000	0.000750
1066.000000	0.000723
1065.000000	0.000722
1064.000000	0.000758
1063.000000	0.000802
1062.000000	0.000821
1061.000000	0.000808
1060.000000	0.000778
1059.000000	0.000753
1058.000000	0.000743
1057.000000	0.000741
1056.000000	0.000725
1055.000000	0.000688
1054.000000	0.000657
1053.000000	0.000673
1052.000000	0.000743
1051.000000	0.000825
1050.000000	0.000878
1049.000000	0.000894
1048.000000	0.000887
1047.000000	0.000860
1046.000000	0.000813
1045.000000	0.000764
1044.000000	0.000748
1043.000000	0.000779
1042.000000	0.000829
1041.000000	0.000864
1040.000000	0.000881
1039.000000	0.000902
1038.000000	0.000942
1037.000000	0.000985
1036.000000	0.000998
1035.000000	0.000972
1034.000000	0.000929
1033.000000	0.000905
1032.000000	0.000914
1031.000000	0.000949
1030.000000	0.000991
1029.000000	0.001023
1028.000000	0.001030
1027.000000	0.001003
1026.000000	0.000953
1025.000000	0.000907
1024.000000	0.000881
1023.000000	0.000869
1022.000000	0.000861
1021.000000	0.000858
1020.000000	0.000867
1019.000000	0.000883
1018.000000	0.000897
1017.000000	0.000908
1016.000000	0.000927
1015.000000	0.000964
1014.000000	0.001012
1013.000000	0.001047
1012.000000	0.001046
1011.000000	0.001004
1010.000000	0.000937
1009.000000	0.000872
1008.000000	0.000821
1007.000000	0.000787
1006.000000	0.000769
1005.000000	0.000766
1004.000000	0.000764
1003.000000	0.000746
1002.000000	0.000715
1001.000000	0.000694
1000.000000	0.000695
999.000000	0.000702
998.000000	0.000691
997.000000	0.000657
996.000000	0.000612
995.000000	0.000563
994.000000	0.000515
993.000000	0.000480
992.000000	0.000467
991.000000	0.000462
990.000000	0.000442
989.000000	0.000410
988.000000	0.000393
987.000000	0.000403
986.000000	0.000414
985.000000	0.000396
984.000000	0.000350
983.000000	0.000302
982.000000	0.000275
981.000000	0.000269
980.000000	0.000277
979.000000	0.000283
978.000000	0.000275
977.000000	0.000257
976.000000	0.000238
975.000000	0.000220
974.000000	0.000195
973.000000	0.000157
972.000000	0.000115
971.000000	0.000078
970.000000	0.000043
969.000000	0.000003
968.000000	-0.000045
967.000000	-0.000094
966.000000	-0.000136
965.000000	-0.000158
964.000000	-0.000150
963.000000	-0.000122
962.000000	-0.000105
961.000000	-0.000127
960.000000	-0.000180
959.000000	-0.000233
958.000000	-0.000271
957.000000	-0.000299
956.000000	-0.000330
955.000000	-0.000361
954.000000	-0.000387
953.000000	-0.000407
952.000000	-0.000426
951.000000	-0.000447
950.000000	-0.000474
949.000000	-0.000508
948.000000	-0.000542
947.000000	-0.000569
946.000000	-0.000590
945.000000	-0.000607
944.000000	-0.000614
943.000000	-0.000607
942.000000	-0.000601
941.000000	-0.000616
940.000000	-0.000656
939.000000	-0.000697
938.000000	-0.000712
937.000000	-0.000698
936.000000	-0.000677
935.000000	-0.000673
934.000000	-0.000694
933.000000	-0.000734
932.000000	-0.000771
931.000000	-0.000792
930.000000	-0.000794
929.000000	-0.000783
928.000000	-0.000757
927.000000	-0.000726
926.000000	-0.000711
925.000000	-0.000737
924.000000	-0.000799
923.000000	-0.000857
922.000000	-0.000874
921.000000	-0.000849
920.000000	-0.000817
919.000000	-0.000812
918.000000	-0.000837
917.000000	-0.000868
916.000000	-0.000883
915.000000	-0.000875
914.000000	-0.000859
913.000000	-0.000841
912.000000	-0.000821
911.000000	-0.000795
910.000000	-0.000777
909.000000	-0.000790
908.000000	-0.000839
907.000000	-0.000903
906.000000	-0.000952
905.000000	-0.000972
904.000000	-0.000966
903.000000	-0.000948
902.000000	-0.000929
901.000000	-0.000914
900.000000	-0.000906
899.000000	-0.000914
898.000000	-0.000947
897.000000	-0.001005
896.000000	-0.001077
895.000000	-0.001139
894.000000	-0.001172
893.000000	-0.001166
892.000000	-0.001130
891.000000	-0.001087
890.000000	-0.001061
889.000000	-0.001057
888.000000	-0.001060
887.000000	-0.001057
886.000000	-0.001052
885.000000	-0.001062
884.000000	-0.001085
883.000000	-0.001108
882.000000	-0.001117
881.000000	-0.001104
880.000000	-0.001074
879.000000	-0.001035
878.000000	-0.001002
877.000000	-0.000981
876.000000	-0.000962
875.000000	-0.000934
874.000000	-0.000914
873.000000	-0.000926
872.000000	-0.000974
871.000000	-0.001033
870.000000	-0.001084
869.000000	-0.001132
868.000000	-0.001187
867.000000	-0.001240
866.000000	-0.001268
865.000000	-0.001261
864.000000	-0.001227
863.000000	-0.001191
862.000000	-0.001176
861.000000	-0.001194
860.000000	-0.001231
859.000000	-0.001261
858.000000	-0.001269
857.000000	-0.001264
856.000000	-0.001261
855.000000	-0.001274
854.000000	-0.001303
853.000000	-0.001335
852.000000	-0.001353
851.000000	-0.001342
850.000000	-0.001310
849.000000	-0.001282
848.000000	-0.001276
847.000000	-0.001286
846.000000	-0.001288
845.000000	-0.001265
844.000000	-0.001216
843.000000	-0.001159
842.000000	-0.001123
841.000000	-0.001124
840.000000	-0.001159
839.000000	-0.001209
838.000000	-0.001263
837.000000	-0.001309
836.000000	-0.001329
835.000000	-0.001300
834.000000	-0.001223
833.000000	-0.001134
832.000000	-0.001075
831.000000	-0.001064
830.000000	-0.001091
829.000000	-0.001141
828.000000	-0.001202
827.000000	-0.001265
826.000000	-0.001309
825.000000	-0.001308
824.000000	-0.001257
823.000000	-0.001186
822.000000	-0.001146
821.000000	-0.001167
820.000000	-0.001239
819.000000	-0.001324
818.000000	-0.001389
817.000000	-0.001411
816.000000	-0.001385
815.000000	-0.001324
814.000000	-0.001260
813.000000	-0.001216
812.000000	-0.001184
811.000000	-0.001146
810.000000	-0.001108
809.000000	-0.001096
808.000000	-0.001121
807.000000	-0.001161
806.000000	-0.001180
805.000000	-0.001167
804.000000	-0.001137
803.000000	-0.001115
802.000000	-0.001118
801.000000	-0.001140
800.000000	-0.001158
799.000000	-0.001158
798.000000	-0.001144
797.000000	-0.001123
796.000000	-0.001088
795.000000	-0.001035
794.000000	-0.000983
793.000000	-0.000949
792.000000	-0.000925
791.000000	-0.000885
790.000000	-0.000824
789.000000	-0.000757
788.000000	-0.000699
787.000000	-0.000663
786.000000	-0.000663
785.000000	-0.000695
784.000000	-0.000721
783.000000	-0.000709
782.000000	-0.000675
781.000000	-0.000661
780.000000	-0.000675
779.000000	-0.000688
778.000000	-0.000695
777.000000	-0.000727
776.000000	-0.000793
775.000000	-0.000849
774.000000	-0.000850
773.000000	-0.000813
772.000000	-0.000792
771.000000	-0.000816
770.000000	-0.000874
769.000000	-0.000947
768.000000	-0.001017
767.000000	-0.001063
766.000000	-0.001066
765.000000	-0.001022
764.000000	-0.000948
763.000000	-0.000871
762.000000	-0.000826
761.000000	-0.000838
760.000000	-0.000893
759.000000	-0.000948
758.000000	-0.000962
757.000000	-0.000937
756.000000	-0.000901
755.000000	-0.000872
754.000000	-0.000846
753.000000	-0.000811
752.000000	-0.000762
751.000000	-0.000716
750.000000	-0.000705
749.000000	-0.000755
748.000000	-0.000846
747.000000	-0.000931
746.000000	-0.000977
745.000000	-0.000984
744.000000	-0.000958
743.000000	-0.000911
742.000000	-0.000883
741.000000	-0.000916
740.000000	-0.001003
739.000000	-0.001080
738.000000	-0.001101
737.000000	-0.001082
736.000000	-0.001065
735.000000	-0.001060
734.000000	-0.001055
733.000000	-0.001043
732.000000	-0.001021
731.000000	-0.000986
730.000000	-0.000956
729.000000	-0.000964
728.000000	-0.001018
727.000000	-0.001088
726.000000	-0.001146
725.000000	-0.001193
724.000000	-0.001239
723.000000	-0.001277
722.000000	-0.001291
721.000000	-0.001283
720.000000	-0.001257
719.000000	-0.001209
718.000000	-0.001154
717.000000	-0.001136
716.000000	-0.001175
715.000000	-0.001221
714.000000	-0.001208
713.000000	-0.001131
712.000000	-0.001056
711.000000	-0.001047
710.000000	-0.001102
709.000000	-0.001172
708.000000	-0.001203
707.000000	-0.001175
706.000000	-0.001098
705.000000	-0.000993
704.000000	-0.000887
703.000000	-0.000818
702.000000	-0.000832
701.000000	-0.000948
700.000000	-0.001123
699.000000	-0.001274
698.000000	-0.001349
697.000000	-0.001353
696.000000	-0.001310
695.000000	-0.001237
694.000000	-0.001165
693.000000	-0.001139
692.000000	-0.001149
691.000000	-0.001136
690.000000	-0.001081
689.000000	-0.001050
688.000000	-0.001106
687.000000	-0.001208
686.000000	-0.001287
685.000000	-0.001343
684.000000	-0.001392
683.000000	-0.001400
682.000000	-0.001335
681.000000	-0.001248
680.000000	-0.001221
679.000000	-0.001273
678.000000	-0.001369
677.000000	-0.001445
676.000000	-0.001436
675.000000	-0.001304
674.000000	-0.001089
673.000000	-0.000928
672.000000	-0.000982
671.000000	-0.001345
670.000000	-0.001989
669.000000	-0.002692
668.000000	-0.002877
667.000000	-0.002298
666.000000	-0.001653
665.000000	-0.001232
664.000000	-0.000993
663.000000	-0.000956
662.000000	-0.001056
661.000000	-0.001143
660.000000	-0.001119
659.000000	-0.001040
658.000000	-0.001007
657.000000	-0.001013
656.000000	-0.001005
655.000000	-0.001013
654.000000	-0.001067
653.000000	-0.001102
652.000000	-0.001058
651.000000	-0.000987
650.000000	-0.000976
649.000000	-0.001036
648.000000	-0.001120
647.000000	-0.001201
646.000000	-0.001249
645.000000	-0.001240
644.000000	-0.001200
643.000000	-0.001187
642.000000	-0.001211
641.000000	-0.001225
640.000000	-0.001219
639.000000	-0.001249
638.000000	-0.001326
637.000000	-0.001365
636.000000	-0.001298
635.000000	-0.001171
634.000000	-0.001077
633.000000	-0.001047
632.000000	-0.001050
631.000000	-0.001047
630.000000	-0.001012
629.000000	-0.000938
628.000000	-0.000864
627.000000	-0.000857
626.000000	-0.000920
625.000000	-0.000971
624.000000	-0.000951
623.000000	-0.000891
622.000000	-0.000856
621.000000	-0.000863
620.000000	-0.000880
619.000000	-0.000888
618.000000	-0.000908
617.000000	-0.000973
616.000000	-0.001088
615.000000	-0.001199
614.000000	-0.001218
613.000000	-0.001100
612.000000	-0.000913
611.000000	-0.000795
610.000000	-0.000821
609.000000	-0.000945
608.000000	-0.001077
607.000000	-0.001162
606.000000	-0.001166
605.000000	-0.001065
604.000000	-0.000873
603.000000	-0.000649
602.000000	-0.000465
601.000000	-0.000377
600.000000	-0.000417
599.000000	-0.000569
598.000000	-0.000738
597.000000	-0.000801
596.000000	-0.000729
595.000000	-0.000631
594.000000	-0.000638
593.000000	-0.000768
592.000000	-0.000927
591.000000	-0.001009
590.000000	-0.000970
589.000000	-0.000835
588.000000	-0.000673
587.000000	-0.000575
586.000000	-0.000595
585.000000	-0.000702
584.000000	-0.000812
583.000000	-0.000865
582.000000	-0.000865
581.000000	-0.000845
580.000000	-0.000834
579.000000	-0.000849
578.000000	-0.000901
577.000000	-0.000979
576.000000	-0.001031
575.000000	-0.000981
574.000000	-0.000809
573.000000	-0.000610
572.000000	-0.000531
571.000000	-0.000644
570.000000	-0.000868
569.000000	-0.001063
568.000000	-0.001171
567.000000	-0.001204
566.000000	-0.001143
565.000000	-0.000929
564.000000	-0.000586
563.000000	-0.000271
562.000000	-0.000168
561.000000	-0.000346
560.000000	-0.000720
559.000000	-0.001097
558.000000	-0.001280
557.000000	-0.001212
556.000000	-0.001049
555.000000	-0.001039
554.000000	-0.001258
553.000000	-0.001520
552.000000	-0.001581
551.000000	-0.001373
550.000000	-0.001029
549.000000	-0.000744
548.000000	-0.000645
547.000000	-0.000750
546.000000	-0.000971
545.000000	-0.001164
544.000000	-0.001241
543.000000	-0.001222
542.000000	-0.001171
541.000000	-0.001139
540.000000	-0.001183
539.000000	-0.001369
538.000000	-0.001688
537.000000	-0.001991
536.000000	-0.002076
535.000000	-0.001855
534.000000	-0.001428
533.000000	-0.001014
532.000000	-0.000815
531.000000	-0.000902
530.000000	-0.001151
529.000000	-0.001327
528.000000	-0.001249
527.000000	-0.000917
526.000000	-0.000503
525.000000	-0.000229
524.000000	-0.000228
523.000000	-0.000499
522.000000	-0.000927
521.000000	-0.001316
520.000000	-0.001476
519.000000	-0.001333
518.000000	-0.000984
517.000000	-0.000654
516.000000	-0.000560
515.000000	-0.000753
514.000000	-0.001072
513.000000	-0.001253
512.000000	-0.001146
511.000000	-0.000851
510.000000	-0.000620
509.000000	-0.000625
508.000000	-0.000828
507.000000	-0.001032
506.000000	-0.001033
505.000000	-0.000781
504.000000	-0.000395
503.000000	-0.000068
502.000000	0.000054
501.000000	-0.000059
500.000000	-0.000356
499.000000	-0.000745
498.000000	-0.001069
497.000000	-0.001153
496.000000	-0.000965
495.000000	-0.000672
494.000000	-0.000487
493.000000	-0.000497
492.000000	-0.000665
491.000000	-0.000905
490.000000	-0.001094
489.000000	-0.001105
488.000000	-0.000914
487.000000	-0.000619
486.000000	-0.000309
485.000000	0.000014
484.000000	0.000279
483.000000	0.000248
482.000000	-0.000211
481.000000	-0.000819
480.000000	-0.001088
479.000000	-0.000834
478.000000	-0.000364
477.000000	-0.000153
476.000000	-0.000413
475.000000	-0.001016
474.000000	-0.001656
473.000000	-0.001968
472.000000	-0.001717
471.000000	-0.001087
470.000000	-0.000570
469.000000	-0.000506
468.000000	-0.000884
467.000000	-0.001442
466.000000	-0.001871
465.000000	-0.001962
464.000000	-0.001640
463.000000	-0.001031
462.000000	-0.000507
461.000000	-0.000470
460.000000	-0.001042
459.000000	-0.001913
458.000000	-0.002426
457.000000	-0.002035
456.000000	-0.000954
455.000000	-0.000003
454.000000	0.000113
453.000000	-0.000760
452.000000	-0.002160
451.000000	-0.003244
450.000000	-0.003503
