PE IR       SUBTECH     SPECTRUM    ASCII       PEDS        4.00        
   -1
P12-Noir046_1.ASC
23/06/09
15:42:10.00
23/06/09
15:45:29.00
uco
Sample 046 By uco Date Friday, June 09 2023
450.000000
#HDR
-1
-1
#GR
cm-1
A
1.0
0.0
4000.000000
-1.000000
3551
8
0.002370
-0.002676
#DATA
4000.000000	-0.001436
3999.000000	-0.001449
3998.000000	-0.001463
3997.000000	-0.001471
3996.000000	-0.001469
3995.000000	-0.001454
3994.000000	-0.001431
3993.000000	-0.001406
3992.000000	-0.001385
3991.000000	-0.001371
3990.000000	-0.001360
3989.000000	-0.001352
3988.000000	-0.001350
3987.000000	-0.001357
3986.000000	-0.001369
3985.000000	-0.001378
3984.000000	-0.001378
3983.000000	-0.001371
3982.000000	-0.001365
3981.000000	-0.001369
3980.000000	-0.001382
3979.000000	-0.001402
3978.000000	-0.001422
3977.000000	-0.001439
3976.000000	-0.001452
3975.000000	-0.001456
3974.000000	-0.001449
3973.000000	-0.001433
3972.000000	-0.001415
3971.000000	-0.001399
3970.000000	-0.001390
3969.000000	-0.001389
3968.000000	-0.001397
3967.000000	-0.001413
3966.000000	-0.001433
3965.000000	-0.001455
3964.000000	-0.001474
3963.000000	-0.001483
3962.000000	-0.001477
3961.000000	-0.001454
3960.000000	-0.001420
3959.000000	-0.001390
3958.000000	-0.001376
3957.000000	-0.001381
3956.000000	-0.001397
3955.000000	-0.001412
3954.000000	-0.001417
3953.000000	-0.001413
3952.000000	-0.001401
3951.000000	-0.001387
3950.000000	-0.001378
3949.000000	-0.001375
3948.000000	-0.001374
3947.000000	-0.001370
3946.000000	-0.001362
3945.000000	-0.001358
3944.000000	-0.001361
3943.000000	-0.001372
3942.000000	-0.001379
3941.000000	-0.001375
3940.000000	-0.001360
3939.000000	-0.001342
3938.000000	-0.001332
3937.000000	-0.001338
3936.000000	-0.001360
3935.000000	-0.001392
3934.000000	-0.001421
3933.000000	-0.001433
3932.000000	-0.001426
3931.000000	-0.001405
3930.000000	-0.001384
3929.000000	-0.001371
3928.000000	-0.001369
3927.000000	-0.001373
3926.000000	-0.001378
3925.000000	-0.001382
3924.000000	-0.001387
3923.000000	-0.001392
3922.000000	-0.001393
3921.000000	-0.001382
3920.000000	-0.001362
3919.000000	-0.001345
3918.000000	-0.001342
3917.000000	-0.001353
3916.000000	-0.001363
3915.000000	-0.001365
3914.000000	-0.001359
3913.000000	-0.001355
3912.000000	-0.001355
3911.000000	-0.001358
3910.000000	-0.001365
3909.000000	-0.001377
3908.000000	-0.001395
3907.000000	-0.001416
3906.000000	-0.001428
3905.000000	-0.001420
3904.000000	-0.001389
3903.000000	-0.001355
3902.000000	-0.001338
3901.000000	-0.001346
3900.000000	-0.001364
3899.000000	-0.001373
3898.000000	-0.001367
3897.000000	-0.001356
3896.000000	-0.001348
3895.000000	-0.001344
3894.000000	-0.001341
3893.000000	-0.001336
3892.000000	-0.001332
3891.000000	-0.001327
3890.000000	-0.001317
3889.000000	-0.001300
3888.000000	-0.001291
3887.000000	-0.001301
3886.000000	-0.001333
3885.000000	-0.001371
3884.000000	-0.001398
3883.000000	-0.001413
3882.000000	-0.001425
3881.000000	-0.001438
3880.000000	-0.001448
3879.000000	-0.001446
3878.000000	-0.001432
3877.000000	-0.001417
3876.000000	-0.001405
3875.000000	-0.001386
3874.000000	-0.001355
3873.000000	-0.001313
3872.000000	-0.001277
3871.000000	-0.001265
3870.000000	-0.001278
3869.000000	-0.001305
3868.000000	-0.001330
3867.000000	-0.001354
3866.000000	-0.001375
3865.000000	-0.001387
3864.000000	-0.001380
3863.000000	-0.001354
3862.000000	-0.001325
3861.000000	-0.001310
3860.000000	-0.001306
3859.000000	-0.001300
3858.000000	-0.001281
3857.000000	-0.001255
3856.000000	-0.001238
3855.000000	-0.001241
3854.000000	-0.001255
3853.000000	-0.001264
3852.000000	-0.001268
3851.000000	-0.001275
3850.000000	-0.001290
3849.000000	-0.001309
3848.000000	-0.001324
3847.000000	-0.001327
3846.000000	-0.001317
3845.000000	-0.001296
3844.000000	-0.001271
3843.000000	-0.001244
3842.000000	-0.001211
3841.000000	-0.001178
3840.000000	-0.001159
3839.000000	-0.001177
3838.000000	-0.001235
3837.000000	-0.001312
3836.000000	-0.001374
3835.000000	-0.001406
3834.000000	-0.001414
3833.000000	-0.001406
3832.000000	-0.001389
3831.000000	-0.001370
3830.000000	-0.001354
3829.000000	-0.001347
3828.000000	-0.001350
3827.000000	-0.001359
3826.000000	-0.001365
3825.000000	-0.001367
3824.000000	-0.001367
3823.000000	-0.001366
3822.000000	-0.001358
3821.000000	-0.001344
3820.000000	-0.001333
3819.000000	-0.001333
3818.000000	-0.001345
3817.000000	-0.001358
3816.000000	-0.001363
3815.000000	-0.001359
3814.000000	-0.001355
3813.000000	-0.001353
3812.000000	-0.001352
3811.000000	-0.001347
3810.000000	-0.001338
3809.000000	-0.001330
3808.000000	-0.001323
3807.000000	-0.001313
3806.000000	-0.001300
3805.000000	-0.001289
3804.000000	-0.001289
3803.000000	-0.001307
3802.000000	-0.001338
3801.000000	-0.001362
3800.000000	-0.001365
3799.000000	-0.001349
3798.000000	-0.001322
3797.000000	-0.001290
3796.000000	-0.001258
3795.000000	-0.001234
3794.000000	-0.001229
3793.000000	-0.001249
3792.000000	-0.001289
3791.000000	-0.001336
3790.000000	-0.001373
3789.000000	-0.001393
3788.000000	-0.001401
3787.000000	-0.001406
3786.000000	-0.001411
3785.000000	-0.001415
3784.000000	-0.001413
3783.000000	-0.001403
3782.000000	-0.001386
3781.000000	-0.001368
3780.000000	-0.001357
3779.000000	-0.001359
3778.000000	-0.001372
3777.000000	-0.001383
3776.000000	-0.001388
3775.000000	-0.001385
3774.000000	-0.001380
3773.000000	-0.001378
3772.000000	-0.001380
3771.000000	-0.001385
3770.000000	-0.001389
3769.000000	-0.001390
3768.000000	-0.001388
3767.000000	-0.001381
3766.000000	-0.001368
3765.000000	-0.001354
3764.000000	-0.001343
3763.000000	-0.001341
3762.000000	-0.001345
3761.000000	-0.001351
3760.000000	-0.001359
3759.000000	-0.001370
3758.000000	-0.001383
3757.000000	-0.001392
3756.000000	-0.001395
3755.000000	-0.001399
3754.000000	-0.001405
3753.000000	-0.001408
3752.000000	-0.001396
3751.000000	-0.001371
3750.000000	-0.001350
3749.000000	-0.001346
3748.000000	-0.001357
3747.000000	-0.001373
3746.000000	-0.001379
3745.000000	-0.001363
3744.000000	-0.001341
3743.000000	-0.001337
3742.000000	-0.001356
3741.000000	-0.001387
3740.000000	-0.001417
3739.000000	-0.001438
3738.000000	-0.001444
3737.000000	-0.001425
3736.000000	-0.001390
3735.000000	-0.001365
3734.000000	-0.001366
3733.000000	-0.001383
3732.000000	-0.001391
3731.000000	-0.001382
3730.000000	-0.001355
3729.000000	-0.001320
3728.000000	-0.001282
3727.000000	-0.001250
3726.000000	-0.001225
3725.000000	-0.001205
3724.000000	-0.001193
3723.000000	-0.001200
3722.000000	-0.001236
3721.000000	-0.001296
3720.000000	-0.001357
3719.000000	-0.001392
3718.000000	-0.001387
3717.000000	-0.001353
3716.000000	-0.001311
3715.000000	-0.001283
3714.000000	-0.001271
3713.000000	-0.001265
3712.000000	-0.001261
3711.000000	-0.001268
3710.000000	-0.001295
3709.000000	-0.001335
3708.000000	-0.001375
3707.000000	-0.001406
3706.000000	-0.001430
3705.000000	-0.001451
3704.000000	-0.001474
3703.000000	-0.001492
3702.000000	-0.001495
3701.000000	-0.001471
3700.000000	-0.001426
3699.000000	-0.001377
3698.000000	-0.001344
3697.000000	-0.001332
3696.000000	-0.001336
3695.000000	-0.001347
3694.000000	-0.001355
3693.000000	-0.001363
3692.000000	-0.001374
3691.000000	-0.001392
3690.000000	-0.001416
3689.000000	-0.001440
3688.000000	-0.001454
3687.000000	-0.001456
3686.000000	-0.001449
3685.000000	-0.001438
3684.000000	-0.001427
3683.000000	-0.001422
3682.000000	-0.001424
3681.000000	-0.001426
3680.000000	-0.001415
3679.000000	-0.001380
3678.000000	-0.001328
3677.000000	-0.001287
3676.000000	-0.001286
3675.000000	-0.001324
3674.000000	-0.001361
3673.000000	-0.001370
3672.000000	-0.001361
3671.000000	-0.001353
3670.000000	-0.001359
3669.000000	-0.001372
3668.000000	-0.001376
3667.000000	-0.001364
3666.000000	-0.001344
3665.000000	-0.001328
3664.000000	-0.001322
3663.000000	-0.001327
3662.000000	-0.001333
3661.000000	-0.001329
3660.000000	-0.001315
3659.000000	-0.001300
3658.000000	-0.001295
3657.000000	-0.001300
3656.000000	-0.001307
3655.000000	-0.001310
3654.000000	-0.001309
3653.000000	-0.001313
3652.000000	-0.001324
3651.000000	-0.001341
3650.000000	-0.001359
3649.000000	-0.001371
3648.000000	-0.001377
3647.000000	-0.001381
3646.000000	-0.001385
3645.000000	-0.001388
3644.000000	-0.001387
3643.000000	-0.001384
3642.000000	-0.001380
3641.000000	-0.001374
3640.000000	-0.001365
3639.000000	-0.001353
3638.000000	-0.001342
3637.000000	-0.001335
3636.000000	-0.001333
3635.000000	-0.001330
3634.000000	-0.001325
3633.000000	-0.001323
3632.000000	-0.001329
3631.000000	-0.001341
3630.000000	-0.001351
3629.000000	-0.001347
3628.000000	-0.001324
3627.000000	-0.001289
3626.000000	-0.001254
3625.000000	-0.001230
3624.000000	-0.001221
3623.000000	-0.001225
3622.000000	-0.001241
3621.000000	-0.001265
3620.000000	-0.001286
3619.000000	-0.001284
3618.000000	-0.001252
3617.000000	-0.001203
3616.000000	-0.001165
3615.000000	-0.001152
3614.000000	-0.001158
3613.000000	-0.001164
3612.000000	-0.001159
3611.000000	-0.001144
3610.000000	-0.001131
3609.000000	-0.001127
3608.000000	-0.001135
3607.000000	-0.001149
3606.000000	-0.001162
3605.000000	-0.001170
3604.000000	-0.001168
3603.000000	-0.001157
3602.000000	-0.001139
3601.000000	-0.001119
3600.000000	-0.001102
3599.000000	-0.001091
3598.000000	-0.001086
3597.000000	-0.001089
3596.000000	-0.001100
3595.000000	-0.001109
3594.000000	-0.001110
3593.000000	-0.001104
3592.000000	-0.001098
3591.000000	-0.001095
3590.000000	-0.001094
3589.000000	-0.001095
3588.000000	-0.001097
3587.000000	-0.001100
3586.000000	-0.001094
3585.000000	-0.001068
3584.000000	-0.001029
3583.000000	-0.000985
3582.000000	-0.000947
3581.000000	-0.000922
3580.000000	-0.000913
3579.000000	-0.000923
3578.000000	-0.000950
3577.000000	-0.000987
3576.000000	-0.001021
3575.000000	-0.001041
3574.000000	-0.001047
3573.000000	-0.001045
3572.000000	-0.001043
3571.000000	-0.001040
3570.000000	-0.001029
3569.000000	-0.001007
3568.000000	-0.000984
3567.000000	-0.000970
3566.000000	-0.000966
3565.000000	-0.000961
3564.000000	-0.000955
3563.000000	-0.000951
3562.000000	-0.000949
3561.000000	-0.000941
3560.000000	-0.000923
3559.000000	-0.000898
3558.000000	-0.000875
3557.000000	-0.000860
3556.000000	-0.000855
3555.000000	-0.000860
3554.000000	-0.000872
3553.000000	-0.000883
3552.000000	-0.000883
3551.000000	-0.000863
3550.000000	-0.000825
3549.000000	-0.000777
3548.000000	-0.000735
3547.000000	-0.000712
3546.000000	-0.000713
3545.000000	-0.000733
3544.000000	-0.000761
3543.000000	-0.000787
3542.000000	-0.000805
3541.000000	-0.000815
3540.000000	-0.000822
3539.000000	-0.000826
3538.000000	-0.000825
3537.000000	-0.000814
3536.000000	-0.000792
3535.000000	-0.000763
3534.000000	-0.000732
3533.000000	-0.000702
3532.000000	-0.000680
3531.000000	-0.000669
3530.000000	-0.000671
3529.000000	-0.000681
3528.000000	-0.000687
3527.000000	-0.000686
3526.000000	-0.000683
3525.000000	-0.000688
3524.000000	-0.000700
3523.000000	-0.000713
3522.000000	-0.000721
3521.000000	-0.000722
3520.000000	-0.000722
3519.000000	-0.000722
3518.000000	-0.000720
3517.000000	-0.000713
3516.000000	-0.000704
3515.000000	-0.000692
3514.000000	-0.000678
3513.000000	-0.000659
3512.000000	-0.000636
3511.000000	-0.000616
3510.000000	-0.000603
3509.000000	-0.000602
3508.000000	-0.000610
3507.000000	-0.000627
3506.000000	-0.000651
3505.000000	-0.000674
3504.000000	-0.000683
3503.000000	-0.000673
3502.000000	-0.000651
3501.000000	-0.000629
3500.000000	-0.000615
3499.000000	-0.000609
3498.000000	-0.000605
3497.000000	-0.000602
3496.000000	-0.000597
3495.000000	-0.000591
3494.000000	-0.000588
3493.000000	-0.000594
3492.000000	-0.000607
3491.000000	-0.000616
3490.000000	-0.000611
3489.000000	-0.000594
3488.000000	-0.000574
3487.000000	-0.000562
3486.000000	-0.000554
3485.000000	-0.000543
3484.000000	-0.000527
3483.000000	-0.000510
3482.000000	-0.000500
3481.000000	-0.000500
3480.000000	-0.000512
3479.000000	-0.000533
3478.000000	-0.000560
3477.000000	-0.000585
3476.000000	-0.000601
3475.000000	-0.000602
3474.000000	-0.000587
3473.000000	-0.000567
3472.000000	-0.000553
3471.000000	-0.000549
3470.000000	-0.000549
3469.000000	-0.000549
3468.000000	-0.000547
3467.000000	-0.000547
3466.000000	-0.000548
3465.000000	-0.000547
3464.000000	-0.000546
3463.000000	-0.000546
3462.000000	-0.000547
3461.000000	-0.000547
3460.000000	-0.000547
3459.000000	-0.000553
3458.000000	-0.000570
3457.000000	-0.000596
3456.000000	-0.000625
3455.000000	-0.000646
3454.000000	-0.000655
3453.000000	-0.000650
3452.000000	-0.000627
3451.000000	-0.000589
3450.000000	-0.000548
3449.000000	-0.000518
3448.000000	-0.000510
3447.000000	-0.000519
3446.000000	-0.000529
3445.000000	-0.000530
3444.000000	-0.000520
3443.000000	-0.000506
3442.000000	-0.000494
3441.000000	-0.000483
3440.000000	-0.000470
3439.000000	-0.000452
3438.000000	-0.000436
3437.000000	-0.000435
3436.000000	-0.000453
3435.000000	-0.000482
3434.000000	-0.000502
3433.000000	-0.000506
3432.000000	-0.000496
3431.000000	-0.000480
3430.000000	-0.000464
3429.000000	-0.000451
3428.000000	-0.000445
3427.000000	-0.000449
3426.000000	-0.000458
3425.000000	-0.000464
3424.000000	-0.000460
3423.000000	-0.000444
3422.000000	-0.000418
3421.000000	-0.000388
3420.000000	-0.000364
3419.000000	-0.000351
3418.000000	-0.000352
3417.000000	-0.000362
3416.000000	-0.000374
3415.000000	-0.000381
3414.000000	-0.000378
3413.000000	-0.000365
3412.000000	-0.000347
3411.000000	-0.000329
3410.000000	-0.000315
3409.000000	-0.000306
3408.000000	-0.000303
3407.000000	-0.000308
3406.000000	-0.000312
3405.000000	-0.000308
3404.000000	-0.000294
3403.000000	-0.000278
3402.000000	-0.000266
3401.000000	-0.000260
3400.000000	-0.000257
3399.000000	-0.000257
3398.000000	-0.000257
3397.000000	-0.000251
3396.000000	-0.000238
3395.000000	-0.000223
3394.000000	-0.000214
3393.000000	-0.000213
3392.000000	-0.000216
3391.000000	-0.000222
3390.000000	-0.000235
3389.000000	-0.000253
3388.000000	-0.000266
3387.000000	-0.000272
3386.000000	-0.000278
3385.000000	-0.000295
3384.000000	-0.000323
3383.000000	-0.000346
3382.000000	-0.000348
3381.000000	-0.000329
3380.000000	-0.000304
3379.000000	-0.000290
3378.000000	-0.000288
3377.000000	-0.000293
3376.000000	-0.000299
3375.000000	-0.000301
3374.000000	-0.000299
3373.000000	-0.000294
3372.000000	-0.000293
3371.000000	-0.000300
3370.000000	-0.000309
3369.000000	-0.000307
3368.000000	-0.000293
3367.000000	-0.000276
3366.000000	-0.000267
3365.000000	-0.000267
3364.000000	-0.000273
3363.000000	-0.000277
3362.000000	-0.000277
3361.000000	-0.000274
3360.000000	-0.000266
3359.000000	-0.000254
3358.000000	-0.000237
3357.000000	-0.000214
3356.000000	-0.000188
3355.000000	-0.000165
3354.000000	-0.000158
3353.000000	-0.000169
3352.000000	-0.000189
3351.000000	-0.000206
3350.000000	-0.000215
3349.000000	-0.000222
3348.000000	-0.000228
3347.000000	-0.000229
3346.000000	-0.000216
3345.000000	-0.000191
3344.000000	-0.000164
3343.000000	-0.000150
3342.000000	-0.000154
3341.000000	-0.000171
3340.000000	-0.000188
3339.000000	-0.000196
3338.000000	-0.000193
3337.000000	-0.000188
3336.000000	-0.000190
3335.000000	-0.000198
3334.000000	-0.000205
3333.000000	-0.000205
3332.000000	-0.000201
3331.000000	-0.000200
3330.000000	-0.000205
3329.000000	-0.000213
3328.000000	-0.000219
3327.000000	-0.000216
3326.000000	-0.000204
3325.000000	-0.000193
3324.000000	-0.000190
3323.000000	-0.000194
3322.000000	-0.000198
3321.000000	-0.000198
3320.000000	-0.000197
3319.000000	-0.000202
3318.000000	-0.000210
3317.000000	-0.000210
3316.000000	-0.000198
3315.000000	-0.000181
3314.000000	-0.000164
3313.000000	-0.000148
3312.000000	-0.000132
3311.000000	-0.000122
3310.000000	-0.000127
3309.000000	-0.000147
3308.000000	-0.000171
3307.000000	-0.000187
3306.000000	-0.000184
3305.000000	-0.000166
3304.000000	-0.000143
3303.000000	-0.000129
3302.000000	-0.000130
3301.000000	-0.000143
3300.000000	-0.000159
3299.000000	-0.000173
3298.000000	-0.000181
3297.000000	-0.000180
3296.000000	-0.000169
3295.000000	-0.000155
3294.000000	-0.000147
3293.000000	-0.000148
3292.000000	-0.000149
3291.000000	-0.000137
3290.000000	-0.000106
3289.000000	-0.000072
3288.000000	-0.000054
3287.000000	-0.000059
3286.000000	-0.000075
3285.000000	-0.000087
3284.000000	-0.000094
3283.000000	-0.000105
3282.000000	-0.000124
3281.000000	-0.000143
3280.000000	-0.000151
3279.000000	-0.000150
3278.000000	-0.000145
3277.000000	-0.000142
3276.000000	-0.000140
3275.000000	-0.000140
3274.000000	-0.000145
3273.000000	-0.000154
3272.000000	-0.000162
3271.000000	-0.000163
3270.000000	-0.000160
3269.000000	-0.000150
3268.000000	-0.000130
3267.000000	-0.000101
3266.000000	-0.000069
3265.000000	-0.000048
3264.000000	-0.000044
3263.000000	-0.000054
3262.000000	-0.000071
3261.000000	-0.000088
3260.000000	-0.000102
3259.000000	-0.000111
3258.000000	-0.000116
3257.000000	-0.000114
3256.000000	-0.000106
3255.000000	-0.000091
3254.000000	-0.000073
3253.000000	-0.000059
3252.000000	-0.000057
3251.000000	-0.000070
3250.000000	-0.000095
3249.000000	-0.000121
3248.000000	-0.000131
3247.000000	-0.000119
3246.000000	-0.000090
3245.000000	-0.000062
3244.000000	-0.000047
3243.000000	-0.000047
3242.000000	-0.000056
3241.000000	-0.000070
3240.000000	-0.000085
3239.000000	-0.000095
3238.000000	-0.000096
3237.000000	-0.000091
3236.000000	-0.000088
3235.000000	-0.000098
3234.000000	-0.000119
3233.000000	-0.000143
3232.000000	-0.000155
3231.000000	-0.000151
3230.000000	-0.000137
3229.000000	-0.000126
3228.000000	-0.000125
3227.000000	-0.000132
3226.000000	-0.000140
3225.000000	-0.000147
3224.000000	-0.000156
3223.000000	-0.000167
3222.000000	-0.000175
3221.000000	-0.000175
3220.000000	-0.000168
3219.000000	-0.000158
3218.000000	-0.000152
3217.000000	-0.000153
3216.000000	-0.000160
3215.000000	-0.000169
3214.000000	-0.000175
3213.000000	-0.000178
3212.000000	-0.000179
3211.000000	-0.000180
3210.000000	-0.000182
3209.000000	-0.000181
3208.000000	-0.000178
3207.000000	-0.000172
3206.000000	-0.000162
3205.000000	-0.000152
3204.000000	-0.000156
3203.000000	-0.000178
3202.000000	-0.000207
3201.000000	-0.000221
3200.000000	-0.000216
3199.000000	-0.000206
3198.000000	-0.000208
3197.000000	-0.000220
3196.000000	-0.000228
3195.000000	-0.000221
3194.000000	-0.000205
3193.000000	-0.000187
3192.000000	-0.000176
3191.000000	-0.000175
3190.000000	-0.000184
3189.000000	-0.000200
3188.000000	-0.000218
3187.000000	-0.000240
3186.000000	-0.000270
3185.000000	-0.000298
3184.000000	-0.000309
3183.000000	-0.000290
3182.000000	-0.000247
3181.000000	-0.000197
3180.000000	-0.000153
3179.000000	-0.000120
3178.000000	-0.000103
3177.000000	-0.000108
3176.000000	-0.000137
3175.000000	-0.000177
3174.000000	-0.000211
3173.000000	-0.000229
3172.000000	-0.000232
3171.000000	-0.000228
3170.000000	-0.000227
3169.000000	-0.000231
3168.000000	-0.000242
3167.000000	-0.000257
3166.000000	-0.000271
3165.000000	-0.000280
3164.000000	-0.000284
3163.000000	-0.000287
3162.000000	-0.000289
3161.000000	-0.000285
3160.000000	-0.000278
3159.000000	-0.000275
3158.000000	-0.000274
3157.000000	-0.000267
3156.000000	-0.000254
3155.000000	-0.000240
3154.000000	-0.000236
3153.000000	-0.000240
3152.000000	-0.000247
3151.000000	-0.000256
3150.000000	-0.000272
3149.000000	-0.000294
3148.000000	-0.000313
3147.000000	-0.000316
3146.000000	-0.000303
3145.000000	-0.000282
3144.000000	-0.000265
3143.000000	-0.000259
3142.000000	-0.000265
3141.000000	-0.000280
3140.000000	-0.000300
3139.000000	-0.000322
3138.000000	-0.000345
3137.000000	-0.000364
3136.000000	-0.000378
3135.000000	-0.000386
3134.000000	-0.000392
3133.000000	-0.000393
3132.000000	-0.000388
3131.000000	-0.000378
3130.000000	-0.000366
3129.000000	-0.000356
3128.000000	-0.000352
3127.000000	-0.000352
3126.000000	-0.000351
3125.000000	-0.000343
3124.000000	-0.000329
3123.000000	-0.000317
3122.000000	-0.000314
3121.000000	-0.000325
3120.000000	-0.000344
3119.000000	-0.000366
3118.000000	-0.000388
3117.000000	-0.000406
3116.000000	-0.000412
3115.000000	-0.000402
3114.000000	-0.000378
3113.000000	-0.000355
3112.000000	-0.000344
3111.000000	-0.000346
3110.000000	-0.000352
3109.000000	-0.000357
3108.000000	-0.000362
3107.000000	-0.000371
3106.000000	-0.000380
3105.000000	-0.000384
3104.000000	-0.000379
3103.000000	-0.000368
3102.000000	-0.000363
3101.000000	-0.000369
3100.000000	-0.000384
3099.000000	-0.000401
3098.000000	-0.000416
3097.000000	-0.000427
3096.000000	-0.000432
3095.000000	-0.000431
3094.000000	-0.000422
3093.000000	-0.000405
3092.000000	-0.000389
3091.000000	-0.000380
3090.000000	-0.000383
3089.000000	-0.000391
3088.000000	-0.000400
3087.000000	-0.000409
3086.000000	-0.000419
3085.000000	-0.000427
3084.000000	-0.000427
3083.000000	-0.000418
3082.000000	-0.000404
3081.000000	-0.000396
3080.000000	-0.000398
3079.000000	-0.000409
3078.000000	-0.000422
3077.000000	-0.000429
3076.000000	-0.000427
3075.000000	-0.000421
3074.000000	-0.000418
3073.000000	-0.000418
3072.000000	-0.000413
3071.000000	-0.000394
3070.000000	-0.000362
3069.000000	-0.000332
3068.000000	-0.000317
3067.000000	-0.000321
3066.000000	-0.000338
3065.000000	-0.000357
3064.000000	-0.000377
3063.000000	-0.000400
3062.000000	-0.000427
3061.000000	-0.000453
3060.000000	-0.000470
3059.000000	-0.000474
3058.000000	-0.000463
3057.000000	-0.000446
3056.000000	-0.000431
3055.000000	-0.000425
3054.000000	-0.000430
3053.000000	-0.000440
3052.000000	-0.000447
3051.000000	-0.000449
3050.000000	-0.000447
3049.000000	-0.000439
3048.000000	-0.000427
3047.000000	-0.000414
3046.000000	-0.000401
3045.000000	-0.000392
3044.000000	-0.000386
3043.000000	-0.000383
3042.000000	-0.000384
3041.000000	-0.000388
3040.000000	-0.000397
3039.000000	-0.000412
3038.000000	-0.000426
3037.000000	-0.000432
3036.000000	-0.000429
3035.000000	-0.000427
3034.000000	-0.000439
3033.000000	-0.000464
3032.000000	-0.000492
3031.000000	-0.000511
3030.000000	-0.000518
3029.000000	-0.000519
3028.000000	-0.000519
3027.000000	-0.000516
3026.000000	-0.000510
3025.000000	-0.000500
3024.000000	-0.000487
3023.000000	-0.000469
3022.000000	-0.000450
3021.000000	-0.000436
3020.000000	-0.000436
3019.000000	-0.000448
3018.000000	-0.000467
3017.000000	-0.000481
3016.000000	-0.000485
3015.000000	-0.000483
3014.000000	-0.000480
3013.000000	-0.000479
3012.000000	-0.000479
3011.000000	-0.000478
3010.000000	-0.000477
3009.000000	-0.000475
3008.000000	-0.000473
3007.000000	-0.000472
3006.000000	-0.000474
3005.000000	-0.000479
3004.000000	-0.000484
3003.000000	-0.000487
3002.000000	-0.000487
3001.000000	-0.000482
3000.000000	-0.000477
2999.000000	-0.000474
2998.000000	-0.000471
2997.000000	-0.000464
2996.000000	-0.000454
2995.000000	-0.000444
2994.000000	-0.000441
2993.000000	-0.000446
2992.000000	-0.000450
2991.000000	-0.000449
2990.000000	-0.000448
2989.000000	-0.000454
2988.000000	-0.000470
2987.000000	-0.000486
2986.000000	-0.000491
2985.000000	-0.000477
2984.000000	-0.000442
2983.000000	-0.000399
2982.000000	-0.000367
2981.000000	-0.000359
2980.000000	-0.000371
2979.000000	-0.000387
2978.000000	-0.000399
2977.000000	-0.000413
2976.000000	-0.000429
2975.000000	-0.000440
2974.000000	-0.000436
2973.000000	-0.000420
2972.000000	-0.000404
2971.000000	-0.000392
2970.000000	-0.000379
2969.000000	-0.000359
2968.000000	-0.000333
2967.000000	-0.000310
2966.000000	-0.000297
2965.000000	-0.000289
2964.000000	-0.000278
2963.000000	-0.000261
2962.000000	-0.000241
2961.000000	-0.000226
2960.000000	-0.000222
2959.000000	-0.000224
2958.000000	-0.000225
2957.000000	-0.000220
2956.000000	-0.000215
2955.000000	-0.000210
2954.000000	-0.000206
2953.000000	-0.000206
2952.000000	-0.000215
2951.000000	-0.000237
2950.000000	-0.000264
2949.000000	-0.000279
2948.000000	-0.000271
2947.000000	-0.000246
2946.000000	-0.000226
2945.000000	-0.000229
2944.000000	-0.000250
2943.000000	-0.000271
2942.000000	-0.000272
2941.000000	-0.000251
2940.000000	-0.000223
2939.000000	-0.000199
2938.000000	-0.000182
2937.000000	-0.000167
2936.000000	-0.000153
2935.000000	-0.000144
2934.000000	-0.000142
2933.000000	-0.000145
2932.000000	-0.000152
2931.000000	-0.000161
2930.000000	-0.000175
2929.000000	-0.000192
2928.000000	-0.000204
2927.000000	-0.000209
2926.000000	-0.000210
2925.000000	-0.000217
2924.000000	-0.000233
2923.000000	-0.000259
2922.000000	-0.000289
2921.000000	-0.000322
2920.000000	-0.000353
2919.000000	-0.000375
2918.000000	-0.000385
2917.000000	-0.000385
2916.000000	-0.000384
2915.000000	-0.000385
2914.000000	-0.000389
2913.000000	-0.000387
2912.000000	-0.000380
2911.000000	-0.000376
2910.000000	-0.000385
2909.000000	-0.000410
2908.000000	-0.000440
2907.000000	-0.000456
2906.000000	-0.000449
2905.000000	-0.000430
2904.000000	-0.000414
2903.000000	-0.000406
2902.000000	-0.000400
2901.000000	-0.000387
2900.000000	-0.000369
2899.000000	-0.000355
2898.000000	-0.000350
2897.000000	-0.000347
2896.000000	-0.000342
2895.000000	-0.000334
2894.000000	-0.000334
2893.000000	-0.000347
2892.000000	-0.000370
2891.000000	-0.000389
2890.000000	-0.000398
2889.000000	-0.000397
2888.000000	-0.000394
2887.000000	-0.000394
2886.000000	-0.000393
2885.000000	-0.000389
2884.000000	-0.000382
2883.000000	-0.000378
2882.000000	-0.000383
2881.000000	-0.000392
2880.000000	-0.000396
2879.000000	-0.000393
2878.000000	-0.000388
2877.000000	-0.000387
2876.000000	-0.000387
2875.000000	-0.000385
2874.000000	-0.000382
2873.000000	-0.000386
2872.000000	-0.000401
2871.000000	-0.000422
2870.000000	-0.000435
2869.000000	-0.000434
2868.000000	-0.000416
2867.000000	-0.000387
2866.000000	-0.000359
2865.000000	-0.000347
2864.000000	-0.000355
2863.000000	-0.000375
2862.000000	-0.000390
2861.000000	-0.000389
2860.000000	-0.000377
2859.000000	-0.000369
2858.000000	-0.000378
2857.000000	-0.000403
2856.000000	-0.000435
2855.000000	-0.000457
2854.000000	-0.000463
2853.000000	-0.000455
2852.000000	-0.000449
2851.000000	-0.000456
2850.000000	-0.000475
2849.000000	-0.000498
2848.000000	-0.000515
2847.000000	-0.000517
2846.000000	-0.000507
2845.000000	-0.000495
2844.000000	-0.000492
2843.000000	-0.000505
2842.000000	-0.000524
2841.000000	-0.000532
2840.000000	-0.000522
2839.000000	-0.000501
2838.000000	-0.000486
2837.000000	-0.000486
2836.000000	-0.000498
2835.000000	-0.000510
2834.000000	-0.000517
2833.000000	-0.000516
2832.000000	-0.000515
2831.000000	-0.000520
2830.000000	-0.000531
2829.000000	-0.000545
2828.000000	-0.000558
2827.000000	-0.000568
2826.000000	-0.000573
2825.000000	-0.000568
2824.000000	-0.000553
2823.000000	-0.000533
2822.000000	-0.000518
2821.000000	-0.000519
2820.000000	-0.000538
2819.000000	-0.000565
2818.000000	-0.000584
2817.000000	-0.000585
2816.000000	-0.000570
2815.000000	-0.000549
2814.000000	-0.000532
2813.000000	-0.000523
2812.000000	-0.000523
2811.000000	-0.000535
2810.000000	-0.000556
2809.000000	-0.000579
2808.000000	-0.000593
2807.000000	-0.000593
2806.000000	-0.000581
2805.000000	-0.000566
2804.000000	-0.000558
2803.000000	-0.000557
2802.000000	-0.000551
2801.000000	-0.000530
2800.000000	-0.000502
2799.000000	-0.000483
2798.000000	-0.000482
2797.000000	-0.000494
2796.000000	-0.000508
2795.000000	-0.000520
2794.000000	-0.000533
2793.000000	-0.000545
2792.000000	-0.000550
2791.000000	-0.000543
2790.000000	-0.000525
2789.000000	-0.000503
2788.000000	-0.000488
2787.000000	-0.000481
2786.000000	-0.000478
2785.000000	-0.000476
2784.000000	-0.000477
2783.000000	-0.000484
2782.000000	-0.000497
2781.000000	-0.000512
2780.000000	-0.000522
2779.000000	-0.000525
2778.000000	-0.000523
2777.000000	-0.000519
2776.000000	-0.000514
2775.000000	-0.000511
2774.000000	-0.000508
2773.000000	-0.000504
2772.000000	-0.000494
2771.000000	-0.000483
2770.000000	-0.000477
2769.000000	-0.000478
2768.000000	-0.000485
2767.000000	-0.000492
2766.000000	-0.000495
2765.000000	-0.000491
2764.000000	-0.000480
2763.000000	-0.000466
2762.000000	-0.000455
2761.000000	-0.000453
2760.000000	-0.000454
2759.000000	-0.000456
2758.000000	-0.000457
2757.000000	-0.000461
2756.000000	-0.000469
2755.000000	-0.000477
2754.000000	-0.000483
2753.000000	-0.000488
2752.000000	-0.000493
2751.000000	-0.000496
2750.000000	-0.000495
2749.000000	-0.000493
2748.000000	-0.000502
2747.000000	-0.000522
2746.000000	-0.000544
2745.000000	-0.000555
2744.000000	-0.000553
2743.000000	-0.000545
2742.000000	-0.000539
2741.000000	-0.000538
2740.000000	-0.000538
2739.000000	-0.000533
2738.000000	-0.000517
2737.000000	-0.000490
2736.000000	-0.000462
2735.000000	-0.000446
2734.000000	-0.000447
2733.000000	-0.000462
2732.000000	-0.000480
2731.000000	-0.000496
2730.000000	-0.000509
2729.000000	-0.000520
2728.000000	-0.000528
2727.000000	-0.000534
2726.000000	-0.000541
2725.000000	-0.000550
2724.000000	-0.000561
2723.000000	-0.000569
2722.000000	-0.000571
2721.000000	-0.000564
2720.000000	-0.000550
2719.000000	-0.000537
2718.000000	-0.000529
2717.000000	-0.000527
2716.000000	-0.000528
2715.000000	-0.000530
2714.000000	-0.000534
2713.000000	-0.000540
2712.000000	-0.000542
2711.000000	-0.000540
2710.000000	-0.000531
2709.000000	-0.000522
2708.000000	-0.000516
2707.000000	-0.000519
2706.000000	-0.000528
2705.000000	-0.000539
2704.000000	-0.000546
2703.000000	-0.000548
2702.000000	-0.000546
2701.000000	-0.000545
2700.000000	-0.000542
2699.000000	-0.000540
2698.000000	-0.000542
2697.000000	-0.000554
2696.000000	-0.000573
2695.000000	-0.000589
2694.000000	-0.000595
2693.000000	-0.000593
2692.000000	-0.000586
2691.000000	-0.000575
2690.000000	-0.000559
2689.000000	-0.000536
2688.000000	-0.000515
2687.000000	-0.000504
2686.000000	-0.000506
2685.000000	-0.000512
2684.000000	-0.000516
2683.000000	-0.000517
2682.000000	-0.000519
2681.000000	-0.000524
2680.000000	-0.000526
2679.000000	-0.000521
2678.000000	-0.000514
2677.000000	-0.000512
2676.000000	-0.000519
2675.000000	-0.000529
2674.000000	-0.000534
2673.000000	-0.000533
2672.000000	-0.000530
2671.000000	-0.000530
2670.000000	-0.000534
2669.000000	-0.000540
2668.000000	-0.000543
2667.000000	-0.000539
2666.000000	-0.000530
2665.000000	-0.000516
2664.000000	-0.000498
2663.000000	-0.000481
2662.000000	-0.000467
2661.000000	-0.000462
2660.000000	-0.000463
2659.000000	-0.000460
2658.000000	-0.000444
2657.000000	-0.000414
2656.000000	-0.000382
2655.000000	-0.000363
2654.000000	-0.000366
2653.000000	-0.000384
2652.000000	-0.000405
2651.000000	-0.000418
2650.000000	-0.000422
2649.000000	-0.000422
2648.000000	-0.000421
2647.000000	-0.000419
2646.000000	-0.000412
2645.000000	-0.000404
2644.000000	-0.000401
2643.000000	-0.000406
2642.000000	-0.000419
2641.000000	-0.000442
2640.000000	-0.000475
2639.000000	-0.000506
2638.000000	-0.000519
2637.000000	-0.000506
2636.000000	-0.000484
2635.000000	-0.000477
2634.000000	-0.000494
2633.000000	-0.000521
2632.000000	-0.000547
2631.000000	-0.000569
2630.000000	-0.000585
2629.000000	-0.000585
2628.000000	-0.000562
2627.000000	-0.000530
2626.000000	-0.000512
2625.000000	-0.000522
2624.000000	-0.000546
2623.000000	-0.000562
2622.000000	-0.000556
2621.000000	-0.000532
2620.000000	-0.000503
2619.000000	-0.000484
2618.000000	-0.000479
2617.000000	-0.000482
2616.000000	-0.000484
2615.000000	-0.000479
2614.000000	-0.000474
2613.000000	-0.000480
2612.000000	-0.000500
2611.000000	-0.000533
2610.000000	-0.000575
2609.000000	-0.000621
2608.000000	-0.000663
2607.000000	-0.000689
2606.000000	-0.000696
2605.000000	-0.000685
2604.000000	-0.000660
2603.000000	-0.000631
2602.000000	-0.000609
2601.000000	-0.000608
2600.000000	-0.000630
2599.000000	-0.000663
2598.000000	-0.000694
2597.000000	-0.000711
2596.000000	-0.000708
2595.000000	-0.000684
2594.000000	-0.000645
2593.000000	-0.000611
2592.000000	-0.000598
2591.000000	-0.000612
2590.000000	-0.000636
2589.000000	-0.000652
2588.000000	-0.000653
2587.000000	-0.000652
2586.000000	-0.000663
2585.000000	-0.000688
2584.000000	-0.000713
2583.000000	-0.000723
2582.000000	-0.000714
2581.000000	-0.000691
2580.000000	-0.000664
2579.000000	-0.000642
2578.000000	-0.000635
2577.000000	-0.000649
2576.000000	-0.000678
2575.000000	-0.000716
2574.000000	-0.000756
2573.000000	-0.000795
2572.000000	-0.000822
2571.000000	-0.000823
2570.000000	-0.000796
2569.000000	-0.000761
2568.000000	-0.000742
2567.000000	-0.000744
2566.000000	-0.000759
2565.000000	-0.000776
2564.000000	-0.000789
2563.000000	-0.000790
2562.000000	-0.000778
2561.000000	-0.000759
2560.000000	-0.000748
2559.000000	-0.000751
2558.000000	-0.000756
2557.000000	-0.000751
2556.000000	-0.000732
2555.000000	-0.000711
2554.000000	-0.000706
2553.000000	-0.000724
2552.000000	-0.000760
2551.000000	-0.000793
2550.000000	-0.000812
2549.000000	-0.000824
2548.000000	-0.000847
2547.000000	-0.000882
2546.000000	-0.000915
2545.000000	-0.000929
2544.000000	-0.000918
2543.000000	-0.000883
2542.000000	-0.000832
2541.000000	-0.000788
2540.000000	-0.000773
2539.000000	-0.000784
2538.000000	-0.000793
2537.000000	-0.000781
2536.000000	-0.000756
2535.000000	-0.000742
2534.000000	-0.000744
2533.000000	-0.000749
2532.000000	-0.000749
2531.000000	-0.000748
2530.000000	-0.000751
2529.000000	-0.000752
2528.000000	-0.000743
2527.000000	-0.000725
2526.000000	-0.000706
2525.000000	-0.000703
2524.000000	-0.000729
2523.000000	-0.000777
2522.000000	-0.000824
2521.000000	-0.000852
2520.000000	-0.000861
2519.000000	-0.000860
2518.000000	-0.000855
2517.000000	-0.000848
2516.000000	-0.000845
2515.000000	-0.000844
2514.000000	-0.000836
2513.000000	-0.000813
2512.000000	-0.000788
2511.000000	-0.000785
2510.000000	-0.000810
2509.000000	-0.000842
2508.000000	-0.000856
2507.000000	-0.000838
2506.000000	-0.000787
2505.000000	-0.000717
2504.000000	-0.000662
2503.000000	-0.000652
2502.000000	-0.000689
2501.000000	-0.000738
2500.000000	-0.000762
2499.000000	-0.000761
2498.000000	-0.000752
2497.000000	-0.000750
2496.000000	-0.000750
2495.000000	-0.000746
2494.000000	-0.000739
2493.000000	-0.000735
2492.000000	-0.000740
2491.000000	-0.000747
2490.000000	-0.000747
2489.000000	-0.000730
2488.000000	-0.000700
2487.000000	-0.000677
2486.000000	-0.000683
2485.000000	-0.000721
2484.000000	-0.000776
2483.000000	-0.000825
2482.000000	-0.000849
2481.000000	-0.000844
2480.000000	-0.000822
2479.000000	-0.000803
2478.000000	-0.000799
2477.000000	-0.000806
2476.000000	-0.000813
2475.000000	-0.000809
2474.000000	-0.000785
2473.000000	-0.000742
2472.000000	-0.000693
2471.000000	-0.000655
2470.000000	-0.000641
2469.000000	-0.000647
2468.000000	-0.000664
2467.000000	-0.000685
2466.000000	-0.000703
2465.000000	-0.000714
2464.000000	-0.000713
2463.000000	-0.000704
2462.000000	-0.000699
2461.000000	-0.000705
2460.000000	-0.000726
2459.000000	-0.000759
2458.000000	-0.000793
2457.000000	-0.000817
2456.000000	-0.000826
2455.000000	-0.000828
2454.000000	-0.000829
2453.000000	-0.000831
2452.000000	-0.000827
2451.000000	-0.000821
2450.000000	-0.000818
2449.000000	-0.000818
2448.000000	-0.000809
2447.000000	-0.000782
2446.000000	-0.000742
2445.000000	-0.000703
2444.000000	-0.000675
2443.000000	-0.000662
2442.000000	-0.000659
2441.000000	-0.000658
2440.000000	-0.000658
2439.000000	-0.000664
2438.000000	-0.000687
2437.000000	-0.000723
2436.000000	-0.000763
2435.000000	-0.000798
2434.000000	-0.000835
2433.000000	-0.000878
2432.000000	-0.000915
2431.000000	-0.000927
2430.000000	-0.000907
2429.000000	-0.000870
2428.000000	-0.000839
2427.000000	-0.000826
2426.000000	-0.000827
2425.000000	-0.000832
2424.000000	-0.000836
2423.000000	-0.000838
2422.000000	-0.000841
2421.000000	-0.000849
2420.000000	-0.000865
2419.000000	-0.000882
2418.000000	-0.000884
2417.000000	-0.000864
2416.000000	-0.000822
2415.000000	-0.000776
2414.000000	-0.000744
2413.000000	-0.000739
2412.000000	-0.000755
2411.000000	-0.000778
2410.000000	-0.000792
2409.000000	-0.000791
2408.000000	-0.000782
2407.000000	-0.000771
2406.000000	-0.000764
2405.000000	-0.000767
2404.000000	-0.000787
2403.000000	-0.000822
2402.000000	-0.000862
2401.000000	-0.000901
2400.000000	-0.000931
2399.000000	-0.000944
2398.000000	-0.000934
2397.000000	-0.000909
2396.000000	-0.000882
2395.000000	-0.000862
2394.000000	-0.000848
2393.000000	-0.000842
2392.000000	-0.000847
2391.000000	-0.000865
2390.000000	-0.000883
2389.000000	-0.000891
2388.000000	-0.000893
2387.000000	-0.000899
2386.000000	-0.000911
2385.000000	-0.000926
2384.000000	-0.000947
2383.000000	-0.000976
2382.000000	-0.001011
2381.000000	-0.001040
2380.000000	-0.001055
2379.000000	-0.001050
2378.000000	-0.001016
2377.000000	-0.000957
2376.000000	-0.000896
2375.000000	-0.000853
2374.000000	-0.000836
2373.000000	-0.000840
2372.000000	-0.000867
2371.000000	-0.000914
2370.000000	-0.000962
2369.000000	-0.000994
2368.000000	-0.001007
2367.000000	-0.001001
2366.000000	-0.000976
2365.000000	-0.000931
2364.000000	-0.000860
2363.000000	-0.000753
2362.000000	-0.000623
2361.000000	-0.000510
2360.000000	-0.000467
2359.000000	-0.000504
2358.000000	-0.000591
2357.000000	-0.000686
2356.000000	-0.000731
2355.000000	-0.000695
2354.000000	-0.000632
2353.000000	-0.000618
2352.000000	-0.000626
2351.000000	-0.000572
2350.000000	-0.000460
2349.000000	-0.000367
2348.000000	-0.000366
2347.000000	-0.000461
2346.000000	-0.000575
2345.000000	-0.000600
2344.000000	-0.000517
2343.000000	-0.000419
2342.000000	-0.000375
2341.000000	-0.000386
2340.000000	-0.000417
2339.000000	-0.000438
2338.000000	-0.000449
2337.000000	-0.000466
2336.000000	-0.000492
2335.000000	-0.000522
2334.000000	-0.000571
2333.000000	-0.000651
2332.000000	-0.000734
2331.000000	-0.000766
2330.000000	-0.000735
2329.000000	-0.000655
2328.000000	-0.000545
2327.000000	-0.000423
2326.000000	-0.000322
2325.000000	-0.000271
2324.000000	-0.000262
2323.000000	-0.000274
2322.000000	-0.000276
2321.000000	-0.000253
2320.000000	-0.000199
2319.000000	-0.000136
2318.000000	-0.000097
2317.000000	-0.000109
2316.000000	-0.000177
2315.000000	-0.000280
2314.000000	-0.000381
2313.000000	-0.000443
2312.000000	-0.000455
2311.000000	-0.000441
2310.000000	-0.000435
2309.000000	-0.000449
2308.000000	-0.000479
2307.000000	-0.000530
2306.000000	-0.000604
2305.000000	-0.000678
2304.000000	-0.000716
2303.000000	-0.000706
2302.000000	-0.000671
2301.000000	-0.000630
2300.000000	-0.000591
2299.000000	-0.000563
2298.000000	-0.000563
2297.000000	-0.000586
2296.000000	-0.000606
2295.000000	-0.000600
2294.000000	-0.000576
2293.000000	-0.000548
2292.000000	-0.000509
2291.000000	-0.000454
2290.000000	-0.000390
2289.000000	-0.000341
2288.000000	-0.000314
2287.000000	-0.000307
2286.000000	-0.000317
2285.000000	-0.000342
2284.000000	-0.000379
2283.000000	-0.000427
2282.000000	-0.000489
2281.000000	-0.000547
2280.000000	-0.000565
2279.000000	-0.000521
2278.000000	-0.000441
2277.000000	-0.000383
2276.000000	-0.000384
2275.000000	-0.000432
2274.000000	-0.000492
2273.000000	-0.000539
2272.000000	-0.000561
2271.000000	-0.000551
2270.000000	-0.000500
2269.000000	-0.000414
2268.000000	-0.000327
2267.000000	-0.000285
2266.000000	-0.000310
2265.000000	-0.000373
2264.000000	-0.000427
2263.000000	-0.000456
2262.000000	-0.000480
2261.000000	-0.000506
2260.000000	-0.000504
2259.000000	-0.000457
2258.000000	-0.000393
2257.000000	-0.000361
2256.000000	-0.000380
2255.000000	-0.000437
2254.000000	-0.000513
2253.000000	-0.000587
2252.000000	-0.000633
2251.000000	-0.000646
2250.000000	-0.000659
2249.000000	-0.000706
2248.000000	-0.000771
2247.000000	-0.000816
2246.000000	-0.000832
2245.000000	-0.000846
2244.000000	-0.000866
2243.000000	-0.000861
2242.000000	-0.000815
2241.000000	-0.000758
2240.000000	-0.000734
2239.000000	-0.000754
2238.000000	-0.000797
2237.000000	-0.000845
2236.000000	-0.000887
2235.000000	-0.000911
2234.000000	-0.000906
2233.000000	-0.000876
2232.000000	-0.000829
2231.000000	-0.000782
2230.000000	-0.000753
2229.000000	-0.000758
2228.000000	-0.000782
2227.000000	-0.000791
2226.000000	-0.000773
2225.000000	-0.000759
2224.000000	-0.000771
2223.000000	-0.000793
2222.000000	-0.000796
2221.000000	-0.000786
2220.000000	-0.000792
2219.000000	-0.000813
2218.000000	-0.000819
2217.000000	-0.000795
2216.000000	-0.000753
2215.000000	-0.000698
2214.000000	-0.000623
2213.000000	-0.000541
2212.000000	-0.000495
2211.000000	-0.000499
2210.000000	-0.000504
2209.000000	-0.000457
2208.000000	-0.000375
2207.000000	-0.000341
2206.000000	-0.000416
2205.000000	-0.000574
2204.000000	-0.000732
2203.000000	-0.000815
2202.000000	-0.000813
2201.000000	-0.000768
2200.000000	-0.000746
2199.000000	-0.000771
2198.000000	-0.000807
2197.000000	-0.000796
2196.000000	-0.000721
2195.000000	-0.000633
2194.000000	-0.000606
2193.000000	-0.000670
2192.000000	-0.000791
2191.000000	-0.000898
2190.000000	-0.000931
2189.000000	-0.000874
2188.000000	-0.000771
2187.000000	-0.000703
2186.000000	-0.000733
2185.000000	-0.000853
2184.000000	-0.000984
2183.000000	-0.001036
2182.000000	-0.000991
2181.000000	-0.000920
2180.000000	-0.000911
2179.000000	-0.000970
2178.000000	-0.001035
2177.000000	-0.001057
2176.000000	-0.001061
2175.000000	-0.001089
2174.000000	-0.001123
2173.000000	-0.001098
2172.000000	-0.000986
2171.000000	-0.000823
2170.000000	-0.000671
2169.000000	-0.000574
2168.000000	-0.000560
2167.000000	-0.000635
2166.000000	-0.000760
2165.000000	-0.000859
2164.000000	-0.000887
2163.000000	-0.000859
2162.000000	-0.000821
2161.000000	-0.000819
2160.000000	-0.000918
2159.000000	-0.001177
2158.000000	-0.001549
2157.000000	-0.001869
2156.000000	-0.002006
2155.000000	-0.001975
2154.000000	-0.001861
2153.000000	-0.001713
2152.000000	-0.001551
2151.000000	-0.001408
2150.000000	-0.001330
2149.000000	-0.001320
2148.000000	-0.001324
2147.000000	-0.001288
2146.000000	-0.001215
2145.000000	-0.001145
2144.000000	-0.001120
2143.000000	-0.001154
2142.000000	-0.001243
2141.000000	-0.001375
2140.000000	-0.001519
2139.000000	-0.001618
2138.000000	-0.001609
2137.000000	-0.001478
2136.000000	-0.001296
2135.000000	-0.001178
2134.000000	-0.001170
2133.000000	-0.001220
2132.000000	-0.001247
2131.000000	-0.001228
2130.000000	-0.001189
2129.000000	-0.001157
2128.000000	-0.001134
2127.000000	-0.001116
2126.000000	-0.001100
2125.000000	-0.001072
2124.000000	-0.001016
2123.000000	-0.000948
2122.000000	-0.000922
2121.000000	-0.000968
2120.000000	-0.001051
2119.000000	-0.001099
2118.000000	-0.001071
2117.000000	-0.000989
2116.000000	-0.000910
2115.000000	-0.000874
2114.000000	-0.000879
2113.000000	-0.000895
2112.000000	-0.000888
2111.000000	-0.000846
2110.000000	-0.000778
2109.000000	-0.000706
2108.000000	-0.000656
2107.000000	-0.000649
2106.000000	-0.000683
2105.000000	-0.000736
2104.000000	-0.000780
2103.000000	-0.000803
2102.000000	-0.000811
2101.000000	-0.000804
2100.000000	-0.000784
2099.000000	-0.000757
2098.000000	-0.000731
2097.000000	-0.000713
2096.000000	-0.000709
2095.000000	-0.000742
2094.000000	-0.000825
2093.000000	-0.000926
2092.000000	-0.000982
2091.000000	-0.000964
2090.000000	-0.000908
2089.000000	-0.000866
2088.000000	-0.000839
2087.000000	-0.000790
2086.000000	-0.000711
2085.000000	-0.000647
2084.000000	-0.000649
2083.000000	-0.000704
2082.000000	-0.000754
2081.000000	-0.000745
2080.000000	-0.000684
2079.000000	-0.000619
2078.000000	-0.000604
2077.000000	-0.000653
2076.000000	-0.000736
2075.000000	-0.000815
2074.000000	-0.000871
2073.000000	-0.000910
2072.000000	-0.000940
2071.000000	-0.000958
2070.000000	-0.000949
2069.000000	-0.000904
2068.000000	-0.000829
2067.000000	-0.000750
2066.000000	-0.000701
2065.000000	-0.000696
2064.000000	-0.000706
2063.000000	-0.000691
2062.000000	-0.000646
2061.000000	-0.000623
2060.000000	-0.000669
2059.000000	-0.000771
2058.000000	-0.000870
2057.000000	-0.000919
2056.000000	-0.000920
2055.000000	-0.000888
2054.000000	-0.000813
2053.000000	-0.000678
2052.000000	-0.000509
2051.000000	-0.000376
2050.000000	-0.000345
2049.000000	-0.000431
2048.000000	-0.000575
2047.000000	-0.000692
2046.000000	-0.000731
2045.000000	-0.000715
2044.000000	-0.000722
2043.000000	-0.000804
2042.000000	-0.000935
2041.000000	-0.001020
2040.000000	-0.000981
2039.000000	-0.000832
2038.000000	-0.000653
2037.000000	-0.000530
2036.000000	-0.000493
2035.000000	-0.000502
2034.000000	-0.000502
2033.000000	-0.000490
2032.000000	-0.000528
2031.000000	-0.000669
2030.000000	-0.000877
2029.000000	-0.001055
2028.000000	-0.001147
2027.000000	-0.001187
2026.000000	-0.001232
2025.000000	-0.001298
2024.000000	-0.001374
2023.000000	-0.001460
2022.000000	-0.001539
2021.000000	-0.001559
2020.000000	-0.001480
2019.000000	-0.001345
2018.000000	-0.001239
2017.000000	-0.001201
2016.000000	-0.001193
2015.000000	-0.001175
2014.000000	-0.001154
2013.000000	-0.001158
2012.000000	-0.001188
2011.000000	-0.001212
2010.000000	-0.001197
2009.000000	-0.001138
2008.000000	-0.001065
2007.000000	-0.001019
2006.000000	-0.001002
2005.000000	-0.000957
2004.000000	-0.000840
2003.000000	-0.000687
2002.000000	-0.000606
2001.000000	-0.000666
2000.000000	-0.000825
1999.000000	-0.000977
1998.000000	-0.001049
1997.000000	-0.001061
1996.000000	-0.001091
1995.000000	-0.001187
1994.000000	-0.001301
1993.000000	-0.001301
1992.000000	-0.001087
1991.000000	-0.000715
1990.000000	-0.000367
1989.000000	-0.000202
1988.000000	-0.000250
1987.000000	-0.000445
1986.000000	-0.000699
1985.000000	-0.000944
1984.000000	-0.001122
1983.000000	-0.001199
1982.000000	-0.001179
1981.000000	-0.001095
1980.000000	-0.000989
1979.000000	-0.000899
1978.000000	-0.000872
1977.000000	-0.000937
1976.000000	-0.001075
1975.000000	-0.001244
1974.000000	-0.001415
1973.000000	-0.001565
1972.000000	-0.001655
1971.000000	-0.001649
1970.000000	-0.001553
1969.000000	-0.001423
1968.000000	-0.001315
1967.000000	-0.001256
1966.000000	-0.001262
1965.000000	-0.001341
1964.000000	-0.001469
1963.000000	-0.001573
1962.000000	-0.001590
1961.000000	-0.001523
1960.000000	-0.001426
1959.000000	-0.001355
1958.000000	-0.001337
1957.000000	-0.001370
1956.000000	-0.001421
1955.000000	-0.001425
1954.000000	-0.001330
1953.000000	-0.001156
1952.000000	-0.000986
1951.000000	-0.000883
1950.000000	-0.000846
1949.000000	-0.000835
1948.000000	-0.000823
1947.000000	-0.000806
1946.000000	-0.000785
1945.000000	-0.000765
1944.000000	-0.000765
1943.000000	-0.000807
1942.000000	-0.000892
1941.000000	-0.000994
1940.000000	-0.001077
1939.000000	-0.001121
1938.000000	-0.001116
1937.000000	-0.001075
1936.000000	-0.001028
1935.000000	-0.001003
1934.000000	-0.001006
1933.000000	-0.001030
1932.000000	-0.001072
1931.000000	-0.001134
1930.000000	-0.001206
1929.000000	-0.001258
1928.000000	-0.001264
1927.000000	-0.001223
1926.000000	-0.001160
1925.000000	-0.001110
1924.000000	-0.001096
1923.000000	-0.001108
1922.000000	-0.001120
1921.000000	-0.001117
1920.000000	-0.001108
1919.000000	-0.001103
1918.000000	-0.001098
1917.000000	-0.001074
1916.000000	-0.001021
1915.000000	-0.000948
1914.000000	-0.000867
1913.000000	-0.000798
1912.000000	-0.000763
1911.000000	-0.000778
1910.000000	-0.000840
1909.000000	-0.000925
1908.000000	-0.000999
1907.000000	-0.001039
1906.000000	-0.001052
1905.000000	-0.001065
1904.000000	-0.001108
1903.000000	-0.001184
1902.000000	-0.001259
1901.000000	-0.001292
1900.000000	-0.001273
1899.000000	-0.001223
1898.000000	-0.001164
1897.000000	-0.001107
1896.000000	-0.001067
1895.000000	-0.001062
1894.000000	-0.001095
1893.000000	-0.001137
1892.000000	-0.001154
1891.000000	-0.001134
1890.000000	-0.001088
1889.000000	-0.001044
1888.000000	-0.001027
1887.000000	-0.001046
1886.000000	-0.001088
1885.000000	-0.001127
1884.000000	-0.001142
1883.000000	-0.001136
1882.000000	-0.001125
1881.000000	-0.001116
1880.000000	-0.001111
1879.000000	-0.001111
1878.000000	-0.001117
1877.000000	-0.001123
1876.000000	-0.001121
1875.000000	-0.001118
1874.000000	-0.001129
1873.000000	-0.001151
1872.000000	-0.001168
1871.000000	-0.001165
1870.000000	-0.001145
1869.000000	-0.001117
1868.000000	-0.001089
1867.000000	-0.001060
1866.000000	-0.001042
1865.000000	-0.001051
1864.000000	-0.001088
1863.000000	-0.001133
1862.000000	-0.001153
1861.000000	-0.001131
1860.000000	-0.001089
1859.000000	-0.001064
1858.000000	-0.001083
1857.000000	-0.001131
1856.000000	-0.001173
1855.000000	-0.001188
1854.000000	-0.001182
1853.000000	-0.001173
1852.000000	-0.001168
1851.000000	-0.001165
1850.000000	-0.001164
1849.000000	-0.001167
1848.000000	-0.001172
1847.000000	-0.001182
1846.000000	-0.001195
1845.000000	-0.001209
1844.000000	-0.001219
1843.000000	-0.001223
1842.000000	-0.001229
1841.000000	-0.001247
1840.000000	-0.001267
1839.000000	-0.001264
1838.000000	-0.001223
1837.000000	-0.001160
1836.000000	-0.001114
1835.000000	-0.001104
1834.000000	-0.001120
1833.000000	-0.001140
1832.000000	-0.001155
1831.000000	-0.001159
1830.000000	-0.001144
1829.000000	-0.001111
1828.000000	-0.001080
1827.000000	-0.001062
1826.000000	-0.001053
1825.000000	-0.001052
1824.000000	-0.001073
1823.000000	-0.001124
1822.000000	-0.001191
1821.000000	-0.001247
1820.000000	-0.001277
1819.000000	-0.001295
1818.000000	-0.001316
1817.000000	-0.001335
1816.000000	-0.001333
1815.000000	-0.001302
1814.000000	-0.001260
1813.000000	-0.001227
1812.000000	-0.001214
1811.000000	-0.001212
1810.000000	-0.001211
1809.000000	-0.001212
1808.000000	-0.001221
1807.000000	-0.001240
1806.000000	-0.001267
1805.000000	-0.001300
1804.000000	-0.001337
1803.000000	-0.001372
1802.000000	-0.001394
1801.000000	-0.001391
1800.000000	-0.001367
1799.000000	-0.001329
1798.000000	-0.001287
1797.000000	-0.001250
1796.000000	-0.001226
1795.000000	-0.001219
1794.000000	-0.001220
1793.000000	-0.001219
1792.000000	-0.001208
1791.000000	-0.001193
1790.000000	-0.001183
1789.000000	-0.001181
1788.000000	-0.001192
1787.000000	-0.001219
1786.000000	-0.001252
1785.000000	-0.001278
1784.000000	-0.001288
1783.000000	-0.001287
1782.000000	-0.001274
1781.000000	-0.001242
1780.000000	-0.001200
1779.000000	-0.001172
1778.000000	-0.001168
1777.000000	-0.001173
1776.000000	-0.001176
1775.000000	-0.001179
1774.000000	-0.001186
1773.000000	-0.001187
1772.000000	-0.001169
1771.000000	-0.001145
1770.000000	-0.001136
1769.000000	-0.001144
1768.000000	-0.001152
1767.000000	-0.001150
1766.000000	-0.001137
1765.000000	-0.001120
1764.000000	-0.001106
1763.000000	-0.001104
1762.000000	-0.001117
1761.000000	-0.001136
1760.000000	-0.001143
1759.000000	-0.001121
1758.000000	-0.001062
1757.000000	-0.000979
1756.000000	-0.000906
1755.000000	-0.000868
1754.000000	-0.000855
1753.000000	-0.000837
1752.000000	-0.000796
1751.000000	-0.000737
1750.000000	-0.000679
1749.000000	-0.000634
1748.000000	-0.000596
1747.000000	-0.000559
1746.000000	-0.000522
1745.000000	-0.000486
1744.000000	-0.000462
1743.000000	-0.000456
1742.000000	-0.000462
1741.000000	-0.000470
1740.000000	-0.000483
1739.000000	-0.000506
1738.000000	-0.000536
1737.000000	-0.000571
1736.000000	-0.000624
1735.000000	-0.000708
1734.000000	-0.000805
1733.000000	-0.000865
1732.000000	-0.000880
1731.000000	-0.000883
1730.000000	-0.000898
1729.000000	-0.000923
1728.000000	-0.000947
1727.000000	-0.000967
1726.000000	-0.000979
1725.000000	-0.000984
1724.000000	-0.000984
1723.000000	-0.000986
1722.000000	-0.000994
1721.000000	-0.001008
1720.000000	-0.001030
1719.000000	-0.001048
1718.000000	-0.001031
1717.000000	-0.000976
1716.000000	-0.000921
1715.000000	-0.000902
1714.000000	-0.000913
1713.000000	-0.000929
1712.000000	-0.000933
1711.000000	-0.000927
1710.000000	-0.000918
1709.000000	-0.000904
1708.000000	-0.000886
1707.000000	-0.000863
1706.000000	-0.000824
1705.000000	-0.000763
1704.000000	-0.000695
1703.000000	-0.000643
1702.000000	-0.000616
1701.000000	-0.000601
1700.000000	-0.000572
1699.000000	-0.000536
1698.000000	-0.000519
1697.000000	-0.000517
1696.000000	-0.000498
1695.000000	-0.000453
1694.000000	-0.000399
1693.000000	-0.000347
1692.000000	-0.000294
1691.000000	-0.000233
1690.000000	-0.000161
1689.000000	-0.000086
1688.000000	-0.000021
1687.000000	0.000028
1686.000000	0.000067
1685.000000	0.000112
1684.000000	0.000168
1683.000000	0.000209
1682.000000	0.000233
1681.000000	0.000267
1680.000000	0.000322
1679.000000	0.000388
1678.000000	0.000448
1677.000000	0.000497
1676.000000	0.000540
1675.000000	0.000581
1674.000000	0.000625
1673.000000	0.000675
1672.000000	0.000731
1671.000000	0.000795
1670.000000	0.000877
1669.000000	0.000972
1668.000000	0.001055
1667.000000	0.001112
1666.000000	0.001154
1665.000000	0.001197
1664.000000	0.001244
1663.000000	0.001285
1662.000000	0.001314
1661.000000	0.001346
1660.000000	0.001387
1659.000000	0.001430
1658.000000	0.001470
1657.000000	0.001508
1656.000000	0.001541
1655.000000	0.001561
1654.000000	0.001584
1653.000000	0.001646
1652.000000	0.001726
1651.000000	0.001783
1650.000000	0.001824
1649.000000	0.001864
1648.000000	0.001928
1647.000000	0.002014
1646.000000	0.002080
1645.000000	0.002104
1644.000000	0.002109
1643.000000	0.002106
1642.000000	0.002103
1641.000000	0.002116
1640.000000	0.002154
1639.000000	0.002205
1638.000000	0.002244
1637.000000	0.002258
1636.000000	0.002253
1635.000000	0.002245
1634.000000	0.002244
1633.000000	0.002254
1632.000000	0.002270
1631.000000	0.002280
1630.000000	0.002278
1629.000000	0.002275
1628.000000	0.002292
1627.000000	0.002329
1626.000000	0.002362
1625.000000	0.002370
1624.000000	0.002354
1623.000000	0.002329
1622.000000	0.002311
1621.000000	0.002307
1620.000000	0.002311
1619.000000	0.002310
1618.000000	0.002296
1617.000000	0.002271
1616.000000	0.002252
1615.000000	0.002244
1614.000000	0.002238
1613.000000	0.002225
1612.000000	0.002201
1611.000000	0.002165
1610.000000	0.002120
1609.000000	0.002072
1608.000000	0.002026
1607.000000	0.001981
1606.000000	0.001937
1605.000000	0.001894
1604.000000	0.001850
1603.000000	0.001804
1602.000000	0.001758
1601.000000	0.001715
1600.000000	0.001669
1599.000000	0.001616
1598.000000	0.001553
1597.000000	0.001486
1596.000000	0.001420
1595.000000	0.001363
1594.000000	0.001317
1593.000000	0.001282
1592.000000	0.001246
1591.000000	0.001203
1590.000000	0.001163
1589.000000	0.001141
1588.000000	0.001136
1587.000000	0.001127
1586.000000	0.001098
1585.000000	0.001055
1584.000000	0.001019
1583.000000	0.000997
1582.000000	0.000985
1581.000000	0.000973
1580.000000	0.000961
1579.000000	0.000949
1578.000000	0.000935
1577.000000	0.000914
1576.000000	0.000884
1575.000000	0.000858
1574.000000	0.000852
1573.000000	0.000865
1572.000000	0.000879
1571.000000	0.000876
1570.000000	0.000854
1569.000000	0.000830
1568.000000	0.000817
1567.000000	0.000815
1566.000000	0.000817
1565.000000	0.000818
1564.000000	0.000815
1563.000000	0.000809
1562.000000	0.000805
1561.000000	0.000807
1560.000000	0.000805
1559.000000	0.000815
1558.000000	0.000832
1557.000000	0.000835
1556.000000	0.000831
1555.000000	0.000811
1554.000000	0.000777
1553.000000	0.000735
1552.000000	0.000699
1551.000000	0.000677
1550.000000	0.000675
1549.000000	0.000688
1548.000000	0.000701
1547.000000	0.000705
1546.000000	0.000699
1545.000000	0.000693
1544.000000	0.000692
1543.000000	0.000691
1542.000000	0.000688
1541.000000	0.000692
1540.000000	0.000715
1539.000000	0.000730
1538.000000	0.000724
1537.000000	0.000717
1536.000000	0.000715
1535.000000	0.000713
1534.000000	0.000705
1533.000000	0.000697
1532.000000	0.000695
1531.000000	0.000699
1530.000000	0.000699
1529.000000	0.000683
1528.000000	0.000650
1527.000000	0.000614
1526.000000	0.000585
1525.000000	0.000566
1524.000000	0.000552
1523.000000	0.000534
1522.000000	0.000504
1521.000000	0.000462
1520.000000	0.000416
1519.000000	0.000375
1518.000000	0.000338
1517.000000	0.000313
1516.000000	0.000310
1515.000000	0.000324
1514.000000	0.000339
1513.000000	0.000339
1512.000000	0.000316
1511.000000	0.000280
1510.000000	0.000244
1509.000000	0.000216
1508.000000	0.000192
1507.000000	0.000158
1506.000000	0.000098
1505.000000	0.000040
1504.000000	0.000011
1503.000000	0.000002
1502.000000	0.000003
1501.000000	0.000006
1500.000000	0.000001
1499.000000	-0.000019
1498.000000	-0.000056
1497.000000	-0.000104
1496.000000	-0.000150
1495.000000	-0.000174
1494.000000	-0.000176
1493.000000	-0.000168
1492.000000	-0.000171
1491.000000	-0.000195
1490.000000	-0.000229
1489.000000	-0.000248
1488.000000	-0.000244
1487.000000	-0.000232
1486.000000	-0.000232
1485.000000	-0.000237
1484.000000	-0.000236
1483.000000	-0.000225
1482.000000	-0.000205
1481.000000	-0.000184
1480.000000	-0.000165
1479.000000	-0.000151
1478.000000	-0.000142
1477.000000	-0.000134
1476.000000	-0.000128
1475.000000	-0.000131
1474.000000	-0.000141
1473.000000	-0.000132
1472.000000	-0.000083
1471.000000	-0.000020
1470.000000	0.000021
1469.000000	0.000034
1468.000000	0.000035
1467.000000	0.000037
1466.000000	0.000045
1465.000000	0.000052
1464.000000	0.000052
1463.000000	0.000050
1462.000000	0.000054
1461.000000	0.000065
1460.000000	0.000077
1459.000000	0.000086
1458.000000	0.000089
1457.000000	0.000080
1456.000000	0.000061
1455.000000	0.000056
1454.000000	0.000073
1453.000000	0.000098
1452.000000	0.000120
1451.000000	0.000138
1450.000000	0.000157
1449.000000	0.000177
1448.000000	0.000189
1447.000000	0.000190
1446.000000	0.000188
1445.000000	0.000194
1444.000000	0.000207
1443.000000	0.000218
1442.000000	0.000222
1441.000000	0.000218
1440.000000	0.000212
1439.000000	0.000205
1438.000000	0.000197
1437.000000	0.000183
1436.000000	0.000157
1435.000000	0.000127
1434.000000	0.000114
1433.000000	0.000123
1432.000000	0.000153
1431.000000	0.000192
1430.000000	0.000225
1429.000000	0.000242
1428.000000	0.000245
1427.000000	0.000239
1426.000000	0.000233
1425.000000	0.000232
1424.000000	0.000236
1423.000000	0.000238
1422.000000	0.000237
1421.000000	0.000235
1420.000000	0.000233
1419.000000	0.000229
1418.000000	0.000219
1417.000000	0.000202
1416.000000	0.000186
1415.000000	0.000176
1414.000000	0.000174
1413.000000	0.000173
1412.000000	0.000163
1411.000000	0.000145
1410.000000	0.000129
1409.000000	0.000124
1408.000000	0.000126
1407.000000	0.000126
1406.000000	0.000118
1405.000000	0.000108
1404.000000	0.000104
1403.000000	0.000114
1402.000000	0.000138
1401.000000	0.000166
1400.000000	0.000185
1399.000000	0.000185
1398.000000	0.000169
1397.000000	0.000147
1396.000000	0.000129
1395.000000	0.000118
1394.000000	0.000113
1393.000000	0.000112
1392.000000	0.000111
1391.000000	0.000106
1390.000000	0.000098
1389.000000	0.000087
1388.000000	0.000069
1387.000000	0.000053
1386.000000	0.000050
1385.000000	0.000063
1384.000000	0.000074
1383.000000	0.000069
1382.000000	0.000050
1381.000000	0.000033
1380.000000	0.000029
1379.000000	0.000033
1378.000000	0.000037
1377.000000	0.000035
1376.000000	0.000029
1375.000000	0.000022
1374.000000	0.000019
1373.000000	0.000025
1372.000000	0.000038
1371.000000	0.000045
1370.000000	0.000038
1369.000000	0.000020
1368.000000	-0.000001
1367.000000	-0.000017
1366.000000	-0.000024
1365.000000	-0.000022
1364.000000	-0.000011
1363.000000	0.000009
1362.000000	0.000030
1361.000000	0.000048
1360.000000	0.000056
1359.000000	0.000047
1358.000000	0.000018
1357.000000	-0.000021
1356.000000	-0.000050
1355.000000	-0.000058
1354.000000	-0.000051
1353.000000	-0.000042
1352.000000	-0.000040
1351.000000	-0.000040
1350.000000	-0.000034
1349.000000	-0.000015
1348.000000	0.000017
1347.000000	0.000048
1346.000000	0.000065
1345.000000	0.000067
1344.000000	0.000060
1343.000000	0.000053
1342.000000	0.000053
1341.000000	0.000065
1340.000000	0.000094
1339.000000	0.000133
1338.000000	0.000175
1337.000000	0.000217
1336.000000	0.000264
1335.000000	0.000324
1334.000000	0.000396
1333.000000	0.000481
1332.000000	0.000575
1331.000000	0.000675
1330.000000	0.000777
1329.000000	0.000887
1328.000000	0.001006
1327.000000	0.001125
1326.000000	0.001228
1325.000000	0.001308
1324.000000	0.001370
1323.000000	0.001423
1322.000000	0.001465
1321.000000	0.001492
1320.000000	0.001493
1319.000000	0.001459
1318.000000	0.001391
1317.000000	0.001298
1316.000000	0.001193
1315.000000	0.001081
1314.000000	0.000968
1313.000000	0.000860
1312.000000	0.000767
1311.000000	0.000693
1310.000000	0.000628
1309.000000	0.000558
1308.000000	0.000477
1307.000000	0.000389
1306.000000	0.000311
1305.000000	0.000252
1304.000000	0.000214
1303.000000	0.000187
1302.000000	0.000162
1301.000000	0.000135
1300.000000	0.000108
1299.000000	0.000082
1298.000000	0.000061
1297.000000	0.000045
1296.000000	0.000035
1295.000000	0.000023
1294.000000	-0.000001
1293.000000	-0.000041
1292.000000	-0.000088
1291.000000	-0.000127
1290.000000	-0.000149
1289.000000	-0.000164
1288.000000	-0.000186
1287.000000	-0.000220
1286.000000	-0.000254
1285.000000	-0.000277
1284.000000	-0.000286
1283.000000	-0.000286
1282.000000	-0.000286
1281.000000	-0.000292
1280.000000	-0.000304
1279.000000	-0.000321
1278.000000	-0.000337
1277.000000	-0.000347
1276.000000	-0.000352
1275.000000	-0.000356
1274.000000	-0.000359
1273.000000	-0.000361
1272.000000	-0.000362
1271.000000	-0.000365
1270.000000	-0.000369
1269.000000	-0.000370
1268.000000	-0.000367
1267.000000	-0.000369
1266.000000	-0.000383
1265.000000	-0.000407
1264.000000	-0.000429
1263.000000	-0.000435
1262.000000	-0.000425
1261.000000	-0.000405
1260.000000	-0.000389
1259.000000	-0.000384
1258.000000	-0.000390
1257.000000	-0.000396
1256.000000	-0.000391
1255.000000	-0.000370
1254.000000	-0.000340
1253.000000	-0.000315
1252.000000	-0.000306
1251.000000	-0.000319
1250.000000	-0.000346
1249.000000	-0.000369
1248.000000	-0.000371
1247.000000	-0.000351
1246.000000	-0.000325
1245.000000	-0.000310
1244.000000	-0.000314
1243.000000	-0.000332
1242.000000	-0.000355
1241.000000	-0.000376
1240.000000	-0.000392
1239.000000	-0.000402
1238.000000	-0.000406
1237.000000	-0.000408
1236.000000	-0.000410
1235.000000	-0.000413
1234.000000	-0.000412
1233.000000	-0.000405
1232.000000	-0.000392
1231.000000	-0.000376
1230.000000	-0.000363
1229.000000	-0.000359
1228.000000	-0.000370
1227.000000	-0.000397
1226.000000	-0.000437
1225.000000	-0.000478
1224.000000	-0.000510
1223.000000	-0.000524
1222.000000	-0.000521
1221.000000	-0.000509
1220.000000	-0.000499
1219.000000	-0.000500
1218.000000	-0.000517
1217.000000	-0.000545
1216.000000	-0.000577
1215.000000	-0.000603
1214.000000	-0.000620
1213.000000	-0.000631
1212.000000	-0.000638
1211.000000	-0.000641
1210.000000	-0.000645
1209.000000	-0.000650
1208.000000	-0.000658
1207.000000	-0.000662
1206.000000	-0.000661
1205.000000	-0.000658
1204.000000	-0.000658
1203.000000	-0.000660
1202.000000	-0.000661
1201.000000	-0.000660
1200.000000	-0.000661
1199.000000	-0.000666
1198.000000	-0.000676
1197.000000	-0.000687
1196.000000	-0.000693
1195.000000	-0.000685
1194.000000	-0.000659
1193.000000	-0.000626
1192.000000	-0.000608
1191.000000	-0.000616
1190.000000	-0.000641
1189.000000	-0.000663
1188.000000	-0.000673
1187.000000	-0.000673
1186.000000	-0.000665
1185.000000	-0.000647
1184.000000	-0.000620
1183.000000	-0.000588
1182.000000	-0.000560
1181.000000	-0.000541
1180.000000	-0.000530
1179.000000	-0.000521
1178.000000	-0.000500
1177.000000	-0.000459
1176.000000	-0.000405
1175.000000	-0.000350
1174.000000	-0.000305
1173.000000	-0.000265
1172.000000	-0.000228
1171.000000	-0.000198
1170.000000	-0.000178
1169.000000	-0.000155
1168.000000	-0.000117
1167.000000	-0.000066
1166.000000	-0.000017
1165.000000	0.000017
1164.000000	0.000037
1163.000000	0.000051
1162.000000	0.000063
1161.000000	0.000076
1160.000000	0.000094
1159.000000	0.000119
1158.000000	0.000147
1157.000000	0.000168
1156.000000	0.000176
1155.000000	0.000181
1154.000000	0.000199
1153.000000	0.000240
1152.000000	0.000296
1151.000000	0.000347
1150.000000	0.000382
1149.000000	0.000405
1148.000000	0.000423
1147.000000	0.000438
1146.000000	0.000447
1145.000000	0.000454
1144.000000	0.000466
1143.000000	0.000484
1142.000000	0.000494
1141.000000	0.000482
1140.000000	0.000446
1139.000000	0.000402
1138.000000	0.000369
1137.000000	0.000354
1136.000000	0.000352
1135.000000	0.000358
1134.000000	0.000372
1133.000000	0.000393
1132.000000	0.000412
1131.000000	0.000419
1130.000000	0.000415
1129.000000	0.000417
1128.000000	0.000439
1127.000000	0.000481
1126.000000	0.000528
1125.000000	0.000564
1124.000000	0.000584
1123.000000	0.000594
1122.000000	0.000605
1121.000000	0.000627
1120.000000	0.000661
1119.000000	0.000692
1118.000000	0.000706
1117.000000	0.000705
1116.000000	0.000706
1115.000000	0.000718
1114.000000	0.000736
1113.000000	0.000751
1112.000000	0.000767
1111.000000	0.000785
1110.000000	0.000798
1109.000000	0.000791
1108.000000	0.000760
1107.000000	0.000722
1106.000000	0.000698
1105.000000	0.000693
1104.000000	0.000697
1103.000000	0.000705
1102.000000	0.000717
1101.000000	0.000731
1100.000000	0.000735
1099.000000	0.000723
1098.000000	0.000699
1097.000000	0.000678
1096.000000	0.000669
1095.000000	0.000667
1094.000000	0.000663
1093.000000	0.000655
1092.000000	0.000654
1091.000000	0.000672
1090.000000	0.000709
1089.000000	0.000758
1088.000000	0.000804
1087.000000	0.000837
1086.000000	0.000851
1085.000000	0.000841
1084.000000	0.000808
1083.000000	0.000766
1082.000000	0.000744
1081.000000	0.000759
1080.000000	0.000801
1079.000000	0.000829
1078.000000	0.000817
1077.000000	0.000778
1076.000000	0.000757
1075.000000	0.000785
1074.000000	0.000844
1073.000000	0.000887
1072.000000	0.000890
1071.000000	0.000871
1070.000000	0.000860
1069.000000	0.000856
1068.000000	0.000836
1067.000000	0.000798
1066.000000	0.000781
1065.000000	0.000821
1064.000000	0.000897
1063.000000	0.000947
1062.000000	0.000932
1061.000000	0.000872
1060.000000	0.000816
1059.000000	0.000799
1058.000000	0.000814
1057.000000	0.000834
1056.000000	0.000836
1055.000000	0.000820
1054.000000	0.000808
1053.000000	0.000826
1052.000000	0.000873
1051.000000	0.000923
1050.000000	0.000947
1049.000000	0.000939
1048.000000	0.000915
1047.000000	0.000890
1046.000000	0.000874
1045.000000	0.000869
1044.000000	0.000879
1043.000000	0.000901
1042.000000	0.000929
1041.000000	0.000954
1040.000000	0.000978
1039.000000	0.001013
1038.000000	0.001062
1037.000000	0.001110
1036.000000	0.001124
1035.000000	0.001093
1034.000000	0.001048
1033.000000	0.001031
1032.000000	0.001056
1031.000000	0.001105
1030.000000	0.001162
1029.000000	0.001219
1028.000000	0.001254
1027.000000	0.001240
1026.000000	0.001174
1025.000000	0.001089
1024.000000	0.001022
1023.000000	0.000987
1022.000000	0.000979
1021.000000	0.000995
1020.000000	0.001027
1019.000000	0.001053
1018.000000	0.001052
1017.000000	0.001028
1016.000000	0.001011
1015.000000	0.001018
1014.000000	0.001049
1013.000000	0.001090
1012.000000	0.001121
1011.000000	0.001123
1010.000000	0.001093
1009.000000	0.001046
1008.000000	0.001005
1007.000000	0.000981
1006.000000	0.000970
1005.000000	0.000962
1004.000000	0.000946
1003.000000	0.000913
1002.000000	0.000867
1001.000000	0.000827
1000.000000	0.000805
999.000000	0.000781
998.000000	0.000731
997.000000	0.000651
996.000000	0.000572
995.000000	0.000529
994.000000	0.000528
993.000000	0.000551
992.000000	0.000563
991.000000	0.000537
990.000000	0.000478
989.000000	0.000424
988.000000	0.000411
987.000000	0.000435
986.000000	0.000456
985.000000	0.000447
984.000000	0.000413
983.000000	0.000377
982.000000	0.000353
981.000000	0.000341
980.000000	0.000336
979.000000	0.000324
978.000000	0.000292
977.000000	0.000248
976.000000	0.000213
975.000000	0.000195
974.000000	0.000179
973.000000	0.000154
972.000000	0.000123
971.000000	0.000095
970.000000	0.000065
969.000000	0.000024
968.000000	-0.000028
967.000000	-0.000089
966.000000	-0.000153
965.000000	-0.000207
964.000000	-0.000231
963.000000	-0.000225
962.000000	-0.000221
961.000000	-0.000248
960.000000	-0.000305
959.000000	-0.000362
958.000000	-0.000399
957.000000	-0.000413
956.000000	-0.000410
955.000000	-0.000396
954.000000	-0.000389
953.000000	-0.000412
952.000000	-0.000469
951.000000	-0.000546
950.000000	-0.000618
949.000000	-0.000671
948.000000	-0.000699
947.000000	-0.000706
946.000000	-0.000708
945.000000	-0.000718
944.000000	-0.000725
943.000000	-0.000711
942.000000	-0.000676
941.000000	-0.000652
940.000000	-0.000670
939.000000	-0.000725
938.000000	-0.000784
937.000000	-0.000817
936.000000	-0.000820
935.000000	-0.000813
934.000000	-0.000808
933.000000	-0.000806
932.000000	-0.000802
931.000000	-0.000798
930.000000	-0.000796
929.000000	-0.000788
928.000000	-0.000757
927.000000	-0.000715
926.000000	-0.000696
925.000000	-0.000733
924.000000	-0.000812
923.000000	-0.000887
922.000000	-0.000916
921.000000	-0.000904
920.000000	-0.000883
919.000000	-0.000886
918.000000	-0.000912
917.000000	-0.000933
916.000000	-0.000923
915.000000	-0.000883
914.000000	-0.000845
913.000000	-0.000838
912.000000	-0.000853
911.000000	-0.000866
910.000000	-0.000867
909.000000	-0.000877
908.000000	-0.000918
907.000000	-0.000981
906.000000	-0.001041
905.000000	-0.001076
904.000000	-0.001086
903.000000	-0.001084
902.000000	-0.001085
901.000000	-0.001096
900.000000	-0.001113
899.000000	-0.001127
898.000000	-0.001135
897.000000	-0.001143
896.000000	-0.001157
895.000000	-0.001170
894.000000	-0.001169
893.000000	-0.001149
892.000000	-0.001128
891.000000	-0.001133
890.000000	-0.001176
889.000000	-0.001240
888.000000	-0.001292
887.000000	-0.001310
886.000000	-0.001298
885.000000	-0.001268
884.000000	-0.001228
883.000000	-0.001186
882.000000	-0.001159
881.000000	-0.001155
880.000000	-0.001161
879.000000	-0.001146
878.000000	-0.001103
877.000000	-0.001060
876.000000	-0.001051
875.000000	-0.001087
874.000000	-0.001138
873.000000	-0.001173
872.000000	-0.001179
871.000000	-0.001175
870.000000	-0.001189
869.000000	-0.001230
868.000000	-0.001290
867.000000	-0.001352
866.000000	-0.001401
865.000000	-0.001431
864.000000	-0.001430
863.000000	-0.001401
862.000000	-0.001359
861.000000	-0.001336
860.000000	-0.001346
859.000000	-0.001372
858.000000	-0.001377
857.000000	-0.001336
856.000000	-0.001260
855.000000	-0.001198
854.000000	-0.001198
853.000000	-0.001268
852.000000	-0.001367
851.000000	-0.001440
850.000000	-0.001464
849.000000	-0.001455
848.000000	-0.001450
847.000000	-0.001468
846.000000	-0.001500
845.000000	-0.001513
844.000000	-0.001483
843.000000	-0.001420
842.000000	-0.001358
841.000000	-0.001319
840.000000	-0.001305
839.000000	-0.001313
838.000000	-0.001352
837.000000	-0.001418
836.000000	-0.001475
835.000000	-0.001479
834.000000	-0.001420
833.000000	-0.001333
832.000000	-0.001264
831.000000	-0.001233
830.000000	-0.001242
829.000000	-0.001285
828.000000	-0.001352
827.000000	-0.001426
826.000000	-0.001478
825.000000	-0.001482
824.000000	-0.001428
823.000000	-0.001345
822.000000	-0.001283
821.000000	-0.001277
820.000000	-0.001322
819.000000	-0.001396
818.000000	-0.001479
817.000000	-0.001545
816.000000	-0.001561
815.000000	-0.001513
814.000000	-0.001431
813.000000	-0.001362
812.000000	-0.001328
811.000000	-0.001322
810.000000	-0.001339
809.000000	-0.001387
808.000000	-0.001460
807.000000	-0.001527
806.000000	-0.001550
805.000000	-0.001515
804.000000	-0.001437
803.000000	-0.001354
802.000000	-0.001304
801.000000	-0.001298
800.000000	-0.001310
799.000000	-0.001318
798.000000	-0.001324
797.000000	-0.001341
796.000000	-0.001352
795.000000	-0.001323
794.000000	-0.001251
793.000000	-0.001170
792.000000	-0.001105
791.000000	-0.001048
790.000000	-0.000983
789.000000	-0.000910
788.000000	-0.000851
787.000000	-0.000835
786.000000	-0.000882
785.000000	-0.000969
784.000000	-0.001025
783.000000	-0.000999
782.000000	-0.000919
781.000000	-0.000867
780.000000	-0.000879
779.000000	-0.000917
778.000000	-0.000942
777.000000	-0.000959
776.000000	-0.000985
775.000000	-0.001001
774.000000	-0.000980
773.000000	-0.000937
772.000000	-0.000916
771.000000	-0.000935
770.000000	-0.000980
769.000000	-0.001030
768.000000	-0.001072
767.000000	-0.001100
766.000000	-0.001104
765.000000	-0.001086
764.000000	-0.001058
763.000000	-0.001040
762.000000	-0.001048
761.000000	-0.001085
760.000000	-0.001126
759.000000	-0.001139
758.000000	-0.001119
757.000000	-0.001092
756.000000	-0.001077
755.000000	-0.001069
754.000000	-0.001060
753.000000	-0.001059
752.000000	-0.001068
751.000000	-0.001074
750.000000	-0.001074
749.000000	-0.001087
748.000000	-0.001123
747.000000	-0.001160
746.000000	-0.001174
745.000000	-0.001169
744.000000	-0.001167
743.000000	-0.001174
742.000000	-0.001190
741.000000	-0.001216
740.000000	-0.001247
739.000000	-0.001252
738.000000	-0.001211
737.000000	-0.001151
736.000000	-0.001132
735.000000	-0.001185
734.000000	-0.001284
733.000000	-0.001373
732.000000	-0.001412
731.000000	-0.001396
730.000000	-0.001363
729.000000	-0.001349
728.000000	-0.001357
727.000000	-0.001372
726.000000	-0.001381
725.000000	-0.001390
724.000000	-0.001402
723.000000	-0.001412
722.000000	-0.001416
721.000000	-0.001414
720.000000	-0.001397
719.000000	-0.001362
718.000000	-0.001325
717.000000	-0.001321
716.000000	-0.001354
715.000000	-0.001391
714.000000	-0.001406
713.000000	-0.001405
712.000000	-0.001405
711.000000	-0.001398
710.000000	-0.001378
709.000000	-0.001360
708.000000	-0.001359
707.000000	-0.001370
706.000000	-0.001381
705.000000	-0.001388
704.000000	-0.001394
703.000000	-0.001391
702.000000	-0.001372
701.000000	-0.001351
700.000000	-0.001344
699.000000	-0.001353
698.000000	-0.001367
697.000000	-0.001383
696.000000	-0.001392
695.000000	-0.001379
694.000000	-0.001344
693.000000	-0.001319
692.000000	-0.001316
691.000000	-0.001320
690.000000	-0.001314
689.000000	-0.001309
688.000000	-0.001327
687.000000	-0.001359
686.000000	-0.001400
685.000000	-0.001467
684.000000	-0.001543
683.000000	-0.001574
682.000000	-0.001534
681.000000	-0.001459
680.000000	-0.001383
679.000000	-0.001309
678.000000	-0.001263
677.000000	-0.001273
676.000000	-0.001305
675.000000	-0.001305
674.000000	-0.001269
673.000000	-0.001255
672.000000	-0.001340
671.000000	-0.001590
670.000000	-0.002026
669.000000	-0.002525
668.000000	-0.002676
667.000000	-0.002278
666.000000	-0.001793
665.000000	-0.001438
664.000000	-0.001243
663.000000	-0.001202
662.000000	-0.001224
661.000000	-0.001209
660.000000	-0.001145
659.000000	-0.001102
658.000000	-0.001137
657.000000	-0.001202
656.000000	-0.001233
655.000000	-0.001256
654.000000	-0.001309
653.000000	-0.001347
652.000000	-0.001323
651.000000	-0.001268
650.000000	-0.001239
649.000000	-0.001236
648.000000	-0.001233
647.000000	-0.001239
646.000000	-0.001255
645.000000	-0.001264
644.000000	-0.001270
643.000000	-0.001292
642.000000	-0.001338
641.000000	-0.001391
640.000000	-0.001444
639.000000	-0.001506
638.000000	-0.001550
637.000000	-0.001532
636.000000	-0.001468
635.000000	-0.001419
634.000000	-0.001394
633.000000	-0.001352
632.000000	-0.001285
631.000000	-0.001242
630.000000	-0.001251
629.000000	-0.001276
628.000000	-0.001289
627.000000	-0.001309
626.000000	-0.001337
625.000000	-0.001326
624.000000	-0.001253
623.000000	-0.001163
622.000000	-0.001119
621.000000	-0.001129
620.000000	-0.001153
619.000000	-0.001163
618.000000	-0.001163
617.000000	-0.001177
616.000000	-0.001220
615.000000	-0.001269
614.000000	-0.001274
613.000000	-0.001211
612.000000	-0.001124
611.000000	-0.001075
610.000000	-0.001063
609.000000	-0.001038
608.000000	-0.000988
607.000000	-0.000945
606.000000	-0.000904
605.000000	-0.000826
604.000000	-0.000717
603.000000	-0.000648
602.000000	-0.000663
601.000000	-0.000724
600.000000	-0.000775
599.000000	-0.000801
598.000000	-0.000810
597.000000	-0.000786
596.000000	-0.000724
595.000000	-0.000669
594.000000	-0.000676
593.000000	-0.000748
592.000000	-0.000838
591.000000	-0.000909
590.000000	-0.000960
589.000000	-0.001002
588.000000	-0.001037
587.000000	-0.001067
586.000000	-0.001093
585.000000	-0.001106
584.000000	-0.001101
583.000000	-0.001081
582.000000	-0.001061
581.000000	-0.001067
580.000000	-0.001119
579.000000	-0.001210
578.000000	-0.001292
577.000000	-0.001304
576.000000	-0.001227
575.000000	-0.001109
574.000000	-0.001024
573.000000	-0.001013
572.000000	-0.001070
571.000000	-0.001160
570.000000	-0.001249
569.000000	-0.001317
568.000000	-0.001360
567.000000	-0.001367
566.000000	-0.001325
565.000000	-0.001248
564.000000	-0.001179
563.000000	-0.001135
562.000000	-0.001096
561.000000	-0.001041
560.000000	-0.000985
559.000000	-0.000948
558.000000	-0.000907
557.000000	-0.000837
556.000000	-0.000773
555.000000	-0.000783
554.000000	-0.000882
553.000000	-0.001016
552.000000	-0.001141
551.000000	-0.001264
550.000000	-0.001405
549.000000	-0.001557
548.000000	-0.001679
547.000000	-0.001711
546.000000	-0.001609
545.000000	-0.001402
544.000000	-0.001209
543.000000	-0.001150
542.000000	-0.001251
541.000000	-0.001440
540.000000	-0.001613
539.000000	-0.001680
538.000000	-0.001595
537.000000	-0.001400
536.000000	-0.001227
535.000000	-0.001189
534.000000	-0.001262
533.000000	-0.001324
532.000000	-0.001293
531.000000	-0.001185
530.000000	-0.001051
529.000000	-0.000931
528.000000	-0.000862
527.000000	-0.000864
526.000000	-0.000905
525.000000	-0.000931
524.000000	-0.000958
523.000000	-0.001058
522.000000	-0.001240
521.000000	-0.001439
520.000000	-0.001593
519.000000	-0.001676
518.000000	-0.001657
517.000000	-0.001514
516.000000	-0.001328
515.000000	-0.001246
514.000000	-0.001308
513.000000	-0.001388
512.000000	-0.001355
511.000000	-0.001220
510.000000	-0.001096
509.000000	-0.001059
508.000000	-0.001093
507.000000	-0.001149
506.000000	-0.001192
505.000000	-0.001220
504.000000	-0.001279
503.000000	-0.001440
502.000000	-0.001705
501.000000	-0.001967
500.000000	-0.002105
499.000000	-0.002076
498.000000	-0.001896
497.000000	-0.001607
496.000000	-0.001299
495.000000	-0.001096
494.000000	-0.001056
493.000000	-0.001116
492.000000	-0.001162
491.000000	-0.001152
490.000000	-0.001140
489.000000	-0.001196
488.000000	-0.001330
487.000000	-0.001474
486.000000	-0.001524
485.000000	-0.001442
484.000000	-0.001334
483.000000	-0.001342
482.000000	-0.001465
481.000000	-0.001572
480.000000	-0.001613
479.000000	-0.001683
478.000000	-0.001850
477.000000	-0.002034
476.000000	-0.002140
475.000000	-0.002220
474.000000	-0.002357
473.000000	-0.002456
472.000000	-0.002313
471.000000	-0.001949
470.000000	-0.001634
469.000000	-0.001548
468.000000	-0.001645
467.000000	-0.001791
466.000000	-0.001918
465.000000	-0.002015
464.000000	-0.002066
463.000000	-0.002062
462.000000	-0.002041
461.000000	-0.002057
460.000000	-0.002098
459.000000	-0.002077
458.000000	-0.001934
457.000000	-0.001668
456.000000	-0.001321
455.000000	-0.001145
454.000000	-0.001071
453.000000	-0.001198
452.000000	-0.001550
451.000000	-0.002019
450.000000	-0.002412
