PE IR       SUBTECH     SPECTRUM    ASCII       PEDS        4.00        
   -1
P12-Noir034_1.ASC
23/06/09
15:32:54.00
23/06/09
15:45:29.00
uco
Sample 034 By uco Date Friday, June 09 2023
450.000000
#HDR
-1
-1
#GR
cm-1
A
1.0
0.0
4000.000000
-1.000000
3551
8
0.004028
-0.001175
#DATA
4000.000000	-0.000567
3999.000000	-0.000582
3998.000000	-0.000583
3997.000000	-0.000567
3996.000000	-0.000537
3995.000000	-0.000510
3994.000000	-0.000486
3993.000000	-0.000476
3992.000000	-0.000476
3991.000000	-0.000473
3990.000000	-0.000464
3989.000000	-0.000452
3988.000000	-0.000446
3987.000000	-0.000452
3986.000000	-0.000469
3985.000000	-0.000491
3984.000000	-0.000512
3983.000000	-0.000530
3982.000000	-0.000542
3981.000000	-0.000551
3980.000000	-0.000558
3979.000000	-0.000565
3978.000000	-0.000569
3977.000000	-0.000571
3976.000000	-0.000569
3975.000000	-0.000562
3974.000000	-0.000547
3973.000000	-0.000520
3972.000000	-0.000485
3971.000000	-0.000452
3970.000000	-0.000434
3969.000000	-0.000442
3968.000000	-0.000474
3967.000000	-0.000514
3966.000000	-0.000549
3965.000000	-0.000571
3964.000000	-0.000582
3963.000000	-0.000585
3962.000000	-0.000581
3961.000000	-0.000570
3960.000000	-0.000557
3959.000000	-0.000548
3958.000000	-0.000547
3957.000000	-0.000550
3956.000000	-0.000552
3955.000000	-0.000548
3954.000000	-0.000537
3953.000000	-0.000518
3952.000000	-0.000497
3951.000000	-0.000478
3950.000000	-0.000467
3949.000000	-0.000464
3948.000000	-0.000467
3947.000000	-0.000471
3946.000000	-0.000475
3945.000000	-0.000485
3944.000000	-0.000499
3943.000000	-0.000512
3942.000000	-0.000518
3941.000000	-0.000511
3940.000000	-0.000495
3939.000000	-0.000476
3938.000000	-0.000463
3937.000000	-0.000464
3936.000000	-0.000484
3935.000000	-0.000520
3934.000000	-0.000559
3933.000000	-0.000583
3932.000000	-0.000583
3931.000000	-0.000560
3930.000000	-0.000526
3929.000000	-0.000493
3928.000000	-0.000470
3927.000000	-0.000459
3926.000000	-0.000453
3925.000000	-0.000446
3924.000000	-0.000441
3923.000000	-0.000446
3922.000000	-0.000462
3921.000000	-0.000481
3920.000000	-0.000491
3919.000000	-0.000491
3918.000000	-0.000489
3917.000000	-0.000497
3916.000000	-0.000514
3915.000000	-0.000534
3914.000000	-0.000547
3913.000000	-0.000549
3912.000000	-0.000541
3911.000000	-0.000528
3910.000000	-0.000516
3909.000000	-0.000513
3908.000000	-0.000523
3907.000000	-0.000544
3906.000000	-0.000569
3905.000000	-0.000579
3904.000000	-0.000563
3903.000000	-0.000529
3902.000000	-0.000500
3901.000000	-0.000489
3900.000000	-0.000494
3899.000000	-0.000499
3898.000000	-0.000498
3897.000000	-0.000496
3896.000000	-0.000501
3895.000000	-0.000515
3894.000000	-0.000533
3893.000000	-0.000548
3892.000000	-0.000546
3891.000000	-0.000524
3890.000000	-0.000489
3889.000000	-0.000458
3888.000000	-0.000446
3887.000000	-0.000458
3886.000000	-0.000485
3885.000000	-0.000515
3884.000000	-0.000539
3883.000000	-0.000558
3882.000000	-0.000570
3881.000000	-0.000570
3880.000000	-0.000552
3879.000000	-0.000519
3878.000000	-0.000483
3877.000000	-0.000459
3876.000000	-0.000451
3875.000000	-0.000446
3874.000000	-0.000437
3873.000000	-0.000429
3872.000000	-0.000434
3871.000000	-0.000452
3870.000000	-0.000473
3869.000000	-0.000490
3868.000000	-0.000505
3867.000000	-0.000523
3866.000000	-0.000535
3865.000000	-0.000528
3864.000000	-0.000502
3863.000000	-0.000468
3862.000000	-0.000441
3861.000000	-0.000424
3860.000000	-0.000413
3859.000000	-0.000400
3858.000000	-0.000384
3857.000000	-0.000377
3856.000000	-0.000384
3855.000000	-0.000403
3854.000000	-0.000424
3853.000000	-0.000449
3852.000000	-0.000473
3851.000000	-0.000490
3850.000000	-0.000500
3849.000000	-0.000503
3848.000000	-0.000502
3847.000000	-0.000500
3846.000000	-0.000498
3845.000000	-0.000492
3844.000000	-0.000477
3843.000000	-0.000454
3842.000000	-0.000434
3841.000000	-0.000430
3840.000000	-0.000449
3839.000000	-0.000481
3838.000000	-0.000510
3837.000000	-0.000524
3836.000000	-0.000525
3835.000000	-0.000524
3834.000000	-0.000526
3833.000000	-0.000524
3832.000000	-0.000509
3831.000000	-0.000480
3830.000000	-0.000447
3829.000000	-0.000426
3828.000000	-0.000421
3827.000000	-0.000427
3826.000000	-0.000439
3825.000000	-0.000455
3824.000000	-0.000477
3823.000000	-0.000498
3822.000000	-0.000503
3821.000000	-0.000490
3820.000000	-0.000479
3819.000000	-0.000495
3818.000000	-0.000540
3817.000000	-0.000590
3816.000000	-0.000613
3815.000000	-0.000604
3814.000000	-0.000578
3813.000000	-0.000545
3812.000000	-0.000508
3811.000000	-0.000471
3810.000000	-0.000446
3809.000000	-0.000442
3808.000000	-0.000449
3807.000000	-0.000447
3806.000000	-0.000432
3805.000000	-0.000424
3804.000000	-0.000446
3803.000000	-0.000498
3802.000000	-0.000553
3801.000000	-0.000583
3800.000000	-0.000582
3799.000000	-0.000568
3798.000000	-0.000555
3797.000000	-0.000537
3796.000000	-0.000505
3795.000000	-0.000467
3794.000000	-0.000438
3793.000000	-0.000428
3792.000000	-0.000433
3791.000000	-0.000446
3790.000000	-0.000462
3789.000000	-0.000477
3788.000000	-0.000489
3787.000000	-0.000499
3786.000000	-0.000506
3785.000000	-0.000516
3784.000000	-0.000529
3783.000000	-0.000541
3782.000000	-0.000546
3781.000000	-0.000539
3780.000000	-0.000528
3779.000000	-0.000525
3778.000000	-0.000535
3777.000000	-0.000545
3776.000000	-0.000541
3775.000000	-0.000514
3774.000000	-0.000475
3773.000000	-0.000444
3772.000000	-0.000435
3771.000000	-0.000450
3770.000000	-0.000477
3769.000000	-0.000501
3768.000000	-0.000518
3767.000000	-0.000532
3766.000000	-0.000547
3765.000000	-0.000557
3764.000000	-0.000558
3763.000000	-0.000551
3762.000000	-0.000535
3761.000000	-0.000514
3760.000000	-0.000494
3759.000000	-0.000484
3758.000000	-0.000486
3757.000000	-0.000496
3756.000000	-0.000512
3755.000000	-0.000537
3754.000000	-0.000566
3753.000000	-0.000587
3752.000000	-0.000591
3751.000000	-0.000585
3750.000000	-0.000574
3749.000000	-0.000560
3748.000000	-0.000550
3747.000000	-0.000550
3746.000000	-0.000543
3745.000000	-0.000513
3744.000000	-0.000480
3743.000000	-0.000477
3742.000000	-0.000503
3741.000000	-0.000534
3740.000000	-0.000549
3739.000000	-0.000542
3738.000000	-0.000517
3737.000000	-0.000488
3736.000000	-0.000473
3735.000000	-0.000490
3734.000000	-0.000529
3733.000000	-0.000561
3732.000000	-0.000564
3731.000000	-0.000537
3730.000000	-0.000494
3729.000000	-0.000448
3728.000000	-0.000402
3727.000000	-0.000362
3726.000000	-0.000334
3725.000000	-0.000326
3724.000000	-0.000340
3723.000000	-0.000369
3722.000000	-0.000406
3721.000000	-0.000443
3720.000000	-0.000480
3719.000000	-0.000513
3718.000000	-0.000539
3717.000000	-0.000553
3716.000000	-0.000554
3715.000000	-0.000548
3714.000000	-0.000535
3713.000000	-0.000508
3712.000000	-0.000468
3711.000000	-0.000432
3710.000000	-0.000416
3709.000000	-0.000426
3708.000000	-0.000450
3707.000000	-0.000473
3706.000000	-0.000491
3705.000000	-0.000504
3704.000000	-0.000518
3703.000000	-0.000533
3702.000000	-0.000541
3701.000000	-0.000536
3700.000000	-0.000520
3699.000000	-0.000498
3698.000000	-0.000475
3697.000000	-0.000452
3696.000000	-0.000435
3695.000000	-0.000434
3694.000000	-0.000451
3693.000000	-0.000480
3692.000000	-0.000512
3691.000000	-0.000543
3690.000000	-0.000572
3689.000000	-0.000591
3688.000000	-0.000592
3687.000000	-0.000580
3686.000000	-0.000568
3685.000000	-0.000565
3684.000000	-0.000566
3683.000000	-0.000560
3682.000000	-0.000542
3681.000000	-0.000511
3680.000000	-0.000469
3679.000000	-0.000433
3678.000000	-0.000424
3677.000000	-0.000454
3676.000000	-0.000509
3675.000000	-0.000559
3674.000000	-0.000582
3673.000000	-0.000586
3672.000000	-0.000586
3671.000000	-0.000575
3670.000000	-0.000547
3669.000000	-0.000507
3668.000000	-0.000465
3667.000000	-0.000433
3666.000000	-0.000418
3665.000000	-0.000425
3664.000000	-0.000451
3663.000000	-0.000479
3662.000000	-0.000488
3661.000000	-0.000467
3660.000000	-0.000427
3659.000000	-0.000390
3658.000000	-0.000372
3657.000000	-0.000369
3656.000000	-0.000363
3655.000000	-0.000347
3654.000000	-0.000329
3653.000000	-0.000326
3652.000000	-0.000346
3651.000000	-0.000387
3650.000000	-0.000439
3649.000000	-0.000480
3648.000000	-0.000495
3647.000000	-0.000487
3646.000000	-0.000469
3645.000000	-0.000449
3644.000000	-0.000429
3643.000000	-0.000410
3642.000000	-0.000392
3641.000000	-0.000382
3640.000000	-0.000383
3639.000000	-0.000392
3638.000000	-0.000406
3637.000000	-0.000417
3636.000000	-0.000422
3635.000000	-0.000420
3634.000000	-0.000414
3633.000000	-0.000412
3632.000000	-0.000414
3631.000000	-0.000407
3630.000000	-0.000373
3629.000000	-0.000313
3628.000000	-0.000256
3627.000000	-0.000217
3626.000000	-0.000192
3625.000000	-0.000181
3624.000000	-0.000185
3623.000000	-0.000210
3622.000000	-0.000253
3621.000000	-0.000291
3620.000000	-0.000295
3619.000000	-0.000258
3618.000000	-0.000203
3617.000000	-0.000163
3616.000000	-0.000154
3615.000000	-0.000162
3614.000000	-0.000163
3613.000000	-0.000142
3612.000000	-0.000110
3611.000000	-0.000085
3610.000000	-0.000074
3609.000000	-0.000075
3608.000000	-0.000082
3607.000000	-0.000090
3606.000000	-0.000098
3605.000000	-0.000102
3604.000000	-0.000100
3603.000000	-0.000092
3602.000000	-0.000084
3601.000000	-0.000074
3600.000000	-0.000063
3599.000000	-0.000049
3598.000000	-0.000040
3597.000000	-0.000044
3596.000000	-0.000059
3595.000000	-0.000068
3594.000000	-0.000057
3593.000000	-0.000030
3592.000000	-0.000003
3591.000000	0.000010
3590.000000	0.000006
3589.000000	-0.000005
3588.000000	-0.000016
3587.000000	-0.000018
3586.000000	-0.000007
3585.000000	0.000012
3584.000000	0.000030
3583.000000	0.000037
3582.000000	0.000038
3581.000000	0.000042
3580.000000	0.000057
3579.000000	0.000080
3578.000000	0.000097
3577.000000	0.000100
3576.000000	0.000094
3575.000000	0.000095
3574.000000	0.000114
3573.000000	0.000147
3572.000000	0.000176
3571.000000	0.000191
3570.000000	0.000189
3569.000000	0.000179
3568.000000	0.000168
3567.000000	0.000161
3566.000000	0.000159
3565.000000	0.000164
3564.000000	0.000171
3563.000000	0.000177
3562.000000	0.000182
3561.000000	0.000193
3560.000000	0.000214
3559.000000	0.000244
3558.000000	0.000277
3557.000000	0.000307
3556.000000	0.000336
3555.000000	0.000363
3554.000000	0.000384
3553.000000	0.000387
3552.000000	0.000370
3551.000000	0.000348
3550.000000	0.000342
3549.000000	0.000365
3548.000000	0.000405
3547.000000	0.000433
3546.000000	0.000430
3545.000000	0.000404
3544.000000	0.000381
3543.000000	0.000380
3542.000000	0.000394
3541.000000	0.000408
3540.000000	0.000411
3539.000000	0.000404
3538.000000	0.000400
3537.000000	0.000404
3536.000000	0.000416
3535.000000	0.000427
3534.000000	0.000437
3533.000000	0.000449
3532.000000	0.000466
3531.000000	0.000483
3530.000000	0.000493
3529.000000	0.000499
3528.000000	0.000507
3527.000000	0.000521
3526.000000	0.000532
3525.000000	0.000530
3524.000000	0.000518
3523.000000	0.000508
3522.000000	0.000511
3521.000000	0.000526
3520.000000	0.000543
3519.000000	0.000554
3518.000000	0.000556
3517.000000	0.000553
3516.000000	0.000543
3515.000000	0.000529
3514.000000	0.000515
3513.000000	0.000506
3512.000000	0.000508
3511.000000	0.000525
3510.000000	0.000557
3509.000000	0.000598
3508.000000	0.000637
3507.000000	0.000661
3506.000000	0.000664
3505.000000	0.000653
3504.000000	0.000640
3503.000000	0.000632
3502.000000	0.000622
3501.000000	0.000605
3500.000000	0.000579
3499.000000	0.000552
3498.000000	0.000534
3497.000000	0.000528
3496.000000	0.000534
3495.000000	0.000549
3494.000000	0.000571
3493.000000	0.000596
3492.000000	0.000616
3491.000000	0.000627
3490.000000	0.000630
3489.000000	0.000632
3488.000000	0.000640
3487.000000	0.000658
3486.000000	0.000689
3485.000000	0.000731
3484.000000	0.000777
3483.000000	0.000814
3482.000000	0.000830
3481.000000	0.000821
3480.000000	0.000794
3479.000000	0.000762
3478.000000	0.000732
3477.000000	0.000703
3476.000000	0.000677
3475.000000	0.000661
3474.000000	0.000664
3473.000000	0.000688
3472.000000	0.000727
3471.000000	0.000767
3470.000000	0.000794
3469.000000	0.000799
3468.000000	0.000782
3467.000000	0.000754
3466.000000	0.000732
3465.000000	0.000729
3464.000000	0.000742
3463.000000	0.000760
3462.000000	0.000773
3461.000000	0.000777
3460.000000	0.000772
3459.000000	0.000760
3458.000000	0.000743
3457.000000	0.000723
3456.000000	0.000704
3455.000000	0.000692
3454.000000	0.000690
3453.000000	0.000697
3452.000000	0.000706
3451.000000	0.000717
3450.000000	0.000730
3449.000000	0.000750
3448.000000	0.000772
3447.000000	0.000794
3446.000000	0.000812
3445.000000	0.000823
3444.000000	0.000821
3443.000000	0.000806
3442.000000	0.000789
3441.000000	0.000780
3440.000000	0.000785
3439.000000	0.000800
3438.000000	0.000819
3437.000000	0.000838
3436.000000	0.000856
3435.000000	0.000867
3434.000000	0.000869
3433.000000	0.000862
3432.000000	0.000849
3431.000000	0.000839
3430.000000	0.000838
3429.000000	0.000849
3428.000000	0.000863
3427.000000	0.000875
3426.000000	0.000884
3425.000000	0.000896
3424.000000	0.000913
3423.000000	0.000933
3422.000000	0.000948
3421.000000	0.000955
3420.000000	0.000959
3419.000000	0.000967
3418.000000	0.000985
3417.000000	0.001009
3416.000000	0.001026
3415.000000	0.001030
3414.000000	0.001024
3413.000000	0.001019
3412.000000	0.001024
3411.000000	0.001034
3410.000000	0.001041
3409.000000	0.001040
3408.000000	0.001028
3407.000000	0.001011
3406.000000	0.000997
3405.000000	0.000997
3404.000000	0.001012
3403.000000	0.001034
3402.000000	0.001048
3401.000000	0.001048
3400.000000	0.001037
3399.000000	0.001024
3398.000000	0.001017
3397.000000	0.001020
3396.000000	0.001032
3395.000000	0.001050
3394.000000	0.001064
3393.000000	0.001068
3392.000000	0.001057
3391.000000	0.001036
3390.000000	0.001019
3389.000000	0.001020
3388.000000	0.001039
3387.000000	0.001063
3386.000000	0.001072
3385.000000	0.001060
3384.000000	0.001037
3383.000000	0.001023
3382.000000	0.001026
3381.000000	0.001040
3380.000000	0.001052
3379.000000	0.001054
3378.000000	0.001049
3377.000000	0.001045
3376.000000	0.001048
3375.000000	0.001054
3374.000000	0.001057
3373.000000	0.001050
3372.000000	0.001033
3371.000000	0.001014
3370.000000	0.001000
3369.000000	0.001001
3368.000000	0.001012
3367.000000	0.001027
3366.000000	0.001041
3365.000000	0.001056
3364.000000	0.001076
3363.000000	0.001096
3362.000000	0.001106
3361.000000	0.001101
3360.000000	0.001087
3359.000000	0.001081
3358.000000	0.001095
3357.000000	0.001129
3356.000000	0.001166
3355.000000	0.001185
3354.000000	0.001175
3353.000000	0.001143
3352.000000	0.001106
3351.000000	0.001081
3350.000000	0.001074
3349.000000	0.001079
3348.000000	0.001088
3347.000000	0.001091
3346.000000	0.001091
3345.000000	0.001095
3344.000000	0.001105
3343.000000	0.001120
3342.000000	0.001130
3341.000000	0.001128
3340.000000	0.001117
3339.000000	0.001103
3338.000000	0.001092
3337.000000	0.001087
3336.000000	0.001087
3335.000000	0.001091
3334.000000	0.001104
3333.000000	0.001126
3332.000000	0.001152
3331.000000	0.001172
3330.000000	0.001178
3329.000000	0.001173
3328.000000	0.001165
3327.000000	0.001159
3326.000000	0.001150
3325.000000	0.001137
3324.000000	0.001127
3323.000000	0.001128
3322.000000	0.001138
3321.000000	0.001146
3320.000000	0.001140
3319.000000	0.001123
3318.000000	0.001111
3317.000000	0.001117
3316.000000	0.001136
3315.000000	0.001156
3314.000000	0.001165
3313.000000	0.001163
3312.000000	0.001155
3311.000000	0.001146
3310.000000	0.001138
3309.000000	0.001132
3308.000000	0.001126
3307.000000	0.001121
3306.000000	0.001116
3305.000000	0.001117
3304.000000	0.001127
3303.000000	0.001146
3302.000000	0.001168
3301.000000	0.001187
3300.000000	0.001199
3299.000000	0.001199
3298.000000	0.001188
3297.000000	0.001171
3296.000000	0.001158
3295.000000	0.001155
3294.000000	0.001158
3293.000000	0.001162
3292.000000	0.001169
3291.000000	0.001183
3290.000000	0.001203
3289.000000	0.001216
3288.000000	0.001212
3287.000000	0.001195
3286.000000	0.001178
3285.000000	0.001170
3284.000000	0.001168
3283.000000	0.001166
3282.000000	0.001168
3281.000000	0.001179
3280.000000	0.001197
3279.000000	0.001208
3278.000000	0.001199
3277.000000	0.001170
3276.000000	0.001135
3275.000000	0.001110
3274.000000	0.001100
3273.000000	0.001098
3272.000000	0.001092
3271.000000	0.001084
3270.000000	0.001083
3269.000000	0.001100
3268.000000	0.001135
3267.000000	0.001176
3266.000000	0.001209
3265.000000	0.001227
3264.000000	0.001228
3263.000000	0.001218
3262.000000	0.001201
3261.000000	0.001188
3260.000000	0.001182
3259.000000	0.001184
3258.000000	0.001186
3257.000000	0.001187
3256.000000	0.001188
3255.000000	0.001190
3254.000000	0.001190
3253.000000	0.001183
3252.000000	0.001170
3251.000000	0.001156
3250.000000	0.001143
3249.000000	0.001133
3248.000000	0.001126
3247.000000	0.001123
3246.000000	0.001127
3245.000000	0.001141
3244.000000	0.001163
3243.000000	0.001193
3242.000000	0.001219
3241.000000	0.001229
3240.000000	0.001216
3239.000000	0.001190
3238.000000	0.001171
3237.000000	0.001172
3236.000000	0.001189
3235.000000	0.001205
3234.000000	0.001209
3233.000000	0.001204
3232.000000	0.001201
3231.000000	0.001205
3230.000000	0.001211
3229.000000	0.001212
3228.000000	0.001203
3227.000000	0.001189
3226.000000	0.001175
3225.000000	0.001160
3224.000000	0.001141
3223.000000	0.001119
3222.000000	0.001102
3221.000000	0.001097
3220.000000	0.001104
3219.000000	0.001118
3218.000000	0.001130
3217.000000	0.001135
3216.000000	0.001125
3215.000000	0.001102
3214.000000	0.001079
3213.000000	0.001068
3212.000000	0.001073
3211.000000	0.001084
3210.000000	0.001089
3209.000000	0.001085
3208.000000	0.001079
3207.000000	0.001076
3206.000000	0.001080
3205.000000	0.001085
3204.000000	0.001082
3203.000000	0.001069
3202.000000	0.001047
3201.000000	0.001028
3200.000000	0.001020
3199.000000	0.001026
3198.000000	0.001037
3197.000000	0.001044
3196.000000	0.001042
3195.000000	0.001033
3194.000000	0.001025
3193.000000	0.001025
3192.000000	0.001034
3191.000000	0.001050
3190.000000	0.001065
3189.000000	0.001071
3188.000000	0.001059
3187.000000	0.001030
3186.000000	0.000991
3185.000000	0.000960
3184.000000	0.000950
3183.000000	0.000965
3182.000000	0.000993
3181.000000	0.001020
3180.000000	0.001041
3179.000000	0.001058
3178.000000	0.001072
3177.000000	0.001074
3176.000000	0.001054
3175.000000	0.001014
3174.000000	0.000976
3173.000000	0.000961
3172.000000	0.000973
3171.000000	0.000997
3170.000000	0.001018
3169.000000	0.001028
3168.000000	0.001024
3167.000000	0.001007
3166.000000	0.000980
3165.000000	0.000951
3164.000000	0.000929
3163.000000	0.000916
3162.000000	0.000914
3161.000000	0.000923
3160.000000	0.000942
3159.000000	0.000969
3158.000000	0.000998
3157.000000	0.001019
3156.000000	0.001020
3155.000000	0.000990
3154.000000	0.000939
3153.000000	0.000892
3152.000000	0.000865
3151.000000	0.000855
3150.000000	0.000851
3149.000000	0.000846
3148.000000	0.000845
3147.000000	0.000856
3146.000000	0.000880
3145.000000	0.000911
3144.000000	0.000938
3143.000000	0.000948
3142.000000	0.000938
3141.000000	0.000914
3140.000000	0.000895
3139.000000	0.000890
3138.000000	0.000897
3137.000000	0.000904
3136.000000	0.000893
3135.000000	0.000860
3134.000000	0.000818
3133.000000	0.000789
3132.000000	0.000788
3131.000000	0.000810
3130.000000	0.000839
3129.000000	0.000862
3128.000000	0.000875
3127.000000	0.000881
3126.000000	0.000884
3125.000000	0.000887
3124.000000	0.000889
3123.000000	0.000883
3122.000000	0.000866
3121.000000	0.000842
3120.000000	0.000821
3119.000000	0.000808
3118.000000	0.000799
3117.000000	0.000792
3116.000000	0.000790
3115.000000	0.000798
3114.000000	0.000814
3113.000000	0.000829
3112.000000	0.000832
3111.000000	0.000822
3110.000000	0.000807
3109.000000	0.000798
3108.000000	0.000802
3107.000000	0.000814
3106.000000	0.000819
3105.000000	0.000806
3104.000000	0.000782
3103.000000	0.000759
3102.000000	0.000745
3101.000000	0.000739
3100.000000	0.000735
3099.000000	0.000731
3098.000000	0.000733
3097.000000	0.000742
3096.000000	0.000758
3095.000000	0.000774
3094.000000	0.000785
3093.000000	0.000789
3092.000000	0.000785
3091.000000	0.000776
3090.000000	0.000768
3089.000000	0.000768
3088.000000	0.000781
3087.000000	0.000795
3086.000000	0.000797
3085.000000	0.000779
3084.000000	0.000754
3083.000000	0.000738
3082.000000	0.000739
3081.000000	0.000750
3080.000000	0.000757
3079.000000	0.000753
3078.000000	0.000744
3077.000000	0.000738
3076.000000	0.000740
3075.000000	0.000749
3074.000000	0.000756
3073.000000	0.000758
3072.000000	0.000755
3071.000000	0.000757
3070.000000	0.000766
3069.000000	0.000776
3068.000000	0.000778
3067.000000	0.000769
3066.000000	0.000755
3065.000000	0.000745
3064.000000	0.000743
3063.000000	0.000744
3062.000000	0.000740
3061.000000	0.000727
3060.000000	0.000707
3059.000000	0.000690
3058.000000	0.000687
3057.000000	0.000696
3056.000000	0.000708
3055.000000	0.000710
3054.000000	0.000701
3053.000000	0.000693
3052.000000	0.000697
3051.000000	0.000710
3050.000000	0.000718
3049.000000	0.000716
3048.000000	0.000707
3047.000000	0.000697
3046.000000	0.000690
3045.000000	0.000684
3044.000000	0.000679
3043.000000	0.000675
3042.000000	0.000672
3041.000000	0.000667
3040.000000	0.000662
3039.000000	0.000660
3038.000000	0.000663
3037.000000	0.000670
3036.000000	0.000672
3035.000000	0.000662
3034.000000	0.000639
3033.000000	0.000610
3032.000000	0.000585
3031.000000	0.000569
3030.000000	0.000563
3029.000000	0.000563
3028.000000	0.000566
3027.000000	0.000572
3026.000000	0.000583
3025.000000	0.000595
3024.000000	0.000604
3023.000000	0.000605
3022.000000	0.000595
3021.000000	0.000577
3020.000000	0.000562
3019.000000	0.000557
3018.000000	0.000560
3017.000000	0.000561
3016.000000	0.000556
3015.000000	0.000551
3014.000000	0.000555
3013.000000	0.000568
3012.000000	0.000583
3011.000000	0.000592
3010.000000	0.000596
3009.000000	0.000593
3008.000000	0.000583
3007.000000	0.000571
3006.000000	0.000561
3005.000000	0.000560
3004.000000	0.000567
3003.000000	0.000579
3002.000000	0.000590
3001.000000	0.000595
3000.000000	0.000585
2999.000000	0.000562
2998.000000	0.000536
2997.000000	0.000521
2996.000000	0.000523
2995.000000	0.000539
2994.000000	0.000558
2993.000000	0.000576
2992.000000	0.000593
2991.000000	0.000612
2990.000000	0.000635
2989.000000	0.000658
2988.000000	0.000676
2987.000000	0.000686
2986.000000	0.000690
2985.000000	0.000694
2984.000000	0.000705
2983.000000	0.000717
2982.000000	0.000727
2981.000000	0.000734
2980.000000	0.000743
2979.000000	0.000752
2978.000000	0.000758
2977.000000	0.000757
2976.000000	0.000748
2975.000000	0.000740
2974.000000	0.000742
2973.000000	0.000761
2972.000000	0.000797
2971.000000	0.000840
2970.000000	0.000878
2969.000000	0.000909
2968.000000	0.000934
2967.000000	0.000955
2966.000000	0.000969
2965.000000	0.000980
2964.000000	0.000999
2963.000000	0.001029
2962.000000	0.001060
2961.000000	0.001078
2960.000000	0.001081
2959.000000	0.001077
2958.000000	0.001072
2957.000000	0.001070
2956.000000	0.001067
2955.000000	0.001064
2954.000000	0.001061
2953.000000	0.001064
2952.000000	0.001073
2951.000000	0.001085
2950.000000	0.001094
2949.000000	0.001099
2948.000000	0.001104
2947.000000	0.001112
2946.000000	0.001120
2945.000000	0.001123
2944.000000	0.001120
2943.000000	0.001118
2942.000000	0.001120
2941.000000	0.001132
2940.000000	0.001155
2939.000000	0.001188
2938.000000	0.001225
2937.000000	0.001258
2936.000000	0.001279
2935.000000	0.001289
2934.000000	0.001295
2933.000000	0.001306
2932.000000	0.001328
2931.000000	0.001356
2930.000000	0.001376
2929.000000	0.001375
2928.000000	0.001355
2927.000000	0.001328
2926.000000	0.001304
2925.000000	0.001285
2924.000000	0.001272
2923.000000	0.001263
2922.000000	0.001256
2921.000000	0.001242
2920.000000	0.001218
2919.000000	0.001191
2918.000000	0.001170
2917.000000	0.001156
2916.000000	0.001143
2915.000000	0.001123
2914.000000	0.001101
2913.000000	0.001078
2912.000000	0.001054
2911.000000	0.001025
2910.000000	0.000995
2909.000000	0.000972
2908.000000	0.000969
2907.000000	0.000986
2906.000000	0.001009
2905.000000	0.001021
2904.000000	0.001012
2903.000000	0.000987
2902.000000	0.000957
2901.000000	0.000930
2900.000000	0.000908
2899.000000	0.000891
2898.000000	0.000877
2897.000000	0.000869
2896.000000	0.000868
2895.000000	0.000874
2894.000000	0.000881
2893.000000	0.000880
2892.000000	0.000863
2891.000000	0.000832
2890.000000	0.000797
2889.000000	0.000762
2888.000000	0.000733
2887.000000	0.000714
2886.000000	0.000711
2885.000000	0.000724
2884.000000	0.000747
2883.000000	0.000769
2882.000000	0.000788
2881.000000	0.000802
2880.000000	0.000810
2879.000000	0.000811
2878.000000	0.000809
2877.000000	0.000813
2876.000000	0.000829
2875.000000	0.000853
2874.000000	0.000873
2873.000000	0.000880
2872.000000	0.000870
2871.000000	0.000851
2870.000000	0.000831
2869.000000	0.000823
2868.000000	0.000835
2867.000000	0.000861
2866.000000	0.000888
2865.000000	0.000903
2864.000000	0.000904
2863.000000	0.000899
2862.000000	0.000900
2861.000000	0.000913
2860.000000	0.000936
2859.000000	0.000965
2858.000000	0.000985
2857.000000	0.000986
2856.000000	0.000964
2855.000000	0.000929
2854.000000	0.000898
2853.000000	0.000884
2852.000000	0.000885
2851.000000	0.000888
2850.000000	0.000876
2849.000000	0.000840
2848.000000	0.000787
2847.000000	0.000738
2846.000000	0.000706
2845.000000	0.000691
2844.000000	0.000681
2843.000000	0.000667
2842.000000	0.000651
2841.000000	0.000639
2840.000000	0.000630
2839.000000	0.000620
2838.000000	0.000605
2837.000000	0.000587
2836.000000	0.000569
2835.000000	0.000554
2834.000000	0.000541
2833.000000	0.000532
2832.000000	0.000527
2831.000000	0.000528
2830.000000	0.000533
2829.000000	0.000534
2828.000000	0.000526
2827.000000	0.000514
2826.000000	0.000506
2825.000000	0.000506
2824.000000	0.000509
2823.000000	0.000511
2822.000000	0.000509
2821.000000	0.000504
2820.000000	0.000496
2819.000000	0.000486
2818.000000	0.000479
2817.000000	0.000480
2816.000000	0.000482
2815.000000	0.000477
2814.000000	0.000463
2813.000000	0.000447
2812.000000	0.000439
2811.000000	0.000441
2810.000000	0.000450
2809.000000	0.000461
2808.000000	0.000468
2807.000000	0.000467
2806.000000	0.000458
2805.000000	0.000443
2804.000000	0.000430
2803.000000	0.000428
2802.000000	0.000440
2801.000000	0.000462
2800.000000	0.000484
2799.000000	0.000495
2798.000000	0.000491
2797.000000	0.000477
2796.000000	0.000463
2795.000000	0.000455
2794.000000	0.000449
2793.000000	0.000443
2792.000000	0.000438
2791.000000	0.000442
2790.000000	0.000461
2789.000000	0.000485
2788.000000	0.000500
2787.000000	0.000503
2786.000000	0.000497
2785.000000	0.000488
2784.000000	0.000475
2783.000000	0.000457
2782.000000	0.000437
2781.000000	0.000418
2780.000000	0.000405
2779.000000	0.000402
2778.000000	0.000416
2777.000000	0.000442
2776.000000	0.000470
2775.000000	0.000485
2774.000000	0.000485
2773.000000	0.000480
2772.000000	0.000477
2771.000000	0.000477
2770.000000	0.000471
2769.000000	0.000454
2768.000000	0.000435
2767.000000	0.000425
2766.000000	0.000433
2765.000000	0.000452
2764.000000	0.000469
2763.000000	0.000477
2762.000000	0.000476
2761.000000	0.000468
2760.000000	0.000455
2759.000000	0.000440
2758.000000	0.000425
2757.000000	0.000417
2756.000000	0.000419
2755.000000	0.000430
2754.000000	0.000446
2753.000000	0.000462
2752.000000	0.000471
2751.000000	0.000472
2750.000000	0.000463
2749.000000	0.000448
2748.000000	0.000428
2747.000000	0.000409
2746.000000	0.000396
2745.000000	0.000397
2744.000000	0.000409
2743.000000	0.000424
2742.000000	0.000434
2741.000000	0.000439
2740.000000	0.000437
2739.000000	0.000430
2738.000000	0.000418
2737.000000	0.000408
2736.000000	0.000404
2735.000000	0.000406
2734.000000	0.000409
2733.000000	0.000409
2732.000000	0.000408
2731.000000	0.000409
2730.000000	0.000412
2729.000000	0.000412
2728.000000	0.000407
2727.000000	0.000402
2726.000000	0.000398
2725.000000	0.000395
2724.000000	0.000389
2723.000000	0.000381
2722.000000	0.000377
2721.000000	0.000377
2720.000000	0.000378
2719.000000	0.000378
2718.000000	0.000377
2717.000000	0.000377
2716.000000	0.000375
2715.000000	0.000365
2714.000000	0.000349
2713.000000	0.000333
2712.000000	0.000329
2711.000000	0.000340
2710.000000	0.000364
2709.000000	0.000388
2708.000000	0.000402
2707.000000	0.000404
2706.000000	0.000398
2705.000000	0.000390
2704.000000	0.000382
2703.000000	0.000377
2702.000000	0.000379
2701.000000	0.000388
2700.000000	0.000398
2699.000000	0.000404
2698.000000	0.000407
2697.000000	0.000406
2696.000000	0.000399
2695.000000	0.000382
2694.000000	0.000361
2693.000000	0.000344
2692.000000	0.000338
2691.000000	0.000346
2690.000000	0.000362
2689.000000	0.000377
2688.000000	0.000381
2687.000000	0.000376
2686.000000	0.000367
2685.000000	0.000364
2684.000000	0.000365
2683.000000	0.000363
2682.000000	0.000352
2681.000000	0.000336
2680.000000	0.000323
2679.000000	0.000317
2678.000000	0.000319
2677.000000	0.000328
2676.000000	0.000342
2675.000000	0.000356
2674.000000	0.000366
2673.000000	0.000368
2672.000000	0.000363
2671.000000	0.000354
2670.000000	0.000343
2669.000000	0.000332
2668.000000	0.000322
2667.000000	0.000320
2666.000000	0.000334
2665.000000	0.000364
2664.000000	0.000398
2663.000000	0.000426
2662.000000	0.000447
2661.000000	0.000462
2660.000000	0.000468
2659.000000	0.000459
2658.000000	0.000440
2657.000000	0.000422
2656.000000	0.000413
2655.000000	0.000414
2654.000000	0.000426
2653.000000	0.000447
2652.000000	0.000469
2651.000000	0.000481
2650.000000	0.000479
2649.000000	0.000470
2648.000000	0.000461
2647.000000	0.000453
2646.000000	0.000443
2645.000000	0.000428
2644.000000	0.000409
2643.000000	0.000387
2642.000000	0.000364
2641.000000	0.000340
2640.000000	0.000317
2639.000000	0.000300
2638.000000	0.000299
2637.000000	0.000319
2636.000000	0.000353
2635.000000	0.000384
2634.000000	0.000398
2633.000000	0.000402
2632.000000	0.000401
2631.000000	0.000393
2630.000000	0.000376
2629.000000	0.000355
2628.000000	0.000344
2627.000000	0.000347
2626.000000	0.000353
2625.000000	0.000349
2624.000000	0.000333
2623.000000	0.000310
2622.000000	0.000289
2621.000000	0.000275
2620.000000	0.000274
2619.000000	0.000288
2618.000000	0.000307
2617.000000	0.000321
2616.000000	0.000321
2615.000000	0.000313
2614.000000	0.000306
2613.000000	0.000300
2612.000000	0.000284
2611.000000	0.000247
2610.000000	0.000198
2609.000000	0.000157
2608.000000	0.000137
2607.000000	0.000133
2606.000000	0.000134
2605.000000	0.000143
2604.000000	0.000168
2603.000000	0.000208
2602.000000	0.000246
2601.000000	0.000262
2600.000000	0.000247
2599.000000	0.000212
2598.000000	0.000179
2597.000000	0.000166
2596.000000	0.000174
2595.000000	0.000189
2594.000000	0.000200
2593.000000	0.000205
2592.000000	0.000205
2591.000000	0.000197
2590.000000	0.000178
2589.000000	0.000158
2588.000000	0.000150
2587.000000	0.000161
2586.000000	0.000185
2585.000000	0.000207
2584.000000	0.000218
2583.000000	0.000216
2582.000000	0.000208
2581.000000	0.000205
2580.000000	0.000213
2579.000000	0.000227
2578.000000	0.000234
2577.000000	0.000224
2576.000000	0.000199
2575.000000	0.000166
2574.000000	0.000133
2573.000000	0.000104
2572.000000	0.000079
2571.000000	0.000061
2570.000000	0.000050
2569.000000	0.000048
2568.000000	0.000053
2567.000000	0.000068
2566.000000	0.000092
2565.000000	0.000117
2564.000000	0.000130
2563.000000	0.000130
2562.000000	0.000131
2561.000000	0.000144
2560.000000	0.000166
2559.000000	0.000180
2558.000000	0.000177
2557.000000	0.000163
2556.000000	0.000149
2555.000000	0.000141
2554.000000	0.000135
2553.000000	0.000123
2552.000000	0.000099
2551.000000	0.000071
2550.000000	0.000056
2549.000000	0.000061
2548.000000	0.000075
2547.000000	0.000082
2546.000000	0.000077
2545.000000	0.000066
2544.000000	0.000062
2543.000000	0.000073
2542.000000	0.000094
2541.000000	0.000109
2540.000000	0.000104
2539.000000	0.000083
2538.000000	0.000071
2537.000000	0.000082
2536.000000	0.000099
2535.000000	0.000091
2534.000000	0.000055
2533.000000	0.000017
2532.000000	0.000005
2531.000000	0.000025
2530.000000	0.000061
2529.000000	0.000096
2528.000000	0.000110
2527.000000	0.000092
2526.000000	0.000052
2525.000000	0.000017
2524.000000	0.000009
2523.000000	0.000029
2522.000000	0.000061
2521.000000	0.000088
2520.000000	0.000097
2519.000000	0.000091
2518.000000	0.000079
2517.000000	0.000077
2516.000000	0.000090
2515.000000	0.000113
2514.000000	0.000138
2513.000000	0.000156
2512.000000	0.000159
2511.000000	0.000140
2510.000000	0.000104
2509.000000	0.000069
2508.000000	0.000055
2507.000000	0.000072
2506.000000	0.000112
2505.000000	0.000152
2504.000000	0.000161
2503.000000	0.000121
2502.000000	0.000057
2501.000000	0.000011
2500.000000	0.000000
2499.000000	0.000001
2498.000000	-0.000016
2497.000000	-0.000040
2496.000000	-0.000038
2495.000000	0.000001
2494.000000	0.000042
2493.000000	0.000050
2492.000000	0.000023
2491.000000	-0.000006
2490.000000	-0.000006
2489.000000	0.000031
2488.000000	0.000086
2487.000000	0.000132
2486.000000	0.000146
2485.000000	0.000122
2484.000000	0.000074
2483.000000	0.000024
2482.000000	-0.000008
2481.000000	-0.000018
2480.000000	-0.000014
2479.000000	-0.000003
2478.000000	0.000012
2477.000000	0.000031
2476.000000	0.000055
2475.000000	0.000082
2474.000000	0.000113
2473.000000	0.000149
2472.000000	0.000176
2471.000000	0.000179
2470.000000	0.000157
2469.000000	0.000134
2468.000000	0.000133
2467.000000	0.000151
2466.000000	0.000161
2465.000000	0.000145
2464.000000	0.000104
2463.000000	0.000063
2462.000000	0.000041
2461.000000	0.000041
2460.000000	0.000046
2459.000000	0.000040
2458.000000	0.000025
2457.000000	0.000017
2456.000000	0.000022
2455.000000	0.000029
2454.000000	0.000019
2453.000000	-0.000006
2452.000000	-0.000028
2451.000000	-0.000029
2450.000000	-0.000006
2449.000000	0.000029
2448.000000	0.000065
2447.000000	0.000096
2446.000000	0.000122
2445.000000	0.000142
2444.000000	0.000152
2443.000000	0.000146
2442.000000	0.000125
2441.000000	0.000104
2440.000000	0.000093
2439.000000	0.000087
2438.000000	0.000076
2437.000000	0.000058
2436.000000	0.000041
2435.000000	0.000023
2434.000000	-0.000002
2433.000000	-0.000029
2432.000000	-0.000038
2431.000000	-0.000015
2430.000000	0.000032
2429.000000	0.000080
2428.000000	0.000113
2427.000000	0.000129
2426.000000	0.000134
2425.000000	0.000129
2424.000000	0.000112
2423.000000	0.000080
2422.000000	0.000039
2421.000000	0.000004
2420.000000	-0.000014
2419.000000	-0.000015
2418.000000	-0.000014
2417.000000	-0.000023
2416.000000	-0.000046
2415.000000	-0.000071
2414.000000	-0.000081
2413.000000	-0.000062
2412.000000	-0.000017
2411.000000	0.000033
2410.000000	0.000063
2409.000000	0.000059
2408.000000	0.000037
2407.000000	0.000017
2406.000000	0.000012
2405.000000	0.000014
2404.000000	0.000014
2403.000000	0.000013
2402.000000	0.000009
2401.000000	-0.000004
2400.000000	-0.000024
2399.000000	-0.000039
2398.000000	-0.000031
2397.000000	-0.000001
2396.000000	0.000033
2395.000000	0.000053
2394.000000	0.000053
2393.000000	0.000042
2392.000000	0.000033
2391.000000	0.000036
2390.000000	0.000052
2389.000000	0.000070
2388.000000	0.000070
2387.000000	0.000049
2386.000000	0.000017
2385.000000	-0.000007
2384.000000	-0.000021
2383.000000	-0.000033
2382.000000	-0.000048
2381.000000	-0.000063
2380.000000	-0.000078
2379.000000	-0.000087
2378.000000	-0.000081
2377.000000	-0.000049
2376.000000	-0.000003
2375.000000	0.000036
2374.000000	0.000055
2373.000000	0.000059
2372.000000	0.000054
2371.000000	0.000035
2370.000000	-0.000004
2369.000000	-0.000059
2368.000000	-0.000105
2367.000000	-0.000114
2366.000000	-0.000074
2365.000000	0.000003
2364.000000	0.000099
2363.000000	0.000202
2362.000000	0.000301
2361.000000	0.000376
2360.000000	0.000407
2359.000000	0.000388
2358.000000	0.000322
2357.000000	0.000228
2356.000000	0.000148
2355.000000	0.000132
2354.000000	0.000162
2353.000000	0.000167
2352.000000	0.000119
2351.000000	0.000073
2350.000000	0.000080
2349.000000	0.000134
2348.000000	0.000196
2347.000000	0.000223
2346.000000	0.000213
2345.000000	0.000208
2344.000000	0.000240
2343.000000	0.000299
2342.000000	0.000343
2341.000000	0.000344
2340.000000	0.000316
2339.000000	0.000294
2338.000000	0.000289
2337.000000	0.000291
2336.000000	0.000286
2335.000000	0.000271
2334.000000	0.000240
2333.000000	0.000191
2332.000000	0.000146
2331.000000	0.000135
2330.000000	0.000165
2329.000000	0.000216
2328.000000	0.000278
2327.000000	0.000352
2326.000000	0.000425
2325.000000	0.000473
2324.000000	0.000472
2323.000000	0.000442
2322.000000	0.000427
2321.000000	0.000465
2320.000000	0.000548
2319.000000	0.000630
2318.000000	0.000670
2317.000000	0.000657
2316.000000	0.000607
2315.000000	0.000540
2314.000000	0.000476
2313.000000	0.000435
2312.000000	0.000423
2311.000000	0.000429
2310.000000	0.000433
2309.000000	0.000429
2308.000000	0.000416
2307.000000	0.000384
2306.000000	0.000329
2305.000000	0.000266
2304.000000	0.000228
2303.000000	0.000230
2302.000000	0.000257
2301.000000	0.000283
2300.000000	0.000292
2299.000000	0.000279
2298.000000	0.000250
2297.000000	0.000227
2296.000000	0.000231
2295.000000	0.000261
2294.000000	0.000291
2293.000000	0.000302
2292.000000	0.000306
2291.000000	0.000333
2290.000000	0.000394
2289.000000	0.000467
2288.000000	0.000520
2287.000000	0.000536
2286.000000	0.000521
2285.000000	0.000491
2284.000000	0.000451
2283.000000	0.000399
2282.000000	0.000337
2281.000000	0.000284
2280.000000	0.000261
2279.000000	0.000262
2278.000000	0.000268
2277.000000	0.000263
2276.000000	0.000259
2275.000000	0.000268
2274.000000	0.000282
2273.000000	0.000278
2272.000000	0.000258
2271.000000	0.000252
2270.000000	0.000284
2269.000000	0.000344
2268.000000	0.000390
2267.000000	0.000386
2266.000000	0.000337
2265.000000	0.000287
2264.000000	0.000267
2263.000000	0.000258
2262.000000	0.000227
2261.000000	0.000170
2260.000000	0.000127
2259.000000	0.000127
2258.000000	0.000154
2257.000000	0.000163
2256.000000	0.000140
2255.000000	0.000104
2254.000000	0.000083
2253.000000	0.000092
2252.000000	0.000127
2251.000000	0.000166
2250.000000	0.000175
2249.000000	0.000139
2248.000000	0.000079
2247.000000	0.000023
2246.000000	-0.000031
2245.000000	-0.000097
2244.000000	-0.000162
2243.000000	-0.000178
2242.000000	-0.000116
2241.000000	-0.000013
2240.000000	0.000070
2239.000000	0.000102
2238.000000	0.000090
2237.000000	0.000040
2236.000000	-0.000046
2235.000000	-0.000146
2234.000000	-0.000215
2233.000000	-0.000221
2232.000000	-0.000174
2231.000000	-0.000101
2230.000000	-0.000021
2229.000000	0.000060
2228.000000	0.000133
2227.000000	0.000188
2226.000000	0.000215
2225.000000	0.000199
2224.000000	0.000129
2223.000000	0.000009
2222.000000	-0.000122
2221.000000	-0.000220
2220.000000	-0.000255
2219.000000	-0.000225
2218.000000	-0.000136
2217.000000	-0.000009
2216.000000	0.000115
2215.000000	0.000198
2214.000000	0.000225
2213.000000	0.000201
2212.000000	0.000140
2211.000000	0.000065
2210.000000	0.000017
2209.000000	0.000023
2208.000000	0.000060
2207.000000	0.000074
2206.000000	0.000040
2205.000000	-0.000002
2204.000000	0.000001
2203.000000	0.000060
2202.000000	0.000146
2201.000000	0.000225
2200.000000	0.000274
2199.000000	0.000281
2198.000000	0.000245
2197.000000	0.000179
2196.000000	0.000102
2195.000000	0.000030
2194.000000	-0.000009
2193.000000	0.000027
2192.000000	0.000143
2191.000000	0.000276
2190.000000	0.000330
2189.000000	0.000268
2188.000000	0.000139
2187.000000	0.000026
2186.000000	-0.000021
2185.000000	0.000011
2184.000000	0.000121
2183.000000	0.000289
2182.000000	0.000458
2181.000000	0.000539
2180.000000	0.000479
2179.000000	0.000294
2178.000000	0.000049
2177.000000	-0.000207
2176.000000	-0.000454
2175.000000	-0.000673
2174.000000	-0.000802
2173.000000	-0.000779
2172.000000	-0.000608
2171.000000	-0.000373
2170.000000	-0.000172
2169.000000	-0.000055
2168.000000	-0.000021
2167.000000	-0.000045
2166.000000	-0.000099
2165.000000	-0.000142
2164.000000	-0.000120
2163.000000	0.000006
2162.000000	0.000208
2161.000000	0.000362
2160.000000	0.000306
2159.000000	-0.000012
2158.000000	-0.000443
2157.000000	-0.000780
2156.000000	-0.000953
2155.000000	-0.001004
2154.000000	-0.000942
2153.000000	-0.000739
2152.000000	-0.000456
2151.000000	-0.000250
2150.000000	-0.000226
2149.000000	-0.000317
2148.000000	-0.000362
2147.000000	-0.000276
2146.000000	-0.000121
2145.000000	-0.000028
2144.000000	-0.000080
2143.000000	-0.000263
2142.000000	-0.000491
2141.000000	-0.000673
2140.000000	-0.000759
2139.000000	-0.000740
2138.000000	-0.000621
2137.000000	-0.000434
2136.000000	-0.000258
2135.000000	-0.000184
2134.000000	-0.000212
2133.000000	-0.000257
2132.000000	-0.000248
2131.000000	-0.000211
2130.000000	-0.000194
2129.000000	-0.000192
2128.000000	-0.000168
2127.000000	-0.000142
2126.000000	-0.000163
2125.000000	-0.000219
2124.000000	-0.000225
2123.000000	-0.000128
2122.000000	0.000009
2121.000000	0.000080
2120.000000	0.000049
2119.000000	-0.000031
2118.000000	-0.000086
2117.000000	-0.000087
2116.000000	-0.000050
2115.000000	-0.000004
2114.000000	0.000022
2113.000000	0.000020
2112.000000	0.000017
2111.000000	0.000042
2110.000000	0.000094
2109.000000	0.000132
2108.000000	0.000113
2107.000000	0.000031
2106.000000	-0.000078
2105.000000	-0.000155
2104.000000	-0.000157
2103.000000	-0.000091
2102.000000	-0.000011
2101.000000	0.000036
2100.000000	0.000055
2099.000000	0.000090
2098.000000	0.000164
2097.000000	0.000239
2096.000000	0.000263
2095.000000	0.000218
2094.000000	0.000128
2093.000000	0.000028
2092.000000	-0.000055
2091.000000	-0.000101
2090.000000	-0.000100
2089.000000	-0.000063
2088.000000	-0.000021
2087.000000	-0.000002
2086.000000	-0.000011
2085.000000	-0.000031
2084.000000	-0.000041
2083.000000	-0.000035
2082.000000	-0.000021
2081.000000	-0.000013
2080.000000	-0.000012
2079.000000	0.000005
2078.000000	0.000063
2077.000000	0.000156
2076.000000	0.000231
2075.000000	0.000227
2074.000000	0.000134
2073.000000	0.000015
2072.000000	-0.000054
2071.000000	-0.000047
2070.000000	-0.000005
2069.000000	0.000014
2068.000000	-0.000018
2067.000000	-0.000090
2066.000000	-0.000175
2065.000000	-0.000252
2064.000000	-0.000297
2063.000000	-0.000279
2062.000000	-0.000183
2061.000000	-0.000035
2060.000000	0.000108
2059.000000	0.000196
2058.000000	0.000212
2057.000000	0.000157
2056.000000	0.000050
2055.000000	-0.000068
2054.000000	-0.000123
2053.000000	-0.000065
2052.000000	0.000090
2051.000000	0.000253
2050.000000	0.000334
2049.000000	0.000295
2048.000000	0.000176
2047.000000	0.000064
2046.000000	0.000020
2045.000000	0.000027
2044.000000	0.000000
2043.000000	-0.000130
2042.000000	-0.000346
2041.000000	-0.000545
2040.000000	-0.000624
2039.000000	-0.000547
2038.000000	-0.000354
2037.000000	-0.000121
2036.000000	0.000067
2035.000000	0.000166
2034.000000	0.000203
2033.000000	0.000210
2032.000000	0.000165
2031.000000	0.000017
2030.000000	-0.000205
2029.000000	-0.000374
2028.000000	-0.000383
2027.000000	-0.000256
2026.000000	-0.000100
2025.000000	-0.000015
2024.000000	-0.000055
2023.000000	-0.000228
2022.000000	-0.000479
2021.000000	-0.000689
2020.000000	-0.000766
2019.000000	-0.000714
2018.000000	-0.000594
2017.000000	-0.000439
2016.000000	-0.000262
2015.000000	-0.000115
2014.000000	-0.000074
2013.000000	-0.000161
2012.000000	-0.000311
2011.000000	-0.000421
2010.000000	-0.000418
2009.000000	-0.000301
2008.000000	-0.000145
2007.000000	-0.000054
2006.000000	-0.000065
2005.000000	-0.000116
2004.000000	-0.000125
2003.000000	-0.000081
2002.000000	-0.000023
2001.000000	0.000029
2000.000000	0.000096
1999.000000	0.000175
1998.000000	0.000223
1997.000000	0.000205
1996.000000	0.000127
1995.000000	0.000018
1994.000000	-0.000086
1993.000000	-0.000119
1992.000000	-0.000016
1991.000000	0.000192
1990.000000	0.000355
1989.000000	0.000337
1988.000000	0.000141
1987.000000	-0.000117
1986.000000	-0.000331
1985.000000	-0.000455
1984.000000	-0.000476
1983.000000	-0.000387
1982.000000	-0.000214
1981.000000	-0.000047
1980.000000	0.000013
1979.000000	-0.000080
1978.000000	-0.000296
1977.000000	-0.000560
1976.000000	-0.000810
1975.000000	-0.001019
1974.000000	-0.001156
1973.000000	-0.001150
1972.000000	-0.000949
1971.000000	-0.000616
1970.000000	-0.000315
1969.000000	-0.000177
1968.000000	-0.000177
1967.000000	-0.000197
1966.000000	-0.000186
1965.000000	-0.000198
1964.000000	-0.000274
1963.000000	-0.000372
1962.000000	-0.000437
1961.000000	-0.000468
1960.000000	-0.000495
1959.000000	-0.000530
1958.000000	-0.000574
1957.000000	-0.000627
1956.000000	-0.000668
1955.000000	-0.000654
1954.000000	-0.000574
1953.000000	-0.000490
1952.000000	-0.000467
1951.000000	-0.000492
1950.000000	-0.000501
1949.000000	-0.000466
1948.000000	-0.000397
1947.000000	-0.000289
1946.000000	-0.000131
1945.000000	0.000029
1944.000000	0.000100
1943.000000	0.000045
1942.000000	-0.000073
1941.000000	-0.000166
1940.000000	-0.000214
1939.000000	-0.000232
1938.000000	-0.000217
1937.000000	-0.000163
1936.000000	-0.000101
1935.000000	-0.000068
1934.000000	-0.000067
1933.000000	-0.000087
1932.000000	-0.000132
1931.000000	-0.000207
1930.000000	-0.000287
1929.000000	-0.000327
1928.000000	-0.000314
1927.000000	-0.000267
1926.000000	-0.000201
1925.000000	-0.000125
1924.000000	-0.000061
1923.000000	-0.000047
1922.000000	-0.000091
1921.000000	-0.000156
1920.000000	-0.000197
1919.000000	-0.000202
1918.000000	-0.000182
1917.000000	-0.000157
1916.000000	-0.000139
1915.000000	-0.000123
1914.000000	-0.000098
1913.000000	-0.000061
1912.000000	-0.000031
1911.000000	-0.000034
1910.000000	-0.000073
1909.000000	-0.000123
1908.000000	-0.000151
1907.000000	-0.000145
1906.000000	-0.000116
1905.000000	-0.000098
1904.000000	-0.000126
1903.000000	-0.000204
1902.000000	-0.000305
1901.000000	-0.000388
1900.000000	-0.000437
1899.000000	-0.000453
1898.000000	-0.000433
1897.000000	-0.000372
1896.000000	-0.000296
1895.000000	-0.000254
1894.000000	-0.000264
1893.000000	-0.000298
1892.000000	-0.000317
1891.000000	-0.000317
1890.000000	-0.000316
1889.000000	-0.000324
1888.000000	-0.000331
1887.000000	-0.000329
1886.000000	-0.000319
1885.000000	-0.000307
1884.000000	-0.000304
1883.000000	-0.000322
1882.000000	-0.000358
1881.000000	-0.000386
1880.000000	-0.000385
1879.000000	-0.000362
1878.000000	-0.000342
1877.000000	-0.000343
1876.000000	-0.000359
1875.000000	-0.000377
1874.000000	-0.000386
1873.000000	-0.000386
1872.000000	-0.000372
1871.000000	-0.000344
1870.000000	-0.000299
1869.000000	-0.000242
1868.000000	-0.000185
1867.000000	-0.000144
1866.000000	-0.000133
1865.000000	-0.000164
1864.000000	-0.000228
1863.000000	-0.000296
1862.000000	-0.000335
1861.000000	-0.000335
1860.000000	-0.000314
1859.000000	-0.000299
1858.000000	-0.000304
1857.000000	-0.000326
1856.000000	-0.000358
1855.000000	-0.000394
1854.000000	-0.000429
1853.000000	-0.000448
1852.000000	-0.000441
1851.000000	-0.000416
1850.000000	-0.000389
1849.000000	-0.000379
1848.000000	-0.000392
1847.000000	-0.000415
1846.000000	-0.000417
1845.000000	-0.000379
1844.000000	-0.000330
1843.000000	-0.000318
1842.000000	-0.000347
1841.000000	-0.000385
1840.000000	-0.000408
1839.000000	-0.000414
1838.000000	-0.000415
1837.000000	-0.000421
1836.000000	-0.000431
1835.000000	-0.000443
1834.000000	-0.000447
1833.000000	-0.000440
1832.000000	-0.000429
1831.000000	-0.000420
1830.000000	-0.000404
1829.000000	-0.000372
1828.000000	-0.000337
1827.000000	-0.000324
1826.000000	-0.000342
1825.000000	-0.000381
1824.000000	-0.000427
1823.000000	-0.000473
1822.000000	-0.000516
1821.000000	-0.000551
1820.000000	-0.000578
1819.000000	-0.000602
1818.000000	-0.000619
1817.000000	-0.000615
1816.000000	-0.000580
1815.000000	-0.000533
1814.000000	-0.000499
1813.000000	-0.000487
1812.000000	-0.000492
1811.000000	-0.000498
1810.000000	-0.000499
1809.000000	-0.000497
1808.000000	-0.000499
1807.000000	-0.000509
1806.000000	-0.000524
1805.000000	-0.000540
1804.000000	-0.000550
1803.000000	-0.000554
1802.000000	-0.000547
1801.000000	-0.000526
1800.000000	-0.000499
1799.000000	-0.000479
1798.000000	-0.000466
1797.000000	-0.000452
1796.000000	-0.000434
1795.000000	-0.000426
1794.000000	-0.000436
1793.000000	-0.000456
1792.000000	-0.000467
1791.000000	-0.000467
1790.000000	-0.000472
1789.000000	-0.000489
1788.000000	-0.000512
1787.000000	-0.000531
1786.000000	-0.000541
1785.000000	-0.000537
1784.000000	-0.000523
1783.000000	-0.000507
1782.000000	-0.000496
1781.000000	-0.000488
1780.000000	-0.000480
1779.000000	-0.000473
1778.000000	-0.000470
1777.000000	-0.000468
1776.000000	-0.000467
1775.000000	-0.000474
1774.000000	-0.000485
1773.000000	-0.000483
1772.000000	-0.000460
1771.000000	-0.000427
1770.000000	-0.000403
1769.000000	-0.000396
1768.000000	-0.000402
1767.000000	-0.000416
1766.000000	-0.000430
1765.000000	-0.000440
1764.000000	-0.000446
1763.000000	-0.000441
1762.000000	-0.000417
1761.000000	-0.000376
1760.000000	-0.000331
1759.000000	-0.000288
1758.000000	-0.000234
1757.000000	-0.000147
1756.000000	-0.000043
1755.000000	0.000044
1754.000000	0.000106
1753.000000	0.000177
1752.000000	0.000292
1751.000000	0.000441
1750.000000	0.000578
1749.000000	0.000676
1748.000000	0.000744
1747.000000	0.000792
1746.000000	0.000825
1745.000000	0.000855
1744.000000	0.000890
1743.000000	0.000931
1742.000000	0.000972
1741.000000	0.001003
1740.000000	0.001013
1739.000000	0.001001
1738.000000	0.000979
1737.000000	0.000957
1736.000000	0.000926
1735.000000	0.000866
1734.000000	0.000764
1733.000000	0.000655
1732.000000	0.000574
1731.000000	0.000504
1730.000000	0.000428
1729.000000	0.000352
1728.000000	0.000289
1727.000000	0.000241
1726.000000	0.000210
1725.000000	0.000199
1724.000000	0.000196
1723.000000	0.000181
1722.000000	0.000141
1721.000000	0.000083
1720.000000	0.000019
1719.000000	-0.000034
1718.000000	-0.000053
1717.000000	-0.000031
1716.000000	0.000008
1715.000000	0.000033
1714.000000	0.000039
1713.000000	0.000040
1712.000000	0.000044
1711.000000	0.000041
1710.000000	0.000027
1709.000000	0.000016
1708.000000	0.000026
1707.000000	0.000061
1706.000000	0.000119
1705.000000	0.000186
1704.000000	0.000243
1703.000000	0.000274
1702.000000	0.000284
1701.000000	0.000302
1700.000000	0.000338
1699.000000	0.000367
1698.000000	0.000376
1697.000000	0.000382
1696.000000	0.000417
1695.000000	0.000480
1694.000000	0.000538
1693.000000	0.000583
1692.000000	0.000632
1691.000000	0.000706
1690.000000	0.000809
1689.000000	0.000926
1688.000000	0.001033
1687.000000	0.001105
1686.000000	0.001142
1685.000000	0.001165
1684.000000	0.001192
1683.000000	0.001227
1682.000000	0.001273
1681.000000	0.001336
1680.000000	0.001417
1679.000000	0.001503
1678.000000	0.001575
1677.000000	0.001636
1676.000000	0.001703
1675.000000	0.001785
1674.000000	0.001875
1673.000000	0.001964
1672.000000	0.002046
1671.000000	0.002114
1670.000000	0.002172
1669.000000	0.002235
1668.000000	0.002316
1667.000000	0.002397
1666.000000	0.002464
1665.000000	0.002523
1664.000000	0.002581
1663.000000	0.002633
1662.000000	0.002672
1661.000000	0.002715
1660.000000	0.002778
1659.000000	0.002853
1658.000000	0.002925
1657.000000	0.002987
1656.000000	0.003033
1655.000000	0.003066
1654.000000	0.003103
1653.000000	0.003161
1652.000000	0.003241
1651.000000	0.003316
1650.000000	0.003369
1649.000000	0.003421
1648.000000	0.003501
1647.000000	0.003591
1646.000000	0.003642
1645.000000	0.003661
1644.000000	0.003684
1643.000000	0.003720
1642.000000	0.003758
1641.000000	0.003795
1640.000000	0.003832
1639.000000	0.003867
1638.000000	0.003893
1637.000000	0.003910
1636.000000	0.003923
1635.000000	0.003928
1634.000000	0.003930
1633.000000	0.003932
1632.000000	0.003943
1631.000000	0.003962
1630.000000	0.003981
1629.000000	0.003988
1628.000000	0.003983
1627.000000	0.003972
1626.000000	0.003964
1625.000000	0.003962
1624.000000	0.003968
1623.000000	0.003980
1622.000000	0.003995
1621.000000	0.004013
1620.000000	0.004027
1619.000000	0.004028
1618.000000	0.004011
1617.000000	0.003983
1616.000000	0.003953
1615.000000	0.003923
1614.000000	0.003888
1613.000000	0.003849
1612.000000	0.003817
1611.000000	0.003790
1610.000000	0.003756
1609.000000	0.003700
1608.000000	0.003623
1607.000000	0.003538
1606.000000	0.003462
1605.000000	0.003405
1604.000000	0.003357
1603.000000	0.003302
1602.000000	0.003237
1601.000000	0.003166
1600.000000	0.003097
1599.000000	0.003032
1598.000000	0.002971
1597.000000	0.002919
1596.000000	0.002873
1595.000000	0.002827
1594.000000	0.002773
1593.000000	0.002712
1592.000000	0.002647
1591.000000	0.002580
1590.000000	0.002514
1589.000000	0.002458
1588.000000	0.002415
1587.000000	0.002378
1586.000000	0.002339
1585.000000	0.002300
1584.000000	0.002269
1583.000000	0.002247
1582.000000	0.002231
1581.000000	0.002218
1580.000000	0.002207
1579.000000	0.002193
1578.000000	0.002175
1577.000000	0.002148
1576.000000	0.002111
1575.000000	0.002080
1574.000000	0.002067
1573.000000	0.002060
1572.000000	0.002043
1571.000000	0.002014
1570.000000	0.001982
1569.000000	0.001967
1568.000000	0.001976
1567.000000	0.001997
1566.000000	0.002015
1565.000000	0.002027
1564.000000	0.002031
1563.000000	0.002028
1562.000000	0.002022
1561.000000	0.002021
1560.000000	0.002030
1559.000000	0.002012
1558.000000	0.001977
1557.000000	0.001982
1556.000000	0.002000
1555.000000	0.002000
1554.000000	0.001991
1553.000000	0.001980
1552.000000	0.001969
1551.000000	0.001956
1550.000000	0.001946
1549.000000	0.001944
1548.000000	0.001949
1547.000000	0.001954
1546.000000	0.001969
1545.000000	0.002011
1544.000000	0.002077
1543.000000	0.002138
1542.000000	0.002165
1541.000000	0.002137
1540.000000	0.002066
1539.000000	0.002004
1538.000000	0.001982
1537.000000	0.001976
1536.000000	0.001966
1535.000000	0.001948
1534.000000	0.001929
1533.000000	0.001921
1532.000000	0.001927
1531.000000	0.001936
1530.000000	0.001928
1529.000000	0.001896
1528.000000	0.001851
1527.000000	0.001812
1526.000000	0.001790
1525.000000	0.001779
1524.000000	0.001770
1523.000000	0.001760
1522.000000	0.001758
1521.000000	0.001760
1520.000000	0.001757
1519.000000	0.001734
1518.000000	0.001685
1517.000000	0.001624
1516.000000	0.001576
1515.000000	0.001555
1514.000000	0.001543
1513.000000	0.001526
1512.000000	0.001501
1511.000000	0.001481
1510.000000	0.001472
1509.000000	0.001468
1508.000000	0.001456
1507.000000	0.001405
1506.000000	0.001333
1505.000000	0.001298
1504.000000	0.001295
1503.000000	0.001292
1502.000000	0.001285
1501.000000	0.001279
1500.000000	0.001280
1499.000000	0.001282
1498.000000	0.001275
1497.000000	0.001244
1496.000000	0.001199
1495.000000	0.001166
1494.000000	0.001158
1493.000000	0.001165
1492.000000	0.001172
1491.000000	0.001172
1490.000000	0.001168
1489.000000	0.001170
1488.000000	0.001182
1487.000000	0.001193
1486.000000	0.001195
1485.000000	0.001199
1484.000000	0.001210
1483.000000	0.001224
1482.000000	0.001238
1481.000000	0.001256
1480.000000	0.001286
1479.000000	0.001326
1478.000000	0.001370
1477.000000	0.001415
1476.000000	0.001452
1475.000000	0.001466
1474.000000	0.001458
1473.000000	0.001465
1472.000000	0.001521
1471.000000	0.001612
1470.000000	0.001694
1469.000000	0.001748
1468.000000	0.001780
1467.000000	0.001797
1466.000000	0.001803
1465.000000	0.001810
1464.000000	0.001834
1463.000000	0.001886
1462.000000	0.001952
1461.000000	0.002010
1460.000000	0.002050
1459.000000	0.002066
1458.000000	0.002065
1457.000000	0.002053
1456.000000	0.002055
1455.000000	0.002086
1454.000000	0.002131
1453.000000	0.002174
1452.000000	0.002208
1451.000000	0.002234
1450.000000	0.002259
1449.000000	0.002286
1448.000000	0.002308
1447.000000	0.002318
1446.000000	0.002321
1445.000000	0.002331
1444.000000	0.002345
1443.000000	0.002358
1442.000000	0.002363
1441.000000	0.002364
1440.000000	0.002364
1439.000000	0.002365
1438.000000	0.002363
1437.000000	0.002353
1436.000000	0.002337
1435.000000	0.002333
1434.000000	0.002350
1433.000000	0.002376
1432.000000	0.002401
1431.000000	0.002422
1430.000000	0.002442
1429.000000	0.002460
1428.000000	0.002475
1427.000000	0.002488
1426.000000	0.002502
1425.000000	0.002526
1424.000000	0.002553
1423.000000	0.002577
1422.000000	0.002592
1421.000000	0.002595
1420.000000	0.002583
1419.000000	0.002562
1418.000000	0.002554
1417.000000	0.002568
1416.000000	0.002587
1415.000000	0.002596
1414.000000	0.002592
1413.000000	0.002575
1412.000000	0.002547
1411.000000	0.002513
1410.000000	0.002485
1409.000000	0.002467
1408.000000	0.002454
1407.000000	0.002440
1406.000000	0.002427
1405.000000	0.002417
1404.000000	0.002409
1403.000000	0.002408
1402.000000	0.002418
1401.000000	0.002434
1400.000000	0.002445
1399.000000	0.002448
1398.000000	0.002444
1397.000000	0.002435
1396.000000	0.002416
1395.000000	0.002393
1394.000000	0.002380
1393.000000	0.002380
1392.000000	0.002375
1391.000000	0.002354
1390.000000	0.002323
1389.000000	0.002289
1388.000000	0.002255
1387.000000	0.002222
1386.000000	0.002202
1385.000000	0.002203
1384.000000	0.002214
1383.000000	0.002222
1382.000000	0.002224
1381.000000	0.002220
1380.000000	0.002204
1379.000000	0.002179
1378.000000	0.002156
1377.000000	0.002140
1376.000000	0.002124
1375.000000	0.002096
1374.000000	0.002066
1373.000000	0.002055
1372.000000	0.002065
1371.000000	0.002070
1370.000000	0.002051
1369.000000	0.002010
1368.000000	0.001965
1367.000000	0.001932
1366.000000	0.001922
1365.000000	0.001930
1364.000000	0.001943
1363.000000	0.001942
1362.000000	0.001930
1361.000000	0.001920
1360.000000	0.001918
1359.000000	0.001908
1358.000000	0.001880
1357.000000	0.001845
1356.000000	0.001817
1355.000000	0.001800
1354.000000	0.001789
1353.000000	0.001779
1352.000000	0.001768
1351.000000	0.001755
1350.000000	0.001744
1349.000000	0.001745
1348.000000	0.001763
1347.000000	0.001791
1346.000000	0.001815
1345.000000	0.001832
1344.000000	0.001844
1343.000000	0.001854
1342.000000	0.001867
1341.000000	0.001885
1340.000000	0.001914
1339.000000	0.001951
1338.000000	0.001997
1337.000000	0.002056
1336.000000	0.002131
1335.000000	0.002219
1334.000000	0.002312
1333.000000	0.002407
1332.000000	0.002506
1331.000000	0.002610
1330.000000	0.002723
1329.000000	0.002845
1328.000000	0.002972
1327.000000	0.003085
1326.000000	0.003173
1325.000000	0.003239
1324.000000	0.003299
1323.000000	0.003360
1322.000000	0.003415
1321.000000	0.003452
1320.000000	0.003464
1319.000000	0.003439
1318.000000	0.003371
1317.000000	0.003266
1316.000000	0.003139
1315.000000	0.003009
1314.000000	0.002887
1313.000000	0.002772
1312.000000	0.002657
1311.000000	0.002540
1310.000000	0.002426
1309.000000	0.002319
1308.000000	0.002217
1307.000000	0.002115
1306.000000	0.002015
1305.000000	0.001926
1304.000000	0.001853
1303.000000	0.001793
1302.000000	0.001737
1301.000000	0.001682
1300.000000	0.001631
1299.000000	0.001591
1298.000000	0.001567
1297.000000	0.001560
1296.000000	0.001557
1295.000000	0.001542
1294.000000	0.001507
1293.000000	0.001456
1292.000000	0.001407
1291.000000	0.001372
1290.000000	0.001349
1289.000000	0.001327
1288.000000	0.001293
1287.000000	0.001242
1286.000000	0.001182
1285.000000	0.001131
1284.000000	0.001101
1283.000000	0.001091
1282.000000	0.001092
1281.000000	0.001092
1280.000000	0.001084
1279.000000	0.001069
1278.000000	0.001051
1277.000000	0.001038
1276.000000	0.001035
1275.000000	0.001042
1274.000000	0.001053
1273.000000	0.001062
1272.000000	0.001064
1271.000000	0.001059
1270.000000	0.001050
1269.000000	0.001040
1268.000000	0.001030
1267.000000	0.001024
1266.000000	0.001026
1265.000000	0.001040
1264.000000	0.001069
1263.000000	0.001108
1262.000000	0.001147
1261.000000	0.001177
1260.000000	0.001193
1259.000000	0.001196
1258.000000	0.001187
1257.000000	0.001176
1256.000000	0.001173
1255.000000	0.001187
1254.000000	0.001218
1253.000000	0.001251
1252.000000	0.001267
1251.000000	0.001254
1250.000000	0.001221
1249.000000	0.001190
1248.000000	0.001179
1247.000000	0.001196
1246.000000	0.001235
1245.000000	0.001286
1244.000000	0.001331
1243.000000	0.001352
1242.000000	0.001343
1241.000000	0.001316
1240.000000	0.001288
1239.000000	0.001267
1238.000000	0.001258
1237.000000	0.001255
1236.000000	0.001255
1235.000000	0.001252
1234.000000	0.001239
1233.000000	0.001217
1232.000000	0.001189
1231.000000	0.001157
1230.000000	0.001128
1229.000000	0.001104
1228.000000	0.001083
1227.000000	0.001058
1226.000000	0.001026
1225.000000	0.000994
1224.000000	0.000972
1223.000000	0.000958
1222.000000	0.000937
1221.000000	0.000902
1220.000000	0.000858
1219.000000	0.000819
1218.000000	0.000792
1217.000000	0.000773
1216.000000	0.000751
1215.000000	0.000727
1214.000000	0.000708
1213.000000	0.000705
1212.000000	0.000714
1211.000000	0.000716
1210.000000	0.000699
1209.000000	0.000670
1208.000000	0.000650
1207.000000	0.000652
1206.000000	0.000668
1205.000000	0.000678
1204.000000	0.000674
1203.000000	0.000661
1202.000000	0.000649
1201.000000	0.000637
1200.000000	0.000623
1199.000000	0.000606
1198.000000	0.000594
1197.000000	0.000594
1196.000000	0.000613
1195.000000	0.000651
1194.000000	0.000701
1193.000000	0.000751
1192.000000	0.000781
1191.000000	0.000780
1190.000000	0.000749
1189.000000	0.000704
1188.000000	0.000670
1187.000000	0.000668
1186.000000	0.000704
1185.000000	0.000770
1184.000000	0.000848
1183.000000	0.000920
1182.000000	0.000973
1181.000000	0.001004
1180.000000	0.001023
1179.000000	0.001050
1178.000000	0.001104
1177.000000	0.001191
1176.000000	0.001297
1175.000000	0.001399
1174.000000	0.001483
1173.000000	0.001546
1172.000000	0.001597
1171.000000	0.001638
1170.000000	0.001673
1169.000000	0.001707
1168.000000	0.001749
1167.000000	0.001803
1166.000000	0.001861
1165.000000	0.001917
1164.000000	0.001968
1163.000000	0.002012
1162.000000	0.002048
1161.000000	0.002077
1160.000000	0.002105
1159.000000	0.002140
1158.000000	0.002179
1157.000000	0.002213
1156.000000	0.002232
1155.000000	0.002240
1154.000000	0.002247
1153.000000	0.002259
1152.000000	0.002274
1151.000000	0.002283
1150.000000	0.002274
1149.000000	0.002245
1148.000000	0.002206
1147.000000	0.002172
1146.000000	0.002154
1145.000000	0.002149
1144.000000	0.002151
1143.000000	0.002151
1142.000000	0.002146
1141.000000	0.002133
1140.000000	0.002112
1139.000000	0.002086
1138.000000	0.002063
1137.000000	0.002049
1136.000000	0.002045
1135.000000	0.002048
1134.000000	0.002052
1133.000000	0.002046
1132.000000	0.002024
1131.000000	0.001988
1130.000000	0.001953
1129.000000	0.001933
1128.000000	0.001934
1127.000000	0.001946
1126.000000	0.001952
1125.000000	0.001947
1124.000000	0.001937
1123.000000	0.001940
1122.000000	0.001967
1121.000000	0.002018
1120.000000	0.002080
1119.000000	0.002136
1118.000000	0.002176
1117.000000	0.002201
1116.000000	0.002218
1115.000000	0.002238
1114.000000	0.002272
1113.000000	0.002323
1112.000000	0.002387
1111.000000	0.002448
1110.000000	0.002490
1109.000000	0.002502
1108.000000	0.002486
1107.000000	0.002454
1106.000000	0.002427
1105.000000	0.002418
1104.000000	0.002430
1103.000000	0.002448
1102.000000	0.002456
1101.000000	0.002444
1100.000000	0.002412
1099.000000	0.002371
1098.000000	0.002342
1097.000000	0.002335
1096.000000	0.002347
1095.000000	0.002358
1094.000000	0.002359
1093.000000	0.002354
1092.000000	0.002358
1091.000000	0.002377
1090.000000	0.002403
1089.000000	0.002426
1088.000000	0.002437
1087.000000	0.002433
1086.000000	0.002414
1085.000000	0.002382
1084.000000	0.002348
1083.000000	0.002325
1082.000000	0.002327
1081.000000	0.002352
1080.000000	0.002386
1079.000000	0.002405
1078.000000	0.002395
1077.000000	0.002357
1076.000000	0.002308
1075.000000	0.002270
1074.000000	0.002255
1073.000000	0.002258
1072.000000	0.002268
1071.000000	0.002271
1070.000000	0.002252
1069.000000	0.002202
1068.000000	0.002129
1067.000000	0.002067
1066.000000	0.002057
1065.000000	0.002114
1064.000000	0.002212
1063.000000	0.002304
1062.000000	0.002344
1061.000000	0.002316
1060.000000	0.002237
1059.000000	0.002154
1058.000000	0.002107
1057.000000	0.002099
1056.000000	0.002104
1055.000000	0.002103
1054.000000	0.002103
1053.000000	0.002125
1052.000000	0.002166
1051.000000	0.002203
1050.000000	0.002225
1049.000000	0.002237
1048.000000	0.002244
1047.000000	0.002239
1046.000000	0.002223
1045.000000	0.002205
1044.000000	0.002190
1043.000000	0.002179
1042.000000	0.002177
1041.000000	0.002200
1040.000000	0.002251
1039.000000	0.002313
1038.000000	0.002360
1037.000000	0.002379
1036.000000	0.002369
1035.000000	0.002336
1034.000000	0.002289
1033.000000	0.002251
1032.000000	0.002248
1031.000000	0.002294
1030.000000	0.002371
1029.000000	0.002441
1028.000000	0.002468
1027.000000	0.002443
1026.000000	0.002386
1025.000000	0.002329
1024.000000	0.002290
1023.000000	0.002266
1022.000000	0.002252
1021.000000	0.002258
1020.000000	0.002286
1019.000000	0.002325
1018.000000	0.002352
1017.000000	0.002354
1016.000000	0.002342
1015.000000	0.002332
1014.000000	0.002335
1013.000000	0.002345
1012.000000	0.002350
1011.000000	0.002331
1010.000000	0.002277
1009.000000	0.002196
1008.000000	0.002109
1007.000000	0.002042
1006.000000	0.002006
1005.000000	0.001992
1004.000000	0.001977
1003.000000	0.001949
1002.000000	0.001910
1001.000000	0.001872
1000.000000	0.001840
999.000000	0.001809
998.000000	0.001777
997.000000	0.001751
996.000000	0.001731
995.000000	0.001708
994.000000	0.001672
993.000000	0.001631
992.000000	0.001597
991.000000	0.001573
990.000000	0.001553
989.000000	0.001539
988.000000	0.001543
987.000000	0.001563
986.000000	0.001572
985.000000	0.001541
984.000000	0.001466
983.000000	0.001374
982.000000	0.001298
981.000000	0.001262
980.000000	0.001272
979.000000	0.001308
978.000000	0.001342
977.000000	0.001350
976.000000	0.001327
975.000000	0.001284
974.000000	0.001228
973.000000	0.001166
972.000000	0.001107
971.000000	0.001061
970.000000	0.001025
969.000000	0.000983
968.000000	0.000924
967.000000	0.000853
966.000000	0.000790
965.000000	0.000758
964.000000	0.000768
963.000000	0.000806
962.000000	0.000838
961.000000	0.000829
960.000000	0.000780
959.000000	0.000717
958.000000	0.000670
957.000000	0.000639
956.000000	0.000613
955.000000	0.000584
954.000000	0.000557
953.000000	0.000534
952.000000	0.000507
951.000000	0.000468
950.000000	0.000425
949.000000	0.000391
948.000000	0.000370
947.000000	0.000351
946.000000	0.000322
945.000000	0.000290
944.000000	0.000275
943.000000	0.000290
942.000000	0.000318
941.000000	0.000324
940.000000	0.000291
939.000000	0.000235
938.000000	0.000183
937.000000	0.000147
936.000000	0.000116
935.000000	0.000083
934.000000	0.000051
933.000000	0.000027
932.000000	0.000015
931.000000	0.000014
930.000000	0.000028
929.000000	0.000052
928.000000	0.000068
927.000000	0.000060
926.000000	0.000027
925.000000	-0.000017
924.000000	-0.000061
923.000000	-0.000099
922.000000	-0.000120
921.000000	-0.000119
920.000000	-0.000099
919.000000	-0.000079
918.000000	-0.000073
917.000000	-0.000074
916.000000	-0.000076
915.000000	-0.000083
914.000000	-0.000105
913.000000	-0.000142
912.000000	-0.000175
911.000000	-0.000187
910.000000	-0.000187
909.000000	-0.000196
908.000000	-0.000227
907.000000	-0.000274
906.000000	-0.000319
905.000000	-0.000348
904.000000	-0.000358
903.000000	-0.000350
902.000000	-0.000331
901.000000	-0.000314
900.000000	-0.000315
899.000000	-0.000345
898.000000	-0.000394
897.000000	-0.000442
896.000000	-0.000476
895.000000	-0.000494
894.000000	-0.000506
893.000000	-0.000516
892.000000	-0.000529
891.000000	-0.000548
890.000000	-0.000580
889.000000	-0.000618
888.000000	-0.000637
887.000000	-0.000610
886.000000	-0.000530
885.000000	-0.000411
884.000000	-0.000275
883.000000	-0.000144
882.000000	-0.000034
881.000000	0.000059
880.000000	0.000167
879.000000	0.000317
878.000000	0.000496
877.000000	0.000657
876.000000	0.000762
875.000000	0.000813
874.000000	0.000826
873.000000	0.000797
872.000000	0.000711
871.000000	0.000572
870.000000	0.000410
869.000000	0.000255
868.000000	0.000121
867.000000	0.000011
866.000000	-0.000068
865.000000	-0.000111
864.000000	-0.000128
863.000000	-0.000139
862.000000	-0.000161
861.000000	-0.000196
860.000000	-0.000237
859.000000	-0.000272
858.000000	-0.000295
857.000000	-0.000312
856.000000	-0.000332
855.000000	-0.000360
854.000000	-0.000397
853.000000	-0.000447
852.000000	-0.000511
851.000000	-0.000571
850.000000	-0.000598
849.000000	-0.000586
848.000000	-0.000558
847.000000	-0.000546
846.000000	-0.000554
845.000000	-0.000561
844.000000	-0.000548
843.000000	-0.000511
842.000000	-0.000462
841.000000	-0.000425
840.000000	-0.000426
839.000000	-0.000475
838.000000	-0.000546
837.000000	-0.000598
836.000000	-0.000606
835.000000	-0.000573
834.000000	-0.000516
833.000000	-0.000456
832.000000	-0.000412
831.000000	-0.000393
830.000000	-0.000392
829.000000	-0.000398
828.000000	-0.000419
827.000000	-0.000470
826.000000	-0.000541
825.000000	-0.000593
824.000000	-0.000605
823.000000	-0.000595
822.000000	-0.000586
821.000000	-0.000577
820.000000	-0.000562
819.000000	-0.000561
818.000000	-0.000590
817.000000	-0.000626
816.000000	-0.000626
815.000000	-0.000576
814.000000	-0.000503
813.000000	-0.000438
812.000000	-0.000389
811.000000	-0.000355
810.000000	-0.000349
809.000000	-0.000382
808.000000	-0.000442
807.000000	-0.000491
806.000000	-0.000497
805.000000	-0.000453
804.000000	-0.000390
803.000000	-0.000352
802.000000	-0.000353
801.000000	-0.000363
800.000000	-0.000349
799.000000	-0.000323
798.000000	-0.000326
797.000000	-0.000367
796.000000	-0.000392
795.000000	-0.000353
794.000000	-0.000262
793.000000	-0.000182
792.000000	-0.000149
791.000000	-0.000142
790.000000	-0.000112
789.000000	-0.000032
788.000000	0.000074
787.000000	0.000139
786.000000	0.000117
785.000000	0.000035
784.000000	-0.000024
783.000000	-0.000014
782.000000	0.000024
781.000000	0.000025
780.000000	-0.000019
779.000000	-0.000061
778.000000	-0.000075
777.000000	-0.000076
776.000000	-0.000077
775.000000	-0.000063
774.000000	-0.000025
773.000000	0.000006
772.000000	-0.000000
771.000000	-0.000041
770.000000	-0.000090
769.000000	-0.000137
768.000000	-0.000180
767.000000	-0.000208
766.000000	-0.000199
765.000000	-0.000148
764.000000	-0.000086
763.000000	-0.000049
762.000000	-0.000056
761.000000	-0.000090
760.000000	-0.000122
759.000000	-0.000139
758.000000	-0.000151
757.000000	-0.000166
756.000000	-0.000181
755.000000	-0.000191
754.000000	-0.000199
753.000000	-0.000210
752.000000	-0.000213
751.000000	-0.000195
750.000000	-0.000172
749.000000	-0.000167
748.000000	-0.000185
747.000000	-0.000208
746.000000	-0.000233
745.000000	-0.000274
744.000000	-0.000326
743.000000	-0.000360
742.000000	-0.000363
741.000000	-0.000358
740.000000	-0.000380
739.000000	-0.000418
738.000000	-0.000438
737.000000	-0.000425
736.000000	-0.000395
735.000000	-0.000376
734.000000	-0.000378
733.000000	-0.000395
732.000000	-0.000412
731.000000	-0.000421
730.000000	-0.000431
729.000000	-0.000459
728.000000	-0.000507
727.000000	-0.000566
726.000000	-0.000618
725.000000	-0.000648
724.000000	-0.000646
723.000000	-0.000611
722.000000	-0.000554
721.000000	-0.000493
720.000000	-0.000432
719.000000	-0.000368
718.000000	-0.000311
717.000000	-0.000281
716.000000	-0.000270
715.000000	-0.000233
714.000000	-0.000135
713.000000	0.000003
712.000000	0.000118
711.000000	0.000153
710.000000	0.000087
709.000000	-0.000048
708.000000	-0.000185
707.000000	-0.000273
706.000000	-0.000302
705.000000	-0.000297
704.000000	-0.000270
703.000000	-0.000215
702.000000	-0.000150
701.000000	-0.000128
700.000000	-0.000180
699.000000	-0.000275
698.000000	-0.000360
697.000000	-0.000414
696.000000	-0.000457
695.000000	-0.000494
694.000000	-0.000516
693.000000	-0.000525
692.000000	-0.000531
691.000000	-0.000532
690.000000	-0.000524
689.000000	-0.000519
688.000000	-0.000530
687.000000	-0.000551
686.000000	-0.000570
685.000000	-0.000592
684.000000	-0.000607
683.000000	-0.000591
682.000000	-0.000541
681.000000	-0.000489
680.000000	-0.000448
679.000000	-0.000397
678.000000	-0.000342
677.000000	-0.000326
676.000000	-0.000363
675.000000	-0.000403
674.000000	-0.000386
673.000000	-0.000321
672.000000	-0.000296
671.000000	-0.000402
670.000000	-0.000661
669.000000	-0.000998
668.000000	-0.001175
667.000000	-0.000986
666.000000	-0.000663
665.000000	-0.000389
664.000000	-0.000214
663.000000	-0.000176
662.000000	-0.000243
661.000000	-0.000334
660.000000	-0.000394
659.000000	-0.000430
658.000000	-0.000458
657.000000	-0.000456
656.000000	-0.000424
655.000000	-0.000411
654.000000	-0.000435
653.000000	-0.000439
652.000000	-0.000387
651.000000	-0.000317
650.000000	-0.000272
649.000000	-0.000237
648.000000	-0.000199
647.000000	-0.000194
646.000000	-0.000249
645.000000	-0.000332
644.000000	-0.000392
643.000000	-0.000412
642.000000	-0.000407
641.000000	-0.000397
640.000000	-0.000401
639.000000	-0.000424
638.000000	-0.000442
637.000000	-0.000422
636.000000	-0.000382
635.000000	-0.000373
634.000000	-0.000391
633.000000	-0.000382
632.000000	-0.000324
631.000000	-0.000261
630.000000	-0.000231
629.000000	-0.000217
628.000000	-0.000195
627.000000	-0.000179
626.000000	-0.000172
625.000000	-0.000137
624.000000	-0.000052
623.000000	0.000051
622.000000	0.000126
621.000000	0.000158
620.000000	0.000158
619.000000	0.000128
618.000000	0.000067
617.000000	-0.000014
616.000000	-0.000089
615.000000	-0.000128
614.000000	-0.000098
613.000000	0.000001
612.000000	0.000106
611.000000	0.000138
610.000000	0.000095
609.000000	0.000060
608.000000	0.000087
607.000000	0.000145
606.000000	0.000194
605.000000	0.000253
604.000000	0.000358
603.000000	0.000484
602.000000	0.000573
601.000000	0.000599
600.000000	0.000574
599.000000	0.000513
598.000000	0.000436
597.000000	0.000382
596.000000	0.000375
595.000000	0.000393
594.000000	0.000388
593.000000	0.000337
592.000000	0.000248
591.000000	0.000135
590.000000	0.000030
589.000000	-0.000021
588.000000	0.000002
587.000000	0.000053
586.000000	0.000058
585.000000	0.000001
584.000000	-0.000056
583.000000	-0.000050
582.000000	0.000015
581.000000	0.000071
580.000000	0.000052
579.000000	-0.000041
578.000000	-0.000129
577.000000	-0.000130
576.000000	-0.000040
575.000000	0.000069
574.000000	0.000122
573.000000	0.000116
572.000000	0.000082
571.000000	0.000049
570.000000	0.000036
569.000000	0.000053
568.000000	0.000078
567.000000	0.000067
566.000000	0.000004
565.000000	-0.000069
564.000000	-0.000107
563.000000	-0.000109
562.000000	-0.000092
561.000000	-0.000051
560.000000	0.000016
559.000000	0.000070
558.000000	0.000044
557.000000	-0.000084
556.000000	-0.000266
555.000000	-0.000422
554.000000	-0.000504
553.000000	-0.000520
552.000000	-0.000516
551.000000	-0.000526
550.000000	-0.000543
549.000000	-0.000540
548.000000	-0.000508
547.000000	-0.000451
546.000000	-0.000367
545.000000	-0.000280
544.000000	-0.000259
543.000000	-0.000364
542.000000	-0.000556
541.000000	-0.000716
540.000000	-0.000757
539.000000	-0.000696
538.000000	-0.000591
537.000000	-0.000487
536.000000	-0.000423
535.000000	-0.000425
534.000000	-0.000468
533.000000	-0.000470
532.000000	-0.000380
531.000000	-0.000238
530.000000	-0.000117
529.000000	-0.000048
528.000000	-0.000025
527.000000	-0.000038
526.000000	-0.000073
525.000000	-0.000104
524.000000	-0.000137
523.000000	-0.000212
522.000000	-0.000335
521.000000	-0.000454
520.000000	-0.000522
519.000000	-0.000532
518.000000	-0.000469
517.000000	-0.000303
516.000000	-0.000095
515.000000	-0.000002
514.000000	-0.000106
513.000000	-0.000300
512.000000	-0.000411
511.000000	-0.000398
510.000000	-0.000350
509.000000	-0.000313
508.000000	-0.000224
507.000000	-0.000036
506.000000	0.000180
505.000000	0.000317
504.000000	0.000342
503.000000	0.000285
502.000000	0.000169
501.000000	-0.000001
500.000000	-0.000215
499.000000	-0.000419
498.000000	-0.000523
497.000000	-0.000467
496.000000	-0.000316
495.000000	-0.000210
494.000000	-0.000208
493.000000	-0.000217
492.000000	-0.000125
491.000000	0.000028
490.000000	0.000100
489.000000	0.000031
488.000000	-0.000099
487.000000	-0.000176
486.000000	-0.000133
485.000000	0.000020
484.000000	0.000199
483.000000	0.000308
482.000000	0.000349
481.000000	0.000408
480.000000	0.000489
479.000000	0.000423
478.000000	0.000075
477.000000	-0.000425
476.000000	-0.000781
475.000000	-0.000855
474.000000	-0.000754
473.000000	-0.000620
472.000000	-0.000480
471.000000	-0.000336
470.000000	-0.000247
469.000000	-0.000240
468.000000	-0.000265
467.000000	-0.000311
466.000000	-0.000448
465.000000	-0.000703
464.000000	-0.000957
463.000000	-0.001055
462.000000	-0.000981
461.000000	-0.000861
460.000000	-0.000770
459.000000	-0.000667
458.000000	-0.000440
457.000000	-0.000031
456.000000	0.000327
455.000000	0.000636
454.000000	0.000791
453.000000	0.000711
452.000000	0.000368
451.000000	-0.000122
450.000000	-0.000569
