PE IR       SUBTECH     SPECTRUM    ASCII       PEDS        4.00        
   -1
P12-Noir018_1.ASC
23/06/09
11:54:28.00
23/06/09
11:56:02.00
uco
Sample 018 By uco Date Friday, June 09 2023
450.000000
#HDR
-1
-1
#GR
cm-1
A
1.0
0.0
4000.000000
-1.000000
3551
8
0.013942
0.000270
#DATA
4000.000000	0.001037
3999.000000	0.001011
3998.000000	0.001004
3997.000000	0.001015
3996.000000	0.001030
3995.000000	0.001036
3994.000000	0.001029
3993.000000	0.001038
3992.000000	0.001039
3991.000000	0.001054
3990.000000	0.001075
3989.000000	0.001090
3988.000000	0.001096
3987.000000	0.001098
3986.000000	0.001104
3985.000000	0.001116
3984.000000	0.001136
3983.000000	0.001159
3982.000000	0.001181
3981.000000	0.001196
3980.000000	0.001201
3979.000000	0.001192
3978.000000	0.001172
3977.000000	0.001143
3976.000000	0.001114
3975.000000	0.001095
3974.000000	0.001092
3973.000000	0.001102
3972.000000	0.001118
3971.000000	0.001132
3970.000000	0.001140
3969.000000	0.001146
3968.000000	0.001151
3967.000000	0.001156
3966.000000	0.001157
3965.000000	0.001154
3964.000000	0.001147
3963.000000	0.001139
3962.000000	0.001132
3961.000000	0.001125
3960.000000	0.001119
3959.000000	0.001117
3958.000000	0.001122
3957.000000	0.001134
3956.000000	0.001143
3955.000000	0.001144
3954.000000	0.001136
3953.000000	0.001124
3952.000000	0.001115
3951.000000	0.001111
3950.000000	0.001110
3949.000000	0.001110
3948.000000	0.001115
3947.000000	0.001127
3946.000000	0.001142
3945.000000	0.001153
3944.000000	0.001156
3943.000000	0.001152
3942.000000	0.001144
3941.000000	0.001139
3940.000000	0.001137
3939.000000	0.001142
3938.000000	0.001150
3937.000000	0.001156
3936.000000	0.001154
3935.000000	0.001140
3934.000000	0.001122
3933.000000	0.001110
3932.000000	0.001111
3931.000000	0.001124
3930.000000	0.001138
3929.000000	0.001145
3928.000000	0.001145
3927.000000	0.001147
3926.000000	0.001157
3925.000000	0.001174
3924.000000	0.001188
3923.000000	0.001189
3922.000000	0.001176
3921.000000	0.001160
3920.000000	0.001149
3919.000000	0.001149
3918.000000	0.001155
3917.000000	0.001158
3916.000000	0.001156
3915.000000	0.001148
3914.000000	0.001142
3913.000000	0.001142
3912.000000	0.001149
3911.000000	0.001162
3910.000000	0.001175
3909.000000	0.001182
3908.000000	0.001182
3907.000000	0.001173
3906.000000	0.001153
3905.000000	0.001124
3904.000000	0.001100
3903.000000	0.001099
3902.000000	0.001125
3901.000000	0.001166
3900.000000	0.001203
3899.000000	0.001215
3898.000000	0.001199
3897.000000	0.001166
3896.000000	0.001136
3895.000000	0.001121
3894.000000	0.001119
3893.000000	0.001121
3892.000000	0.001119
3891.000000	0.001112
3890.000000	0.001102
3889.000000	0.001095
3888.000000	0.001096
3887.000000	0.001100
3886.000000	0.001097
3885.000000	0.001086
3884.000000	0.001072
3883.000000	0.001067
3882.000000	0.001077
3881.000000	0.001100
3880.000000	0.001126
3879.000000	0.001141
3878.000000	0.001145
3877.000000	0.001152
3876.000000	0.001167
3875.000000	0.001181
3874.000000	0.001180
3873.000000	0.001156
3872.000000	0.001119
3871.000000	0.001086
3870.000000	0.001077
3869.000000	0.001094
3868.000000	0.001119
3867.000000	0.001143
3866.000000	0.001164
3865.000000	0.001180
3864.000000	0.001183
3863.000000	0.001170
3862.000000	0.001146
3861.000000	0.001128
3860.000000	0.001129
3859.000000	0.001150
3858.000000	0.001185
3857.000000	0.001230
3856.000000	0.001273
3855.000000	0.001286
3854.000000	0.001265
3853.000000	0.001258
3852.000000	0.001275
3851.000000	0.001280
3850.000000	0.001269
3849.000000	0.001249
3848.000000	0.001225
3847.000000	0.001200
3846.000000	0.001181
3845.000000	0.001173
3844.000000	0.001175
3843.000000	0.001180
3842.000000	0.001177
3841.000000	0.001159
3840.000000	0.001131
3839.000000	0.001105
3838.000000	0.001095
3837.000000	0.001104
3836.000000	0.001126
3835.000000	0.001151
3834.000000	0.001178
3833.000000	0.001202
3832.000000	0.001218
3831.000000	0.001223
3830.000000	0.001219
3829.000000	0.001213
3828.000000	0.001203
3827.000000	0.001189
3826.000000	0.001173
3825.000000	0.001164
3824.000000	0.001170
3823.000000	0.001185
3822.000000	0.001191
3821.000000	0.001188
3820.000000	0.001176
3819.000000	0.001154
3818.000000	0.001132
3817.000000	0.001125
3816.000000	0.001140
3815.000000	0.001169
3814.000000	0.001191
3813.000000	0.001192
3812.000000	0.001172
3811.000000	0.001142
3810.000000	0.001113
3809.000000	0.001094
3808.000000	0.001086
3807.000000	0.001091
3806.000000	0.001106
3805.000000	0.001126
3804.000000	0.001152
3803.000000	0.001186
3802.000000	0.001218
3801.000000	0.001238
3800.000000	0.001231
3799.000000	0.001200
3798.000000	0.001167
3797.000000	0.001153
3796.000000	0.001163
3795.000000	0.001188
3794.000000	0.001212
3793.000000	0.001225
3792.000000	0.001228
3791.000000	0.001220
3790.000000	0.001204
3789.000000	0.001182
3788.000000	0.001162
3787.000000	0.001147
3786.000000	0.001140
3785.000000	0.001142
3784.000000	0.001145
3783.000000	0.001149
3782.000000	0.001153
3781.000000	0.001162
3780.000000	0.001178
3779.000000	0.001203
3778.000000	0.001230
3777.000000	0.001247
3776.000000	0.001248
3775.000000	0.001239
3774.000000	0.001229
3773.000000	0.001225
3772.000000	0.001228
3771.000000	0.001236
3770.000000	0.001242
3769.000000	0.001241
3768.000000	0.001228
3767.000000	0.001205
3766.000000	0.001179
3765.000000	0.001157
3764.000000	0.001145
3763.000000	0.001142
3762.000000	0.001147
3761.000000	0.001152
3760.000000	0.001152
3759.000000	0.001152
3758.000000	0.001152
3757.000000	0.001149
3756.000000	0.001140
3755.000000	0.001128
3754.000000	0.001110
3753.000000	0.001085
3752.000000	0.001064
3751.000000	0.001074
3750.000000	0.001121
3749.000000	0.001164
3748.000000	0.001187
3747.000000	0.001207
3746.000000	0.001243
3745.000000	0.001280
3744.000000	0.001290
3743.000000	0.001243
3742.000000	0.001152
3741.000000	0.001060
3740.000000	0.000998
3739.000000	0.000975
3738.000000	0.000981
3737.000000	0.000998
3736.000000	0.001017
3735.000000	0.001033
3734.000000	0.001042
3733.000000	0.001048
3732.000000	0.001058
3731.000000	0.001068
3730.000000	0.001072
3729.000000	0.001070
3728.000000	0.001063
3727.000000	0.001055
3726.000000	0.001050
3725.000000	0.001052
3724.000000	0.001059
3723.000000	0.001067
3722.000000	0.001071
3721.000000	0.001075
3720.000000	0.001083
3719.000000	0.001094
3718.000000	0.001105
3717.000000	0.001110
3716.000000	0.001104
3715.000000	0.001090
3714.000000	0.001079
3713.000000	0.001090
3712.000000	0.001137
3711.000000	0.001211
3710.000000	0.001270
3709.000000	0.001287
3708.000000	0.001260
3707.000000	0.001210
3706.000000	0.001152
3705.000000	0.001099
3704.000000	0.001056
3703.000000	0.001031
3702.000000	0.001036
3701.000000	0.001072
3700.000000	0.001120
3699.000000	0.001161
3698.000000	0.001187
3697.000000	0.001198
3696.000000	0.001203
3695.000000	0.001211
3694.000000	0.001229
3693.000000	0.001248
3692.000000	0.001249
3691.000000	0.001219
3690.000000	0.001167
3689.000000	0.001127
3688.000000	0.001115
3687.000000	0.001117
3686.000000	0.001118
3685.000000	0.001120
3684.000000	0.001129
3683.000000	0.001149
3682.000000	0.001170
3681.000000	0.001180
3680.000000	0.001172
3679.000000	0.001153
3678.000000	0.001132
3677.000000	0.001114
3676.000000	0.001116
3675.000000	0.001152
3674.000000	0.001192
3673.000000	0.001212
3672.000000	0.001220
3671.000000	0.001226
3670.000000	0.001240
3669.000000	0.001270
3668.000000	0.001299
3667.000000	0.001317
3666.000000	0.001327
3665.000000	0.001337
3664.000000	0.001350
3663.000000	0.001365
3662.000000	0.001378
3661.000000	0.001384
3660.000000	0.001389
3659.000000	0.001396
3658.000000	0.001406
3657.000000	0.001414
3656.000000	0.001417
3655.000000	0.001417
3654.000000	0.001420
3653.000000	0.001429
3652.000000	0.001434
3651.000000	0.001425
3650.000000	0.001415
3649.000000	0.001427
3648.000000	0.001452
3647.000000	0.001457
3646.000000	0.001443
3645.000000	0.001434
3644.000000	0.001452
3643.000000	0.001494
3642.000000	0.001537
3641.000000	0.001559
3640.000000	0.001559
3639.000000	0.001555
3638.000000	0.001562
3637.000000	0.001582
3636.000000	0.001612
3635.000000	0.001648
3634.000000	0.001689
3633.000000	0.001733
3632.000000	0.001778
3631.000000	0.001821
3630.000000	0.001852
3629.000000	0.001876
3628.000000	0.001892
3627.000000	0.001887
3626.000000	0.001871
3625.000000	0.001864
3624.000000	0.001872
3623.000000	0.001883
3622.000000	0.001881
3621.000000	0.001861
3620.000000	0.001843
3619.000000	0.001856
3618.000000	0.001910
3617.000000	0.001980
3616.000000	0.002048
3615.000000	0.002109
3614.000000	0.002169
3613.000000	0.002230
3612.000000	0.002288
3611.000000	0.002340
3610.000000	0.002391
3609.000000	0.002442
3608.000000	0.002479
3607.000000	0.002485
3606.000000	0.002456
3605.000000	0.002405
3604.000000	0.002354
3603.000000	0.002320
3602.000000	0.002314
3601.000000	0.002338
3600.000000	0.002387
3599.000000	0.002447
3598.000000	0.002510
3597.000000	0.002566
3596.000000	0.002616
3595.000000	0.002661
3594.000000	0.002707
3593.000000	0.002750
3592.000000	0.002781
3591.000000	0.002795
3590.000000	0.002793
3589.000000	0.002787
3588.000000	0.002800
3587.000000	0.002847
3586.000000	0.002906
3585.000000	0.002948
3584.000000	0.002967
3583.000000	0.002977
3582.000000	0.002995
3581.000000	0.003030
3580.000000	0.003080
3579.000000	0.003139
3578.000000	0.003199
3577.000000	0.003253
3576.000000	0.003292
3575.000000	0.003308
3574.000000	0.003304
3573.000000	0.003289
3572.000000	0.003278
3571.000000	0.003277
3570.000000	0.003283
3569.000000	0.003292
3568.000000	0.003306
3567.000000	0.003341
3566.000000	0.003403
3565.000000	0.003475
3564.000000	0.003544
3563.000000	0.003604
3562.000000	0.003655
3561.000000	0.003696
3560.000000	0.003728
3559.000000	0.003752
3558.000000	0.003766
3557.000000	0.003774
3556.000000	0.003782
3555.000000	0.003800
3554.000000	0.003837
3553.000000	0.003895
3552.000000	0.003959
3551.000000	0.004009
3550.000000	0.004034
3549.000000	0.004040
3548.000000	0.004043
3547.000000	0.004055
3546.000000	0.004081
3545.000000	0.004117
3544.000000	0.004164
3543.000000	0.004218
3542.000000	0.004276
3541.000000	0.004327
3540.000000	0.004365
3539.000000	0.004389
3538.000000	0.004404
3537.000000	0.004418
3536.000000	0.004438
3535.000000	0.004466
3534.000000	0.004491
3533.000000	0.004502
3532.000000	0.004499
3531.000000	0.004494
3530.000000	0.004507
3529.000000	0.004544
3528.000000	0.004593
3527.000000	0.004632
3526.000000	0.004642
3525.000000	0.004630
3524.000000	0.004613
3523.000000	0.004612
3522.000000	0.004633
3521.000000	0.004667
3520.000000	0.004703
3519.000000	0.004737
3518.000000	0.004769
3517.000000	0.004795
3516.000000	0.004814
3515.000000	0.004823
3514.000000	0.004822
3513.000000	0.004816
3512.000000	0.004810
3511.000000	0.004814
3510.000000	0.004833
3509.000000	0.004860
3508.000000	0.004878
3507.000000	0.004876
3506.000000	0.004859
3505.000000	0.004841
3504.000000	0.004836
3503.000000	0.004851
3502.000000	0.004881
3501.000000	0.004916
3500.000000	0.004949
3499.000000	0.004977
3498.000000	0.005002
3497.000000	0.005026
3496.000000	0.005047
3495.000000	0.005065
3494.000000	0.005076
3493.000000	0.005085
3492.000000	0.005096
3491.000000	0.005107
3490.000000	0.005113
3489.000000	0.005113
3488.000000	0.005115
3487.000000	0.005131
3486.000000	0.005162
3485.000000	0.005196
3484.000000	0.005224
3483.000000	0.005246
3482.000000	0.005268
3481.000000	0.005291
3480.000000	0.005310
3479.000000	0.005323
3478.000000	0.005335
3477.000000	0.005347
3476.000000	0.005358
3475.000000	0.005364
3474.000000	0.005362
3473.000000	0.005353
3472.000000	0.005338
3471.000000	0.005325
3470.000000	0.005331
3469.000000	0.005363
3468.000000	0.005415
3467.000000	0.005467
3466.000000	0.005500
3465.000000	0.005509
3464.000000	0.005504
3463.000000	0.005502
3462.000000	0.005513
3461.000000	0.005535
3460.000000	0.005557
3459.000000	0.005567
3458.000000	0.005561
3457.000000	0.005544
3456.000000	0.005533
3455.000000	0.005540
3454.000000	0.005565
3453.000000	0.005590
3452.000000	0.005600
3451.000000	0.005596
3450.000000	0.005597
3449.000000	0.005617
3448.000000	0.005655
3447.000000	0.005694
3446.000000	0.005719
3445.000000	0.005728
3444.000000	0.005731
3443.000000	0.005745
3442.000000	0.005776
3441.000000	0.005816
3440.000000	0.005845
3439.000000	0.005851
3438.000000	0.005840
3437.000000	0.005832
3436.000000	0.005844
3435.000000	0.005877
3434.000000	0.005921
3433.000000	0.005959
3432.000000	0.005981
3431.000000	0.005989
3430.000000	0.005992
3429.000000	0.006001
3428.000000	0.006020
3427.000000	0.006049
3426.000000	0.006086
3425.000000	0.006123
3424.000000	0.006150
3423.000000	0.006160
3422.000000	0.006158
3421.000000	0.006154
3420.000000	0.006162
3419.000000	0.006185
3418.000000	0.006222
3417.000000	0.006267
3416.000000	0.006313
3415.000000	0.006359
3414.000000	0.006398
3413.000000	0.006424
3412.000000	0.006433
3411.000000	0.006429
3410.000000	0.006424
3409.000000	0.006435
3408.000000	0.006470
3407.000000	0.006524
3406.000000	0.006582
3405.000000	0.006625
3404.000000	0.006638
3403.000000	0.006627
3402.000000	0.006607
3401.000000	0.006599
3400.000000	0.006613
3399.000000	0.006645
3398.000000	0.006681
3397.000000	0.006705
3396.000000	0.006714
3395.000000	0.006716
3394.000000	0.006723
3393.000000	0.006738
3392.000000	0.006750
3391.000000	0.006752
3390.000000	0.006744
3389.000000	0.006735
3388.000000	0.006733
3387.000000	0.006739
3386.000000	0.006755
3385.000000	0.006774
3384.000000	0.006790
3383.000000	0.006794
3382.000000	0.006787
3381.000000	0.006775
3380.000000	0.006766
3379.000000	0.006761
3378.000000	0.006764
3377.000000	0.006775
3376.000000	0.006794
3375.000000	0.006817
3374.000000	0.006838
3373.000000	0.006851
3372.000000	0.006852
3371.000000	0.006839
3370.000000	0.006820
3369.000000	0.006804
3368.000000	0.006799
3367.000000	0.006807
3366.000000	0.006820
3365.000000	0.006832
3364.000000	0.006833
3363.000000	0.006818
3362.000000	0.006792
3361.000000	0.006768
3360.000000	0.006758
3359.000000	0.006765
3358.000000	0.006783
3357.000000	0.006803
3356.000000	0.006816
3355.000000	0.006816
3354.000000	0.006804
3353.000000	0.006786
3352.000000	0.006775
3351.000000	0.006781
3350.000000	0.006797
3349.000000	0.006815
3348.000000	0.006828
3347.000000	0.006841
3346.000000	0.006856
3345.000000	0.006870
3344.000000	0.006882
3343.000000	0.006891
3342.000000	0.006900
3341.000000	0.006913
3340.000000	0.006930
3339.000000	0.006951
3338.000000	0.006971
3337.000000	0.006985
3336.000000	0.006988
3335.000000	0.006979
3334.000000	0.006964
3333.000000	0.006948
3332.000000	0.006942
3331.000000	0.006948
3330.000000	0.006964
3329.000000	0.006983
3328.000000	0.007001
3327.000000	0.007020
3326.000000	0.007040
3325.000000	0.007058
3324.000000	0.007067
3323.000000	0.007066
3322.000000	0.007058
3321.000000	0.007048
3320.000000	0.007043
3319.000000	0.007048
3318.000000	0.007066
3317.000000	0.007086
3316.000000	0.007098
3315.000000	0.007095
3314.000000	0.007082
3313.000000	0.007062
3312.000000	0.007039
3311.000000	0.007016
3310.000000	0.006997
3309.000000	0.006983
3308.000000	0.006973
3307.000000	0.006962
3306.000000	0.006949
3305.000000	0.006940
3304.000000	0.006939
3303.000000	0.006948
3302.000000	0.006964
3301.000000	0.006981
3300.000000	0.006991
3299.000000	0.006984
3298.000000	0.006963
3297.000000	0.006940
3296.000000	0.006931
3295.000000	0.006943
3294.000000	0.006972
3293.000000	0.006999
3292.000000	0.007013
3291.000000	0.007009
3290.000000	0.006997
3289.000000	0.006987
3288.000000	0.006990
3287.000000	0.007009
3286.000000	0.007037
3285.000000	0.007058
3284.000000	0.007064
3283.000000	0.007054
3282.000000	0.007042
3281.000000	0.007036
3280.000000	0.007036
3279.000000	0.007031
3278.000000	0.007013
3277.000000	0.006980
3276.000000	0.006946
3275.000000	0.006928
3274.000000	0.006929
3273.000000	0.006939
3272.000000	0.006940
3271.000000	0.006929
3270.000000	0.006921
3269.000000	0.006928
3268.000000	0.006949
3267.000000	0.006969
3266.000000	0.006978
3265.000000	0.006973
3264.000000	0.006961
3263.000000	0.006949
3262.000000	0.006947
3261.000000	0.006955
3260.000000	0.006964
3259.000000	0.006966
3258.000000	0.006958
3257.000000	0.006945
3256.000000	0.006932
3255.000000	0.006919
3254.000000	0.006906
3253.000000	0.006897
3252.000000	0.006894
3251.000000	0.006898
3250.000000	0.006901
3249.000000	0.006899
3248.000000	0.006892
3247.000000	0.006886
3246.000000	0.006878
3245.000000	0.006862
3244.000000	0.006837
3243.000000	0.006812
3242.000000	0.006800
3241.000000	0.006806
3240.000000	0.006818
3239.000000	0.006821
3238.000000	0.006814
3237.000000	0.006803
3236.000000	0.006795
3235.000000	0.006785
3234.000000	0.006770
3233.000000	0.006755
3232.000000	0.006746
3231.000000	0.006747
3230.000000	0.006753
3229.000000	0.006759
3228.000000	0.006761
3227.000000	0.006756
3226.000000	0.006747
3225.000000	0.006739
3224.000000	0.006737
3223.000000	0.006738
3222.000000	0.006735
3221.000000	0.006726
3220.000000	0.006716
3219.000000	0.006707
3218.000000	0.006696
3217.000000	0.006677
3216.000000	0.006652
3215.000000	0.006627
3214.000000	0.006606
3213.000000	0.006589
3212.000000	0.006571
3211.000000	0.006553
3210.000000	0.006538
3209.000000	0.006535
3208.000000	0.006545
3207.000000	0.006563
3206.000000	0.006573
3205.000000	0.006569
3204.000000	0.006555
3203.000000	0.006542
3202.000000	0.006533
3201.000000	0.006522
3200.000000	0.006500
3199.000000	0.006471
3198.000000	0.006448
3197.000000	0.006435
3196.000000	0.006432
3195.000000	0.006431
3194.000000	0.006426
3193.000000	0.006412
3192.000000	0.006386
3191.000000	0.006354
3190.000000	0.006328
3189.000000	0.006323
3188.000000	0.006340
3187.000000	0.006363
3186.000000	0.006372
3185.000000	0.006359
3184.000000	0.006332
3183.000000	0.006306
3182.000000	0.006293
3181.000000	0.006290
3180.000000	0.006294
3179.000000	0.006296
3178.000000	0.006290
3177.000000	0.006271
3176.000000	0.006244
3175.000000	0.006226
3174.000000	0.006226
3173.000000	0.006242
3172.000000	0.006259
3171.000000	0.006264
3170.000000	0.006260
3169.000000	0.006252
3168.000000	0.006241
3167.000000	0.006222
3166.000000	0.006190
3165.000000	0.006147
3164.000000	0.006101
3163.000000	0.006064
3162.000000	0.006042
3161.000000	0.006031
3160.000000	0.006017
3159.000000	0.005996
3158.000000	0.005976
3157.000000	0.005971
3156.000000	0.005985
3155.000000	0.006006
3154.000000	0.006016
3153.000000	0.006006
3152.000000	0.005978
3151.000000	0.005946
3150.000000	0.005918
3149.000000	0.005897
3148.000000	0.005882
3147.000000	0.005870
3146.000000	0.005854
3145.000000	0.005834
3144.000000	0.005806
3143.000000	0.005774
3142.000000	0.005745
3141.000000	0.005727
3140.000000	0.005727
3139.000000	0.005742
3138.000000	0.005758
3137.000000	0.005761
3136.000000	0.005741
3135.000000	0.005705
3134.000000	0.005664
3133.000000	0.005633
3132.000000	0.005622
3131.000000	0.005631
3130.000000	0.005650
3129.000000	0.005664
3128.000000	0.005663
3127.000000	0.005649
3126.000000	0.005633
3125.000000	0.005626
3124.000000	0.005625
3123.000000	0.005618
3122.000000	0.005598
3121.000000	0.005569
3120.000000	0.005544
3119.000000	0.005531
3118.000000	0.005531
3117.000000	0.005537
3116.000000	0.005545
3115.000000	0.005550
3114.000000	0.005548
3113.000000	0.005533
3112.000000	0.005508
3111.000000	0.005478
3110.000000	0.005451
3109.000000	0.005430
3108.000000	0.005414
3107.000000	0.005401
3106.000000	0.005391
3105.000000	0.005385
3104.000000	0.005383
3103.000000	0.005378
3102.000000	0.005366
3101.000000	0.005348
3100.000000	0.005328
3099.000000	0.005309
3098.000000	0.005292
3097.000000	0.005277
3096.000000	0.005271
3095.000000	0.005284
3094.000000	0.005314
3093.000000	0.005348
3092.000000	0.005369
3091.000000	0.005366
3090.000000	0.005337
3089.000000	0.005289
3088.000000	0.005237
3087.000000	0.005200
3086.000000	0.005189
3085.000000	0.005196
3084.000000	0.005205
3083.000000	0.005207
3082.000000	0.005201
3081.000000	0.005193
3080.000000	0.005185
3079.000000	0.005178
3078.000000	0.005170
3077.000000	0.005162
3076.000000	0.005157
3075.000000	0.005159
3074.000000	0.005163
3073.000000	0.005163
3072.000000	0.005153
3071.000000	0.005136
3070.000000	0.005120
3069.000000	0.005110
3068.000000	0.005103
3067.000000	0.005098
3066.000000	0.005090
3065.000000	0.005076
3064.000000	0.005057
3063.000000	0.005042
3062.000000	0.005041
3061.000000	0.005050
3060.000000	0.005053
3059.000000	0.005037
3058.000000	0.005008
3057.000000	0.004984
3056.000000	0.004973
3055.000000	0.004972
3054.000000	0.004965
3053.000000	0.004944
3052.000000	0.004915
3051.000000	0.004890
3050.000000	0.004874
3049.000000	0.004863
3048.000000	0.004844
3047.000000	0.004810
3046.000000	0.004767
3045.000000	0.004726
3044.000000	0.004702
3043.000000	0.004699
3042.000000	0.004707
3041.000000	0.004709
3040.000000	0.004698
3039.000000	0.004681
3038.000000	0.004672
3037.000000	0.004674
3036.000000	0.004675
3035.000000	0.004662
3034.000000	0.004634
3033.000000	0.004600
3032.000000	0.004572
3031.000000	0.004559
3030.000000	0.004562
3029.000000	0.004574
3028.000000	0.004582
3027.000000	0.004584
3026.000000	0.004586
3025.000000	0.004595
3024.000000	0.004607
3023.000000	0.004606
3022.000000	0.004586
3021.000000	0.004548
3020.000000	0.004506
3019.000000	0.004473
3018.000000	0.004452
3017.000000	0.004439
3016.000000	0.004425
3015.000000	0.004406
3014.000000	0.004388
3013.000000	0.004379
3012.000000	0.004383
3011.000000	0.004391
3010.000000	0.004396
3009.000000	0.004394
3008.000000	0.004392
3007.000000	0.004392
3006.000000	0.004393
3005.000000	0.004394
3004.000000	0.004399
3003.000000	0.004418
3002.000000	0.004448
3001.000000	0.004475
3000.000000	0.004481
2999.000000	0.004466
2998.000000	0.004448
2997.000000	0.004441
2996.000000	0.004447
2995.000000	0.004460
2994.000000	0.004476
2993.000000	0.004495
2992.000000	0.004512
2991.000000	0.004523
2990.000000	0.004521
2989.000000	0.004507
2988.000000	0.004493
2987.000000	0.004492
2986.000000	0.004508
2985.000000	0.004536
2984.000000	0.004564
2983.000000	0.004590
2982.000000	0.004619
2981.000000	0.004653
2980.000000	0.004684
2979.000000	0.004702
2978.000000	0.004707
2977.000000	0.004714
2976.000000	0.004738
2975.000000	0.004787
2974.000000	0.004854
2973.000000	0.004920
2972.000000	0.004967
2971.000000	0.004988
2970.000000	0.004990
2969.000000	0.004995
2968.000000	0.005019
2967.000000	0.005065
2966.000000	0.005120
2965.000000	0.005163
2964.000000	0.005181
2963.000000	0.005179
2962.000000	0.005176
2961.000000	0.005189
2960.000000	0.005219
2959.000000	0.005255
2958.000000	0.005286
2957.000000	0.005305
2956.000000	0.005316
2955.000000	0.005323
2954.000000	0.005330
2953.000000	0.005333
2952.000000	0.005325
2951.000000	0.005306
2950.000000	0.005281
2949.000000	0.005264
2948.000000	0.005259
2947.000000	0.005265
2946.000000	0.005279
2945.000000	0.005305
2944.000000	0.005354
2943.000000	0.005422
2942.000000	0.005491
2941.000000	0.005540
2940.000000	0.005566
2939.000000	0.005590
2938.000000	0.005634
2937.000000	0.005698
2936.000000	0.005765
2935.000000	0.005816
2934.000000	0.005849
2933.000000	0.005867
2932.000000	0.005876
2931.000000	0.005876
2930.000000	0.005875
2929.000000	0.005880
2928.000000	0.005890
2927.000000	0.005896
2926.000000	0.005889
2925.000000	0.005868
2924.000000	0.005842
2923.000000	0.005817
2922.000000	0.005797
2921.000000	0.005784
2920.000000	0.005774
2919.000000	0.005757
2918.000000	0.005726
2917.000000	0.005681
2916.000000	0.005630
2915.000000	0.005582
2914.000000	0.005544
2913.000000	0.005516
2912.000000	0.005493
2911.000000	0.005468
2910.000000	0.005440
2909.000000	0.005407
2908.000000	0.005374
2907.000000	0.005340
2906.000000	0.005300
2905.000000	0.005250
2904.000000	0.005195
2903.000000	0.005143
2902.000000	0.005100
2901.000000	0.005063
2900.000000	0.005025
2899.000000	0.004984
2898.000000	0.004941
2897.000000	0.004906
2896.000000	0.004885
2895.000000	0.004876
2894.000000	0.004869
2893.000000	0.004852
2892.000000	0.004821
2891.000000	0.004786
2890.000000	0.004760
2889.000000	0.004744
2888.000000	0.004729
2887.000000	0.004708
2886.000000	0.004682
2885.000000	0.004662
2884.000000	0.004653
2883.000000	0.004658
2882.000000	0.004678
2881.000000	0.004716
2880.000000	0.004769
2879.000000	0.004824
2878.000000	0.004861
2877.000000	0.004870
2876.000000	0.004861
2875.000000	0.004848
2874.000000	0.004837
2873.000000	0.004825
2872.000000	0.004806
2871.000000	0.004782
2870.000000	0.004760
2869.000000	0.004743
2868.000000	0.004732
2867.000000	0.004730
2866.000000	0.004735
2865.000000	0.004743
2864.000000	0.004749
2863.000000	0.004755
2862.000000	0.004770
2861.000000	0.004791
2860.000000	0.004812
2859.000000	0.004826
2858.000000	0.004834
2857.000000	0.004836
2856.000000	0.004834
2855.000000	0.004829
2854.000000	0.004821
2853.000000	0.004806
2852.000000	0.004774
2851.000000	0.004722
2850.000000	0.004655
2849.000000	0.004586
2848.000000	0.004525
2847.000000	0.004478
2846.000000	0.004445
2845.000000	0.004421
2844.000000	0.004394
2843.000000	0.004356
2842.000000	0.004307
2841.000000	0.004254
2840.000000	0.004203
2839.000000	0.004160
2838.000000	0.004128
2837.000000	0.004103
2836.000000	0.004076
2835.000000	0.004045
2834.000000	0.004015
2833.000000	0.003997
2832.000000	0.003992
2831.000000	0.003989
2830.000000	0.003978
2829.000000	0.003959
2828.000000	0.003938
2827.000000	0.003921
2826.000000	0.003909
2825.000000	0.003898
2824.000000	0.003884
2823.000000	0.003867
2822.000000	0.003852
2821.000000	0.003841
2820.000000	0.003829
2819.000000	0.003811
2818.000000	0.003792
2817.000000	0.003779
2816.000000	0.003777
2815.000000	0.003782
2814.000000	0.003788
2813.000000	0.003790
2812.000000	0.003783
2811.000000	0.003771
2810.000000	0.003764
2809.000000	0.003769
2808.000000	0.003782
2807.000000	0.003788
2806.000000	0.003778
2805.000000	0.003757
2804.000000	0.003740
2803.000000	0.003731
2802.000000	0.003726
2801.000000	0.003719
2800.000000	0.003707
2799.000000	0.003692
2798.000000	0.003677
2797.000000	0.003667
2796.000000	0.003662
2795.000000	0.003660
2794.000000	0.003656
2793.000000	0.003653
2792.000000	0.003651
2791.000000	0.003648
2790.000000	0.003641
2789.000000	0.003629
2788.000000	0.003618
2787.000000	0.003611
2786.000000	0.003607
2785.000000	0.003606
2784.000000	0.003604
2783.000000	0.003605
2782.000000	0.003607
2781.000000	0.003604
2780.000000	0.003590
2779.000000	0.003569
2778.000000	0.003551
2777.000000	0.003546
2776.000000	0.003556
2775.000000	0.003567
2774.000000	0.003564
2773.000000	0.003544
2772.000000	0.003517
2771.000000	0.003498
2770.000000	0.003494
2769.000000	0.003495
2768.000000	0.003494
2767.000000	0.003495
2766.000000	0.003501
2765.000000	0.003511
2764.000000	0.003517
2763.000000	0.003519
2762.000000	0.003520
2761.000000	0.003524
2760.000000	0.003522
2759.000000	0.003505
2758.000000	0.003477
2757.000000	0.003454
2756.000000	0.003447
2755.000000	0.003456
2754.000000	0.003467
2753.000000	0.003472
2752.000000	0.003470
2751.000000	0.003470
2750.000000	0.003474
2749.000000	0.003476
2748.000000	0.003464
2747.000000	0.003438
2746.000000	0.003411
2745.000000	0.003397
2744.000000	0.003400
2743.000000	0.003408
2742.000000	0.003413
2741.000000	0.003416
2740.000000	0.003423
2739.000000	0.003437
2738.000000	0.003450
2737.000000	0.003456
2736.000000	0.003450
2735.000000	0.003439
2734.000000	0.003429
2733.000000	0.003424
2732.000000	0.003421
2731.000000	0.003412
2730.000000	0.003396
2729.000000	0.003377
2728.000000	0.003362
2727.000000	0.003353
2726.000000	0.003351
2725.000000	0.003355
2724.000000	0.003361
2723.000000	0.003365
2722.000000	0.003365
2721.000000	0.003362
2720.000000	0.003359
2719.000000	0.003358
2718.000000	0.003356
2717.000000	0.003351
2716.000000	0.003339
2715.000000	0.003323
2714.000000	0.003304
2713.000000	0.003287
2712.000000	0.003281
2711.000000	0.003292
2710.000000	0.003318
2709.000000	0.003342
2708.000000	0.003349
2707.000000	0.003337
2706.000000	0.003318
2705.000000	0.003301
2704.000000	0.003288
2703.000000	0.003278
2702.000000	0.003270
2701.000000	0.003267
2700.000000	0.003269
2699.000000	0.003274
2698.000000	0.003276
2697.000000	0.003272
2696.000000	0.003262
2695.000000	0.003250
2694.000000	0.003240
2693.000000	0.003233
2692.000000	0.003226
2691.000000	0.003222
2690.000000	0.003222
2689.000000	0.003229
2688.000000	0.003237
2687.000000	0.003239
2686.000000	0.003236
2685.000000	0.003232
2684.000000	0.003232
2683.000000	0.003236
2682.000000	0.003237
2681.000000	0.003227
2680.000000	0.003205
2679.000000	0.003181
2678.000000	0.003168
2677.000000	0.003168
2676.000000	0.003175
2675.000000	0.003182
2674.000000	0.003186
2673.000000	0.003186
2672.000000	0.003182
2671.000000	0.003176
2670.000000	0.003174
2669.000000	0.003180
2668.000000	0.003189
2667.000000	0.003190
2666.000000	0.003182
2665.000000	0.003171
2664.000000	0.003170
2663.000000	0.003184
2662.000000	0.003206
2661.000000	0.003224
2660.000000	0.003231
2659.000000	0.003227
2658.000000	0.003219
2657.000000	0.003210
2656.000000	0.003202
2655.000000	0.003192
2654.000000	0.003181
2653.000000	0.003171
2652.000000	0.003166
2651.000000	0.003168
2650.000000	0.003175
2649.000000	0.003177
2648.000000	0.003170
2647.000000	0.003158
2646.000000	0.003148
2645.000000	0.003147
2644.000000	0.003153
2643.000000	0.003160
2642.000000	0.003159
2641.000000	0.003140
2640.000000	0.003103
2639.000000	0.003061
2638.000000	0.003032
2637.000000	0.003024
2636.000000	0.003030
2635.000000	0.003040
2634.000000	0.003049
2633.000000	0.003052
2632.000000	0.003047
2631.000000	0.003036
2630.000000	0.003028
2629.000000	0.003019
2628.000000	0.003002
2627.000000	0.002973
2626.000000	0.002943
2625.000000	0.002925
2624.000000	0.002917
2623.000000	0.002911
2622.000000	0.002902
2621.000000	0.002894
2620.000000	0.002880
2619.000000	0.002862
2618.000000	0.002851
2617.000000	0.002868
2616.000000	0.002912
2615.000000	0.002958
2614.000000	0.002978
2613.000000	0.002972
2612.000000	0.002958
2611.000000	0.002950
2610.000000	0.002947
2609.000000	0.002932
2608.000000	0.002898
2607.000000	0.002854
2606.000000	0.002822
2605.000000	0.002816
2604.000000	0.002829
2603.000000	0.002841
2602.000000	0.002833
2601.000000	0.002811
2600.000000	0.002794
2599.000000	0.002801
2598.000000	0.002825
2597.000000	0.002848
2596.000000	0.002858
2595.000000	0.002860
2594.000000	0.002861
2593.000000	0.002858
2592.000000	0.002843
2591.000000	0.002819
2590.000000	0.002801
2589.000000	0.002795
2588.000000	0.002790
2587.000000	0.002777
2586.000000	0.002762
2585.000000	0.002760
2584.000000	0.002771
2583.000000	0.002782
2582.000000	0.002782
2581.000000	0.002772
2580.000000	0.002757
2579.000000	0.002737
2578.000000	0.002711
2577.000000	0.002679
2576.000000	0.002652
2575.000000	0.002635
2574.000000	0.002633
2573.000000	0.002640
2572.000000	0.002648
2571.000000	0.002653
2570.000000	0.002655
2569.000000	0.002662
2568.000000	0.002680
2567.000000	0.002708
2566.000000	0.002739
2565.000000	0.002755
2564.000000	0.002741
2563.000000	0.002698
2562.000000	0.002646
2561.000000	0.002607
2560.000000	0.002586
2559.000000	0.002578
2558.000000	0.002578
2557.000000	0.002587
2556.000000	0.002601
2555.000000	0.002605
2554.000000	0.002589
2553.000000	0.002560
2552.000000	0.002533
2551.000000	0.002523
2550.000000	0.002530
2549.000000	0.002547
2548.000000	0.002563
2547.000000	0.002576
2546.000000	0.002589
2545.000000	0.002598
2544.000000	0.002596
2543.000000	0.002577
2542.000000	0.002549
2541.000000	0.002525
2540.000000	0.002516
2539.000000	0.002524
2538.000000	0.002552
2537.000000	0.002598
2536.000000	0.002645
2535.000000	0.002662
2534.000000	0.002633
2533.000000	0.002574
2532.000000	0.002527
2531.000000	0.002520
2530.000000	0.002544
2529.000000	0.002569
2528.000000	0.002578
2527.000000	0.002580
2526.000000	0.002591
2525.000000	0.002613
2524.000000	0.002632
2523.000000	0.002641
2522.000000	0.002646
2521.000000	0.002654
2520.000000	0.002655
2519.000000	0.002639
2518.000000	0.002605
2517.000000	0.002565
2516.000000	0.002535
2515.000000	0.002526
2514.000000	0.002540
2513.000000	0.002566
2512.000000	0.002579
2511.000000	0.002560
2510.000000	0.002515
2509.000000	0.002468
2508.000000	0.002445
2507.000000	0.002452
2506.000000	0.002475
2505.000000	0.002494
2504.000000	0.002492
2503.000000	0.002475
2502.000000	0.002464
2501.000000	0.002471
2500.000000	0.002491
2499.000000	0.002506
2498.000000	0.002501
2497.000000	0.002478
2496.000000	0.002447
2495.000000	0.002420
2494.000000	0.002401
2493.000000	0.002393
2492.000000	0.002398
2491.000000	0.002416
2490.000000	0.002439
2489.000000	0.002450
2488.000000	0.002438
2487.000000	0.002410
2486.000000	0.002384
2485.000000	0.002376
2484.000000	0.002380
2483.000000	0.002386
2482.000000	0.002383
2481.000000	0.002370
2480.000000	0.002352
2479.000000	0.002347
2478.000000	0.002367
2477.000000	0.002403
2476.000000	0.002425
2475.000000	0.002413
2474.000000	0.002379
2473.000000	0.002353
2472.000000	0.002348
2471.000000	0.002355
2470.000000	0.002360
2469.000000	0.002358
2468.000000	0.002351
2467.000000	0.002341
2466.000000	0.002331
2465.000000	0.002331
2464.000000	0.002349
2463.000000	0.002385
2462.000000	0.002424
2461.000000	0.002446
2460.000000	0.002438
2459.000000	0.002411
2458.000000	0.002393
2457.000000	0.002408
2456.000000	0.002448
2455.000000	0.002490
2454.000000	0.002519
2453.000000	0.002541
2452.000000	0.002565
2451.000000	0.002588
2450.000000	0.002594
2449.000000	0.002564
2448.000000	0.002504
2447.000000	0.002441
2446.000000	0.002404
2445.000000	0.002397
2444.000000	0.002400
2443.000000	0.002396
2442.000000	0.002390
2441.000000	0.002395
2440.000000	0.002411
2439.000000	0.002430
2438.000000	0.002442
2437.000000	0.002448
2436.000000	0.002442
2435.000000	0.002422
2434.000000	0.002388
2433.000000	0.002349
2432.000000	0.002316
2431.000000	0.002304
2430.000000	0.002322
2429.000000	0.002352
2428.000000	0.002358
2427.000000	0.002321
2426.000000	0.002265
2425.000000	0.002236
2424.000000	0.002255
2423.000000	0.002295
2422.000000	0.002321
2421.000000	0.002319
2420.000000	0.002313
2419.000000	0.002332
2418.000000	0.002378
2417.000000	0.002424
2416.000000	0.002435
2415.000000	0.002402
2414.000000	0.002348
2413.000000	0.002297
2412.000000	0.002254
2411.000000	0.002217
2410.000000	0.002194
2409.000000	0.002195
2408.000000	0.002218
2407.000000	0.002245
2406.000000	0.002264
2405.000000	0.002274
2404.000000	0.002275
2403.000000	0.002269
2402.000000	0.002262
2401.000000	0.002261
2400.000000	0.002265
2399.000000	0.002273
2398.000000	0.002279
2397.000000	0.002280
2396.000000	0.002270
2395.000000	0.002248
2394.000000	0.002226
2393.000000	0.002223
2392.000000	0.002237
2391.000000	0.002254
2390.000000	0.002258
2389.000000	0.002248
2388.000000	0.002234
2387.000000	0.002230
2386.000000	0.002242
2385.000000	0.002258
2384.000000	0.002254
2383.000000	0.002209
2382.000000	0.002136
2381.000000	0.002073
2380.000000	0.002056
2379.000000	0.002097
2378.000000	0.002178
2377.000000	0.002259
2376.000000	0.002308
2375.000000	0.002320
2374.000000	0.002309
2373.000000	0.002289
2372.000000	0.002261
2371.000000	0.002233
2370.000000	0.002214
2369.000000	0.002195
2368.000000	0.002162
2367.000000	0.002136
2366.000000	0.002160
2365.000000	0.002246
2364.000000	0.002343
2363.000000	0.002405
2362.000000	0.002428
2361.000000	0.002429
2360.000000	0.002419
2359.000000	0.002401
2358.000000	0.002382
2357.000000	0.002361
2356.000000	0.002356
2355.000000	0.002393
2354.000000	0.002432
2353.000000	0.002398
2352.000000	0.002299
2351.000000	0.002225
2350.000000	0.002240
2349.000000	0.002329
2348.000000	0.002432
2347.000000	0.002480
2346.000000	0.002453
2345.000000	0.002419
2344.000000	0.002445
2343.000000	0.002519
2342.000000	0.002584
2341.000000	0.002614
2340.000000	0.002628
2339.000000	0.002653
2338.000000	0.002673
2337.000000	0.002649
2336.000000	0.002586
2335.000000	0.002527
2334.000000	0.002490
2333.000000	0.002458
2332.000000	0.002424
2331.000000	0.002406
2330.000000	0.002418
2329.000000	0.002452
2328.000000	0.002516
2327.000000	0.002623
2326.000000	0.002754
2325.000000	0.002858
2324.000000	0.002890
2323.000000	0.002861
2322.000000	0.002826
2321.000000	0.002832
2320.000000	0.002879
2319.000000	0.002927
2318.000000	0.002948
2317.000000	0.002940
2316.000000	0.002915
2315.000000	0.002875
2314.000000	0.002824
2313.000000	0.002776
2312.000000	0.002742
2311.000000	0.002720
2310.000000	0.002695
2309.000000	0.002662
2308.000000	0.002629
2307.000000	0.002605
2306.000000	0.002595
2305.000000	0.002594
2304.000000	0.002599
2303.000000	0.002605
2302.000000	0.002605
2301.000000	0.002590
2300.000000	0.002551
2299.000000	0.002494
2298.000000	0.002448
2297.000000	0.002443
2296.000000	0.002479
2295.000000	0.002527
2294.000000	0.002558
2293.000000	0.002569
2292.000000	0.002575
2291.000000	0.002581
2290.000000	0.002581
2289.000000	0.002571
2288.000000	0.002563
2287.000000	0.002574
2286.000000	0.002607
2285.000000	0.002644
2284.000000	0.002653
2283.000000	0.002621
2282.000000	0.002567
2281.000000	0.002520
2280.000000	0.002490
2279.000000	0.002456
2278.000000	0.002401
2277.000000	0.002337
2276.000000	0.002292
2275.000000	0.002280
2274.000000	0.002287
2273.000000	0.002285
2272.000000	0.002256
2271.000000	0.002210
2270.000000	0.002171
2269.000000	0.002163
2268.000000	0.002189
2267.000000	0.002235
2266.000000	0.002280
2265.000000	0.002305
2264.000000	0.002302
2263.000000	0.002292
2262.000000	0.002311
2261.000000	0.002379
2260.000000	0.002471
2259.000000	0.002532
2258.000000	0.002521
2257.000000	0.002431
2256.000000	0.002291
2255.000000	0.002150
2254.000000	0.002056
2253.000000	0.002025
2252.000000	0.002044
2251.000000	0.002092
2250.000000	0.002166
2249.000000	0.002264
2248.000000	0.002359
2247.000000	0.002424
2246.000000	0.002455
2245.000000	0.002459
2244.000000	0.002424
2243.000000	0.002341
2242.000000	0.002245
2241.000000	0.002195
2240.000000	0.002217
2239.000000	0.002289
2238.000000	0.002381
2237.000000	0.002476
2236.000000	0.002549
2235.000000	0.002576
2234.000000	0.002574
2233.000000	0.002576
2232.000000	0.002572
2231.000000	0.002509
2230.000000	0.002373
2229.000000	0.002229
2228.000000	0.002144
2227.000000	0.002102
2226.000000	0.002049
2225.000000	0.001976
2224.000000	0.001936
2223.000000	0.001976
2222.000000	0.002092
2221.000000	0.002231
2220.000000	0.002332
2219.000000	0.002359
2218.000000	0.002330
2217.000000	0.002298
2216.000000	0.002285
2215.000000	0.002259
2214.000000	0.002187
2213.000000	0.002099
2212.000000	0.002049
2211.000000	0.002048
2210.000000	0.002058
2209.000000	0.002056
2208.000000	0.002056
2207.000000	0.002072
2206.000000	0.002081
2205.000000	0.002049
2204.000000	0.001976
2203.000000	0.001891
2202.000000	0.001818
2201.000000	0.001755
2200.000000	0.001692
2199.000000	0.001643
2198.000000	0.001640
2197.000000	0.001704
2196.000000	0.001813
2195.000000	0.001918
2194.000000	0.001976
2193.000000	0.001970
2192.000000	0.001910
2191.000000	0.001819
2190.000000	0.001734
2189.000000	0.001681
2188.000000	0.001676
2187.000000	0.001723
2186.000000	0.001817
2185.000000	0.001924
2184.000000	0.001981
2183.000000	0.001933
2182.000000	0.001791
2181.000000	0.001637
2180.000000	0.001565
2179.000000	0.001612
2178.000000	0.001731
2177.000000	0.001813
2176.000000	0.001766
2175.000000	0.001611
2174.000000	0.001475
2173.000000	0.001459
2172.000000	0.001554
2171.000000	0.001692
2170.000000	0.001841
2169.000000	0.001985
2168.000000	0.002082
2167.000000	0.002116
2166.000000	0.002160
2165.000000	0.002314
2164.000000	0.002555
2163.000000	0.002733
2162.000000	0.002724
2161.000000	0.002505
2160.000000	0.002087
2159.000000	0.001517
2158.000000	0.000978
2157.000000	0.000735
2156.000000	0.000863
2155.000000	0.001166
2154.000000	0.001412
2153.000000	0.001520
2152.000000	0.001531
2151.000000	0.001478
2150.000000	0.001356
2149.000000	0.001195
2148.000000	0.001075
2147.000000	0.001059
2146.000000	0.001132
2145.000000	0.001226
2144.000000	0.001290
2143.000000	0.001348
2142.000000	0.001461
2141.000000	0.001646
2140.000000	0.001835
2139.000000	0.001935
2138.000000	0.001919
2137.000000	0.001827
2136.000000	0.001704
2135.000000	0.001568
2134.000000	0.001447
2133.000000	0.001390
2132.000000	0.001405
2131.000000	0.001441
2130.000000	0.001441
2129.000000	0.001424
2128.000000	0.001451
2127.000000	0.001549
2126.000000	0.001669
2125.000000	0.001740
2124.000000	0.001747
2123.000000	0.001746
2122.000000	0.001794
2121.000000	0.001887
2120.000000	0.001957
2119.000000	0.001951
2118.000000	0.001883
2117.000000	0.001825
2116.000000	0.001843
2115.000000	0.001948
2114.000000	0.002097
2113.000000	0.002216
2112.000000	0.002241
2111.000000	0.002158
2110.000000	0.002020
2109.000000	0.001905
2108.000000	0.001866
2107.000000	0.001901
2106.000000	0.001971
2105.000000	0.002037
2104.000000	0.002080
2103.000000	0.002108
2102.000000	0.002139
2101.000000	0.002183
2100.000000	0.002221
2099.000000	0.002215
2098.000000	0.002139
2097.000000	0.001993
2096.000000	0.001807
2095.000000	0.001630
2094.000000	0.001525
2093.000000	0.001537
2092.000000	0.001663
2091.000000	0.001842
2090.000000	0.001996
2089.000000	0.002078
2088.000000	0.002100
2087.000000	0.002116
2086.000000	0.002160
2085.000000	0.002213
2084.000000	0.002220
2083.000000	0.002158
2082.000000	0.002063
2081.000000	0.002001
2080.000000	0.002005
2079.000000	0.002061
2078.000000	0.002122
2077.000000	0.002126
2076.000000	0.002030
2075.000000	0.001851
2074.000000	0.001660
2073.000000	0.001529
2072.000000	0.001484
2071.000000	0.001513
2070.000000	0.001604
2069.000000	0.001731
2068.000000	0.001839
2067.000000	0.001878
2066.000000	0.001861
2065.000000	0.001838
2064.000000	0.001838
2063.000000	0.001855
2062.000000	0.001877
2061.000000	0.001906
2060.000000	0.001936
2059.000000	0.001956
2058.000000	0.001958
2057.000000	0.001940
2056.000000	0.001894
2055.000000	0.001832
2054.000000	0.001812
2053.000000	0.001890
2052.000000	0.002057
2051.000000	0.002250
2050.000000	0.002400
2049.000000	0.002448
2048.000000	0.002332
2047.000000	0.002052
2046.000000	0.001728
2045.000000	0.001534
2044.000000	0.001532
2043.000000	0.001615
2042.000000	0.001636
2041.000000	0.001550
2040.000000	0.001436
2039.000000	0.001401
2038.000000	0.001501
2037.000000	0.001710
2036.000000	0.001917
2035.000000	0.001995
2034.000000	0.001873
2033.000000	0.001558
2032.000000	0.001129
2031.000000	0.000737
2030.000000	0.000550
2029.000000	0.000630
2028.000000	0.000867
2027.000000	0.001086
2026.000000	0.001208
2025.000000	0.001248
2024.000000	0.001227
2023.000000	0.001178
2022.000000	0.001188
2021.000000	0.001322
2020.000000	0.001512
2019.000000	0.001624
2018.000000	0.001621
2017.000000	0.001569
2016.000000	0.001506
2015.000000	0.001401
2014.000000	0.001255
2013.000000	0.001137
2012.000000	0.001093
2011.000000	0.001111
2010.000000	0.001166
2009.000000	0.001234
2008.000000	0.001273
2007.000000	0.001259
2006.000000	0.001259
2005.000000	0.001356
2004.000000	0.001509
2003.000000	0.001594
2002.000000	0.001569
2001.000000	0.001512
2000.000000	0.001483
1999.000000	0.001447
1998.000000	0.001347
1997.000000	0.001207
1996.000000	0.001121
1995.000000	0.001175
1994.000000	0.001381
1993.000000	0.001652
1992.000000	0.001829
1991.000000	0.001819
1990.000000	0.001692
1989.000000	0.001579
1988.000000	0.001521
1987.000000	0.001479
1986.000000	0.001468
1985.000000	0.001563
1984.000000	0.001758
1983.000000	0.001929
1982.000000	0.001966
1981.000000	0.001874
1980.000000	0.001698
1979.000000	0.001448
1978.000000	0.001157
1977.000000	0.000940
1976.000000	0.000885
1975.000000	0.000949
1974.000000	0.001039
1973.000000	0.001100
1972.000000	0.001106
1971.000000	0.001036
1970.000000	0.000924
1969.000000	0.000875
1968.000000	0.000952
1967.000000	0.001102
1966.000000	0.001239
1965.000000	0.001350
1964.000000	0.001467
1963.000000	0.001588
1962.000000	0.001662
1961.000000	0.001629
1960.000000	0.001465
1959.000000	0.001211
1958.000000	0.000972
1957.000000	0.000848
1956.000000	0.000844
1955.000000	0.000883
1954.000000	0.000913
1953.000000	0.000967
1952.000000	0.001099
1951.000000	0.001303
1950.000000	0.001510
1949.000000	0.001640
1948.000000	0.001646
1947.000000	0.001548
1946.000000	0.001430
1945.000000	0.001366
1944.000000	0.001356
1943.000000	0.001345
1942.000000	0.001315
1941.000000	0.001304
1940.000000	0.001333
1939.000000	0.001386
1938.000000	0.001447
1937.000000	0.001521
1936.000000	0.001591
1935.000000	0.001619
1934.000000	0.001591
1933.000000	0.001534
1932.000000	0.001470
1931.000000	0.001400
1930.000000	0.001347
1929.000000	0.001368
1928.000000	0.001477
1927.000000	0.001614
1926.000000	0.001703
1925.000000	0.001723
1924.000000	0.001693
1923.000000	0.001623
1922.000000	0.001523
1921.000000	0.001424
1920.000000	0.001362
1919.000000	0.001344
1918.000000	0.001351
1917.000000	0.001362
1916.000000	0.001363
1915.000000	0.001351
1914.000000	0.001342
1913.000000	0.001362
1912.000000	0.001419
1911.000000	0.001478
1910.000000	0.001493
1909.000000	0.001446
1908.000000	0.001370
1907.000000	0.001310
1906.000000	0.001295
1905.000000	0.001324
1904.000000	0.001367
1903.000000	0.001396
1902.000000	0.001410
1901.000000	0.001429
1900.000000	0.001461
1899.000000	0.001490
1898.000000	0.001498
1897.000000	0.001482
1896.000000	0.001453
1895.000000	0.001423
1894.000000	0.001394
1893.000000	0.001360
1892.000000	0.001322
1891.000000	0.001298
1890.000000	0.001311
1889.000000	0.001367
1888.000000	0.001435
1887.000000	0.001483
1886.000000	0.001499
1885.000000	0.001473
1884.000000	0.001400
1883.000000	0.001303
1882.000000	0.001237
1881.000000	0.001238
1880.000000	0.001281
1879.000000	0.001312
1878.000000	0.001318
1877.000000	0.001323
1876.000000	0.001338
1875.000000	0.001346
1874.000000	0.001343
1873.000000	0.001338
1872.000000	0.001335
1871.000000	0.001319
1870.000000	0.001280
1869.000000	0.001236
1868.000000	0.001208
1867.000000	0.001198
1866.000000	0.001209
1865.000000	0.001250
1864.000000	0.001313
1863.000000	0.001360
1862.000000	0.001365
1861.000000	0.001334
1860.000000	0.001286
1859.000000	0.001232
1858.000000	0.001182
1857.000000	0.001156
1856.000000	0.001169
1855.000000	0.001216
1854.000000	0.001267
1853.000000	0.001290
1852.000000	0.001269
1851.000000	0.001223
1850.000000	0.001195
1849.000000	0.001215
1848.000000	0.001256
1847.000000	0.001266
1846.000000	0.001213
1845.000000	0.001121
1844.000000	0.001046
1843.000000	0.001023
1842.000000	0.001039
1841.000000	0.001069
1840.000000	0.001098
1839.000000	0.001120
1838.000000	0.001135
1837.000000	0.001148
1836.000000	0.001164
1835.000000	0.001180
1834.000000	0.001200
1833.000000	0.001223
1832.000000	0.001239
1831.000000	0.001228
1830.000000	0.001190
1829.000000	0.001162
1828.000000	0.001165
1827.000000	0.001175
1826.000000	0.001171
1825.000000	0.001154
1824.000000	0.001139
1823.000000	0.001124
1822.000000	0.001106
1821.000000	0.001086
1820.000000	0.001059
1819.000000	0.001020
1818.000000	0.000980
1817.000000	0.000972
1816.000000	0.001002
1815.000000	0.001036
1814.000000	0.001049
1813.000000	0.001044
1812.000000	0.001039
1811.000000	0.001042
1810.000000	0.001054
1809.000000	0.001078
1808.000000	0.001103
1807.000000	0.001116
1806.000000	0.001118
1805.000000	0.001128
1804.000000	0.001148
1803.000000	0.001156
1802.000000	0.001135
1801.000000	0.001103
1800.000000	0.001093
1799.000000	0.001114
1798.000000	0.001152
1797.000000	0.001187
1796.000000	0.001201
1795.000000	0.001193
1794.000000	0.001184
1793.000000	0.001199
1792.000000	0.001226
1791.000000	0.001229
1790.000000	0.001202
1789.000000	0.001165
1788.000000	0.001132
1787.000000	0.001102
1786.000000	0.001077
1785.000000	0.001063
1784.000000	0.001054
1783.000000	0.001038
1782.000000	0.001015
1781.000000	0.001003
1780.000000	0.001009
1779.000000	0.001018
1778.000000	0.001017
1777.000000	0.001012
1776.000000	0.001015
1775.000000	0.001029
1774.000000	0.001046
1773.000000	0.001062
1772.000000	0.001074
1771.000000	0.001081
1770.000000	0.001080
1769.000000	0.001083
1768.000000	0.001096
1767.000000	0.001115
1766.000000	0.001141
1765.000000	0.001183
1764.000000	0.001246
1763.000000	0.001317
1762.000000	0.001379
1761.000000	0.001431
1760.000000	0.001475
1759.000000	0.001504
1758.000000	0.001530
1757.000000	0.001589
1756.000000	0.001700
1755.000000	0.001835
1754.000000	0.001963
1753.000000	0.002099
1752.000000	0.002267
1751.000000	0.002462
1750.000000	0.002654
1749.000000	0.002834
1748.000000	0.003000
1747.000000	0.003134
1746.000000	0.003234
1745.000000	0.003328
1744.000000	0.003441
1743.000000	0.003548
1742.000000	0.003607
1741.000000	0.003622
1740.000000	0.003621
1739.000000	0.003608
1738.000000	0.003564
1737.000000	0.003495
1736.000000	0.003432
1735.000000	0.003400
1734.000000	0.003395
1733.000000	0.003376
1732.000000	0.003300
1731.000000	0.003169
1730.000000	0.003030
1729.000000	0.002917
1728.000000	0.002838
1727.000000	0.002767
1726.000000	0.002690
1725.000000	0.002608
1724.000000	0.002531
1723.000000	0.002461
1722.000000	0.002402
1721.000000	0.002368
1720.000000	0.002368
1719.000000	0.002387
1718.000000	0.002390
1717.000000	0.002392
1716.000000	0.002408
1715.000000	0.002410
1714.000000	0.002405
1713.000000	0.002422
1712.000000	0.002462
1711.000000	0.002506
1710.000000	0.002552
1709.000000	0.002606
1708.000000	0.002671
1707.000000	0.002741
1706.000000	0.002813
1705.000000	0.002896
1704.000000	0.002968
1703.000000	0.003006
1702.000000	0.003031
1701.000000	0.003132
1700.000000	0.003352
1699.000000	0.003587
1698.000000	0.003770
1697.000000	0.003936
1696.000000	0.004112
1695.000000	0.004273
1694.000000	0.004404
1693.000000	0.004532
1692.000000	0.004687
1691.000000	0.004853
1690.000000	0.005009
1689.000000	0.005161
1688.000000	0.005325
1687.000000	0.005498
1686.000000	0.005689
1685.000000	0.005935
1684.000000	0.006215
1683.000000	0.006447
1682.000000	0.006613
1681.000000	0.006764
1680.000000	0.006930
1679.000000	0.007081
1678.000000	0.007204
1677.000000	0.007329
1676.000000	0.007506
1675.000000	0.007732
1674.000000	0.007958
1673.000000	0.008158
1672.000000	0.008351
1671.000000	0.008552
1670.000000	0.008753
1669.000000	0.008955
1668.000000	0.009155
1667.000000	0.009333
1666.000000	0.009484
1665.000000	0.009635
1664.000000	0.009810
1663.000000	0.009993
1662.000000	0.010165
1661.000000	0.010328
1660.000000	0.010497
1659.000000	0.010662
1658.000000	0.010817
1657.000000	0.010971
1656.000000	0.011155
1655.000000	0.011399
1654.000000	0.011683
1653.000000	0.011946
1652.000000	0.012148
1651.000000	0.012253
1650.000000	0.012301
1649.000000	0.012400
1648.000000	0.012555
1647.000000	0.012707
1646.000000	0.012814
1645.000000	0.012901
1644.000000	0.012968
1643.000000	0.013017
1642.000000	0.013055
1641.000000	0.013094
1640.000000	0.013136
1639.000000	0.013167
1638.000000	0.013178
1637.000000	0.013169
1636.000000	0.013151
1635.000000	0.013166
1634.000000	0.013222
1633.000000	0.013286
1632.000000	0.013342
1631.000000	0.013386
1630.000000	0.013421
1629.000000	0.013459
1628.000000	0.013505
1627.000000	0.013556
1626.000000	0.013604
1625.000000	0.013649
1624.000000	0.013683
1623.000000	0.013699
1622.000000	0.013718
1621.000000	0.013765
1620.000000	0.013840
1619.000000	0.013915
1618.000000	0.013942
1617.000000	0.013891
1616.000000	0.013803
1615.000000	0.013729
1614.000000	0.013667
1613.000000	0.013604
1612.000000	0.013532
1611.000000	0.013444
1610.000000	0.013342
1609.000000	0.013231
1608.000000	0.013117
1607.000000	0.013007
1606.000000	0.012899
1605.000000	0.012787
1604.000000	0.012662
1603.000000	0.012516
1602.000000	0.012349
1601.000000	0.012174
1600.000000	0.011998
1599.000000	0.011824
1598.000000	0.011655
1597.000000	0.011498
1596.000000	0.011360
1595.000000	0.011230
1594.000000	0.011096
1593.000000	0.010950
1592.000000	0.010796
1591.000000	0.010647
1590.000000	0.010518
1589.000000	0.010417
1588.000000	0.010333
1587.000000	0.010251
1586.000000	0.010167
1585.000000	0.010087
1584.000000	0.010013
1583.000000	0.009943
1582.000000	0.009873
1581.000000	0.009806
1580.000000	0.009755
1579.000000	0.009725
1578.000000	0.009688
1577.000000	0.009587
1576.000000	0.009410
1575.000000	0.009247
1574.000000	0.009153
1573.000000	0.009112
1572.000000	0.009103
1571.000000	0.009092
1570.000000	0.009039
1569.000000	0.008944
1568.000000	0.008860
1567.000000	0.008806
1566.000000	0.008764
1565.000000	0.008721
1564.000000	0.008680
1563.000000	0.008658
1562.000000	0.008650
1561.000000	0.008645
1560.000000	0.008612
1559.000000	0.008458
1558.000000	0.008340
1557.000000	0.008357
1556.000000	0.008368
1555.000000	0.008358
1554.000000	0.008324
1553.000000	0.008302
1552.000000	0.008296
1551.000000	0.008301
1550.000000	0.008298
1549.000000	0.008290
1548.000000	0.008292
1547.000000	0.008309
1546.000000	0.008338
1545.000000	0.008364
1544.000000	0.008370
1543.000000	0.008361
1542.000000	0.008348
1541.000000	0.008310
1540.000000	0.008215
1539.000000	0.008132
1538.000000	0.008089
1537.000000	0.008043
1536.000000	0.008001
1535.000000	0.007969
1534.000000	0.007935
1533.000000	0.007889
1532.000000	0.007853
1531.000000	0.007828
1530.000000	0.007807
1529.000000	0.007786
1528.000000	0.007753
1527.000000	0.007691
1526.000000	0.007605
1525.000000	0.007528
1524.000000	0.007483
1523.000000	0.007455
1522.000000	0.007405
1521.000000	0.007332
1520.000000	0.007273
1519.000000	0.007233
1518.000000	0.007195
1517.000000	0.007140
1516.000000	0.007062
1515.000000	0.006975
1514.000000	0.006893
1513.000000	0.006830
1512.000000	0.006796
1511.000000	0.006787
1510.000000	0.006790
1509.000000	0.006798
1508.000000	0.006761
1507.000000	0.006585
1506.000000	0.006385
1505.000000	0.006307
1504.000000	0.006277
1503.000000	0.006240
1502.000000	0.006184
1501.000000	0.006115
1500.000000	0.006048
1499.000000	0.005997
1498.000000	0.005964
1497.000000	0.005945
1496.000000	0.005934
1495.000000	0.005906
1494.000000	0.005856
1493.000000	0.005810
1492.000000	0.005797
1491.000000	0.005816
1490.000000	0.005837
1489.000000	0.005849
1488.000000	0.005859
1487.000000	0.005865
1486.000000	0.005879
1485.000000	0.005906
1484.000000	0.005945
1483.000000	0.005993
1482.000000	0.006046
1481.000000	0.006102
1480.000000	0.006156
1479.000000	0.006209
1478.000000	0.006275
1477.000000	0.006353
1476.000000	0.006415
1475.000000	0.006444
1474.000000	0.006476
1473.000000	0.006581
1472.000000	0.006771
1471.000000	0.006962
1470.000000	0.007091
1469.000000	0.007164
1468.000000	0.007202
1467.000000	0.007225
1466.000000	0.007263
1465.000000	0.007342
1464.000000	0.007451
1463.000000	0.007540
1462.000000	0.007589
1461.000000	0.007617
1460.000000	0.007656
1459.000000	0.007723
1458.000000	0.007819
1457.000000	0.007947
1456.000000	0.008088
1455.000000	0.008182
1454.000000	0.008226
1453.000000	0.008267
1452.000000	0.008312
1451.000000	0.008343
1450.000000	0.008364
1449.000000	0.008407
1448.000000	0.008478
1447.000000	0.008545
1446.000000	0.008581
1445.000000	0.008603
1444.000000	0.008639
1443.000000	0.008693
1442.000000	0.008753
1441.000000	0.008802
1440.000000	0.008829
1439.000000	0.008839
1438.000000	0.008866
1437.000000	0.008954
1436.000000	0.009092
1435.000000	0.009213
1434.000000	0.009286
1433.000000	0.009343
1432.000000	0.009416
1431.000000	0.009504
1430.000000	0.009588
1429.000000	0.009660
1428.000000	0.009721
1427.000000	0.009772
1426.000000	0.009818
1425.000000	0.009867
1424.000000	0.009908
1423.000000	0.009918
1422.000000	0.009900
1421.000000	0.009886
1420.000000	0.009915
1419.000000	0.009974
1418.000000	0.010013
1417.000000	0.010021
1416.000000	0.010021
1415.000000	0.010022
1414.000000	0.010016
1413.000000	0.009992
1412.000000	0.009949
1411.000000	0.009898
1410.000000	0.009854
1409.000000	0.009811
1408.000000	0.009750
1407.000000	0.009663
1406.000000	0.009568
1405.000000	0.009493
1404.000000	0.009444
1403.000000	0.009393
1402.000000	0.009325
1401.000000	0.009261
1400.000000	0.009225
1399.000000	0.009220
1398.000000	0.009223
1397.000000	0.009223
1396.000000	0.009220
1395.000000	0.009204
1394.000000	0.009162
1393.000000	0.009095
1392.000000	0.009020
1391.000000	0.008953
1390.000000	0.008900
1389.000000	0.008866
1388.000000	0.008844
1387.000000	0.008817
1386.000000	0.008769
1385.000000	0.008696
1384.000000	0.008612
1383.000000	0.008536
1382.000000	0.008482
1381.000000	0.008450
1380.000000	0.008425
1379.000000	0.008390
1378.000000	0.008343
1377.000000	0.008292
1376.000000	0.008249
1375.000000	0.008215
1374.000000	0.008183
1373.000000	0.008148
1372.000000	0.008118
1371.000000	0.008101
1370.000000	0.008097
1369.000000	0.008086
1368.000000	0.008051
1367.000000	0.008002
1366.000000	0.007966
1365.000000	0.007952
1364.000000	0.007932
1363.000000	0.007871
1362.000000	0.007772
1361.000000	0.007675
1360.000000	0.007607
1359.000000	0.007567
1358.000000	0.007546
1357.000000	0.007536
1356.000000	0.007522
1355.000000	0.007490
1354.000000	0.007434
1353.000000	0.007364
1352.000000	0.007299
1351.000000	0.007250
1350.000000	0.007223
1349.000000	0.007212
1348.000000	0.007204
1347.000000	0.007197
1346.000000	0.007198
1345.000000	0.007214
1344.000000	0.007245
1343.000000	0.007294
1342.000000	0.007364
1341.000000	0.007454
1340.000000	0.007555
1339.000000	0.007658
1338.000000	0.007774
1337.000000	0.007916
1336.000000	0.008083
1335.000000	0.008267
1334.000000	0.008469
1333.000000	0.008695
1332.000000	0.008951
1331.000000	0.009231
1330.000000	0.009530
1329.000000	0.009841
1328.000000	0.010151
1327.000000	0.010441
1326.000000	0.010706
1325.000000	0.010955
1324.000000	0.011193
1323.000000	0.011407
1322.000000	0.011571
1321.000000	0.011664
1320.000000	0.011669
1319.000000	0.011575
1318.000000	0.011391
1317.000000	0.011137
1316.000000	0.010836
1315.000000	0.010499
1314.000000	0.010145
1313.000000	0.009793
1312.000000	0.009460
1311.000000	0.009145
1310.000000	0.008848
1309.000000	0.008572
1308.000000	0.008317
1307.000000	0.008079
1306.000000	0.007850
1305.000000	0.007628
1304.000000	0.007416
1303.000000	0.007219
1302.000000	0.007041
1301.000000	0.006883
1300.000000	0.006744
1299.000000	0.006620
1298.000000	0.006504
1297.000000	0.006386
1296.000000	0.006262
1295.000000	0.006139
1294.000000	0.006030
1293.000000	0.005940
1292.000000	0.005861
1291.000000	0.005777
1290.000000	0.005683
1289.000000	0.005591
1288.000000	0.005511
1287.000000	0.005444
1286.000000	0.005380
1285.000000	0.005318
1284.000000	0.005256
1283.000000	0.005193
1282.000000	0.005121
1281.000000	0.005042
1280.000000	0.004971
1279.000000	0.004921
1278.000000	0.004898
1277.000000	0.004892
1276.000000	0.004892
1275.000000	0.004889
1274.000000	0.004882
1273.000000	0.004874
1272.000000	0.004870
1271.000000	0.004870
1270.000000	0.004871
1269.000000	0.004874
1268.000000	0.004882
1267.000000	0.004896
1266.000000	0.004917
1265.000000	0.004946
1264.000000	0.004986
1263.000000	0.005033
1262.000000	0.005074
1261.000000	0.005095
1260.000000	0.005100
1259.000000	0.005105
1258.000000	0.005121
1257.000000	0.005140
1256.000000	0.005152
1255.000000	0.005148
1254.000000	0.005128
1253.000000	0.005100
1252.000000	0.005077
1251.000000	0.005065
1250.000000	0.005060
1249.000000	0.005053
1248.000000	0.005040
1247.000000	0.005031
1246.000000	0.005026
1245.000000	0.005015
1244.000000	0.004987
1243.000000	0.004947
1242.000000	0.004912
1241.000000	0.004892
1240.000000	0.004877
1239.000000	0.004856
1238.000000	0.004822
1237.000000	0.004774
1236.000000	0.004717
1235.000000	0.004653
1234.000000	0.004587
1233.000000	0.004519
1232.000000	0.004448
1231.000000	0.004381
1230.000000	0.004326
1229.000000	0.004280
1228.000000	0.004234
1227.000000	0.004179
1226.000000	0.004116
1225.000000	0.004050
1224.000000	0.003978
1223.000000	0.003893
1222.000000	0.003794
1221.000000	0.003694
1220.000000	0.003608
1219.000000	0.003549
1218.000000	0.003513
1217.000000	0.003484
1216.000000	0.003447
1215.000000	0.003401
1214.000000	0.003357
1213.000000	0.003322
1212.000000	0.003290
1211.000000	0.003255
1210.000000	0.003218
1209.000000	0.003182
1208.000000	0.003152
1207.000000	0.003126
1206.000000	0.003102
1205.000000	0.003077
1204.000000	0.003048
1203.000000	0.003018
1202.000000	0.002996
1201.000000	0.002987
1200.000000	0.002981
1199.000000	0.002965
1198.000000	0.002938
1197.000000	0.002914
1196.000000	0.002905
1195.000000	0.002911
1194.000000	0.002927
1193.000000	0.002952
1192.000000	0.002986
1191.000000	0.003027
1190.000000	0.003069
1189.000000	0.003106
1188.000000	0.003138
1187.000000	0.003172
1186.000000	0.003217
1185.000000	0.003275
1184.000000	0.003338
1183.000000	0.003395
1182.000000	0.003449
1181.000000	0.003520
1180.000000	0.003615
1179.000000	0.003724
1178.000000	0.003846
1177.000000	0.003987
1176.000000	0.004150
1175.000000	0.004311
1174.000000	0.004446
1173.000000	0.004564
1172.000000	0.004690
1171.000000	0.004832
1170.000000	0.004973
1169.000000	0.005099
1168.000000	0.005219
1167.000000	0.005349
1166.000000	0.005489
1165.000000	0.005630
1164.000000	0.005761
1163.000000	0.005871
1162.000000	0.005954
1161.000000	0.006017
1160.000000	0.006075
1159.000000	0.006144
1158.000000	0.006221
1157.000000	0.006297
1156.000000	0.006367
1155.000000	0.006433
1154.000000	0.006492
1153.000000	0.006541
1152.000000	0.006579
1151.000000	0.006609
1150.000000	0.006632
1149.000000	0.006646
1148.000000	0.006647
1147.000000	0.006637
1146.000000	0.006623
1145.000000	0.006614
1144.000000	0.006612
1143.000000	0.006610
1142.000000	0.006600
1141.000000	0.006579
1140.000000	0.006553
1139.000000	0.006524
1138.000000	0.006490
1137.000000	0.006448
1136.000000	0.006406
1135.000000	0.006380
1134.000000	0.006386
1133.000000	0.006421
1132.000000	0.006470
1131.000000	0.006512
1130.000000	0.006538
1129.000000	0.006557
1128.000000	0.006583
1127.000000	0.006631
1126.000000	0.006707
1125.000000	0.006801
1124.000000	0.006897
1123.000000	0.006977
1122.000000	0.007036
1121.000000	0.007082
1120.000000	0.007134
1119.000000	0.007207
1118.000000	0.007305
1117.000000	0.007418
1116.000000	0.007534
1115.000000	0.007645
1114.000000	0.007752
1113.000000	0.007853
1112.000000	0.007939
1111.000000	0.007999
1110.000000	0.008039
1109.000000	0.008073
1108.000000	0.008110
1107.000000	0.008142
1106.000000	0.008156
1105.000000	0.008148
1104.000000	0.008120
1103.000000	0.008081
1102.000000	0.008040
1101.000000	0.008010
1100.000000	0.008000
1099.000000	0.008007
1098.000000	0.008024
1097.000000	0.008041
1096.000000	0.008057
1095.000000	0.008075
1094.000000	0.008097
1093.000000	0.008120
1092.000000	0.008135
1091.000000	0.008136
1090.000000	0.008122
1089.000000	0.008099
1088.000000	0.008075
1087.000000	0.008061
1086.000000	0.008060
1085.000000	0.008055
1084.000000	0.008022
1083.000000	0.007966
1082.000000	0.007926
1081.000000	0.007936
1080.000000	0.007983
1079.000000	0.008026
1078.000000	0.008041
1077.000000	0.008036
1076.000000	0.008020
1075.000000	0.007990
1074.000000	0.007953
1073.000000	0.007922
1072.000000	0.007901
1071.000000	0.007878
1070.000000	0.007850
1069.000000	0.007830
1068.000000	0.007829
1067.000000	0.007838
1066.000000	0.007841
1065.000000	0.007837
1064.000000	0.007837
1063.000000	0.007841
1062.000000	0.007836
1061.000000	0.007818
1060.000000	0.007794
1059.000000	0.007776
1058.000000	0.007766
1057.000000	0.007764
1056.000000	0.007766
1055.000000	0.007767
1054.000000	0.007760
1053.000000	0.007738
1052.000000	0.007706
1051.000000	0.007680
1050.000000	0.007676
1049.000000	0.007691
1048.000000	0.007705
1047.000000	0.007708
1046.000000	0.007707
1045.000000	0.007713
1044.000000	0.007728
1043.000000	0.007756
1042.000000	0.007805
1041.000000	0.007877
1040.000000	0.007956
1039.000000	0.008022
1038.000000	0.008077
1037.000000	0.008128
1036.000000	0.008165
1035.000000	0.008176
1034.000000	0.008173
1033.000000	0.008186
1032.000000	0.008217
1031.000000	0.008247
1030.000000	0.008264
1029.000000	0.008287
1028.000000	0.008327
1027.000000	0.008369
1026.000000	0.008399
1025.000000	0.008425
1024.000000	0.008454
1023.000000	0.008475
1022.000000	0.008468
1021.000000	0.008431
1020.000000	0.008376
1019.000000	0.008316
1018.000000	0.008263
1017.000000	0.008232
1016.000000	0.008221
1015.000000	0.008203
1014.000000	0.008165
1013.000000	0.008122
1012.000000	0.008098
1011.000000	0.008086
1010.000000	0.008056
1009.000000	0.007996
1008.000000	0.007918
1007.000000	0.007836
1006.000000	0.007754
1005.000000	0.007678
1004.000000	0.007617
1003.000000	0.007569
1002.000000	0.007523
1001.000000	0.007468
1000.000000	0.007406
999.000000	0.007346
998.000000	0.007292
997.000000	0.007235
996.000000	0.007166
995.000000	0.007082
994.000000	0.006994
993.000000	0.006922
992.000000	0.006877
991.000000	0.006845
990.000000	0.006804
989.000000	0.006746
988.000000	0.006684
987.000000	0.006629
986.000000	0.006572
985.000000	0.006495
984.000000	0.006397
983.000000	0.006294
982.000000	0.006201
981.000000	0.006121
980.000000	0.006048
979.000000	0.005981
978.000000	0.005924
977.000000	0.005877
976.000000	0.005830
975.000000	0.005775
974.000000	0.005712
973.000000	0.005647
972.000000	0.005582
971.000000	0.005509
970.000000	0.005418
969.000000	0.005311
968.000000	0.005191
967.000000	0.005070
966.000000	0.004962
965.000000	0.004880
964.000000	0.004820
963.000000	0.004759
962.000000	0.004683
961.000000	0.004594
960.000000	0.004505
959.000000	0.004421
958.000000	0.004341
957.000000	0.004272
956.000000	0.004221
955.000000	0.004177
954.000000	0.004115
953.000000	0.004016
952.000000	0.003882
951.000000	0.003731
950.000000	0.003592
949.000000	0.003492
948.000000	0.003446
947.000000	0.003434
946.000000	0.003412
945.000000	0.003343
944.000000	0.003221
943.000000	0.003076
942.000000	0.002947
941.000000	0.002856
940.000000	0.002802
939.000000	0.002773
938.000000	0.002757
937.000000	0.002740
936.000000	0.002709
935.000000	0.002656
934.000000	0.002584
933.000000	0.002507
932.000000	0.002442
931.000000	0.002395
930.000000	0.002370
929.000000	0.002363
928.000000	0.002357
927.000000	0.002334
926.000000	0.002285
925.000000	0.002228
924.000000	0.002182
923.000000	0.002143
922.000000	0.002092
921.000000	0.002032
920.000000	0.001993
919.000000	0.001996
918.000000	0.002020
917.000000	0.002025
916.000000	0.001990
915.000000	0.001931
914.000000	0.001879
913.000000	0.001850
912.000000	0.001845
911.000000	0.001847
910.000000	0.001839
909.000000	0.001818
908.000000	0.001792
907.000000	0.001770
906.000000	0.001749
905.000000	0.001721
904.000000	0.001687
903.000000	0.001654
902.000000	0.001621
901.000000	0.001579
900.000000	0.001522
899.000000	0.001458
898.000000	0.001400
897.000000	0.001356
896.000000	0.001326
895.000000	0.001301
894.000000	0.001271
893.000000	0.001230
892.000000	0.001184
891.000000	0.001148
890.000000	0.001135
889.000000	0.001162
888.000000	0.001247
887.000000	0.001409
886.000000	0.001643
885.000000	0.001912
884.000000	0.002164
883.000000	0.002367
882.000000	0.002537
881.000000	0.002723
880.000000	0.002967
879.000000	0.003269
878.000000	0.003585
877.000000	0.003866
876.000000	0.004088
875.000000	0.004251
874.000000	0.004341
873.000000	0.004322
872.000000	0.004168
871.000000	0.003891
870.000000	0.003542
869.000000	0.003168
868.000000	0.002806
867.000000	0.002490
866.000000	0.002249
865.000000	0.002081
864.000000	0.001952
863.000000	0.001826
862.000000	0.001687
861.000000	0.001538
860.000000	0.001390
859.000000	0.001264
858.000000	0.001186
857.000000	0.001155
856.000000	0.001133
855.000000	0.001080
854.000000	0.000999
853.000000	0.000931
852.000000	0.000915
851.000000	0.000954
850.000000	0.001027
849.000000	0.001097
848.000000	0.001127
847.000000	0.001102
846.000000	0.001048
845.000000	0.001009
844.000000	0.001005
843.000000	0.001020
842.000000	0.001029
841.000000	0.001026
840.000000	0.001014
839.000000	0.000997
838.000000	0.000981
837.000000	0.000985
836.000000	0.001019
835.000000	0.001069
834.000000	0.001109
833.000000	0.001135
832.000000	0.001155
831.000000	0.001175
830.000000	0.001183
829.000000	0.001172
828.000000	0.001154
827.000000	0.001144
826.000000	0.001141
825.000000	0.001131
824.000000	0.001111
823.000000	0.001094
822.000000	0.001091
821.000000	0.001091
820.000000	0.001072
819.000000	0.001032
818.000000	0.000997
817.000000	0.000988
816.000000	0.000996
815.000000	0.001003
814.000000	0.001004
813.000000	0.001010
812.000000	0.001014
811.000000	0.000997
810.000000	0.000968
809.000000	0.000974
808.000000	0.001044
807.000000	0.001148
806.000000	0.001224
805.000000	0.001244
804.000000	0.001238
803.000000	0.001257
802.000000	0.001322
801.000000	0.001415
800.000000	0.001495
799.000000	0.001540
798.000000	0.001564
797.000000	0.001606
796.000000	0.001692
795.000000	0.001807
794.000000	0.001924
793.000000	0.002037
792.000000	0.002156
791.000000	0.002286
790.000000	0.002410
789.000000	0.002499
788.000000	0.002527
787.000000	0.002487
786.000000	0.002412
785.000000	0.002367
784.000000	0.002404
783.000000	0.002506
782.000000	0.002595
781.000000	0.002608
780.000000	0.002554
779.000000	0.002492
778.000000	0.002480
777.000000	0.002527
776.000000	0.002593
775.000000	0.002624
774.000000	0.002587
773.000000	0.002500
772.000000	0.002413
771.000000	0.002362
770.000000	0.002342
769.000000	0.002323
768.000000	0.002292
767.000000	0.002251
766.000000	0.002199
765.000000	0.002130
764.000000	0.002062
763.000000	0.002035
762.000000	0.002067
761.000000	0.002124
760.000000	0.002146
759.000000	0.002115
758.000000	0.002063
757.000000	0.002029
756.000000	0.002013
755.000000	0.001995
754.000000	0.001969
753.000000	0.001942
752.000000	0.001913
751.000000	0.001860
750.000000	0.001778
749.000000	0.001691
748.000000	0.001633
747.000000	0.001618
746.000000	0.001630
745.000000	0.001640
744.000000	0.001621
743.000000	0.001565
742.000000	0.001497
741.000000	0.001455
740.000000	0.001459
739.000000	0.001477
738.000000	0.001464
737.000000	0.001405
736.000000	0.001332
735.000000	0.001284
734.000000	0.001267
733.000000	0.001266
732.000000	0.001270
731.000000	0.001276
730.000000	0.001283
729.000000	0.001286
728.000000	0.001291
727.000000	0.001299
726.000000	0.001313
725.000000	0.001327
724.000000	0.001326
723.000000	0.001287
722.000000	0.001207
721.000000	0.001122
720.000000	0.001092
719.000000	0.001152
718.000000	0.001293
717.000000	0.001485
716.000000	0.001715
715.000000	0.001962
714.000000	0.002173
713.000000	0.002280
712.000000	0.002260
711.000000	0.002154
710.000000	0.002022
709.000000	0.001894
708.000000	0.001777
707.000000	0.001672
706.000000	0.001589
705.000000	0.001536
704.000000	0.001504
703.000000	0.001482
702.000000	0.001475
701.000000	0.001489
700.000000	0.001512
699.000000	0.001512
698.000000	0.001480
697.000000	0.001448
696.000000	0.001453
695.000000	0.001501
694.000000	0.001554
693.000000	0.001545
692.000000	0.001438
691.000000	0.001253
690.000000	0.001068
689.000000	0.000971
688.000000	0.000985
687.000000	0.001044
686.000000	0.001053
685.000000	0.000985
684.000000	0.000914
683.000000	0.000921
682.000000	0.000998
681.000000	0.001076
680.000000	0.001128
679.000000	0.001180
678.000000	0.001245
677.000000	0.001340
676.000000	0.001498
675.000000	0.001720
674.000000	0.001936
673.000000	0.002058
672.000000	0.002059
671.000000	0.001942
670.000000	0.001690
669.000000	0.001298
668.000000	0.001053
667.000000	0.001216
666.000000	0.001422
665.000000	0.001575
664.000000	0.001728
663.000000	0.001789
662.000000	0.001686
661.000000	0.001464
660.000000	0.001254
659.000000	0.001131
658.000000	0.001079
657.000000	0.001070
656.000000	0.001086
655.000000	0.001090
654.000000	0.001071
653.000000	0.001057
652.000000	0.001048
651.000000	0.001010
650.000000	0.000957
649.000000	0.000957
648.000000	0.001025
647.000000	0.001098
646.000000	0.001142
645.000000	0.001190
644.000000	0.001268
643.000000	0.001363
642.000000	0.001477
641.000000	0.001631
640.000000	0.001796
639.000000	0.001885
638.000000	0.001863
637.000000	0.001804
636.000000	0.001773
635.000000	0.001759
634.000000	0.001749
633.000000	0.001772
632.000000	0.001849
631.000000	0.001940
630.000000	0.001997
629.000000	0.002021
628.000000	0.002029
627.000000	0.002019
626.000000	0.002015
625.000000	0.002060
624.000000	0.002136
623.000000	0.002163
622.000000	0.002110
621.000000	0.002035
620.000000	0.002005
619.000000	0.002018
618.000000	0.002056
617.000000	0.002130
616.000000	0.002239
615.000000	0.002324
614.000000	0.002341
613.000000	0.002336
612.000000	0.002384
611.000000	0.002498
610.000000	0.002622
609.000000	0.002709
608.000000	0.002749
607.000000	0.002759
606.000000	0.002795
605.000000	0.002916
604.000000	0.003109
603.000000	0.003285
602.000000	0.003367
601.000000	0.003359
600.000000	0.003311
599.000000	0.003266
598.000000	0.003252
597.000000	0.003285
596.000000	0.003348
595.000000	0.003382
594.000000	0.003348
593.000000	0.003264
592.000000	0.003166
591.000000	0.003074
590.000000	0.002994
589.000000	0.002941
588.000000	0.002916
587.000000	0.002895
586.000000	0.002861
585.000000	0.002803
584.000000	0.002686
583.000000	0.002481
582.000000	0.002247
581.000000	0.002117
580.000000	0.002157
579.000000	0.002286
578.000000	0.002368
577.000000	0.002353
576.000000	0.002279
575.000000	0.002198
574.000000	0.002138
573.000000	0.002105
572.000000	0.002076
571.000000	0.002017
570.000000	0.001936
569.000000	0.001880
568.000000	0.001857
567.000000	0.001820
566.000000	0.001753
565.000000	0.001701
564.000000	0.001677
563.000000	0.001614
562.000000	0.001477
561.000000	0.001346
560.000000	0.001308
559.000000	0.001326
558.000000	0.001303
557.000000	0.001234
556.000000	0.001195
555.000000	0.001220
554.000000	0.001270
553.000000	0.001306
552.000000	0.001321
551.000000	0.001299
550.000000	0.001250
549.000000	0.001241
548.000000	0.001321
547.000000	0.001420
546.000000	0.001406
545.000000	0.001261
544.000000	0.001115
543.000000	0.001085
542.000000	0.001154
541.000000	0.001218
540.000000	0.001210
539.000000	0.001132
538.000000	0.001016
537.000000	0.000870
536.000000	0.000690
535.000000	0.000519
534.000000	0.000488
533.000000	0.000724
532.000000	0.001204
531.000000	0.001727
530.000000	0.002071
529.000000	0.002163
528.000000	0.002071
527.000000	0.001920
526.000000	0.001850
525.000000	0.001960
524.000000	0.002186
523.000000	0.002340
522.000000	0.002302
521.000000	0.002158
520.000000	0.002094
519.000000	0.002179
518.000000	0.002304
517.000000	0.002346
516.000000	0.002294
515.000000	0.002206
514.000000	0.002123
513.000000	0.002046
512.000000	0.001942
511.000000	0.001780
510.000000	0.001588
509.000000	0.001464
508.000000	0.001498
507.000000	0.001690
506.000000	0.001957
505.000000	0.002186
504.000000	0.002260
503.000000	0.002104
502.000000	0.001796
501.000000	0.001561
500.000000	0.001536
499.000000	0.001632
498.000000	0.001692
497.000000	0.001670
496.000000	0.001627
495.000000	0.001634
494.000000	0.001739
493.000000	0.001960
492.000000	0.002224
491.000000	0.002374
490.000000	0.002348
489.000000	0.002263
488.000000	0.002235
487.000000	0.002216
486.000000	0.002097
485.000000	0.001903
484.000000	0.001756
483.000000	0.001683
482.000000	0.001618
481.000000	0.001555
480.000000	0.001546
479.000000	0.001580
478.000000	0.001589
477.000000	0.001581
476.000000	0.001622
475.000000	0.001702
474.000000	0.001724
473.000000	0.001658
472.000000	0.001580
471.000000	0.001517
470.000000	0.001408
469.000000	0.001259
468.000000	0.001197
467.000000	0.001325
466.000000	0.001611
465.000000	0.001946
464.000000	0.002213
463.000000	0.002268
462.000000	0.002017
461.000000	0.001550
460.000000	0.001062
459.000000	0.000657
458.000000	0.000359
457.000000	0.000270
456.000000	0.000485
455.000000	0.000881
454.000000	0.001219
453.000000	0.001370
452.000000	0.001381
451.000000	0.001349
450.000000	0.001320
