PE IR       SUBTECH     SPECTRUM    ASCII       PEDS        4.00        
   -1
P12-Noir043_1.ASC
23/06/09
15:39:33.00
23/06/09
15:45:29.00
uco
Sample 043 By uco Date Friday, June 09 2023
450.000000
#HDR
-1
-1
#GR
cm-1
A
1.0
0.0
4000.000000
-1.000000
3551
8
0.003679
-0.002268
#DATA
4000.000000	-0.001160
3999.000000	-0.001172
3998.000000	-0.001171
3997.000000	-0.001154
3996.000000	-0.001129
3995.000000	-0.001104
3994.000000	-0.001086
3993.000000	-0.001095
3992.000000	-0.001095
3991.000000	-0.001096
3990.000000	-0.001094
3989.000000	-0.001086
3988.000000	-0.001075
3987.000000	-0.001066
3986.000000	-0.001061
3985.000000	-0.001060
3984.000000	-0.001062
3983.000000	-0.001071
3982.000000	-0.001090
3981.000000	-0.001119
3980.000000	-0.001152
3979.000000	-0.001178
3978.000000	-0.001191
3977.000000	-0.001191
3976.000000	-0.001184
3975.000000	-0.001172
3974.000000	-0.001157
3973.000000	-0.001136
3972.000000	-0.001109
3971.000000	-0.001085
3970.000000	-0.001069
3969.000000	-0.001063
3968.000000	-0.001062
3967.000000	-0.001063
3966.000000	-0.001065
3965.000000	-0.001072
3964.000000	-0.001085
3963.000000	-0.001097
3962.000000	-0.001106
3961.000000	-0.001111
3960.000000	-0.001113
3959.000000	-0.001116
3958.000000	-0.001117
3957.000000	-0.001111
3956.000000	-0.001100
3955.000000	-0.001089
3954.000000	-0.001084
3953.000000	-0.001083
3952.000000	-0.001082
3951.000000	-0.001073
3950.000000	-0.001059
3949.000000	-0.001046
3948.000000	-0.001039
3947.000000	-0.001037
3946.000000	-0.001036
3945.000000	-0.001030
3944.000000	-0.001022
3943.000000	-0.001020
3942.000000	-0.001025
3941.000000	-0.001034
3940.000000	-0.001040
3939.000000	-0.001044
3938.000000	-0.001050
3937.000000	-0.001063
3936.000000	-0.001079
3935.000000	-0.001092
3934.000000	-0.001097
3933.000000	-0.001097
3932.000000	-0.001095
3931.000000	-0.001094
3930.000000	-0.001095
3929.000000	-0.001094
3928.000000	-0.001086
3927.000000	-0.001069
3926.000000	-0.001045
3925.000000	-0.001019
3924.000000	-0.000997
3923.000000	-0.000983
3922.000000	-0.000975
3921.000000	-0.000970
3920.000000	-0.000969
3919.000000	-0.000971
3918.000000	-0.000980
3917.000000	-0.000996
3916.000000	-0.001011
3915.000000	-0.001014
3914.000000	-0.001008
3913.000000	-0.001005
3912.000000	-0.001015
3911.000000	-0.001039
3910.000000	-0.001066
3909.000000	-0.001089
3908.000000	-0.001106
3907.000000	-0.001115
3906.000000	-0.001114
3905.000000	-0.001101
3904.000000	-0.001081
3903.000000	-0.001062
3902.000000	-0.001055
3901.000000	-0.001062
3900.000000	-0.001080
3899.000000	-0.001094
3898.000000	-0.001092
3897.000000	-0.001074
3896.000000	-0.001053
3895.000000	-0.001038
3894.000000	-0.001026
3893.000000	-0.001015
3892.000000	-0.001006
3891.000000	-0.001005
3890.000000	-0.001005
3889.000000	-0.000993
3888.000000	-0.000971
3887.000000	-0.000964
3886.000000	-0.000991
3885.000000	-0.001039
3884.000000	-0.001070
3883.000000	-0.001066
3882.000000	-0.001044
3881.000000	-0.001033
3880.000000	-0.001042
3879.000000	-0.001058
3878.000000	-0.001064
3877.000000	-0.001051
3876.000000	-0.001031
3875.000000	-0.001020
3874.000000	-0.001017
3873.000000	-0.001004
3872.000000	-0.000979
3871.000000	-0.000964
3870.000000	-0.000989
3869.000000	-0.001038
3868.000000	-0.001065
3867.000000	-0.001053
3866.000000	-0.001026
3865.000000	-0.001011
3864.000000	-0.001008
3863.000000	-0.001001
3862.000000	-0.000992
3861.000000	-0.000989
3860.000000	-0.000998
3859.000000	-0.001016
3858.000000	-0.001035
3857.000000	-0.001050
3856.000000	-0.001055
3855.000000	-0.001068
3854.000000	-0.001121
3853.000000	-0.001203
3852.000000	-0.001246
3851.000000	-0.001226
3850.000000	-0.001172
3849.000000	-0.001119
3848.000000	-0.001078
3847.000000	-0.001043
3846.000000	-0.001006
3845.000000	-0.000965
3844.000000	-0.000932
3843.000000	-0.000925
3842.000000	-0.000953
3841.000000	-0.001008
3840.000000	-0.001074
3839.000000	-0.001129
3838.000000	-0.001152
3837.000000	-0.001136
3836.000000	-0.001090
3835.000000	-0.001035
3834.000000	-0.000988
3833.000000	-0.000960
3832.000000	-0.000951
3831.000000	-0.000953
3830.000000	-0.000954
3829.000000	-0.000949
3828.000000	-0.000943
3827.000000	-0.000951
3826.000000	-0.000979
3825.000000	-0.001012
3824.000000	-0.001031
3823.000000	-0.001033
3822.000000	-0.001037
3821.000000	-0.001059
3820.000000	-0.001088
3819.000000	-0.001101
3818.000000	-0.001091
3817.000000	-0.001076
3816.000000	-0.001077
3815.000000	-0.001085
3814.000000	-0.001071
3813.000000	-0.001035
3812.000000	-0.000999
3811.000000	-0.000978
3810.000000	-0.000967
3809.000000	-0.000951
3808.000000	-0.000937
3807.000000	-0.000946
3806.000000	-0.000982
3805.000000	-0.001023
3804.000000	-0.001053
3803.000000	-0.001072
3802.000000	-0.001092
3801.000000	-0.001107
3800.000000	-0.001099
3799.000000	-0.001063
3798.000000	-0.001017
3797.000000	-0.000978
3796.000000	-0.000945
3795.000000	-0.000909
3794.000000	-0.000874
3793.000000	-0.000853
3792.000000	-0.000856
3791.000000	-0.000879
3790.000000	-0.000910
3789.000000	-0.000940
3788.000000	-0.000961
3787.000000	-0.000970
3786.000000	-0.000967
3785.000000	-0.000960
3784.000000	-0.000953
3783.000000	-0.000944
3782.000000	-0.000927
3781.000000	-0.000907
3780.000000	-0.000896
3779.000000	-0.000902
3778.000000	-0.000918
3777.000000	-0.000934
3776.000000	-0.000946
3775.000000	-0.000956
3774.000000	-0.000956
3773.000000	-0.000937
3772.000000	-0.000905
3771.000000	-0.000885
3770.000000	-0.000900
3769.000000	-0.000940
3768.000000	-0.000977
3767.000000	-0.000989
3766.000000	-0.000980
3765.000000	-0.000964
3764.000000	-0.000949
3763.000000	-0.000936
3762.000000	-0.000926
3761.000000	-0.000926
3760.000000	-0.000936
3759.000000	-0.000947
3758.000000	-0.000956
3757.000000	-0.000970
3756.000000	-0.000996
3755.000000	-0.001036
3754.000000	-0.001086
3753.000000	-0.001138
3752.000000	-0.001173
3751.000000	-0.001181
3750.000000	-0.001180
3749.000000	-0.001193
3748.000000	-0.001209
3747.000000	-0.001198
3746.000000	-0.001143
3745.000000	-0.001076
3744.000000	-0.001042
3743.000000	-0.001034
3742.000000	-0.001024
3741.000000	-0.001016
3740.000000	-0.001024
3739.000000	-0.001043
3738.000000	-0.001058
3737.000000	-0.001065
3736.000000	-0.001069
3735.000000	-0.001069
3734.000000	-0.001060
3733.000000	-0.001050
3732.000000	-0.001052
3731.000000	-0.001063
3730.000000	-0.001064
3729.000000	-0.001043
3728.000000	-0.001010
3727.000000	-0.000985
3726.000000	-0.000972
3725.000000	-0.000963
3724.000000	-0.000951
3723.000000	-0.000946
3722.000000	-0.000956
3721.000000	-0.000982
3720.000000	-0.001013
3719.000000	-0.001038
3718.000000	-0.001056
3717.000000	-0.001063
3716.000000	-0.001059
3715.000000	-0.001046
3714.000000	-0.001027
3713.000000	-0.001007
3712.000000	-0.000984
3711.000000	-0.000961
3710.000000	-0.000948
3709.000000	-0.000957
3708.000000	-0.000985
3707.000000	-0.001019
3706.000000	-0.001046
3705.000000	-0.001066
3704.000000	-0.001084
3703.000000	-0.001107
3702.000000	-0.001125
3701.000000	-0.001125
3700.000000	-0.001100
3699.000000	-0.001053
3698.000000	-0.001002
3697.000000	-0.000966
3696.000000	-0.000960
3695.000000	-0.000977
3694.000000	-0.001008
3693.000000	-0.001044
3692.000000	-0.001084
3691.000000	-0.001125
3690.000000	-0.001164
3689.000000	-0.001193
3688.000000	-0.001202
3687.000000	-0.001182
3686.000000	-0.001136
3685.000000	-0.001086
3684.000000	-0.001046
3683.000000	-0.001022
3682.000000	-0.001011
3681.000000	-0.001017
3680.000000	-0.001042
3679.000000	-0.001076
3678.000000	-0.001097
3677.000000	-0.001103
3676.000000	-0.001119
3675.000000	-0.001149
3674.000000	-0.001161
3673.000000	-0.001134
3672.000000	-0.001081
3671.000000	-0.001039
3670.000000	-0.001034
3669.000000	-0.001053
3668.000000	-0.001062
3667.000000	-0.001048
3666.000000	-0.001016
3665.000000	-0.000976
3664.000000	-0.000937
3663.000000	-0.000908
3662.000000	-0.000893
3661.000000	-0.000893
3660.000000	-0.000894
3659.000000	-0.000883
3658.000000	-0.000859
3657.000000	-0.000841
3656.000000	-0.000855
3655.000000	-0.000896
3654.000000	-0.000940
3653.000000	-0.000967
3652.000000	-0.000980
3651.000000	-0.000984
3650.000000	-0.000976
3649.000000	-0.000954
3648.000000	-0.000937
3647.000000	-0.000935
3646.000000	-0.000935
3645.000000	-0.000918
3644.000000	-0.000878
3643.000000	-0.000830
3642.000000	-0.000797
3641.000000	-0.000792
3640.000000	-0.000808
3639.000000	-0.000831
3638.000000	-0.000849
3637.000000	-0.000856
3636.000000	-0.000855
3635.000000	-0.000860
3634.000000	-0.000882
3633.000000	-0.000912
3632.000000	-0.000920
3631.000000	-0.000883
3630.000000	-0.000809
3629.000000	-0.000740
3628.000000	-0.000711
3627.000000	-0.000707
3626.000000	-0.000703
3625.000000	-0.000691
3624.000000	-0.000681
3623.000000	-0.000684
3622.000000	-0.000705
3621.000000	-0.000743
3620.000000	-0.000784
3619.000000	-0.000802
3618.000000	-0.000789
3617.000000	-0.000762
3616.000000	-0.000738
3615.000000	-0.000723
3614.000000	-0.000712
3613.000000	-0.000694
3612.000000	-0.000665
3611.000000	-0.000630
3610.000000	-0.000602
3609.000000	-0.000592
3608.000000	-0.000600
3607.000000	-0.000614
3606.000000	-0.000616
3605.000000	-0.000603
3604.000000	-0.000580
3603.000000	-0.000559
3602.000000	-0.000551
3601.000000	-0.000561
3600.000000	-0.000584
3599.000000	-0.000602
3598.000000	-0.000601
3597.000000	-0.000582
3596.000000	-0.000552
3595.000000	-0.000517
3594.000000	-0.000483
3593.000000	-0.000450
3592.000000	-0.000421
3591.000000	-0.000399
3590.000000	-0.000384
3589.000000	-0.000380
3588.000000	-0.000385
3587.000000	-0.000394
3586.000000	-0.000400
3585.000000	-0.000401
3584.000000	-0.000400
3583.000000	-0.000402
3582.000000	-0.000404
3581.000000	-0.000400
3580.000000	-0.000387
3579.000000	-0.000366
3578.000000	-0.000345
3577.000000	-0.000332
3576.000000	-0.000330
3575.000000	-0.000334
3574.000000	-0.000341
3573.000000	-0.000345
3572.000000	-0.000341
3571.000000	-0.000324
3570.000000	-0.000297
3569.000000	-0.000275
3568.000000	-0.000274
3567.000000	-0.000287
3566.000000	-0.000290
3565.000000	-0.000268
3564.000000	-0.000230
3563.000000	-0.000196
3562.000000	-0.000171
3561.000000	-0.000150
3560.000000	-0.000129
3559.000000	-0.000113
3558.000000	-0.000110
3557.000000	-0.000118
3556.000000	-0.000124
3555.000000	-0.000118
3554.000000	-0.000100
3553.000000	-0.000075
3552.000000	-0.000049
3551.000000	-0.000017
3550.000000	0.000024
3549.000000	0.000071
3548.000000	0.000111
3547.000000	0.000130
3546.000000	0.000124
3545.000000	0.000103
3544.000000	0.000080
3543.000000	0.000066
3542.000000	0.000060
3541.000000	0.000056
3540.000000	0.000048
3539.000000	0.000040
3538.000000	0.000047
3537.000000	0.000075
3536.000000	0.000116
3535.000000	0.000147
3534.000000	0.000159
3533.000000	0.000157
3532.000000	0.000158
3531.000000	0.000167
3530.000000	0.000181
3529.000000	0.000193
3528.000000	0.000203
3527.000000	0.000214
3526.000000	0.000225
3525.000000	0.000227
3524.000000	0.000215
3523.000000	0.000195
3522.000000	0.000181
3521.000000	0.000180
3520.000000	0.000190
3519.000000	0.000203
3518.000000	0.000214
3517.000000	0.000221
3516.000000	0.000224
3515.000000	0.000223
3514.000000	0.000220
3513.000000	0.000223
3512.000000	0.000233
3511.000000	0.000246
3510.000000	0.000256
3509.000000	0.000264
3508.000000	0.000271
3507.000000	0.000275
3506.000000	0.000272
3505.000000	0.000262
3504.000000	0.000257
3503.000000	0.000267
3502.000000	0.000289
3501.000000	0.000308
3500.000000	0.000315
3499.000000	0.000312
3498.000000	0.000305
3497.000000	0.000303
3496.000000	0.000310
3495.000000	0.000327
3494.000000	0.000351
3493.000000	0.000371
3492.000000	0.000380
3491.000000	0.000379
3490.000000	0.000376
3489.000000	0.000385
3488.000000	0.000409
3487.000000	0.000439
3486.000000	0.000462
3485.000000	0.000471
3484.000000	0.000469
3483.000000	0.000463
3482.000000	0.000460
3481.000000	0.000464
3480.000000	0.000477
3479.000000	0.000495
3478.000000	0.000504
3477.000000	0.000496
3476.000000	0.000476
3475.000000	0.000462
3474.000000	0.000470
3473.000000	0.000500
3472.000000	0.000533
3471.000000	0.000550
3470.000000	0.000546
3469.000000	0.000526
3468.000000	0.000499
3467.000000	0.000476
3466.000000	0.000464
3465.000000	0.000467
3464.000000	0.000479
3463.000000	0.000496
3462.000000	0.000513
3461.000000	0.000531
3460.000000	0.000544
3459.000000	0.000546
3458.000000	0.000528
3457.000000	0.000492
3456.000000	0.000449
3455.000000	0.000418
3454.000000	0.000411
3453.000000	0.000426
3452.000000	0.000452
3451.000000	0.000479
3450.000000	0.000501
3449.000000	0.000516
3448.000000	0.000523
3447.000000	0.000525
3446.000000	0.000529
3445.000000	0.000540
3444.000000	0.000551
3443.000000	0.000556
3442.000000	0.000552
3441.000000	0.000548
3440.000000	0.000555
3439.000000	0.000577
3438.000000	0.000610
3437.000000	0.000643
3436.000000	0.000667
3435.000000	0.000675
3434.000000	0.000670
3433.000000	0.000661
3432.000000	0.000654
3431.000000	0.000657
3430.000000	0.000673
3429.000000	0.000697
3428.000000	0.000715
3427.000000	0.000714
3426.000000	0.000693
3425.000000	0.000668
3424.000000	0.000659
3423.000000	0.000676
3422.000000	0.000709
3421.000000	0.000744
3420.000000	0.000769
3419.000000	0.000780
3418.000000	0.000783
3417.000000	0.000782
3416.000000	0.000782
3415.000000	0.000788
3414.000000	0.000802
3413.000000	0.000822
3412.000000	0.000843
3411.000000	0.000861
3410.000000	0.000872
3409.000000	0.000872
3408.000000	0.000862
3407.000000	0.000848
3406.000000	0.000841
3405.000000	0.000851
3404.000000	0.000875
3403.000000	0.000902
3402.000000	0.000922
3401.000000	0.000934
3400.000000	0.000939
3399.000000	0.000939
3398.000000	0.000936
3397.000000	0.000937
3396.000000	0.000944
3395.000000	0.000953
3394.000000	0.000958
3393.000000	0.000956
3392.000000	0.000948
3391.000000	0.000936
3390.000000	0.000923
3389.000000	0.000917
3388.000000	0.000923
3387.000000	0.000937
3386.000000	0.000944
3385.000000	0.000936
3384.000000	0.000917
3383.000000	0.000901
3382.000000	0.000897
3381.000000	0.000901
3380.000000	0.000904
3379.000000	0.000898
3378.000000	0.000889
3377.000000	0.000888
3376.000000	0.000903
3375.000000	0.000928
3374.000000	0.000950
3373.000000	0.000961
3372.000000	0.000960
3371.000000	0.000955
3370.000000	0.000955
3369.000000	0.000958
3368.000000	0.000959
3367.000000	0.000955
3366.000000	0.000949
3365.000000	0.000947
3364.000000	0.000953
3363.000000	0.000967
3362.000000	0.000982
3361.000000	0.000987
3360.000000	0.000976
3359.000000	0.000956
3358.000000	0.000947
3357.000000	0.000965
3356.000000	0.001008
3355.000000	0.001053
3354.000000	0.001077
3353.000000	0.001076
3352.000000	0.001057
3351.000000	0.001037
3350.000000	0.001022
3349.000000	0.001014
3348.000000	0.001012
3347.000000	0.001017
3346.000000	0.001035
3345.000000	0.001065
3344.000000	0.001099
3343.000000	0.001123
3342.000000	0.001126
3341.000000	0.001111
3340.000000	0.001091
3339.000000	0.001079
3338.000000	0.001078
3337.000000	0.001082
3336.000000	0.001083
3335.000000	0.001080
3334.000000	0.001072
3333.000000	0.001060
3332.000000	0.001045
3331.000000	0.001033
3330.000000	0.001027
3329.000000	0.001026
3328.000000	0.001028
3327.000000	0.001030
3326.000000	0.001032
3325.000000	0.001038
3324.000000	0.001047
3323.000000	0.001063
3322.000000	0.001087
3321.000000	0.001113
3320.000000	0.001127
3319.000000	0.001121
3318.000000	0.001095
3317.000000	0.001067
3316.000000	0.001051
3315.000000	0.001054
3314.000000	0.001069
3313.000000	0.001088
3312.000000	0.001103
3311.000000	0.001111
3310.000000	0.001112
3309.000000	0.001108
3308.000000	0.001106
3307.000000	0.001108
3306.000000	0.001116
3305.000000	0.001131
3304.000000	0.001151
3303.000000	0.001172
3302.000000	0.001187
3301.000000	0.001194
3300.000000	0.001196
3299.000000	0.001192
3298.000000	0.001185
3297.000000	0.001172
3296.000000	0.001159
3295.000000	0.001151
3294.000000	0.001151
3293.000000	0.001157
3292.000000	0.001168
3291.000000	0.001182
3290.000000	0.001196
3289.000000	0.001203
3288.000000	0.001198
3287.000000	0.001187
3286.000000	0.001180
3285.000000	0.001181
3284.000000	0.001187
3283.000000	0.001190
3282.000000	0.001190
3281.000000	0.001188
3280.000000	0.001182
3279.000000	0.001166
3278.000000	0.001141
3277.000000	0.001118
3276.000000	0.001109
3275.000000	0.001115
3274.000000	0.001123
3273.000000	0.001124
3272.000000	0.001119
3271.000000	0.001112
3270.000000	0.001106
3269.000000	0.001106
3268.000000	0.001113
3267.000000	0.001129
3266.000000	0.001148
3265.000000	0.001163
3264.000000	0.001174
3263.000000	0.001184
3262.000000	0.001192
3261.000000	0.001192
3260.000000	0.001182
3259.000000	0.001164
3258.000000	0.001149
3257.000000	0.001140
3256.000000	0.001135
3255.000000	0.001134
3254.000000	0.001134
3253.000000	0.001131
3252.000000	0.001121
3251.000000	0.001103
3250.000000	0.001087
3249.000000	0.001086
3248.000000	0.001103
3247.000000	0.001132
3246.000000	0.001162
3245.000000	0.001181
3244.000000	0.001187
3243.000000	0.001180
3242.000000	0.001165
3241.000000	0.001142
3240.000000	0.001119
3239.000000	0.001104
3238.000000	0.001106
3237.000000	0.001122
3236.000000	0.001142
3235.000000	0.001154
3234.000000	0.001158
3233.000000	0.001163
3232.000000	0.001171
3231.000000	0.001173
3230.000000	0.001159
3229.000000	0.001127
3228.000000	0.001096
3227.000000	0.001084
3226.000000	0.001094
3225.000000	0.001111
3224.000000	0.001114
3223.000000	0.001099
3222.000000	0.001082
3221.000000	0.001082
3220.000000	0.001100
3219.000000	0.001122
3218.000000	0.001130
3217.000000	0.001113
3216.000000	0.001078
3215.000000	0.001042
3214.000000	0.001021
3213.000000	0.001018
3212.000000	0.001018
3211.000000	0.001006
3210.000000	0.000984
3209.000000	0.000965
3208.000000	0.000966
3207.000000	0.000990
3206.000000	0.001028
3205.000000	0.001063
3204.000000	0.001081
3203.000000	0.001080
3202.000000	0.001072
3201.000000	0.001070
3200.000000	0.001073
3199.000000	0.001070
3198.000000	0.001050
3197.000000	0.001017
3196.000000	0.000986
3195.000000	0.000971
3194.000000	0.000977
3193.000000	0.000996
3192.000000	0.001015
3191.000000	0.001019
3190.000000	0.001008
3189.000000	0.000987
3188.000000	0.000969
3187.000000	0.000959
3186.000000	0.000955
3185.000000	0.000953
3184.000000	0.000953
3183.000000	0.000959
3182.000000	0.000973
3181.000000	0.000992
3180.000000	0.001011
3179.000000	0.001023
3178.000000	0.001025
3177.000000	0.001009
3176.000000	0.000973
3175.000000	0.000924
3174.000000	0.000881
3173.000000	0.000857
3172.000000	0.000856
3171.000000	0.000874
3170.000000	0.000901
3169.000000	0.000930
3168.000000	0.000948
3167.000000	0.000950
3166.000000	0.000940
3165.000000	0.000928
3164.000000	0.000916
3163.000000	0.000900
3162.000000	0.000884
3161.000000	0.000874
3160.000000	0.000875
3159.000000	0.000882
3158.000000	0.000891
3157.000000	0.000902
3156.000000	0.000914
3155.000000	0.000917
3154.000000	0.000901
3153.000000	0.000868
3152.000000	0.000832
3151.000000	0.000805
3150.000000	0.000790
3149.000000	0.000784
3148.000000	0.000783
3147.000000	0.000787
3146.000000	0.000800
3145.000000	0.000816
3144.000000	0.000827
3143.000000	0.000824
3142.000000	0.000802
3141.000000	0.000770
3140.000000	0.000742
3139.000000	0.000729
3138.000000	0.000733
3137.000000	0.000744
3136.000000	0.000750
3135.000000	0.000742
3134.000000	0.000724
3133.000000	0.000707
3132.000000	0.000704
3131.000000	0.000712
3130.000000	0.000727
3129.000000	0.000740
3128.000000	0.000749
3127.000000	0.000755
3126.000000	0.000757
3125.000000	0.000759
3124.000000	0.000759
3123.000000	0.000751
3122.000000	0.000731
3121.000000	0.000698
3120.000000	0.000663
3119.000000	0.000639
3118.000000	0.000631
3117.000000	0.000637
3116.000000	0.000648
3115.000000	0.000662
3114.000000	0.000681
3113.000000	0.000708
3112.000000	0.000737
3111.000000	0.000757
3110.000000	0.000759
3109.000000	0.000745
3108.000000	0.000725
3107.000000	0.000710
3106.000000	0.000702
3105.000000	0.000696
3104.000000	0.000688
3103.000000	0.000674
3102.000000	0.000656
3101.000000	0.000638
3100.000000	0.000624
3099.000000	0.000614
3098.000000	0.000606
3097.000000	0.000598
3096.000000	0.000595
3095.000000	0.000599
3094.000000	0.000614
3093.000000	0.000633
3092.000000	0.000647
3091.000000	0.000646
3090.000000	0.000633
3089.000000	0.000616
3088.000000	0.000602
3087.000000	0.000593
3086.000000	0.000586
3085.000000	0.000586
3084.000000	0.000595
3083.000000	0.000614
3082.000000	0.000638
3081.000000	0.000656
3080.000000	0.000659
3079.000000	0.000646
3078.000000	0.000623
3077.000000	0.000604
3076.000000	0.000598
3075.000000	0.000603
3074.000000	0.000611
3073.000000	0.000618
3072.000000	0.000625
3071.000000	0.000634
3070.000000	0.000642
3069.000000	0.000644
3068.000000	0.000638
3067.000000	0.000626
3066.000000	0.000610
3065.000000	0.000593
3064.000000	0.000581
3063.000000	0.000580
3062.000000	0.000589
3061.000000	0.000602
3060.000000	0.000608
3059.000000	0.000600
3058.000000	0.000580
3057.000000	0.000555
3056.000000	0.000533
3055.000000	0.000514
3054.000000	0.000499
3053.000000	0.000492
3052.000000	0.000496
3051.000000	0.000510
3050.000000	0.000525
3049.000000	0.000536
3048.000000	0.000545
3047.000000	0.000556
3046.000000	0.000567
3045.000000	0.000573
3044.000000	0.000570
3043.000000	0.000559
3042.000000	0.000544
3041.000000	0.000526
3040.000000	0.000503
3039.000000	0.000474
3038.000000	0.000447
3037.000000	0.000434
3036.000000	0.000438
3035.000000	0.000450
3034.000000	0.000457
3033.000000	0.000456
3032.000000	0.000448
3031.000000	0.000436
3030.000000	0.000418
3029.000000	0.000398
3028.000000	0.000388
3027.000000	0.000395
3026.000000	0.000415
3025.000000	0.000435
3024.000000	0.000448
3023.000000	0.000451
3022.000000	0.000445
3021.000000	0.000432
3020.000000	0.000415
3019.000000	0.000399
3018.000000	0.000385
3017.000000	0.000375
3016.000000	0.000370
3015.000000	0.000374
3014.000000	0.000385
3013.000000	0.000394
3012.000000	0.000391
3011.000000	0.000376
3010.000000	0.000361
3009.000000	0.000356
3008.000000	0.000362
3007.000000	0.000371
3006.000000	0.000371
3005.000000	0.000361
3004.000000	0.000350
3003.000000	0.000350
3002.000000	0.000365
3001.000000	0.000388
3000.000000	0.000404
2999.000000	0.000405
2998.000000	0.000399
2997.000000	0.000398
2996.000000	0.000410
2995.000000	0.000434
2994.000000	0.000458
2993.000000	0.000471
2992.000000	0.000471
2991.000000	0.000466
2990.000000	0.000466
2989.000000	0.000473
2988.000000	0.000481
2987.000000	0.000480
2986.000000	0.000474
2985.000000	0.000475
2984.000000	0.000493
2983.000000	0.000524
2982.000000	0.000552
2981.000000	0.000566
2980.000000	0.000569
2979.000000	0.000569
2978.000000	0.000572
2977.000000	0.000574
2976.000000	0.000573
2975.000000	0.000572
2974.000000	0.000576
2973.000000	0.000590
2972.000000	0.000612
2971.000000	0.000641
2970.000000	0.000675
2969.000000	0.000710
2968.000000	0.000739
2967.000000	0.000758
2966.000000	0.000770
2965.000000	0.000783
2964.000000	0.000801
2963.000000	0.000821
2962.000000	0.000840
2961.000000	0.000855
2960.000000	0.000868
2959.000000	0.000880
2958.000000	0.000890
2957.000000	0.000899
2956.000000	0.000907
2955.000000	0.000918
2954.000000	0.000931
2953.000000	0.000942
2952.000000	0.000942
2951.000000	0.000926
2950.000000	0.000900
2949.000000	0.000880
2948.000000	0.000878
2947.000000	0.000892
2946.000000	0.000911
2945.000000	0.000923
2944.000000	0.000927
2943.000000	0.000931
2942.000000	0.000940
2941.000000	0.000958
2940.000000	0.000985
2939.000000	0.001018
2938.000000	0.001054
2937.000000	0.001088
2936.000000	0.001120
2935.000000	0.001149
2934.000000	0.001176
2933.000000	0.001200
2932.000000	0.001220
2931.000000	0.001230
2930.000000	0.001226
2929.000000	0.001205
2928.000000	0.001169
2927.000000	0.001126
2926.000000	0.001084
2925.000000	0.001046
2924.000000	0.001014
2923.000000	0.000993
2922.000000	0.000987
2921.000000	0.000990
2920.000000	0.000989
2919.000000	0.000974
2918.000000	0.000947
2917.000000	0.000919
2916.000000	0.000900
2915.000000	0.000890
2914.000000	0.000881
2913.000000	0.000867
2912.000000	0.000845
2911.000000	0.000815
2910.000000	0.000782
2909.000000	0.000757
2908.000000	0.000751
2907.000000	0.000760
2906.000000	0.000767
2905.000000	0.000756
2904.000000	0.000727
2903.000000	0.000701
2902.000000	0.000691
2901.000000	0.000699
2900.000000	0.000709
2899.000000	0.000710
2898.000000	0.000701
2897.000000	0.000687
2896.000000	0.000677
2895.000000	0.000671
2894.000000	0.000669
2893.000000	0.000664
2892.000000	0.000652
2891.000000	0.000634
2890.000000	0.000618
2889.000000	0.000610
2888.000000	0.000609
2887.000000	0.000608
2886.000000	0.000605
2885.000000	0.000605
2884.000000	0.000616
2883.000000	0.000635
2882.000000	0.000647
2881.000000	0.000647
2880.000000	0.000635
2879.000000	0.000623
2878.000000	0.000618
2877.000000	0.000620
2876.000000	0.000627
2875.000000	0.000637
2874.000000	0.000644
2873.000000	0.000645
2872.000000	0.000643
2871.000000	0.000641
2870.000000	0.000640
2869.000000	0.000640
2868.000000	0.000639
2867.000000	0.000640
2866.000000	0.000645
2865.000000	0.000653
2864.000000	0.000656
2863.000000	0.000651
2862.000000	0.000643
2861.000000	0.000640
2860.000000	0.000646
2859.000000	0.000656
2858.000000	0.000659
2857.000000	0.000650
2856.000000	0.000633
2855.000000	0.000614
2854.000000	0.000601
2853.000000	0.000595
2852.000000	0.000589
2851.000000	0.000575
2850.000000	0.000548
2849.000000	0.000507
2848.000000	0.000462
2847.000000	0.000431
2846.000000	0.000420
2845.000000	0.000425
2844.000000	0.000428
2843.000000	0.000419
2842.000000	0.000402
2841.000000	0.000387
2840.000000	0.000379
2839.000000	0.000374
2838.000000	0.000365
2837.000000	0.000349
2836.000000	0.000331
2835.000000	0.000314
2834.000000	0.000304
2833.000000	0.000300
2832.000000	0.000301
2831.000000	0.000301
2830.000000	0.000298
2829.000000	0.000291
2828.000000	0.000279
2827.000000	0.000266
2826.000000	0.000257
2825.000000	0.000254
2824.000000	0.000254
2823.000000	0.000257
2822.000000	0.000261
2821.000000	0.000266
2820.000000	0.000265
2819.000000	0.000253
2818.000000	0.000236
2817.000000	0.000227
2816.000000	0.000231
2815.000000	0.000243
2814.000000	0.000252
2813.000000	0.000257
2812.000000	0.000261
2811.000000	0.000266
2810.000000	0.000272
2809.000000	0.000273
2808.000000	0.000268
2807.000000	0.000257
2806.000000	0.000244
2805.000000	0.000233
2804.000000	0.000224
2803.000000	0.000218
2802.000000	0.000221
2801.000000	0.000238
2800.000000	0.000265
2799.000000	0.000287
2798.000000	0.000289
2797.000000	0.000273
2796.000000	0.000252
2795.000000	0.000233
2794.000000	0.000218
2793.000000	0.000205
2792.000000	0.000199
2791.000000	0.000206
2790.000000	0.000222
2789.000000	0.000240
2788.000000	0.000254
2787.000000	0.000261
2786.000000	0.000264
2785.000000	0.000262
2784.000000	0.000252
2783.000000	0.000233
2782.000000	0.000208
2781.000000	0.000186
2780.000000	0.000174
2779.000000	0.000177
2778.000000	0.000192
2777.000000	0.000214
2776.000000	0.000232
2775.000000	0.000237
2774.000000	0.000229
2773.000000	0.000219
2772.000000	0.000217
2771.000000	0.000222
2770.000000	0.000225
2769.000000	0.000222
2768.000000	0.000219
2767.000000	0.000220
2766.000000	0.000226
2765.000000	0.000234
2764.000000	0.000243
2763.000000	0.000249
2762.000000	0.000248
2761.000000	0.000236
2760.000000	0.000219
2759.000000	0.000208
2758.000000	0.000207
2757.000000	0.000211
2756.000000	0.000214
2755.000000	0.000215
2754.000000	0.000219
2753.000000	0.000225
2752.000000	0.000231
2751.000000	0.000233
2750.000000	0.000230
2749.000000	0.000222
2748.000000	0.000209
2747.000000	0.000196
2746.000000	0.000188
2745.000000	0.000188
2744.000000	0.000195
2743.000000	0.000202
2742.000000	0.000207
2741.000000	0.000208
2740.000000	0.000206
2739.000000	0.000200
2738.000000	0.000191
2737.000000	0.000183
2736.000000	0.000180
2735.000000	0.000183
2734.000000	0.000186
2733.000000	0.000185
2732.000000	0.000178
2731.000000	0.000168
2730.000000	0.000158
2729.000000	0.000149
2728.000000	0.000139
2727.000000	0.000131
2726.000000	0.000129
2725.000000	0.000131
2724.000000	0.000134
2723.000000	0.000138
2722.000000	0.000146
2721.000000	0.000159
2720.000000	0.000176
2719.000000	0.000191
2718.000000	0.000199
2717.000000	0.000199
2716.000000	0.000193
2715.000000	0.000183
2714.000000	0.000172
2713.000000	0.000162
2712.000000	0.000154
2711.000000	0.000148
2710.000000	0.000147
2709.000000	0.000150
2708.000000	0.000156
2707.000000	0.000159
2706.000000	0.000157
2705.000000	0.000152
2704.000000	0.000148
2703.000000	0.000149
2702.000000	0.000150
2701.000000	0.000149
2700.000000	0.000148
2699.000000	0.000148
2698.000000	0.000150
2697.000000	0.000150
2696.000000	0.000142
2695.000000	0.000129
2694.000000	0.000117
2693.000000	0.000114
2692.000000	0.000120
2691.000000	0.000132
2690.000000	0.000147
2689.000000	0.000158
2688.000000	0.000162
2687.000000	0.000158
2686.000000	0.000153
2685.000000	0.000155
2684.000000	0.000163
2683.000000	0.000166
2682.000000	0.000161
2681.000000	0.000151
2680.000000	0.000146
2679.000000	0.000147
2678.000000	0.000147
2677.000000	0.000143
2676.000000	0.000134
2675.000000	0.000122
2674.000000	0.000110
2673.000000	0.000104
2672.000000	0.000108
2671.000000	0.000123
2670.000000	0.000141
2669.000000	0.000156
2668.000000	0.000165
2667.000000	0.000170
2666.000000	0.000175
2665.000000	0.000185
2664.000000	0.000199
2663.000000	0.000215
2662.000000	0.000231
2661.000000	0.000246
2660.000000	0.000260
2659.000000	0.000270
2658.000000	0.000273
2657.000000	0.000267
2656.000000	0.000255
2655.000000	0.000243
2654.000000	0.000235
2653.000000	0.000235
2652.000000	0.000242
2651.000000	0.000248
2650.000000	0.000245
2649.000000	0.000237
2648.000000	0.000234
2647.000000	0.000241
2646.000000	0.000257
2645.000000	0.000268
2644.000000	0.000263
2643.000000	0.000240
2642.000000	0.000205
2641.000000	0.000170
2640.000000	0.000145
2639.000000	0.000136
2638.000000	0.000151
2637.000000	0.000186
2636.000000	0.000227
2635.000000	0.000252
2634.000000	0.000249
2633.000000	0.000221
2632.000000	0.000179
2631.000000	0.000136
2630.000000	0.000103
2629.000000	0.000093
2628.000000	0.000108
2627.000000	0.000132
2626.000000	0.000142
2625.000000	0.000126
2624.000000	0.000092
2623.000000	0.000053
2622.000000	0.000028
2621.000000	0.000024
2620.000000	0.000042
2619.000000	0.000067
2618.000000	0.000081
2617.000000	0.000082
2616.000000	0.000082
2615.000000	0.000093
2614.000000	0.000110
2613.000000	0.000117
2612.000000	0.000102
2611.000000	0.000068
2610.000000	0.000028
2609.000000	-0.000005
2608.000000	-0.000033
2607.000000	-0.000066
2606.000000	-0.000104
2605.000000	-0.000132
2604.000000	-0.000133
2603.000000	-0.000106
2602.000000	-0.000071
2601.000000	-0.000045
2600.000000	-0.000035
2599.000000	-0.000037
2598.000000	-0.000048
2597.000000	-0.000063
2596.000000	-0.000080
2595.000000	-0.000094
2594.000000	-0.000105
2593.000000	-0.000112
2592.000000	-0.000113
2591.000000	-0.000110
2590.000000	-0.000105
2589.000000	-0.000099
2588.000000	-0.000092
2587.000000	-0.000090
2586.000000	-0.000099
2585.000000	-0.000117
2584.000000	-0.000126
2583.000000	-0.000113
2582.000000	-0.000082
2581.000000	-0.000051
2580.000000	-0.000033
2579.000000	-0.000031
2578.000000	-0.000048
2577.000000	-0.000080
2576.000000	-0.000115
2575.000000	-0.000139
2574.000000	-0.000148
2573.000000	-0.000149
2572.000000	-0.000147
2571.000000	-0.000140
2570.000000	-0.000132
2569.000000	-0.000132
2568.000000	-0.000143
2567.000000	-0.000159
2566.000000	-0.000170
2565.000000	-0.000173
2564.000000	-0.000173
2563.000000	-0.000177
2562.000000	-0.000186
2561.000000	-0.000194
2560.000000	-0.000197
2559.000000	-0.000197
2558.000000	-0.000203
2557.000000	-0.000222
2556.000000	-0.000249
2555.000000	-0.000268
2554.000000	-0.000265
2553.000000	-0.000242
2552.000000	-0.000213
2551.000000	-0.000194
2550.000000	-0.000194
2549.000000	-0.000215
2548.000000	-0.000248
2547.000000	-0.000280
2546.000000	-0.000299
2545.000000	-0.000309
2544.000000	-0.000310
2543.000000	-0.000297
2542.000000	-0.000270
2541.000000	-0.000240
2540.000000	-0.000224
2539.000000	-0.000226
2538.000000	-0.000234
2537.000000	-0.000234
2536.000000	-0.000228
2535.000000	-0.000216
2534.000000	-0.000200
2533.000000	-0.000181
2532.000000	-0.000168
2531.000000	-0.000177
2530.000000	-0.000205
2529.000000	-0.000234
2528.000000	-0.000245
2527.000000	-0.000235
2526.000000	-0.000216
2525.000000	-0.000202
2524.000000	-0.000193
2523.000000	-0.000180
2522.000000	-0.000159
2521.000000	-0.000144
2520.000000	-0.000155
2519.000000	-0.000194
2518.000000	-0.000243
2517.000000	-0.000279
2516.000000	-0.000295
2515.000000	-0.000294
2514.000000	-0.000281
2513.000000	-0.000265
2512.000000	-0.000252
2511.000000	-0.000246
2510.000000	-0.000242
2509.000000	-0.000230
2508.000000	-0.000207
2507.000000	-0.000173
2506.000000	-0.000130
2505.000000	-0.000084
2504.000000	-0.000054
2503.000000	-0.000058
2502.000000	-0.000098
2501.000000	-0.000155
2500.000000	-0.000210
2499.000000	-0.000256
2498.000000	-0.000292
2497.000000	-0.000312
2496.000000	-0.000307
2495.000000	-0.000283
2494.000000	-0.000262
2493.000000	-0.000264
2492.000000	-0.000289
2491.000000	-0.000324
2490.000000	-0.000351
2489.000000	-0.000361
2488.000000	-0.000350
2487.000000	-0.000325
2486.000000	-0.000301
2485.000000	-0.000293
2484.000000	-0.000303
2483.000000	-0.000318
2482.000000	-0.000327
2481.000000	-0.000330
2480.000000	-0.000330
2479.000000	-0.000324
2478.000000	-0.000304
2477.000000	-0.000277
2476.000000	-0.000262
2475.000000	-0.000275
2474.000000	-0.000305
2473.000000	-0.000325
2472.000000	-0.000318
2471.000000	-0.000289
2470.000000	-0.000252
2469.000000	-0.000219
2468.000000	-0.000190
2467.000000	-0.000167
2466.000000	-0.000164
2465.000000	-0.000195
2464.000000	-0.000255
2463.000000	-0.000313
2462.000000	-0.000334
2461.000000	-0.000308
2460.000000	-0.000260
2459.000000	-0.000223
2458.000000	-0.000211
2457.000000	-0.000215
2456.000000	-0.000223
2455.000000	-0.000235
2454.000000	-0.000250
2453.000000	-0.000261
2452.000000	-0.000255
2451.000000	-0.000230
2450.000000	-0.000201
2449.000000	-0.000190
2448.000000	-0.000208
2447.000000	-0.000241
2446.000000	-0.000266
2445.000000	-0.000270
2444.000000	-0.000259
2443.000000	-0.000249
2442.000000	-0.000238
2441.000000	-0.000219
2440.000000	-0.000194
2439.000000	-0.000174
2438.000000	-0.000174
2437.000000	-0.000195
2436.000000	-0.000227
2435.000000	-0.000259
2434.000000	-0.000288
2433.000000	-0.000312
2432.000000	-0.000329
2431.000000	-0.000334
2430.000000	-0.000325
2429.000000	-0.000310
2428.000000	-0.000306
2427.000000	-0.000319
2426.000000	-0.000338
2425.000000	-0.000340
2424.000000	-0.000317
2423.000000	-0.000285
2422.000000	-0.000270
2421.000000	-0.000284
2420.000000	-0.000316
2419.000000	-0.000344
2418.000000	-0.000359
2417.000000	-0.000368
2416.000000	-0.000379
2415.000000	-0.000392
2414.000000	-0.000398
2413.000000	-0.000389
2412.000000	-0.000365
2411.000000	-0.000334
2410.000000	-0.000307
2409.000000	-0.000297
2408.000000	-0.000308
2407.000000	-0.000334
2406.000000	-0.000354
2405.000000	-0.000361
2404.000000	-0.000360
2403.000000	-0.000362
2402.000000	-0.000372
2401.000000	-0.000386
2400.000000	-0.000402
2399.000000	-0.000414
2398.000000	-0.000415
2397.000000	-0.000410
2396.000000	-0.000405
2395.000000	-0.000404
2394.000000	-0.000400
2393.000000	-0.000389
2392.000000	-0.000377
2391.000000	-0.000374
2390.000000	-0.000383
2389.000000	-0.000402
2388.000000	-0.000432
2387.000000	-0.000474
2386.000000	-0.000517
2385.000000	-0.000551
2384.000000	-0.000578
2383.000000	-0.000614
2382.000000	-0.000668
2381.000000	-0.000736
2380.000000	-0.000797
2379.000000	-0.000823
2378.000000	-0.000794
2377.000000	-0.000713
2376.000000	-0.000616
2375.000000	-0.000544
2374.000000	-0.000521
2373.000000	-0.000545
2372.000000	-0.000602
2371.000000	-0.000671
2370.000000	-0.000726
2369.000000	-0.000752
2368.000000	-0.000749
2367.000000	-0.000726
2366.000000	-0.000696
2365.000000	-0.000674
2364.000000	-0.000664
2363.000000	-0.000651
2362.000000	-0.000620
2361.000000	-0.000592
2360.000000	-0.000598
2359.000000	-0.000638
2358.000000	-0.000691
2357.000000	-0.000741
2356.000000	-0.000772
2355.000000	-0.000758
2354.000000	-0.000727
2353.000000	-0.000740
2352.000000	-0.000793
2351.000000	-0.000806
2350.000000	-0.000723
2349.000000	-0.000572
2348.000000	-0.000432
2347.000000	-0.000386
2346.000000	-0.000447
2345.000000	-0.000523
2344.000000	-0.000517
2343.000000	-0.000443
2342.000000	-0.000383
2341.000000	-0.000386
2340.000000	-0.000431
2339.000000	-0.000465
2338.000000	-0.000461
2337.000000	-0.000433
2336.000000	-0.000397
2335.000000	-0.000368
2334.000000	-0.000366
2333.000000	-0.000406
2332.000000	-0.000465
2331.000000	-0.000497
2330.000000	-0.000478
2329.000000	-0.000408
2328.000000	-0.000297
2327.000000	-0.000166
2326.000000	-0.000056
2325.000000	-0.000009
2324.000000	-0.000035
2323.000000	-0.000098
2322.000000	-0.000141
2321.000000	-0.000124
2320.000000	-0.000048
2319.000000	0.000046
2318.000000	0.000111
2317.000000	0.000120
2316.000000	0.000073
2315.000000	-0.000019
2314.000000	-0.000127
2313.000000	-0.000218
2312.000000	-0.000272
2311.000000	-0.000295
2310.000000	-0.000304
2309.000000	-0.000307
2308.000000	-0.000308
2307.000000	-0.000321
2306.000000	-0.000356
2305.000000	-0.000398
2304.000000	-0.000418
2303.000000	-0.000398
2302.000000	-0.000344
2301.000000	-0.000279
2300.000000	-0.000231
2299.000000	-0.000221
2298.000000	-0.000237
2297.000000	-0.000233
2296.000000	-0.000178
2295.000000	-0.000091
2294.000000	-0.000026
2293.000000	-0.000009
2292.000000	-0.000016
2291.000000	-0.000005
2290.000000	0.000041
2289.000000	0.000113
2288.000000	0.000185
2287.000000	0.000224
2286.000000	0.000209
2285.000000	0.000145
2284.000000	0.000063
2283.000000	-0.000006
2282.000000	-0.000050
2281.000000	-0.000071
2280.000000	-0.000068
2279.000000	-0.000035
2278.000000	0.000020
2277.000000	0.000078
2276.000000	0.000113
2275.000000	0.000099
2274.000000	0.000030
2273.000000	-0.000068
2272.000000	-0.000155
2271.000000	-0.000194
2270.000000	-0.000172
2269.000000	-0.000095
2268.000000	0.000002
2267.000000	0.000071
2266.000000	0.000081
2265.000000	0.000047
2264.000000	0.000008
2263.000000	-0.000023
2262.000000	-0.000056
2261.000000	-0.000087
2260.000000	-0.000091
2259.000000	-0.000060
2258.000000	-0.000030
2257.000000	-0.000034
2256.000000	-0.000075
2255.000000	-0.000139
2254.000000	-0.000216
2253.000000	-0.000288
2252.000000	-0.000323
2251.000000	-0.000307
2250.000000	-0.000271
2249.000000	-0.000260
2248.000000	-0.000278
2247.000000	-0.000299
2246.000000	-0.000305
2245.000000	-0.000307
2244.000000	-0.000311
2243.000000	-0.000297
2242.000000	-0.000246
2241.000000	-0.000174
2240.000000	-0.000124
2239.000000	-0.000133
2238.000000	-0.000197
2237.000000	-0.000282
2236.000000	-0.000346
2235.000000	-0.000370
2234.000000	-0.000372
2233.000000	-0.000379
2232.000000	-0.000393
2231.000000	-0.000391
2230.000000	-0.000359
2229.000000	-0.000311
2228.000000	-0.000271
2227.000000	-0.000245
2226.000000	-0.000229
2225.000000	-0.000233
2224.000000	-0.000276
2223.000000	-0.000356
2222.000000	-0.000438
2221.000000	-0.000498
2220.000000	-0.000532
2219.000000	-0.000545
2218.000000	-0.000521
2217.000000	-0.000452
2216.000000	-0.000366
2215.000000	-0.000306
2214.000000	-0.000286
2213.000000	-0.000286
2212.000000	-0.000289
2211.000000	-0.000296
2210.000000	-0.000307
2209.000000	-0.000302
2208.000000	-0.000270
2207.000000	-0.000222
2206.000000	-0.000173
2205.000000	-0.000116
2204.000000	-0.000038
2203.000000	0.000041
2202.000000	0.000071
2201.000000	0.000006
2200.000000	-0.000142
2199.000000	-0.000301
2198.000000	-0.000383
2197.000000	-0.000351
2196.000000	-0.000253
2195.000000	-0.000182
2194.000000	-0.000188
2193.000000	-0.000242
2192.000000	-0.000285
2191.000000	-0.000288
2190.000000	-0.000270
2189.000000	-0.000265
2188.000000	-0.000292
2187.000000	-0.000334
2186.000000	-0.000342
2185.000000	-0.000281
2184.000000	-0.000170
2183.000000	-0.000060
2182.000000	0.000005
2181.000000	0.000006
2180.000000	-0.000063
2179.000000	-0.000191
2178.000000	-0.000344
2177.000000	-0.000488
2176.000000	-0.000620
2175.000000	-0.000733
2174.000000	-0.000763
2173.000000	-0.000615
2172.000000	-0.000294
2171.000000	0.000074
2170.000000	0.000342
2169.000000	0.000463
2168.000000	0.000469
2167.000000	0.000400
2166.000000	0.000265
2165.000000	0.000081
2164.000000	-0.000110
2163.000000	-0.000251
2162.000000	-0.000292
2161.000000	-0.000246
2160.000000	-0.000237
2159.000000	-0.000417
2158.000000	-0.000780
2157.000000	-0.001141
2156.000000	-0.001344
2155.000000	-0.001402
2154.000000	-0.001384
2153.000000	-0.001310
2152.000000	-0.001190
2151.000000	-0.001073
2150.000000	-0.000999
2149.000000	-0.000933
2148.000000	-0.000826
2147.000000	-0.000712
2146.000000	-0.000689
2145.000000	-0.000786
2144.000000	-0.000928
2143.000000	-0.001013
2142.000000	-0.001010
2141.000000	-0.000969
2140.000000	-0.000952
2139.000000	-0.000971
2138.000000	-0.000983
2137.000000	-0.000943
2136.000000	-0.000872
2135.000000	-0.000830
2134.000000	-0.000832
2133.000000	-0.000828
2132.000000	-0.000772
2131.000000	-0.000683
2130.000000	-0.000600
2129.000000	-0.000527
2128.000000	-0.000456
2127.000000	-0.000417
2126.000000	-0.000450
2125.000000	-0.000539
2124.000000	-0.000614
2123.000000	-0.000636
2122.000000	-0.000636
2121.000000	-0.000657
2120.000000	-0.000693
2119.000000	-0.000698
2118.000000	-0.000645
2117.000000	-0.000555
2116.000000	-0.000475
2115.000000	-0.000437
2114.000000	-0.000432
2113.000000	-0.000427
2112.000000	-0.000404
2111.000000	-0.000380
2110.000000	-0.000373
2109.000000	-0.000376
2108.000000	-0.000367
2107.000000	-0.000348
2106.000000	-0.000337
2105.000000	-0.000334
2104.000000	-0.000314
2103.000000	-0.000267
2102.000000	-0.000216
2101.000000	-0.000187
2100.000000	-0.000180
2099.000000	-0.000187
2098.000000	-0.000205
2097.000000	-0.000232
2096.000000	-0.000256
2095.000000	-0.000274
2094.000000	-0.000305
2093.000000	-0.000349
2092.000000	-0.000382
2091.000000	-0.000383
2090.000000	-0.000366
2089.000000	-0.000354
2088.000000	-0.000339
2087.000000	-0.000295
2086.000000	-0.000230
2085.000000	-0.000195
2084.000000	-0.000242
2083.000000	-0.000361
2082.000000	-0.000479
2081.000000	-0.000515
2080.000000	-0.000451
2079.000000	-0.000348
2078.000000	-0.000285
2077.000000	-0.000292
2076.000000	-0.000335
2075.000000	-0.000379
2074.000000	-0.000415
2073.000000	-0.000445
2072.000000	-0.000450
2071.000000	-0.000419
2070.000000	-0.000371
2069.000000	-0.000340
2068.000000	-0.000343
2067.000000	-0.000373
2066.000000	-0.000430
2065.000000	-0.000514
2064.000000	-0.000596
2063.000000	-0.000626
2062.000000	-0.000592
2061.000000	-0.000549
2060.000000	-0.000561
2059.000000	-0.000628
2058.000000	-0.000689
2057.000000	-0.000686
2056.000000	-0.000616
2055.000000	-0.000521
2054.000000	-0.000434
2053.000000	-0.000359
2052.000000	-0.000288
2051.000000	-0.000219
2050.000000	-0.000164
2049.000000	-0.000141
2048.000000	-0.000170
2047.000000	-0.000266
2046.000000	-0.000425
2045.000000	-0.000620
2044.000000	-0.000789
2043.000000	-0.000862
2042.000000	-0.000801
2041.000000	-0.000645
2040.000000	-0.000482
2039.000000	-0.000370
2038.000000	-0.000301
2037.000000	-0.000256
2036.000000	-0.000254
2035.000000	-0.000330
2034.000000	-0.000468
2033.000000	-0.000628
2032.000000	-0.000804
2031.000000	-0.000992
2030.000000	-0.001107
2029.000000	-0.001023
2028.000000	-0.000740
2027.000000	-0.000443
2026.000000	-0.000330
2025.000000	-0.000433
2024.000000	-0.000643
2023.000000	-0.000860
2022.000000	-0.001046
2021.000000	-0.001171
2020.000000	-0.001202
2019.000000	-0.001147
2018.000000	-0.001053
2017.000000	-0.000941
2016.000000	-0.000797
2015.000000	-0.000633
2014.000000	-0.000513
2013.000000	-0.000510
2012.000000	-0.000639
2011.000000	-0.000834
2010.000000	-0.000989
2009.000000	-0.001024
2008.000000	-0.000953
2007.000000	-0.000877
2006.000000	-0.000873
2005.000000	-0.000911
2004.000000	-0.000909
2003.000000	-0.000838
2002.000000	-0.000735
2001.000000	-0.000637
2000.000000	-0.000551
1999.000000	-0.000492
1998.000000	-0.000495
1997.000000	-0.000577
1996.000000	-0.000697
1995.000000	-0.000788
1994.000000	-0.000800
1993.000000	-0.000716
1992.000000	-0.000546
1991.000000	-0.000335
1990.000000	-0.000153
1989.000000	-0.000058
1988.000000	-0.000068
1987.000000	-0.000172
1986.000000	-0.000333
1985.000000	-0.000505
1984.000000	-0.000637
1983.000000	-0.000693
1982.000000	-0.000671
1981.000000	-0.000589
1980.000000	-0.000476
1979.000000	-0.000373
1978.000000	-0.000328
1977.000000	-0.000373
1976.000000	-0.000514
1975.000000	-0.000721
1974.000000	-0.000938
1973.000000	-0.001082
1972.000000	-0.001099
1971.000000	-0.001011
1970.000000	-0.000901
1969.000000	-0.000835
1968.000000	-0.000822
1967.000000	-0.000829
1966.000000	-0.000839
1965.000000	-0.000858
1964.000000	-0.000898
1963.000000	-0.000966
1962.000000	-0.001057
1961.000000	-0.001155
1960.000000	-0.001233
1959.000000	-0.001271
1958.000000	-0.001275
1957.000000	-0.001260
1956.000000	-0.001212
1955.000000	-0.001112
1954.000000	-0.000975
1953.000000	-0.000862
1952.000000	-0.000816
1951.000000	-0.000816
1950.000000	-0.000805
1949.000000	-0.000754
1948.000000	-0.000680
1947.000000	-0.000604
1946.000000	-0.000532
1945.000000	-0.000487
1944.000000	-0.000511
1943.000000	-0.000619
1942.000000	-0.000760
1941.000000	-0.000858
1940.000000	-0.000878
1939.000000	-0.000833
1938.000000	-0.000739
1937.000000	-0.000619
1936.000000	-0.000512
1935.000000	-0.000464
1934.000000	-0.000488
1933.000000	-0.000562
1932.000000	-0.000649
1931.000000	-0.000724
1930.000000	-0.000769
1929.000000	-0.000768
1928.000000	-0.000721
1927.000000	-0.000651
1926.000000	-0.000592
1925.000000	-0.000571
1924.000000	-0.000587
1923.000000	-0.000613
1922.000000	-0.000628
1921.000000	-0.000635
1920.000000	-0.000664
1919.000000	-0.000723
1918.000000	-0.000779
1917.000000	-0.000787
1916.000000	-0.000746
1915.000000	-0.000694
1914.000000	-0.000655
1913.000000	-0.000625
1912.000000	-0.000598
1911.000000	-0.000578
1910.000000	-0.000572
1909.000000	-0.000582
1908.000000	-0.000604
1907.000000	-0.000633
1906.000000	-0.000664
1905.000000	-0.000693
1904.000000	-0.000721
1903.000000	-0.000744
1902.000000	-0.000758
1901.000000	-0.000764
1900.000000	-0.000776
1899.000000	-0.000798
1898.000000	-0.000805
1897.000000	-0.000770
1896.000000	-0.000704
1895.000000	-0.000659
1894.000000	-0.000664
1893.000000	-0.000698
1892.000000	-0.000726
1891.000000	-0.000740
1890.000000	-0.000749
1889.000000	-0.000758
1888.000000	-0.000770
1887.000000	-0.000782
1886.000000	-0.000788
1885.000000	-0.000777
1884.000000	-0.000751
1883.000000	-0.000732
1882.000000	-0.000736
1881.000000	-0.000753
1880.000000	-0.000763
1879.000000	-0.000760
1878.000000	-0.000743
1877.000000	-0.000717
1876.000000	-0.000697
1875.000000	-0.000711
1874.000000	-0.000767
1873.000000	-0.000836
1872.000000	-0.000881
1871.000000	-0.000888
1870.000000	-0.000866
1869.000000	-0.000833
1868.000000	-0.000806
1867.000000	-0.000804
1866.000000	-0.000838
1865.000000	-0.000902
1864.000000	-0.000974
1863.000000	-0.001030
1862.000000	-0.001045
1861.000000	-0.001012
1860.000000	-0.000953
1859.000000	-0.000906
1858.000000	-0.000891
1857.000000	-0.000892
1856.000000	-0.000886
1855.000000	-0.000875
1854.000000	-0.000878
1853.000000	-0.000892
1852.000000	-0.000893
1851.000000	-0.000865
1850.000000	-0.000821
1849.000000	-0.000786
1848.000000	-0.000778
1847.000000	-0.000792
1846.000000	-0.000810
1845.000000	-0.000819
1844.000000	-0.000829
1843.000000	-0.000861
1842.000000	-0.000913
1841.000000	-0.000956
1840.000000	-0.000964
1839.000000	-0.000937
1838.000000	-0.000901
1837.000000	-0.000883
1836.000000	-0.000894
1835.000000	-0.000924
1834.000000	-0.000956
1833.000000	-0.000987
1832.000000	-0.001020
1831.000000	-0.001046
1830.000000	-0.001039
1829.000000	-0.000994
1828.000000	-0.000946
1827.000000	-0.000925
1826.000000	-0.000927
1825.000000	-0.000930
1824.000000	-0.000928
1823.000000	-0.000934
1822.000000	-0.000957
1821.000000	-0.000983
1820.000000	-0.001006
1819.000000	-0.001034
1818.000000	-0.001075
1817.000000	-0.001110
1816.000000	-0.001117
1815.000000	-0.001096
1814.000000	-0.001071
1813.000000	-0.001052
1812.000000	-0.001031
1811.000000	-0.000995
1810.000000	-0.000952
1809.000000	-0.000923
1808.000000	-0.000918
1807.000000	-0.000940
1806.000000	-0.000983
1805.000000	-0.001038
1804.000000	-0.001087
1803.000000	-0.001113
1802.000000	-0.001109
1801.000000	-0.001080
1800.000000	-0.001043
1799.000000	-0.001007
1798.000000	-0.000974
1797.000000	-0.000941
1796.000000	-0.000920
1795.000000	-0.000923
1794.000000	-0.000946
1793.000000	-0.000961
1792.000000	-0.000946
1791.000000	-0.000921
1790.000000	-0.000919
1789.000000	-0.000946
1788.000000	-0.000983
1787.000000	-0.001017
1786.000000	-0.001035
1785.000000	-0.001032
1784.000000	-0.001011
1783.000000	-0.000989
1782.000000	-0.000972
1781.000000	-0.000961
1780.000000	-0.000954
1779.000000	-0.000959
1778.000000	-0.000975
1777.000000	-0.000991
1776.000000	-0.000999
1775.000000	-0.001005
1774.000000	-0.001015
1773.000000	-0.001025
1772.000000	-0.001020
1771.000000	-0.001005
1770.000000	-0.000989
1769.000000	-0.000965
1768.000000	-0.000925
1767.000000	-0.000878
1766.000000	-0.000838
1765.000000	-0.000811
1764.000000	-0.000794
1763.000000	-0.000790
1762.000000	-0.000795
1761.000000	-0.000798
1760.000000	-0.000783
1759.000000	-0.000741
1758.000000	-0.000668
1757.000000	-0.000575
1756.000000	-0.000493
1755.000000	-0.000449
1754.000000	-0.000428
1753.000000	-0.000394
1752.000000	-0.000326
1751.000000	-0.000235
1750.000000	-0.000148
1749.000000	-0.000063
1748.000000	0.000041
1747.000000	0.000158
1746.000000	0.000264
1745.000000	0.000347
1744.000000	0.000405
1743.000000	0.000434
1742.000000	0.000439
1741.000000	0.000431
1740.000000	0.000415
1739.000000	0.000377
1738.000000	0.000314
1737.000000	0.000238
1736.000000	0.000168
1735.000000	0.000114
1734.000000	0.000081
1733.000000	0.000049
1732.000000	-0.000000
1731.000000	-0.000053
1730.000000	-0.000097
1729.000000	-0.000139
1728.000000	-0.000194
1727.000000	-0.000265
1726.000000	-0.000335
1725.000000	-0.000383
1724.000000	-0.000405
1723.000000	-0.000418
1722.000000	-0.000444
1721.000000	-0.000482
1720.000000	-0.000521
1719.000000	-0.000539
1718.000000	-0.000515
1717.000000	-0.000459
1716.000000	-0.000419
1715.000000	-0.000415
1714.000000	-0.000429
1713.000000	-0.000440
1712.000000	-0.000437
1711.000000	-0.000426
1710.000000	-0.000412
1709.000000	-0.000399
1708.000000	-0.000386
1707.000000	-0.000370
1706.000000	-0.000340
1705.000000	-0.000288
1704.000000	-0.000220
1703.000000	-0.000146
1702.000000	-0.000075
1701.000000	-0.000016
1700.000000	0.000007
1699.000000	-0.000012
1698.000000	-0.000034
1697.000000	-0.000002
1696.000000	0.000100
1695.000000	0.000207
1694.000000	0.000258
1693.000000	0.000281
1692.000000	0.000327
1691.000000	0.000411
1690.000000	0.000512
1689.000000	0.000596
1688.000000	0.000652
1687.000000	0.000691
1686.000000	0.000727
1685.000000	0.000790
1684.000000	0.000886
1683.000000	0.000959
1682.000000	0.000996
1681.000000	0.001046
1680.000000	0.001127
1679.000000	0.001220
1678.000000	0.001305
1677.000000	0.001385
1676.000000	0.001472
1675.000000	0.001552
1674.000000	0.001601
1673.000000	0.001626
1672.000000	0.001654
1671.000000	0.001707
1670.000000	0.001796
1669.000000	0.001910
1668.000000	0.002015
1667.000000	0.002089
1666.000000	0.002142
1665.000000	0.002189
1664.000000	0.002237
1663.000000	0.002283
1662.000000	0.002331
1661.000000	0.002400
1660.000000	0.002487
1659.000000	0.002572
1658.000000	0.002631
1657.000000	0.002671
1656.000000	0.002710
1655.000000	0.002757
1654.000000	0.002815
1653.000000	0.002907
1652.000000	0.002990
1651.000000	0.003013
1650.000000	0.003012
1649.000000	0.003033
1648.000000	0.003109
1647.000000	0.003232
1646.000000	0.003342
1645.000000	0.003394
1644.000000	0.003410
1643.000000	0.003419
1642.000000	0.003432
1641.000000	0.003446
1640.000000	0.003461
1639.000000	0.003480
1638.000000	0.003499
1637.000000	0.003508
1636.000000	0.003507
1635.000000	0.003508
1634.000000	0.003511
1633.000000	0.003520
1632.000000	0.003539
1631.000000	0.003564
1630.000000	0.003582
1629.000000	0.003589
1628.000000	0.003596
1627.000000	0.003611
1626.000000	0.003630
1625.000000	0.003646
1624.000000	0.003654
1623.000000	0.003653
1622.000000	0.003647
1621.000000	0.003646
1620.000000	0.003658
1619.000000	0.003678
1618.000000	0.003679
1617.000000	0.003641
1616.000000	0.003578
1615.000000	0.003523
1614.000000	0.003484
1613.000000	0.003454
1612.000000	0.003416
1611.000000	0.003366
1610.000000	0.003309
1609.000000	0.003259
1608.000000	0.003220
1607.000000	0.003190
1606.000000	0.003159
1605.000000	0.003114
1604.000000	0.003052
1603.000000	0.002986
1602.000000	0.002931
1601.000000	0.002884
1600.000000	0.002830
1599.000000	0.002764
1598.000000	0.002698
1597.000000	0.002643
1596.000000	0.002592
1595.000000	0.002539
1594.000000	0.002490
1593.000000	0.002450
1592.000000	0.002413
1591.000000	0.002369
1590.000000	0.002319
1589.000000	0.002278
1588.000000	0.002252
1587.000000	0.002233
1586.000000	0.002212
1585.000000	0.002192
1584.000000	0.002177
1583.000000	0.002165
1582.000000	0.002147
1581.000000	0.002113
1580.000000	0.002068
1579.000000	0.002027
1578.000000	0.002003
1577.000000	0.001996
1576.000000	0.001995
1575.000000	0.001985
1574.000000	0.001969
1573.000000	0.001958
1572.000000	0.001946
1571.000000	0.001916
1570.000000	0.001872
1569.000000	0.001849
1568.000000	0.001860
1567.000000	0.001887
1566.000000	0.001910
1565.000000	0.001919
1564.000000	0.001913
1563.000000	0.001908
1562.000000	0.001918
1561.000000	0.001932
1560.000000	0.001930
1559.000000	0.001933
1558.000000	0.001940
1557.000000	0.001931
1556.000000	0.001920
1555.000000	0.001918
1554.000000	0.001930
1553.000000	0.001935
1552.000000	0.001921
1551.000000	0.001892
1550.000000	0.001866
1549.000000	0.001864
1548.000000	0.001884
1547.000000	0.001909
1546.000000	0.001924
1545.000000	0.001928
1544.000000	0.001924
1543.000000	0.001912
1542.000000	0.001900
1541.000000	0.001912
1540.000000	0.001971
1539.000000	0.002023
1538.000000	0.002014
1537.000000	0.001971
1536.000000	0.001935
1535.000000	0.001915
1534.000000	0.001907
1533.000000	0.001908
1532.000000	0.001918
1531.000000	0.001932
1530.000000	0.001939
1529.000000	0.001930
1528.000000	0.001907
1527.000000	0.001878
1526.000000	0.001848
1525.000000	0.001816
1524.000000	0.001787
1523.000000	0.001766
1522.000000	0.001751
1521.000000	0.001733
1520.000000	0.001696
1519.000000	0.001645
1518.000000	0.001593
1517.000000	0.001558
1516.000000	0.001548
1515.000000	0.001559
1514.000000	0.001575
1513.000000	0.001577
1512.000000	0.001553
1511.000000	0.001504
1510.000000	0.001447
1509.000000	0.001397
1508.000000	0.001360
1507.000000	0.001334
1506.000000	0.001308
1505.000000	0.001274
1504.000000	0.001240
1503.000000	0.001217
1502.000000	0.001208
1501.000000	0.001195
1500.000000	0.001167
1499.000000	0.001128
1498.000000	0.001092
1497.000000	0.001071
1496.000000	0.001059
1495.000000	0.001047
1494.000000	0.001037
1493.000000	0.001038
1492.000000	0.001047
1491.000000	0.001053
1490.000000	0.001050
1489.000000	0.001037
1488.000000	0.001027
1487.000000	0.001022
1486.000000	0.001016
1485.000000	0.001010
1484.000000	0.001013
1483.000000	0.001030
1482.000000	0.001062
1481.000000	0.001099
1480.000000	0.001127
1479.000000	0.001142
1478.000000	0.001157
1477.000000	0.001185
1476.000000	0.001219
1475.000000	0.001236
1474.000000	0.001239
1473.000000	0.001269
1472.000000	0.001355
1471.000000	0.001455
1470.000000	0.001520
1469.000000	0.001547
1468.000000	0.001554
1467.000000	0.001557
1466.000000	0.001567
1465.000000	0.001593
1464.000000	0.001633
1463.000000	0.001666
1462.000000	0.001676
1461.000000	0.001663
1460.000000	0.001641
1459.000000	0.001636
1458.000000	0.001682
1457.000000	0.001778
1456.000000	0.001857
1455.000000	0.001886
1454.000000	0.001903
1453.000000	0.001938
1452.000000	0.001985
1451.000000	0.002028
1450.000000	0.002062
1449.000000	0.002086
1448.000000	0.002099
1447.000000	0.002106
1446.000000	0.002117
1445.000000	0.002138
1444.000000	0.002161
1443.000000	0.002178
1442.000000	0.002187
1441.000000	0.002190
1440.000000	0.002191
1439.000000	0.002195
1438.000000	0.002210
1437.000000	0.002233
1436.000000	0.002250
1435.000000	0.002247
1434.000000	0.002232
1433.000000	0.002223
1432.000000	0.002228
1431.000000	0.002249
1430.000000	0.002285
1429.000000	0.002319
1428.000000	0.002335
1427.000000	0.002335
1426.000000	0.002341
1425.000000	0.002369
1424.000000	0.002399
1423.000000	0.002406
1422.000000	0.002390
1421.000000	0.002368
1420.000000	0.002355
1419.000000	0.002358
1418.000000	0.002377
1417.000000	0.002400
1416.000000	0.002417
1415.000000	0.002420
1414.000000	0.002408
1413.000000	0.002385
1412.000000	0.002353
1411.000000	0.002315
1410.000000	0.002278
1409.000000	0.002248
1408.000000	0.002225
1407.000000	0.002199
1406.000000	0.002172
1405.000000	0.002151
1404.000000	0.002141
1403.000000	0.002136
1402.000000	0.002132
1401.000000	0.002127
1400.000000	0.002119
1399.000000	0.002100
1398.000000	0.002071
1397.000000	0.002042
1396.000000	0.002026
1395.000000	0.002027
1394.000000	0.002039
1393.000000	0.002046
1392.000000	0.002039
1391.000000	0.002018
1390.000000	0.001991
1389.000000	0.001963
1388.000000	0.001940
1387.000000	0.001922
1386.000000	0.001911
1385.000000	0.001906
1384.000000	0.001903
1383.000000	0.001900
1382.000000	0.001892
1381.000000	0.001876
1380.000000	0.001852
1379.000000	0.001821
1378.000000	0.001787
1377.000000	0.001756
1376.000000	0.001727
1375.000000	0.001701
1374.000000	0.001689
1373.000000	0.001700
1372.000000	0.001725
1371.000000	0.001742
1370.000000	0.001738
1369.000000	0.001713
1368.000000	0.001678
1367.000000	0.001650
1366.000000	0.001637
1365.000000	0.001635
1364.000000	0.001631
1363.000000	0.001614
1362.000000	0.001584
1361.000000	0.001551
1360.000000	0.001523
1359.000000	0.001500
1358.000000	0.001486
1357.000000	0.001487
1356.000000	0.001501
1355.000000	0.001513
1354.000000	0.001509
1353.000000	0.001486
1352.000000	0.001454
1351.000000	0.001426
1350.000000	0.001417
1349.000000	0.001435
1348.000000	0.001473
1347.000000	0.001512
1346.000000	0.001534
1345.000000	0.001537
1344.000000	0.001533
1343.000000	0.001530
1342.000000	0.001531
1341.000000	0.001539
1340.000000	0.001561
1339.000000	0.001598
1338.000000	0.001645
1337.000000	0.001697
1336.000000	0.001753
1335.000000	0.001811
1334.000000	0.001869
1333.000000	0.001934
1332.000000	0.002010
1331.000000	0.002099
1330.000000	0.002198
1329.000000	0.002303
1328.000000	0.002410
1327.000000	0.002513
1326.000000	0.002602
1325.000000	0.002675
1324.000000	0.002735
1323.000000	0.002782
1322.000000	0.002815
1321.000000	0.002830
1320.000000	0.002819
1319.000000	0.002775
1318.000000	0.002700
1317.000000	0.002604
1316.000000	0.002500
1315.000000	0.002394
1314.000000	0.002288
1313.000000	0.002184
1312.000000	0.002091
1311.000000	0.002012
1310.000000	0.001943
1309.000000	0.001873
1308.000000	0.001795
1307.000000	0.001706
1306.000000	0.001614
1305.000000	0.001531
1304.000000	0.001467
1303.000000	0.001418
1302.000000	0.001372
1301.000000	0.001314
1300.000000	0.001243
1299.000000	0.001173
1298.000000	0.001122
1297.000000	0.001098
1296.000000	0.001095
1295.000000	0.001095
1294.000000	0.001080
1293.000000	0.001046
1292.000000	0.001003
1291.000000	0.000965
1290.000000	0.000934
1289.000000	0.000905
1288.000000	0.000865
1287.000000	0.000816
1286.000000	0.000769
1285.000000	0.000737
1284.000000	0.000723
1283.000000	0.000720
1282.000000	0.000713
1281.000000	0.000694
1280.000000	0.000667
1279.000000	0.000642
1278.000000	0.000627
1277.000000	0.000620
1276.000000	0.000615
1275.000000	0.000611
1274.000000	0.000613
1273.000000	0.000622
1272.000000	0.000633
1271.000000	0.000644
1270.000000	0.000658
1269.000000	0.000682
1268.000000	0.000713
1267.000000	0.000740
1266.000000	0.000752
1265.000000	0.000744
1264.000000	0.000724
1263.000000	0.000704
1262.000000	0.000697
1261.000000	0.000710
1260.000000	0.000739
1259.000000	0.000771
1258.000000	0.000795
1257.000000	0.000808
1256.000000	0.000814
1255.000000	0.000819
1254.000000	0.000831
1253.000000	0.000847
1252.000000	0.000859
1251.000000	0.000854
1250.000000	0.000836
1249.000000	0.000820
1248.000000	0.000824
1247.000000	0.000852
1246.000000	0.000896
1245.000000	0.000937
1244.000000	0.000959
1243.000000	0.000953
1242.000000	0.000917
1241.000000	0.000866
1240.000000	0.000824
1239.000000	0.000810
1238.000000	0.000822
1237.000000	0.000838
1236.000000	0.000834
1235.000000	0.000812
1234.000000	0.000789
1233.000000	0.000773
1232.000000	0.000753
1231.000000	0.000719
1230.000000	0.000680
1229.000000	0.000651
1228.000000	0.000637
1227.000000	0.000626
1226.000000	0.000605
1225.000000	0.000576
1224.000000	0.000552
1223.000000	0.000535
1222.000000	0.000514
1221.000000	0.000482
1220.000000	0.000443
1219.000000	0.000406
1218.000000	0.000375
1217.000000	0.000344
1216.000000	0.000311
1215.000000	0.000282
1214.000000	0.000266
1213.000000	0.000262
1212.000000	0.000252
1211.000000	0.000226
1210.000000	0.000190
1209.000000	0.000168
1208.000000	0.000173
1207.000000	0.000197
1206.000000	0.000219
1205.000000	0.000225
1204.000000	0.000220
1203.000000	0.000212
1202.000000	0.000206
1201.000000	0.000200
1200.000000	0.000194
1199.000000	0.000189
1198.000000	0.000185
1197.000000	0.000185
1196.000000	0.000196
1195.000000	0.000218
1194.000000	0.000247
1193.000000	0.000272
1192.000000	0.000289
1191.000000	0.000299
1190.000000	0.000302
1189.000000	0.000297
1188.000000	0.000285
1187.000000	0.000276
1186.000000	0.000280
1185.000000	0.000299
1184.000000	0.000333
1183.000000	0.000374
1182.000000	0.000417
1181.000000	0.000459
1180.000000	0.000497
1179.000000	0.000532
1178.000000	0.000572
1177.000000	0.000624
1176.000000	0.000690
1175.000000	0.000767
1174.000000	0.000848
1173.000000	0.000927
1172.000000	0.000999
1171.000000	0.001058
1170.000000	0.001102
1169.000000	0.001142
1168.000000	0.001190
1167.000000	0.001251
1166.000000	0.001316
1165.000000	0.001373
1164.000000	0.001416
1163.000000	0.001452
1162.000000	0.001486
1161.000000	0.001519
1160.000000	0.001552
1159.000000	0.001586
1158.000000	0.001623
1157.000000	0.001658
1156.000000	0.001683
1155.000000	0.001697
1154.000000	0.001712
1153.000000	0.001742
1152.000000	0.001790
1151.000000	0.001838
1150.000000	0.001858
1149.000000	0.001837
1148.000000	0.001790
1147.000000	0.001744
1146.000000	0.001715
1145.000000	0.001698
1144.000000	0.001684
1143.000000	0.001677
1142.000000	0.001682
1141.000000	0.001690
1140.000000	0.001684
1139.000000	0.001661
1138.000000	0.001631
1137.000000	0.001609
1136.000000	0.001596
1135.000000	0.001588
1134.000000	0.001587
1133.000000	0.001593
1132.000000	0.001596
1131.000000	0.001586
1130.000000	0.001572
1129.000000	0.001574
1128.000000	0.001599
1127.000000	0.001633
1126.000000	0.001666
1125.000000	0.001698
1124.000000	0.001735
1123.000000	0.001773
1122.000000	0.001799
1121.000000	0.001810
1120.000000	0.001818
1119.000000	0.001834
1118.000000	0.001865
1117.000000	0.001909
1116.000000	0.001958
1115.000000	0.001996
1114.000000	0.002012
1113.000000	0.002014
1112.000000	0.002031
1111.000000	0.002078
1110.000000	0.002139
1109.000000	0.002178
1108.000000	0.002172
1107.000000	0.002135
1106.000000	0.002098
1105.000000	0.002078
1104.000000	0.002066
1103.000000	0.002045
1102.000000	0.002018
1101.000000	0.001995
1100.000000	0.001983
1099.000000	0.001982
1098.000000	0.001990
1097.000000	0.002009
1096.000000	0.002036
1095.000000	0.002062
1094.000000	0.002080
1093.000000	0.002095
1092.000000	0.002116
1091.000000	0.002141
1090.000000	0.002156
1089.000000	0.002150
1088.000000	0.002128
1087.000000	0.002106
1086.000000	0.002095
1085.000000	0.002087
1084.000000	0.002071
1083.000000	0.002052
1082.000000	0.002047
1081.000000	0.002061
1080.000000	0.002080
1079.000000	0.002088
1078.000000	0.002082
1077.000000	0.002078
1076.000000	0.002085
1075.000000	0.002094
1074.000000	0.002085
1073.000000	0.002048
1072.000000	0.001995
1071.000000	0.001957
1070.000000	0.001956
1069.000000	0.001976
1068.000000	0.001979
1067.000000	0.001950
1066.000000	0.001916
1065.000000	0.001922
1064.000000	0.001975
1063.000000	0.002038
1062.000000	0.002068
1061.000000	0.002053
1060.000000	0.002009
1059.000000	0.001960
1058.000000	0.001928
1057.000000	0.001918
1056.000000	0.001913
1055.000000	0.001896
1054.000000	0.001870
1053.000000	0.001861
1052.000000	0.001883
1051.000000	0.001921
1050.000000	0.001949
1049.000000	0.001957
1048.000000	0.001956
1047.000000	0.001953
1046.000000	0.001952
1045.000000	0.001956
1044.000000	0.001975
1043.000000	0.002010
1042.000000	0.002047
1041.000000	0.002077
1040.000000	0.002103
1039.000000	0.002137
1038.000000	0.002179
1037.000000	0.002216
1036.000000	0.002229
1035.000000	0.002218
1034.000000	0.002201
1033.000000	0.002194
1032.000000	0.002205
1031.000000	0.002236
1030.000000	0.002282
1029.000000	0.002327
1028.000000	0.002345
1027.000000	0.002326
1026.000000	0.002296
1025.000000	0.002285
1024.000000	0.002297
1023.000000	0.002305
1022.000000	0.002295
1021.000000	0.002281
1020.000000	0.002281
1019.000000	0.002285
1018.000000	0.002271
1017.000000	0.002243
1016.000000	0.002227
1015.000000	0.002241
1014.000000	0.002272
1013.000000	0.002291
1012.000000	0.002279
1011.000000	0.002234
1010.000000	0.002172
1009.000000	0.002110
1008.000000	0.002061
1007.000000	0.002026
1006.000000	0.001999
1005.000000	0.001971
1004.000000	0.001933
1003.000000	0.001879
1002.000000	0.001827
1001.000000	0.001801
1000.000000	0.001810
999.000000	0.001827
998.000000	0.001816
997.000000	0.001763
996.000000	0.001686
995.000000	0.001613
994.000000	0.001563
993.000000	0.001546
992.000000	0.001554
991.000000	0.001562
990.000000	0.001549
989.000000	0.001517
988.000000	0.001487
987.000000	0.001471
986.000000	0.001454
985.000000	0.001415
984.000000	0.001356
983.000000	0.001300
982.000000	0.001269
981.000000	0.001267
980.000000	0.001278
979.000000	0.001277
978.000000	0.001249
977.000000	0.001197
976.000000	0.001142
975.000000	0.001100
974.000000	0.001080
973.000000	0.001072
972.000000	0.001059
971.000000	0.001027
970.000000	0.000973
969.000000	0.000906
968.000000	0.000845
967.000000	0.000801
966.000000	0.000767
965.000000	0.000729
964.000000	0.000684
963.000000	0.000641
962.000000	0.000609
961.000000	0.000584
960.000000	0.000551
959.000000	0.000498
958.000000	0.000426
957.000000	0.000355
956.000000	0.000309
955.000000	0.000299
954.000000	0.000308
953.000000	0.000311
952.000000	0.000291
951.000000	0.000250
950.000000	0.000199
949.000000	0.000147
948.000000	0.000095
947.000000	0.000045
946.000000	0.000002
945.000000	-0.000027
944.000000	-0.000036
943.000000	-0.000028
942.000000	-0.000018
941.000000	-0.000031
940.000000	-0.000083
939.000000	-0.000161
938.000000	-0.000235
937.000000	-0.000282
936.000000	-0.000305
935.000000	-0.000314
934.000000	-0.000314
933.000000	-0.000307
932.000000	-0.000302
931.000000	-0.000308
930.000000	-0.000322
929.000000	-0.000325
928.000000	-0.000309
927.000000	-0.000289
926.000000	-0.000288
925.000000	-0.000313
924.000000	-0.000350
923.000000	-0.000381
922.000000	-0.000403
921.000000	-0.000426
920.000000	-0.000458
919.000000	-0.000501
918.000000	-0.000540
917.000000	-0.000557
916.000000	-0.000548
915.000000	-0.000529
914.000000	-0.000523
913.000000	-0.000540
912.000000	-0.000562
911.000000	-0.000569
910.000000	-0.000561
909.000000	-0.000561
908.000000	-0.000596
907.000000	-0.000663
906.000000	-0.000729
905.000000	-0.000754
904.000000	-0.000724
903.000000	-0.000660
902.000000	-0.000600
901.000000	-0.000571
900.000000	-0.000583
899.000000	-0.000633
898.000000	-0.000704
897.000000	-0.000775
896.000000	-0.000832
895.000000	-0.000883
894.000000	-0.000929
893.000000	-0.000952
892.000000	-0.000939
891.000000	-0.000907
890.000000	-0.000888
889.000000	-0.000884
888.000000	-0.000872
887.000000	-0.000838
886.000000	-0.000798
885.000000	-0.000769
884.000000	-0.000742
883.000000	-0.000696
882.000000	-0.000623
881.000000	-0.000524
880.000000	-0.000391
879.000000	-0.000232
878.000000	-0.000079
877.000000	0.000032
876.000000	0.000103
875.000000	0.000152
874.000000	0.000179
873.000000	0.000165
872.000000	0.000107
871.000000	0.000021
870.000000	-0.000085
869.000000	-0.000228
868.000000	-0.000408
867.000000	-0.000586
866.000000	-0.000713
865.000000	-0.000772
864.000000	-0.000784
863.000000	-0.000784
862.000000	-0.000796
861.000000	-0.000830
860.000000	-0.000877
859.000000	-0.000924
858.000000	-0.000966
857.000000	-0.001017
856.000000	-0.001086
855.000000	-0.001162
854.000000	-0.001225
853.000000	-0.001259
852.000000	-0.001255
851.000000	-0.001209
850.000000	-0.001132
849.000000	-0.001059
848.000000	-0.001032
847.000000	-0.001060
846.000000	-0.001107
845.000000	-0.001128
844.000000	-0.001107
843.000000	-0.001068
842.000000	-0.001041
841.000000	-0.001040
840.000000	-0.001060
839.000000	-0.001087
838.000000	-0.001112
837.000000	-0.001128
836.000000	-0.001130
835.000000	-0.001115
834.000000	-0.001078
833.000000	-0.001029
832.000000	-0.000990
831.000000	-0.000988
830.000000	-0.001025
829.000000	-0.001079
828.000000	-0.001133
827.000000	-0.001180
826.000000	-0.001214
825.000000	-0.001213
824.000000	-0.001175
823.000000	-0.001133
822.000000	-0.001127
821.000000	-0.001153
820.000000	-0.001175
819.000000	-0.001175
818.000000	-0.001172
817.000000	-0.001180
816.000000	-0.001186
815.000000	-0.001181
814.000000	-0.001168
813.000000	-0.001151
812.000000	-0.001119
811.000000	-0.001072
810.000000	-0.001046
809.000000	-0.001076
808.000000	-0.001144
807.000000	-0.001194
806.000000	-0.001183
805.000000	-0.001121
804.000000	-0.001044
803.000000	-0.000987
802.000000	-0.000961
801.000000	-0.000966
800.000000	-0.000992
799.000000	-0.001037
798.000000	-0.001096
797.000000	-0.001147
796.000000	-0.001153
795.000000	-0.001091
794.000000	-0.000984
793.000000	-0.000873
792.000000	-0.000782
791.000000	-0.000714
790.000000	-0.000668
789.000000	-0.000649
788.000000	-0.000646
787.000000	-0.000647
786.000000	-0.000647
785.000000	-0.000652
784.000000	-0.000656
783.000000	-0.000650
782.000000	-0.000632
781.000000	-0.000607
780.000000	-0.000578
779.000000	-0.000551
778.000000	-0.000551
777.000000	-0.000598
776.000000	-0.000667
775.000000	-0.000706
774.000000	-0.000693
773.000000	-0.000663
772.000000	-0.000664
771.000000	-0.000699
770.000000	-0.000742
769.000000	-0.000773
768.000000	-0.000798
767.000000	-0.000832
766.000000	-0.000875
765.000000	-0.000906
764.000000	-0.000908
763.000000	-0.000889
762.000000	-0.000877
761.000000	-0.000879
760.000000	-0.000872
759.000000	-0.000835
758.000000	-0.000790
757.000000	-0.000776
756.000000	-0.000798
755.000000	-0.000825
754.000000	-0.000831
753.000000	-0.000822
752.000000	-0.000808
751.000000	-0.000797
750.000000	-0.000805
749.000000	-0.000853
748.000000	-0.000929
747.000000	-0.000992
746.000000	-0.001015
745.000000	-0.001013
744.000000	-0.001014
743.000000	-0.001030
742.000000	-0.001065
741.000000	-0.001119
740.000000	-0.001173
739.000000	-0.001189
738.000000	-0.001153
737.000000	-0.001104
736.000000	-0.001094
735.000000	-0.001127
734.000000	-0.001165
733.000000	-0.001168
732.000000	-0.001126
731.000000	-0.001054
730.000000	-0.000988
729.000000	-0.000965
728.000000	-0.000989
727.000000	-0.001034
726.000000	-0.001066
725.000000	-0.001066
724.000000	-0.001040
723.000000	-0.001011
722.000000	-0.001008
721.000000	-0.001037
720.000000	-0.001071
719.000000	-0.001072
718.000000	-0.001029
717.000000	-0.000974
716.000000	-0.000928
715.000000	-0.000887
714.000000	-0.000841
713.000000	-0.000796
712.000000	-0.000771
711.000000	-0.000770
710.000000	-0.000792
709.000000	-0.000832
708.000000	-0.000871
707.000000	-0.000895
706.000000	-0.000905
705.000000	-0.000911
704.000000	-0.000913
703.000000	-0.000898
702.000000	-0.000878
701.000000	-0.000896
700.000000	-0.000973
699.000000	-0.001070
698.000000	-0.001128
697.000000	-0.001122
696.000000	-0.001079
695.000000	-0.001031
694.000000	-0.000995
693.000000	-0.000972
692.000000	-0.000954
691.000000	-0.000936
690.000000	-0.000934
689.000000	-0.000967
688.000000	-0.001033
687.000000	-0.001099
686.000000	-0.001158
685.000000	-0.001229
684.000000	-0.001292
683.000000	-0.001288
682.000000	-0.001200
681.000000	-0.001093
680.000000	-0.001035
679.000000	-0.001040
678.000000	-0.001095
677.000000	-0.001159
676.000000	-0.001160
675.000000	-0.001051
674.000000	-0.000878
673.000000	-0.000756
672.000000	-0.000773
671.000000	-0.000952
670.000000	-0.001283
669.000000	-0.001694
668.000000	-0.001846
667.000000	-0.001519
666.000000	-0.001144
665.000000	-0.000898
664.000000	-0.000752
663.000000	-0.000728
662.000000	-0.000789
661.000000	-0.000852
660.000000	-0.000873
659.000000	-0.000887
658.000000	-0.000929
657.000000	-0.000950
656.000000	-0.000912
655.000000	-0.000876
654.000000	-0.000920
653.000000	-0.001015
652.000000	-0.001087
651.000000	-0.001105
650.000000	-0.001082
649.000000	-0.001021
648.000000	-0.000943
647.000000	-0.000907
646.000000	-0.000941
645.000000	-0.001016
644.000000	-0.001082
643.000000	-0.001120
642.000000	-0.001129
641.000000	-0.001110
640.000000	-0.001077
639.000000	-0.001067
638.000000	-0.001096
637.000000	-0.001143
636.000000	-0.001178
635.000000	-0.001161
634.000000	-0.001053
633.000000	-0.000853
632.000000	-0.000644
631.000000	-0.000539
630.000000	-0.000562
629.000000	-0.000632
628.000000	-0.000675
627.000000	-0.000703
626.000000	-0.000748
625.000000	-0.000781
624.000000	-0.000750
623.000000	-0.000659
622.000000	-0.000571
621.000000	-0.000541
620.000000	-0.000575
619.000000	-0.000649
618.000000	-0.000735
617.000000	-0.000820
616.000000	-0.000889
615.000000	-0.000907
614.000000	-0.000837
613.000000	-0.000685
612.000000	-0.000517
611.000000	-0.000410
610.000000	-0.000383
609.000000	-0.000402
608.000000	-0.000435
607.000000	-0.000469
606.000000	-0.000477
605.000000	-0.000419
604.000000	-0.000296
603.000000	-0.000156
602.000000	-0.000043
601.000000	0.000021
600.000000	0.000024
599.000000	-0.000049
598.000000	-0.000175
597.000000	-0.000279
596.000000	-0.000297
595.000000	-0.000236
594.000000	-0.000174
593.000000	-0.000196
592.000000	-0.000318
591.000000	-0.000465
590.000000	-0.000540
589.000000	-0.000518
588.000000	-0.000467
587.000000	-0.000471
586.000000	-0.000546
585.000000	-0.000637
584.000000	-0.000682
583.000000	-0.000650
582.000000	-0.000550
581.000000	-0.000431
580.000000	-0.000370
579.000000	-0.000422
578.000000	-0.000551
577.000000	-0.000655
576.000000	-0.000654
575.000000	-0.000548
574.000000	-0.000398
573.000000	-0.000288
572.000000	-0.000282
571.000000	-0.000391
570.000000	-0.000550
569.000000	-0.000674
568.000000	-0.000743
567.000000	-0.000801
566.000000	-0.000870
565.000000	-0.000910
564.000000	-0.000867
563.000000	-0.000744
562.000000	-0.000604
561.000000	-0.000535
560.000000	-0.000595
559.000000	-0.000769
558.000000	-0.000967
557.000000	-0.001103
556.000000	-0.001166
555.000000	-0.001184
554.000000	-0.001160
553.000000	-0.001073
552.000000	-0.000936
551.000000	-0.000815
550.000000	-0.000771
549.000000	-0.000822
548.000000	-0.000961
547.000000	-0.001135
546.000000	-0.001239
545.000000	-0.001190
544.000000	-0.001034
543.000000	-0.000916
542.000000	-0.000926
541.000000	-0.001027
540.000000	-0.001136
539.000000	-0.001215
538.000000	-0.001267
537.000000	-0.001291
536.000000	-0.001301
535.000000	-0.001314
534.000000	-0.001313
533.000000	-0.001243
532.000000	-0.001097
531.000000	-0.000939
530.000000	-0.000824
529.000000	-0.000723
528.000000	-0.000582
527.000000	-0.000426
526.000000	-0.000348
525.000000	-0.000395
524.000000	-0.000524
523.000000	-0.000672
522.000000	-0.000804
521.000000	-0.000897
520.000000	-0.000933
519.000000	-0.000906
518.000000	-0.000818
517.000000	-0.000686
516.000000	-0.000567
515.000000	-0.000542
514.000000	-0.000627
513.000000	-0.000742
512.000000	-0.000804
511.000000	-0.000827
510.000000	-0.000889
509.000000	-0.001008
508.000000	-0.001097
507.000000	-0.001061
506.000000	-0.000901
505.000000	-0.000713
504.000000	-0.000602
503.000000	-0.000643
502.000000	-0.000850
501.000000	-0.001144
500.000000	-0.001375
499.000000	-0.001424
498.000000	-0.001265
497.000000	-0.000989
496.000000	-0.000741
495.000000	-0.000618
494.000000	-0.000599
493.000000	-0.000597
492.000000	-0.000567
491.000000	-0.000553
490.000000	-0.000628
489.000000	-0.000795
488.000000	-0.000966
487.000000	-0.001020
486.000000	-0.000871
485.000000	-0.000561
484.000000	-0.000271
483.000000	-0.000184
482.000000	-0.000306
481.000000	-0.000473
480.000000	-0.000534
479.000000	-0.000500
478.000000	-0.000482
477.000000	-0.000551
476.000000	-0.000693
475.000000	-0.000868
474.000000	-0.001058
473.000000	-0.001222
472.000000	-0.001288
471.000000	-0.001238
470.000000	-0.001150
469.000000	-0.001108
468.000000	-0.001132
467.000000	-0.001177
466.000000	-0.001192
465.000000	-0.001176
464.000000	-0.001154
463.000000	-0.001134
462.000000	-0.001100
461.000000	-0.001081
460.000000	-0.001170
459.000000	-0.001399
458.000000	-0.001580
457.000000	-0.001397
456.000000	-0.000806
455.000000	-0.000139
454.000000	0.000182
453.000000	-0.000087
452.000000	-0.000864
451.000000	-0.001724
450.000000	-0.002268
