PE IR       SUBTECH     SPECTRUM    ASCII       PEDS        4.00        
   -1
P12-Noir023_1.ASC
23/06/09
15:22:25.00
23/06/09
15:45:29.00
uco
Sample 023 By uco Date Friday, June 09 2023
450.000000
#HDR
-1
-1
#GR
cm-1
A
1.0
0.0
4000.000000
-1.000000
3551
8
0.004272
-0.002618
#DATA
4000.000000	-0.000883
3999.000000	-0.000870
3998.000000	-0.000858
3997.000000	-0.000845
3996.000000	-0.000832
3995.000000	-0.000822
3994.000000	-0.000818
3993.000000	-0.000818
3992.000000	-0.000819
3991.000000	-0.000817
3990.000000	-0.000814
3989.000000	-0.000810
3988.000000	-0.000803
3987.000000	-0.000796
3986.000000	-0.000791
3985.000000	-0.000792
3984.000000	-0.000800
3983.000000	-0.000813
3982.000000	-0.000827
3981.000000	-0.000838
3980.000000	-0.000843
3979.000000	-0.000843
3978.000000	-0.000841
3977.000000	-0.000839
3976.000000	-0.000836
3975.000000	-0.000830
3974.000000	-0.000821
3973.000000	-0.000809
3972.000000	-0.000799
3971.000000	-0.000791
3970.000000	-0.000785
3969.000000	-0.000781
3968.000000	-0.000781
3967.000000	-0.000784
3966.000000	-0.000790
3965.000000	-0.000798
3964.000000	-0.000808
3963.000000	-0.000817
3962.000000	-0.000821
3961.000000	-0.000817
3960.000000	-0.000807
3959.000000	-0.000802
3958.000000	-0.000805
3957.000000	-0.000816
3956.000000	-0.000828
3955.000000	-0.000835
3954.000000	-0.000834
3953.000000	-0.000826
3952.000000	-0.000812
3951.000000	-0.000796
3950.000000	-0.000784
3949.000000	-0.000777
3948.000000	-0.000773
3947.000000	-0.000767
3946.000000	-0.000760
3945.000000	-0.000757
3944.000000	-0.000763
3943.000000	-0.000777
3942.000000	-0.000791
3941.000000	-0.000796
3940.000000	-0.000788
3939.000000	-0.000772
3938.000000	-0.000757
3937.000000	-0.000749
3936.000000	-0.000752
3935.000000	-0.000761
3934.000000	-0.000769
3933.000000	-0.000776
3932.000000	-0.000783
3931.000000	-0.000792
3930.000000	-0.000800
3929.000000	-0.000801
3928.000000	-0.000794
3927.000000	-0.000777
3926.000000	-0.000756
3925.000000	-0.000737
3924.000000	-0.000728
3923.000000	-0.000728
3922.000000	-0.000730
3921.000000	-0.000727
3920.000000	-0.000719
3919.000000	-0.000716
3918.000000	-0.000728
3917.000000	-0.000752
3916.000000	-0.000775
3915.000000	-0.000786
3914.000000	-0.000786
3913.000000	-0.000780
3912.000000	-0.000772
3911.000000	-0.000766
3910.000000	-0.000765
3909.000000	-0.000769
3908.000000	-0.000780
3907.000000	-0.000794
3906.000000	-0.000805
3905.000000	-0.000805
3904.000000	-0.000791
3903.000000	-0.000771
3902.000000	-0.000758
3901.000000	-0.000756
3900.000000	-0.000760
3899.000000	-0.000763
3898.000000	-0.000763
3897.000000	-0.000759
3896.000000	-0.000752
3895.000000	-0.000741
3894.000000	-0.000728
3893.000000	-0.000716
3892.000000	-0.000712
3891.000000	-0.000717
3890.000000	-0.000722
3889.000000	-0.000723
3888.000000	-0.000720
3887.000000	-0.000722
3886.000000	-0.000737
3885.000000	-0.000758
3884.000000	-0.000770
3883.000000	-0.000764
3882.000000	-0.000749
3881.000000	-0.000745
3880.000000	-0.000762
3879.000000	-0.000783
3878.000000	-0.000792
3877.000000	-0.000781
3876.000000	-0.000760
3875.000000	-0.000742
3874.000000	-0.000730
3873.000000	-0.000715
3872.000000	-0.000692
3871.000000	-0.000663
3870.000000	-0.000642
3869.000000	-0.000639
3868.000000	-0.000649
3867.000000	-0.000661
3866.000000	-0.000666
3865.000000	-0.000668
3864.000000	-0.000681
3863.000000	-0.000708
3862.000000	-0.000741
3861.000000	-0.000770
3860.000000	-0.000786
3859.000000	-0.000786
3858.000000	-0.000765
3857.000000	-0.000722
3856.000000	-0.000665
3855.000000	-0.000606
3854.000000	-0.000565
3853.000000	-0.000553
3852.000000	-0.000559
3851.000000	-0.000572
3850.000000	-0.000584
3849.000000	-0.000601
3848.000000	-0.000634
3847.000000	-0.000677
3846.000000	-0.000713
3845.000000	-0.000732
3844.000000	-0.000736
3843.000000	-0.000730
3842.000000	-0.000717
3841.000000	-0.000709
3840.000000	-0.000716
3839.000000	-0.000738
3838.000000	-0.000759
3837.000000	-0.000757
3836.000000	-0.000731
3835.000000	-0.000703
3834.000000	-0.000694
3833.000000	-0.000707
3832.000000	-0.000729
3831.000000	-0.000750
3830.000000	-0.000764
3829.000000	-0.000773
3828.000000	-0.000778
3827.000000	-0.000781
3826.000000	-0.000786
3825.000000	-0.000796
3824.000000	-0.000805
3823.000000	-0.000803
3822.000000	-0.000785
3821.000000	-0.000760
3820.000000	-0.000749
3819.000000	-0.000758
3818.000000	-0.000774
3817.000000	-0.000781
3816.000000	-0.000775
3815.000000	-0.000762
3814.000000	-0.000744
3813.000000	-0.000724
3812.000000	-0.000707
3811.000000	-0.000703
3810.000000	-0.000715
3809.000000	-0.000730
3808.000000	-0.000734
3807.000000	-0.000725
3806.000000	-0.000718
3805.000000	-0.000725
3804.000000	-0.000745
3803.000000	-0.000771
3802.000000	-0.000795
3801.000000	-0.000807
3800.000000	-0.000799
3799.000000	-0.000777
3798.000000	-0.000750
3797.000000	-0.000728
3796.000000	-0.000719
3795.000000	-0.000719
3794.000000	-0.000724
3793.000000	-0.000730
3792.000000	-0.000741
3791.000000	-0.000758
3790.000000	-0.000782
3789.000000	-0.000808
3788.000000	-0.000831
3787.000000	-0.000845
3786.000000	-0.000845
3785.000000	-0.000838
3784.000000	-0.000839
3783.000000	-0.000853
3782.000000	-0.000870
3781.000000	-0.000871
3780.000000	-0.000853
3779.000000	-0.000831
3778.000000	-0.000819
3777.000000	-0.000819
3776.000000	-0.000819
3775.000000	-0.000815
3774.000000	-0.000812
3773.000000	-0.000815
3772.000000	-0.000820
3771.000000	-0.000821
3770.000000	-0.000815
3769.000000	-0.000811
3768.000000	-0.000812
3767.000000	-0.000815
3766.000000	-0.000813
3765.000000	-0.000805
3764.000000	-0.000795
3763.000000	-0.000789
3762.000000	-0.000786
3761.000000	-0.000786
3760.000000	-0.000792
3759.000000	-0.000806
3758.000000	-0.000824
3757.000000	-0.000837
3756.000000	-0.000843
3755.000000	-0.000845
3754.000000	-0.000846
3753.000000	-0.000844
3752.000000	-0.000826
3751.000000	-0.000790
3750.000000	-0.000745
3749.000000	-0.000711
3748.000000	-0.000696
3747.000000	-0.000693
3746.000000	-0.000688
3745.000000	-0.000681
3744.000000	-0.000687
3743.000000	-0.000712
3742.000000	-0.000747
3741.000000	-0.000773
3740.000000	-0.000787
3739.000000	-0.000805
3738.000000	-0.000823
3737.000000	-0.000827
3736.000000	-0.000814
3735.000000	-0.000797
3734.000000	-0.000786
3733.000000	-0.000780
3732.000000	-0.000775
3731.000000	-0.000771
3730.000000	-0.000769
3729.000000	-0.000764
3728.000000	-0.000756
3727.000000	-0.000748
3726.000000	-0.000745
3725.000000	-0.000744
3724.000000	-0.000743
3723.000000	-0.000743
3722.000000	-0.000758
3721.000000	-0.000796
3720.000000	-0.000848
3719.000000	-0.000893
3718.000000	-0.000914
3717.000000	-0.000912
3716.000000	-0.000894
3715.000000	-0.000870
3714.000000	-0.000845
3713.000000	-0.000823
3712.000000	-0.000802
3711.000000	-0.000779
3710.000000	-0.000752
3709.000000	-0.000732
3708.000000	-0.000732
3707.000000	-0.000759
3706.000000	-0.000799
3705.000000	-0.000840
3704.000000	-0.000872
3703.000000	-0.000895
3702.000000	-0.000909
3701.000000	-0.000910
3700.000000	-0.000895
3699.000000	-0.000864
3698.000000	-0.000830
3697.000000	-0.000808
3696.000000	-0.000809
3695.000000	-0.000827
3694.000000	-0.000842
3693.000000	-0.000837
3692.000000	-0.000810
3691.000000	-0.000776
3690.000000	-0.000755
3689.000000	-0.000757
3688.000000	-0.000773
3687.000000	-0.000789
3686.000000	-0.000800
3685.000000	-0.000812
3684.000000	-0.000828
3683.000000	-0.000849
3682.000000	-0.000864
3681.000000	-0.000867
3680.000000	-0.000862
3679.000000	-0.000860
3678.000000	-0.000867
3677.000000	-0.000879
3676.000000	-0.000887
3675.000000	-0.000883
3674.000000	-0.000867
3673.000000	-0.000843
3672.000000	-0.000811
3671.000000	-0.000779
3670.000000	-0.000764
3669.000000	-0.000764
3668.000000	-0.000771
3667.000000	-0.000776
3666.000000	-0.000781
3665.000000	-0.000794
3664.000000	-0.000814
3663.000000	-0.000838
3662.000000	-0.000857
3661.000000	-0.000864
3660.000000	-0.000856
3659.000000	-0.000832
3658.000000	-0.000797
3657.000000	-0.000760
3656.000000	-0.000734
3655.000000	-0.000719
3654.000000	-0.000708
3653.000000	-0.000693
3652.000000	-0.000679
3651.000000	-0.000678
3650.000000	-0.000696
3649.000000	-0.000721
3648.000000	-0.000735
3647.000000	-0.000738
3646.000000	-0.000739
3645.000000	-0.000743
3644.000000	-0.000745
3643.000000	-0.000742
3642.000000	-0.000737
3641.000000	-0.000738
3640.000000	-0.000746
3639.000000	-0.000761
3638.000000	-0.000778
3637.000000	-0.000794
3636.000000	-0.000799
3635.000000	-0.000788
3634.000000	-0.000764
3633.000000	-0.000734
3632.000000	-0.000703
3631.000000	-0.000665
3630.000000	-0.000619
3629.000000	-0.000574
3628.000000	-0.000542
3627.000000	-0.000523
3626.000000	-0.000504
3625.000000	-0.000480
3624.000000	-0.000459
3623.000000	-0.000447
3622.000000	-0.000445
3621.000000	-0.000447
3620.000000	-0.000451
3619.000000	-0.000453
3618.000000	-0.000450
3617.000000	-0.000447
3616.000000	-0.000454
3615.000000	-0.000478
3614.000000	-0.000510
3613.000000	-0.000535
3612.000000	-0.000536
3611.000000	-0.000514
3610.000000	-0.000481
3609.000000	-0.000452
3608.000000	-0.000428
3607.000000	-0.000401
3606.000000	-0.000367
3605.000000	-0.000327
3604.000000	-0.000290
3603.000000	-0.000265
3602.000000	-0.000257
3601.000000	-0.000263
3600.000000	-0.000277
3599.000000	-0.000287
3598.000000	-0.000291
3597.000000	-0.000290
3596.000000	-0.000294
3595.000000	-0.000304
3594.000000	-0.000313
3593.000000	-0.000310
3592.000000	-0.000295
3591.000000	-0.000270
3590.000000	-0.000246
3589.000000	-0.000229
3588.000000	-0.000223
3587.000000	-0.000219
3586.000000	-0.000207
3585.000000	-0.000188
3584.000000	-0.000176
3583.000000	-0.000180
3582.000000	-0.000198
3581.000000	-0.000215
3580.000000	-0.000218
3579.000000	-0.000206
3578.000000	-0.000189
3577.000000	-0.000181
3576.000000	-0.000181
3575.000000	-0.000178
3574.000000	-0.000164
3573.000000	-0.000141
3572.000000	-0.000116
3571.000000	-0.000092
3570.000000	-0.000069
3569.000000	-0.000048
3568.000000	-0.000038
3567.000000	-0.000040
3566.000000	-0.000040
3565.000000	-0.000021
3564.000000	0.000016
3563.000000	0.000054
3562.000000	0.000080
3561.000000	0.000092
3560.000000	0.000098
3559.000000	0.000106
3558.000000	0.000118
3557.000000	0.000135
3556.000000	0.000152
3555.000000	0.000165
3554.000000	0.000167
3553.000000	0.000158
3552.000000	0.000150
3551.000000	0.000158
3550.000000	0.000189
3549.000000	0.000234
3548.000000	0.000274
3547.000000	0.000284
3546.000000	0.000257
3545.000000	0.000211
3544.000000	0.000175
3543.000000	0.000165
3542.000000	0.000172
3541.000000	0.000178
3540.000000	0.000176
3539.000000	0.000174
3538.000000	0.000191
3537.000000	0.000231
3536.000000	0.000278
3535.000000	0.000310
3534.000000	0.000319
3533.000000	0.000314
3532.000000	0.000312
3531.000000	0.000321
3530.000000	0.000337
3529.000000	0.000355
3528.000000	0.000370
3527.000000	0.000385
3526.000000	0.000401
3525.000000	0.000421
3524.000000	0.000444
3523.000000	0.000467
3522.000000	0.000487
3521.000000	0.000498
3520.000000	0.000496
3519.000000	0.000479
3518.000000	0.000455
3517.000000	0.000436
3516.000000	0.000431
3515.000000	0.000437
3514.000000	0.000443
3513.000000	0.000444
3512.000000	0.000446
3511.000000	0.000457
3510.000000	0.000481
3509.000000	0.000511
3508.000000	0.000532
3507.000000	0.000534
3506.000000	0.000517
3505.000000	0.000493
3504.000000	0.000477
3503.000000	0.000477
3502.000000	0.000483
3501.000000	0.000483
3500.000000	0.000474
3499.000000	0.000463
3498.000000	0.000460
3497.000000	0.000467
3496.000000	0.000481
3495.000000	0.000496
3494.000000	0.000513
3493.000000	0.000533
3492.000000	0.000556
3491.000000	0.000578
3490.000000	0.000596
3489.000000	0.000609
3488.000000	0.000622
3487.000000	0.000641
3486.000000	0.000668
3485.000000	0.000697
3484.000000	0.000720
3483.000000	0.000735
3482.000000	0.000746
3481.000000	0.000756
3480.000000	0.000762
3479.000000	0.000759
3478.000000	0.000746
3477.000000	0.000722
3476.000000	0.000692
3475.000000	0.000662
3474.000000	0.000642
3473.000000	0.000635
3472.000000	0.000638
3471.000000	0.000646
3470.000000	0.000650
3469.000000	0.000648
3468.000000	0.000638
3467.000000	0.000623
3466.000000	0.000612
3465.000000	0.000617
3464.000000	0.000642
3463.000000	0.000680
3462.000000	0.000717
3461.000000	0.000739
3460.000000	0.000738
3459.000000	0.000722
3458.000000	0.000699
3457.000000	0.000675
3456.000000	0.000653
3455.000000	0.000635
3454.000000	0.000628
3453.000000	0.000636
3452.000000	0.000660
3451.000000	0.000690
3450.000000	0.000716
3449.000000	0.000729
3448.000000	0.000729
3447.000000	0.000723
3446.000000	0.000724
3445.000000	0.000737
3444.000000	0.000758
3443.000000	0.000777
3442.000000	0.000790
3441.000000	0.000799
3440.000000	0.000811
3439.000000	0.000830
3438.000000	0.000855
3437.000000	0.000874
3436.000000	0.000876
3435.000000	0.000860
3434.000000	0.000835
3433.000000	0.000816
3432.000000	0.000814
3431.000000	0.000829
3430.000000	0.000853
3429.000000	0.000874
3428.000000	0.000883
3427.000000	0.000879
3426.000000	0.000871
3425.000000	0.000872
3424.000000	0.000886
3423.000000	0.000912
3422.000000	0.000943
3421.000000	0.000974
3420.000000	0.001002
3419.000000	0.001022
3418.000000	0.001031
3417.000000	0.001028
3416.000000	0.001020
3415.000000	0.001016
3414.000000	0.001026
3413.000000	0.001051
3412.000000	0.001077
3411.000000	0.001093
3410.000000	0.001098
3409.000000	0.001097
3408.000000	0.001091
3407.000000	0.001081
3406.000000	0.001070
3405.000000	0.001064
3404.000000	0.001070
3403.000000	0.001086
3402.000000	0.001106
3401.000000	0.001124
3400.000000	0.001132
3399.000000	0.001128
3398.000000	0.001119
3397.000000	0.001118
3396.000000	0.001130
3395.000000	0.001153
3394.000000	0.001174
3393.000000	0.001185
3392.000000	0.001185
3391.000000	0.001175
3390.000000	0.001163
3389.000000	0.001155
3388.000000	0.001155
3387.000000	0.001160
3386.000000	0.001159
3385.000000	0.001144
3384.000000	0.001114
3383.000000	0.001085
3382.000000	0.001073
3381.000000	0.001084
3380.000000	0.001104
3379.000000	0.001117
3378.000000	0.001120
3377.000000	0.001125
3376.000000	0.001140
3375.000000	0.001159
3374.000000	0.001166
3373.000000	0.001152
3372.000000	0.001120
3371.000000	0.001087
3370.000000	0.001064
3369.000000	0.001059
3368.000000	0.001067
3367.000000	0.001077
3366.000000	0.001082
3365.000000	0.001085
3364.000000	0.001098
3363.000000	0.001124
3362.000000	0.001155
3361.000000	0.001173
3360.000000	0.001170
3359.000000	0.001153
3358.000000	0.001142
3357.000000	0.001156
3356.000000	0.001193
3355.000000	0.001232
3354.000000	0.001247
3353.000000	0.001226
3352.000000	0.001188
3351.000000	0.001156
3350.000000	0.001145
3349.000000	0.001149
3348.000000	0.001157
3347.000000	0.001169
3346.000000	0.001187
3345.000000	0.001212
3344.000000	0.001236
3343.000000	0.001243
3342.000000	0.001228
3341.000000	0.001195
3340.000000	0.001162
3339.000000	0.001145
3338.000000	0.001148
3337.000000	0.001162
3336.000000	0.001174
3335.000000	0.001178
3334.000000	0.001176
3333.000000	0.001173
3332.000000	0.001168
3331.000000	0.001158
3330.000000	0.001146
3329.000000	0.001138
3328.000000	0.001137
3327.000000	0.001144
3326.000000	0.001155
3325.000000	0.001165
3324.000000	0.001172
3323.000000	0.001178
3322.000000	0.001188
3321.000000	0.001197
3320.000000	0.001197
3319.000000	0.001186
3318.000000	0.001172
3317.000000	0.001166
3316.000000	0.001171
3315.000000	0.001179
3314.000000	0.001181
3313.000000	0.001177
3312.000000	0.001171
3311.000000	0.001167
3310.000000	0.001166
3309.000000	0.001164
3308.000000	0.001160
3307.000000	0.001157
3306.000000	0.001162
3305.000000	0.001178
3304.000000	0.001201
3303.000000	0.001219
3302.000000	0.001227
3301.000000	0.001223
3300.000000	0.001211
3299.000000	0.001198
3298.000000	0.001193
3297.000000	0.001210
3296.000000	0.001244
3295.000000	0.001275
3294.000000	0.001279
3293.000000	0.001253
3292.000000	0.001218
3291.000000	0.001200
3290.000000	0.001203
3289.000000	0.001208
3288.000000	0.001201
3287.000000	0.001183
3286.000000	0.001169
3285.000000	0.001169
3284.000000	0.001177
3283.000000	0.001188
3282.000000	0.001197
3281.000000	0.001206
3280.000000	0.001208
3279.000000	0.001196
3278.000000	0.001171
3277.000000	0.001144
3276.000000	0.001129
3275.000000	0.001127
3274.000000	0.001135
3273.000000	0.001149
3272.000000	0.001163
3271.000000	0.001170
3270.000000	0.001167
3269.000000	0.001161
3268.000000	0.001166
3267.000000	0.001190
3266.000000	0.001223
3265.000000	0.001246
3264.000000	0.001249
3263.000000	0.001237
3262.000000	0.001216
3261.000000	0.001196
3260.000000	0.001180
3259.000000	0.001167
3258.000000	0.001158
3257.000000	0.001153
3256.000000	0.001152
3255.000000	0.001157
3254.000000	0.001162
3253.000000	0.001160
3252.000000	0.001144
3251.000000	0.001120
3250.000000	0.001099
3249.000000	0.001093
3248.000000	0.001103
3247.000000	0.001124
3246.000000	0.001142
3245.000000	0.001152
3244.000000	0.001153
3243.000000	0.001153
3242.000000	0.001152
3241.000000	0.001152
3240.000000	0.001153
3239.000000	0.001160
3238.000000	0.001173
3237.000000	0.001187
3236.000000	0.001191
3235.000000	0.001183
3234.000000	0.001169
3233.000000	0.001163
3232.000000	0.001170
3231.000000	0.001186
3230.000000	0.001195
3229.000000	0.001181
3228.000000	0.001149
3227.000000	0.001120
3226.000000	0.001117
3225.000000	0.001137
3224.000000	0.001158
3223.000000	0.001157
3222.000000	0.001136
3221.000000	0.001111
3220.000000	0.001097
3219.000000	0.001097
3218.000000	0.001104
3217.000000	0.001109
3216.000000	0.001107
3215.000000	0.001099
3214.000000	0.001085
3213.000000	0.001067
3212.000000	0.001047
3211.000000	0.001026
3210.000000	0.001008
3209.000000	0.000999
3208.000000	0.001002
3207.000000	0.001023
3206.000000	0.001062
3205.000000	0.001102
3204.000000	0.001123
3203.000000	0.001114
3202.000000	0.001088
3201.000000	0.001063
3200.000000	0.001047
3199.000000	0.001038
3198.000000	0.001033
3197.000000	0.001032
3196.000000	0.001035
3195.000000	0.001040
3194.000000	0.001046
3193.000000	0.001055
3192.000000	0.001065
3191.000000	0.001066
3190.000000	0.001052
3189.000000	0.001030
3188.000000	0.001008
3187.000000	0.000990
3186.000000	0.000974
3185.000000	0.000959
3184.000000	0.000952
3183.000000	0.000963
3182.000000	0.000994
3181.000000	0.001039
3180.000000	0.001082
3179.000000	0.001110
3178.000000	0.001111
3177.000000	0.001084
3176.000000	0.001034
3175.000000	0.000978
3174.000000	0.000937
3173.000000	0.000922
3172.000000	0.000937
3171.000000	0.000972
3170.000000	0.001014
3169.000000	0.001047
3168.000000	0.001057
3167.000000	0.001040
3166.000000	0.001003
3165.000000	0.000958
3164.000000	0.000914
3163.000000	0.000880
3162.000000	0.000861
3161.000000	0.000860
3160.000000	0.000874
3159.000000	0.000898
3158.000000	0.000928
3157.000000	0.000956
3156.000000	0.000967
3155.000000	0.000951
3154.000000	0.000917
3153.000000	0.000889
3152.000000	0.000887
3151.000000	0.000906
3150.000000	0.000922
3149.000000	0.000918
3148.000000	0.000899
3147.000000	0.000883
3146.000000	0.000885
3145.000000	0.000904
3144.000000	0.000922
3143.000000	0.000921
3142.000000	0.000900
3141.000000	0.000871
3140.000000	0.000850
3139.000000	0.000842
3138.000000	0.000845
3137.000000	0.000850
3136.000000	0.000849
3135.000000	0.000832
3134.000000	0.000802
3133.000000	0.000773
3132.000000	0.000763
3131.000000	0.000773
3130.000000	0.000789
3129.000000	0.000799
3128.000000	0.000800
3127.000000	0.000801
3126.000000	0.000807
3125.000000	0.000815
3124.000000	0.000813
3123.000000	0.000797
3122.000000	0.000774
3121.000000	0.000756
3120.000000	0.000750
3119.000000	0.000754
3118.000000	0.000760
3117.000000	0.000762
3116.000000	0.000761
3115.000000	0.000766
3114.000000	0.000781
3113.000000	0.000804
3112.000000	0.000825
3111.000000	0.000836
3110.000000	0.000835
3109.000000	0.000820
3108.000000	0.000793
3107.000000	0.000757
3106.000000	0.000727
3105.000000	0.000715
3104.000000	0.000723
3103.000000	0.000739
3102.000000	0.000749
3101.000000	0.000747
3100.000000	0.000733
3099.000000	0.000706
3098.000000	0.000676
3097.000000	0.000655
3096.000000	0.000655
3095.000000	0.000671
3094.000000	0.000685
3093.000000	0.000686
3092.000000	0.000672
3091.000000	0.000655
3090.000000	0.000642
3089.000000	0.000638
3088.000000	0.000642
3087.000000	0.000651
3086.000000	0.000665
3085.000000	0.000680
3084.000000	0.000689
3083.000000	0.000688
3082.000000	0.000679
3081.000000	0.000669
3080.000000	0.000665
3079.000000	0.000662
3078.000000	0.000653
3077.000000	0.000640
3076.000000	0.000632
3075.000000	0.000632
3074.000000	0.000637
3073.000000	0.000641
3072.000000	0.000644
3071.000000	0.000647
3070.000000	0.000651
3069.000000	0.000654
3068.000000	0.000660
3067.000000	0.000669
3066.000000	0.000681
3065.000000	0.000691
3064.000000	0.000696
3063.000000	0.000693
3062.000000	0.000684
3061.000000	0.000668
3060.000000	0.000648
3059.000000	0.000629
3058.000000	0.000620
3057.000000	0.000617
3056.000000	0.000612
3055.000000	0.000596
3054.000000	0.000575
3053.000000	0.000565
3052.000000	0.000572
3051.000000	0.000587
3050.000000	0.000593
3049.000000	0.000583
3048.000000	0.000562
3047.000000	0.000539
3046.000000	0.000523
3045.000000	0.000522
3044.000000	0.000533
3043.000000	0.000548
3042.000000	0.000557
3041.000000	0.000562
3040.000000	0.000566
3039.000000	0.000568
3038.000000	0.000567
3037.000000	0.000562
3036.000000	0.000559
3035.000000	0.000560
3034.000000	0.000561
3033.000000	0.000558
3032.000000	0.000548
3031.000000	0.000534
3030.000000	0.000517
3029.000000	0.000497
3028.000000	0.000480
3027.000000	0.000470
3026.000000	0.000472
3025.000000	0.000480
3024.000000	0.000486
3023.000000	0.000482
3022.000000	0.000469
3021.000000	0.000454
3020.000000	0.000445
3019.000000	0.000442
3018.000000	0.000441
3017.000000	0.000438
3016.000000	0.000438
3015.000000	0.000445
3014.000000	0.000458
3013.000000	0.000467
3012.000000	0.000466
3011.000000	0.000460
3010.000000	0.000455
3009.000000	0.000455
3008.000000	0.000456
3007.000000	0.000451
3006.000000	0.000443
3005.000000	0.000441
3004.000000	0.000448
3003.000000	0.000458
3002.000000	0.000459
3001.000000	0.000447
3000.000000	0.000427
2999.000000	0.000410
2998.000000	0.000399
2997.000000	0.000395
2996.000000	0.000394
2995.000000	0.000394
2994.000000	0.000389
2993.000000	0.000383
2992.000000	0.000384
2991.000000	0.000394
2990.000000	0.000406
2989.000000	0.000409
2988.000000	0.000402
2987.000000	0.000394
2986.000000	0.000395
2985.000000	0.000404
2984.000000	0.000414
2983.000000	0.000413
2982.000000	0.000401
2981.000000	0.000391
2980.000000	0.000395
2979.000000	0.000415
2978.000000	0.000434
2977.000000	0.000435
2976.000000	0.000414
2975.000000	0.000386
2974.000000	0.000368
2973.000000	0.000366
2972.000000	0.000372
2971.000000	0.000380
2970.000000	0.000389
2969.000000	0.000402
2968.000000	0.000419
2967.000000	0.000435
2966.000000	0.000442
2965.000000	0.000438
2964.000000	0.000426
2963.000000	0.000416
2962.000000	0.000410
2961.000000	0.000407
2960.000000	0.000409
2959.000000	0.000420
2958.000000	0.000442
2957.000000	0.000471
2956.000000	0.000499
2955.000000	0.000522
2954.000000	0.000538
2953.000000	0.000548
2952.000000	0.000550
2951.000000	0.000543
2950.000000	0.000533
2949.000000	0.000524
2948.000000	0.000521
2947.000000	0.000523
2946.000000	0.000532
2945.000000	0.000544
2944.000000	0.000552
2943.000000	0.000546
2942.000000	0.000524
2941.000000	0.000493
2940.000000	0.000466
2939.000000	0.000457
2938.000000	0.000469
2937.000000	0.000494
2936.000000	0.000516
2935.000000	0.000522
2934.000000	0.000518
2933.000000	0.000523
2932.000000	0.000544
2931.000000	0.000575
2930.000000	0.000597
2929.000000	0.000603
2928.000000	0.000592
2927.000000	0.000572
2926.000000	0.000548
2925.000000	0.000525
2924.000000	0.000510
2923.000000	0.000509
2922.000000	0.000521
2921.000000	0.000542
2920.000000	0.000565
2919.000000	0.000580
2918.000000	0.000583
2917.000000	0.000576
2916.000000	0.000563
2915.000000	0.000545
2914.000000	0.000521
2913.000000	0.000492
2912.000000	0.000468
2911.000000	0.000455
2910.000000	0.000453
2909.000000	0.000461
2908.000000	0.000483
2907.000000	0.000514
2906.000000	0.000542
2905.000000	0.000554
2904.000000	0.000548
2903.000000	0.000538
2902.000000	0.000535
2901.000000	0.000535
2900.000000	0.000527
2899.000000	0.000507
2898.000000	0.000481
2897.000000	0.000461
2896.000000	0.000454
2895.000000	0.000456
2894.000000	0.000461
2893.000000	0.000460
2892.000000	0.000452
2891.000000	0.000442
2890.000000	0.000439
2889.000000	0.000446
2888.000000	0.000456
2887.000000	0.000462
2886.000000	0.000461
2885.000000	0.000459
2884.000000	0.000461
2883.000000	0.000467
2882.000000	0.000470
2881.000000	0.000464
2880.000000	0.000451
2879.000000	0.000432
2878.000000	0.000411
2877.000000	0.000395
2876.000000	0.000391
2875.000000	0.000399
2874.000000	0.000410
2873.000000	0.000416
2872.000000	0.000411
2871.000000	0.000399
2870.000000	0.000385
2869.000000	0.000372
2868.000000	0.000366
2867.000000	0.000368
2866.000000	0.000376
2865.000000	0.000386
2864.000000	0.000392
2863.000000	0.000393
2862.000000	0.000392
2861.000000	0.000394
2860.000000	0.000400
2859.000000	0.000406
2858.000000	0.000404
2857.000000	0.000393
2856.000000	0.000378
2855.000000	0.000369
2854.000000	0.000376
2853.000000	0.000399
2852.000000	0.000428
2851.000000	0.000450
2850.000000	0.000453
2849.000000	0.000433
2848.000000	0.000400
2847.000000	0.000368
2846.000000	0.000346
2845.000000	0.000335
2844.000000	0.000331
2843.000000	0.000325
2842.000000	0.000315
2841.000000	0.000302
2840.000000	0.000295
2839.000000	0.000296
2838.000000	0.000304
2837.000000	0.000310
2836.000000	0.000307
2835.000000	0.000301
2834.000000	0.000296
2833.000000	0.000299
2832.000000	0.000305
2831.000000	0.000310
2830.000000	0.000310
2829.000000	0.000303
2828.000000	0.000290
2827.000000	0.000276
2826.000000	0.000267
2825.000000	0.000265
2824.000000	0.000267
2823.000000	0.000269
2822.000000	0.000274
2821.000000	0.000280
2820.000000	0.000283
2819.000000	0.000281
2818.000000	0.000274
2817.000000	0.000269
2816.000000	0.000268
2815.000000	0.000269
2814.000000	0.000267
2813.000000	0.000262
2812.000000	0.000258
2811.000000	0.000258
2810.000000	0.000262
2809.000000	0.000266
2808.000000	0.000268
2807.000000	0.000267
2806.000000	0.000265
2805.000000	0.000262
2804.000000	0.000259
2803.000000	0.000254
2802.000000	0.000255
2801.000000	0.000264
2800.000000	0.000282
2799.000000	0.000297
2798.000000	0.000301
2797.000000	0.000293
2796.000000	0.000283
2795.000000	0.000273
2794.000000	0.000261
2793.000000	0.000247
2792.000000	0.000236
2791.000000	0.000239
2790.000000	0.000259
2789.000000	0.000286
2788.000000	0.000305
2787.000000	0.000309
2786.000000	0.000299
2785.000000	0.000287
2784.000000	0.000278
2783.000000	0.000270
2782.000000	0.000255
2781.000000	0.000232
2780.000000	0.000210
2779.000000	0.000202
2778.000000	0.000213
2777.000000	0.000236
2776.000000	0.000258
2775.000000	0.000274
2774.000000	0.000282
2773.000000	0.000286
2772.000000	0.000291
2771.000000	0.000298
2770.000000	0.000302
2769.000000	0.000300
2768.000000	0.000290
2767.000000	0.000280
2766.000000	0.000277
2765.000000	0.000284
2764.000000	0.000295
2763.000000	0.000301
2762.000000	0.000296
2761.000000	0.000283
2760.000000	0.000276
2759.000000	0.000283
2758.000000	0.000299
2757.000000	0.000309
2756.000000	0.000304
2755.000000	0.000291
2754.000000	0.000283
2753.000000	0.000279
2752.000000	0.000273
2751.000000	0.000257
2750.000000	0.000232
2749.000000	0.000206
2748.000000	0.000182
2747.000000	0.000163
2746.000000	0.000154
2745.000000	0.000158
2744.000000	0.000174
2743.000000	0.000195
2742.000000	0.000210
2741.000000	0.000214
2740.000000	0.000210
2739.000000	0.000206
2738.000000	0.000209
2737.000000	0.000218
2736.000000	0.000228
2735.000000	0.000234
2734.000000	0.000234
2733.000000	0.000229
2732.000000	0.000223
2731.000000	0.000221
2730.000000	0.000228
2729.000000	0.000242
2728.000000	0.000254
2727.000000	0.000255
2726.000000	0.000247
2725.000000	0.000236
2724.000000	0.000231
2723.000000	0.000234
2722.000000	0.000245
2721.000000	0.000257
2720.000000	0.000264
2719.000000	0.000258
2718.000000	0.000238
2717.000000	0.000210
2716.000000	0.000186
2715.000000	0.000173
2714.000000	0.000172
2713.000000	0.000179
2712.000000	0.000189
2711.000000	0.000203
2710.000000	0.000217
2709.000000	0.000228
2708.000000	0.000234
2707.000000	0.000230
2706.000000	0.000215
2705.000000	0.000193
2704.000000	0.000174
2703.000000	0.000170
2702.000000	0.000183
2701.000000	0.000202
2700.000000	0.000215
2699.000000	0.000221
2698.000000	0.000224
2697.000000	0.000223
2696.000000	0.000212
2695.000000	0.000193
2694.000000	0.000179
2693.000000	0.000179
2692.000000	0.000187
2691.000000	0.000193
2690.000000	0.000195
2689.000000	0.000200
2688.000000	0.000210
2687.000000	0.000222
2686.000000	0.000230
2685.000000	0.000232
2684.000000	0.000228
2683.000000	0.000216
2682.000000	0.000197
2681.000000	0.000176
2680.000000	0.000159
2679.000000	0.000150
2678.000000	0.000154
2677.000000	0.000172
2676.000000	0.000194
2675.000000	0.000208
2674.000000	0.000207
2673.000000	0.000198
2672.000000	0.000193
2671.000000	0.000199
2670.000000	0.000211
2669.000000	0.000216
2668.000000	0.000211
2667.000000	0.000201
2666.000000	0.000195
2665.000000	0.000201
2664.000000	0.000216
2663.000000	0.000235
2662.000000	0.000254
2661.000000	0.000271
2660.000000	0.000284
2659.000000	0.000296
2658.000000	0.000307
2657.000000	0.000318
2656.000000	0.000324
2655.000000	0.000321
2654.000000	0.000314
2653.000000	0.000312
2652.000000	0.000320
2651.000000	0.000329
2650.000000	0.000327
2649.000000	0.000309
2648.000000	0.000283
2647.000000	0.000265
2646.000000	0.000265
2645.000000	0.000273
2644.000000	0.000274
2643.000000	0.000261
2642.000000	0.000243
2641.000000	0.000227
2640.000000	0.000213
2639.000000	0.000202
2638.000000	0.000201
2637.000000	0.000220
2636.000000	0.000251
2635.000000	0.000272
2634.000000	0.000273
2633.000000	0.000257
2632.000000	0.000234
2631.000000	0.000207
2630.000000	0.000183
2629.000000	0.000172
2628.000000	0.000178
2627.000000	0.000193
2626.000000	0.000197
2625.000000	0.000185
2624.000000	0.000163
2623.000000	0.000143
2622.000000	0.000131
2621.000000	0.000126
2620.000000	0.000130
2619.000000	0.000141
2618.000000	0.000155
2617.000000	0.000163
2616.000000	0.000161
2615.000000	0.000153
2614.000000	0.000151
2613.000000	0.000158
2612.000000	0.000167
2611.000000	0.000160
2610.000000	0.000133
2609.000000	0.000096
2608.000000	0.000060
2607.000000	0.000027
2606.000000	-0.000004
2605.000000	-0.000024
2604.000000	-0.000018
2603.000000	0.000016
2602.000000	0.000062
2601.000000	0.000096
2600.000000	0.000103
2599.000000	0.000087
2598.000000	0.000063
2597.000000	0.000045
2596.000000	0.000040
2595.000000	0.000050
2594.000000	0.000071
2593.000000	0.000095
2592.000000	0.000104
2591.000000	0.000084
2590.000000	0.000040
2589.000000	-0.000004
2588.000000	-0.000026
2587.000000	-0.000024
2586.000000	-0.000017
2585.000000	-0.000019
2584.000000	-0.000026
2583.000000	-0.000023
2582.000000	-0.000007
2581.000000	0.000014
2580.000000	0.000026
2579.000000	0.000025
2578.000000	0.000015
2577.000000	0.000002
2576.000000	-0.000007
2575.000000	-0.000012
2574.000000	-0.000016
2573.000000	-0.000022
2572.000000	-0.000030
2571.000000	-0.000034
2570.000000	-0.000029
2569.000000	-0.000021
2568.000000	-0.000019
2567.000000	-0.000030
2566.000000	-0.000049
2565.000000	-0.000069
2564.000000	-0.000081
2563.000000	-0.000084
2562.000000	-0.000082
2561.000000	-0.000082
2560.000000	-0.000093
2559.000000	-0.000115
2558.000000	-0.000140
2557.000000	-0.000159
2556.000000	-0.000170
2555.000000	-0.000178
2554.000000	-0.000178
2553.000000	-0.000168
2552.000000	-0.000148
2551.000000	-0.000127
2550.000000	-0.000117
2549.000000	-0.000124
2548.000000	-0.000144
2547.000000	-0.000170
2546.000000	-0.000193
2545.000000	-0.000206
2544.000000	-0.000205
2543.000000	-0.000189
2542.000000	-0.000162
2541.000000	-0.000136
2540.000000	-0.000124
2539.000000	-0.000124
2538.000000	-0.000121
2537.000000	-0.000107
2536.000000	-0.000093
2535.000000	-0.000091
2534.000000	-0.000103
2533.000000	-0.000119
2532.000000	-0.000134
2531.000000	-0.000154
2530.000000	-0.000171
2529.000000	-0.000169
2528.000000	-0.000139
2527.000000	-0.000093
2526.000000	-0.000056
2525.000000	-0.000046
2524.000000	-0.000065
2523.000000	-0.000102
2522.000000	-0.000144
2521.000000	-0.000179
2520.000000	-0.000202
2519.000000	-0.000211
2518.000000	-0.000200
2517.000000	-0.000165
2516.000000	-0.000116
2515.000000	-0.000081
2514.000000	-0.000079
2513.000000	-0.000106
2512.000000	-0.000138
2511.000000	-0.000160
2510.000000	-0.000173
2509.000000	-0.000181
2508.000000	-0.000181
2507.000000	-0.000164
2506.000000	-0.000129
2505.000000	-0.000090
2504.000000	-0.000067
2503.000000	-0.000074
2502.000000	-0.000105
2501.000000	-0.000141
2500.000000	-0.000167
2499.000000	-0.000175
2498.000000	-0.000168
2497.000000	-0.000144
2496.000000	-0.000104
2495.000000	-0.000061
2494.000000	-0.000042
2493.000000	-0.000068
2492.000000	-0.000132
2491.000000	-0.000201
2490.000000	-0.000235
2489.000000	-0.000217
2488.000000	-0.000164
2487.000000	-0.000111
2486.000000	-0.000085
2485.000000	-0.000086
2484.000000	-0.000101
2483.000000	-0.000121
2482.000000	-0.000147
2481.000000	-0.000182
2480.000000	-0.000217
2479.000000	-0.000232
2478.000000	-0.000221
2477.000000	-0.000189
2476.000000	-0.000153
2475.000000	-0.000123
2474.000000	-0.000102
2473.000000	-0.000089
2472.000000	-0.000086
2471.000000	-0.000099
2470.000000	-0.000124
2469.000000	-0.000146
2468.000000	-0.000150
2467.000000	-0.000138
2466.000000	-0.000122
2465.000000	-0.000111
2464.000000	-0.000100
2463.000000	-0.000082
2462.000000	-0.000056
2461.000000	-0.000035
2460.000000	-0.000037
2459.000000	-0.000058
2458.000000	-0.000081
2457.000000	-0.000089
2456.000000	-0.000081
2455.000000	-0.000076
2454.000000	-0.000089
2453.000000	-0.000114
2452.000000	-0.000136
2451.000000	-0.000144
2450.000000	-0.000138
2449.000000	-0.000124
2448.000000	-0.000112
2447.000000	-0.000107
2446.000000	-0.000104
2445.000000	-0.000094
2444.000000	-0.000078
2443.000000	-0.000064
2442.000000	-0.000059
2441.000000	-0.000061
2440.000000	-0.000062
2439.000000	-0.000064
2438.000000	-0.000075
2437.000000	-0.000093
2436.000000	-0.000107
2435.000000	-0.000112
2434.000000	-0.000117
2433.000000	-0.000137
2432.000000	-0.000173
2431.000000	-0.000208
2430.000000	-0.000219
2429.000000	-0.000200
2428.000000	-0.000165
2427.000000	-0.000138
2426.000000	-0.000131
2425.000000	-0.000137
2424.000000	-0.000145
2423.000000	-0.000149
2422.000000	-0.000160
2421.000000	-0.000182
2420.000000	-0.000209
2419.000000	-0.000228
2418.000000	-0.000230
2417.000000	-0.000219
2416.000000	-0.000205
2415.000000	-0.000198
2414.000000	-0.000198
2413.000000	-0.000196
2412.000000	-0.000182
2411.000000	-0.000160
2410.000000	-0.000142
2409.000000	-0.000139
2408.000000	-0.000146
2407.000000	-0.000150
2406.000000	-0.000146
2405.000000	-0.000144
2404.000000	-0.000159
2403.000000	-0.000197
2402.000000	-0.000245
2401.000000	-0.000281
2400.000000	-0.000286
2399.000000	-0.000264
2398.000000	-0.000232
2397.000000	-0.000208
2396.000000	-0.000192
2395.000000	-0.000174
2394.000000	-0.000151
2393.000000	-0.000133
2392.000000	-0.000136
2391.000000	-0.000163
2390.000000	-0.000195
2389.000000	-0.000212
2388.000000	-0.000210
2387.000000	-0.000202
2386.000000	-0.000201
2385.000000	-0.000210
2384.000000	-0.000222
2383.000000	-0.000228
2382.000000	-0.000220
2381.000000	-0.000201
2380.000000	-0.000186
2379.000000	-0.000184
2378.000000	-0.000191
2377.000000	-0.000201
2376.000000	-0.000212
2375.000000	-0.000229
2374.000000	-0.000245
2373.000000	-0.000248
2372.000000	-0.000232
2371.000000	-0.000209
2370.000000	-0.000201
2369.000000	-0.000214
2368.000000	-0.000242
2367.000000	-0.000274
2366.000000	-0.000298
2365.000000	-0.000296
2364.000000	-0.000253
2363.000000	-0.000172
2362.000000	-0.000089
2361.000000	-0.000046
2360.000000	-0.000059
2359.000000	-0.000115
2358.000000	-0.000175
2357.000000	-0.000215
2356.000000	-0.000225
2355.000000	-0.000211
2354.000000	-0.000195
2353.000000	-0.000185
2352.000000	-0.000186
2351.000000	-0.000194
2350.000000	-0.000205
2349.000000	-0.000193
2348.000000	-0.000133
2347.000000	-0.000037
2346.000000	0.000060
2345.000000	0.000122
2344.000000	0.000131
2343.000000	0.000094
2342.000000	0.000050
2341.000000	0.000031
2340.000000	0.000024
2339.000000	0.000016
2338.000000	0.000004
2337.000000	-0.000006
2336.000000	-0.000011
2335.000000	-0.000012
2334.000000	-0.000013
2333.000000	-0.000013
2332.000000	-0.000012
2331.000000	-0.000015
2330.000000	-0.000030
2329.000000	-0.000050
2328.000000	-0.000044
2327.000000	0.000007
2326.000000	0.000099
2325.000000	0.000192
2324.000000	0.000249
2323.000000	0.000252
2322.000000	0.000219
2321.000000	0.000180
2320.000000	0.000143
2319.000000	0.000112
2318.000000	0.000089
2317.000000	0.000081
2316.000000	0.000079
2315.000000	0.000065
2314.000000	0.000041
2313.000000	0.000022
2312.000000	0.000020
2311.000000	0.000023
2310.000000	0.000017
2309.000000	-0.000001
2308.000000	-0.000016
2307.000000	-0.000035
2306.000000	-0.000065
2305.000000	-0.000109
2304.000000	-0.000147
2303.000000	-0.000162
2302.000000	-0.000144
2301.000000	-0.000103
2300.000000	-0.000055
2299.000000	-0.000023
2298.000000	-0.000011
2297.000000	-0.000009
2296.000000	0.000003
2295.000000	0.000021
2294.000000	0.000034
2293.000000	0.000040
2292.000000	0.000052
2291.000000	0.000078
2290.000000	0.000109
2289.000000	0.000128
2288.000000	0.000128
2287.000000	0.000114
2286.000000	0.000095
2285.000000	0.000081
2284.000000	0.000088
2283.000000	0.000117
2282.000000	0.000156
2281.000000	0.000182
2280.000000	0.000188
2279.000000	0.000186
2278.000000	0.000186
2277.000000	0.000198
2276.000000	0.000225
2275.000000	0.000262
2274.000000	0.000290
2273.000000	0.000281
2272.000000	0.000228
2271.000000	0.000163
2270.000000	0.000136
2269.000000	0.000159
2268.000000	0.000188
2267.000000	0.000163
2266.000000	0.000074
2265.000000	-0.000025
2264.000000	-0.000071
2263.000000	-0.000054
2262.000000	-0.000009
2261.000000	0.000037
2260.000000	0.000085
2259.000000	0.000136
2258.000000	0.000173
2257.000000	0.000176
2256.000000	0.000154
2255.000000	0.000122
2254.000000	0.000090
2253.000000	0.000065
2252.000000	0.000058
2251.000000	0.000075
2250.000000	0.000092
2249.000000	0.000075
2248.000000	0.000010
2247.000000	-0.000081
2246.000000	-0.000175
2245.000000	-0.000255
2244.000000	-0.000299
2243.000000	-0.000282
2242.000000	-0.000206
2241.000000	-0.000113
2240.000000	-0.000045
2239.000000	-0.000020
2238.000000	-0.000040
2237.000000	-0.000105
2236.000000	-0.000197
2235.000000	-0.000266
2234.000000	-0.000269
2233.000000	-0.000205
2232.000000	-0.000113
2231.000000	-0.000024
2230.000000	0.000052
2229.000000	0.000100
2228.000000	0.000103
2227.000000	0.000073
2226.000000	0.000047
2225.000000	0.000040
2224.000000	0.000022
2223.000000	-0.000039
2222.000000	-0.000133
2221.000000	-0.000223
2220.000000	-0.000276
2219.000000	-0.000266
2218.000000	-0.000179
2217.000000	-0.000044
2216.000000	0.000050
2215.000000	0.000028
2214.000000	-0.000092
2213.000000	-0.000217
2212.000000	-0.000268
2211.000000	-0.000240
2210.000000	-0.000162
2209.000000	-0.000063
2208.000000	0.000024
2207.000000	0.000055
2206.000000	0.000014
2205.000000	-0.000057
2204.000000	-0.000090
2203.000000	-0.000052
2202.000000	0.000038
2201.000000	0.000142
2200.000000	0.000218
2199.000000	0.000235
2198.000000	0.000176
2197.000000	0.000059
2196.000000	-0.000069
2195.000000	-0.000156
2194.000000	-0.000182
2193.000000	-0.000173
2192.000000	-0.000178
2191.000000	-0.000217
2190.000000	-0.000266
2189.000000	-0.000284
2188.000000	-0.000265
2187.000000	-0.000237
2186.000000	-0.000223
2185.000000	-0.000211
2184.000000	-0.000180
2183.000000	-0.000132
2182.000000	-0.000093
2181.000000	-0.000082
2180.000000	-0.000095
2179.000000	-0.000111
2178.000000	-0.000120
2177.000000	-0.000150
2176.000000	-0.000241
2175.000000	-0.000383
2174.000000	-0.000487
2173.000000	-0.000454
2172.000000	-0.000282
2171.000000	-0.000070
2170.000000	0.000071
2169.000000	0.000109
2168.000000	0.000089
2167.000000	0.000071
2166.000000	0.000088
2165.000000	0.000130
2164.000000	0.000167
2163.000000	0.000186
2162.000000	0.000196
2161.000000	0.000177
2160.000000	0.000056
2159.000000	-0.000217
2158.000000	-0.000561
2157.000000	-0.000820
2156.000000	-0.000928
2155.000000	-0.000951
2154.000000	-0.000965
2153.000000	-0.000977
2152.000000	-0.000959
2151.000000	-0.000909
2150.000000	-0.000852
2149.000000	-0.000818
2148.000000	-0.000818
2147.000000	-0.000834
2146.000000	-0.000819
2145.000000	-0.000752
2144.000000	-0.000676
2143.000000	-0.000657
2142.000000	-0.000702
2141.000000	-0.000750
2140.000000	-0.000743
2139.000000	-0.000680
2138.000000	-0.000587
2137.000000	-0.000482
2136.000000	-0.000400
2135.000000	-0.000385
2134.000000	-0.000441
2133.000000	-0.000505
2132.000000	-0.000514
2131.000000	-0.000457
2130.000000	-0.000358
2129.000000	-0.000248
2128.000000	-0.000169
2127.000000	-0.000182
2126.000000	-0.000308
2125.000000	-0.000474
2124.000000	-0.000565
2123.000000	-0.000540
2122.000000	-0.000453
2121.000000	-0.000376
2120.000000	-0.000325
2119.000000	-0.000281
2118.000000	-0.000243
2117.000000	-0.000225
2116.000000	-0.000225
2115.000000	-0.000233
2114.000000	-0.000246
2113.000000	-0.000260
2112.000000	-0.000254
2111.000000	-0.000209
2110.000000	-0.000141
2109.000000	-0.000093
2108.000000	-0.000096
2107.000000	-0.000147
2106.000000	-0.000226
2105.000000	-0.000308
2104.000000	-0.000372
2103.000000	-0.000398
2102.000000	-0.000384
2101.000000	-0.000338
2100.000000	-0.000261
2099.000000	-0.000147
2098.000000	-0.000014
2097.000000	0.000091
2096.000000	0.000116
2095.000000	0.000048
2094.000000	-0.000090
2093.000000	-0.000260
2092.000000	-0.000417
2091.000000	-0.000509
2090.000000	-0.000509
2089.000000	-0.000442
2088.000000	-0.000370
2087.000000	-0.000329
2086.000000	-0.000308
2085.000000	-0.000282
2084.000000	-0.000261
2083.000000	-0.000266
2082.000000	-0.000282
2081.000000	-0.000267
2080.000000	-0.000200
2079.000000	-0.000106
2078.000000	-0.000021
2077.000000	0.000033
2076.000000	0.000039
2075.000000	-0.000020
2074.000000	-0.000127
2073.000000	-0.000221
2072.000000	-0.000244
2071.000000	-0.000213
2070.000000	-0.000196
2069.000000	-0.000234
2068.000000	-0.000292
2067.000000	-0.000309
2066.000000	-0.000276
2065.000000	-0.000240
2064.000000	-0.000243
2063.000000	-0.000265
2062.000000	-0.000261
2061.000000	-0.000232
2060.000000	-0.000229
2059.000000	-0.000284
2058.000000	-0.000352
2057.000000	-0.000358
2056.000000	-0.000285
2055.000000	-0.000186
2054.000000	-0.000117
2053.000000	-0.000079
2052.000000	-0.000047
2051.000000	-0.000006
2050.000000	0.000033
2049.000000	0.000055
2048.000000	0.000042
2047.000000	-0.000023
2046.000000	-0.000137
2045.000000	-0.000262
2044.000000	-0.000357
2043.000000	-0.000423
2042.000000	-0.000486
2041.000000	-0.000554
2040.000000	-0.000590
2039.000000	-0.000533
2038.000000	-0.000354
2037.000000	-0.000092
2036.000000	0.000148
2035.000000	0.000268
2034.000000	0.000255
2033.000000	0.000164
2032.000000	0.000034
2031.000000	-0.000139
2030.000000	-0.000345
2029.000000	-0.000521
2028.000000	-0.000595
2027.000000	-0.000551
2026.000000	-0.000432
2025.000000	-0.000306
2024.000000	-0.000243
2023.000000	-0.000287
2022.000000	-0.000416
2021.000000	-0.000561
2020.000000	-0.000665
2019.000000	-0.000726
2018.000000	-0.000758
2017.000000	-0.000756
2016.000000	-0.000726
2015.000000	-0.000696
2014.000000	-0.000675
2013.000000	-0.000643
2012.000000	-0.000589
2011.000000	-0.000541
2010.000000	-0.000516
2009.000000	-0.000489
2008.000000	-0.000456
2007.000000	-0.000469
2006.000000	-0.000553
2005.000000	-0.000618
2004.000000	-0.000558
2003.000000	-0.000391
2002.000000	-0.000252
2001.000000	-0.000232
2000.000000	-0.000288
1999.000000	-0.000319
1998.000000	-0.000282
1997.000000	-0.000221
1996.000000	-0.000203
1995.000000	-0.000258
1994.000000	-0.000355
1993.000000	-0.000410
1992.000000	-0.000351
1991.000000	-0.000197
1990.000000	-0.000055
1989.000000	-0.000014
1988.000000	-0.000090
1987.000000	-0.000237
1986.000000	-0.000399
1985.000000	-0.000519
1984.000000	-0.000548
1983.000000	-0.000478
1982.000000	-0.000336
1981.000000	-0.000156
1980.000000	0.000043
1979.000000	0.000219
1978.000000	0.000294
1977.000000	0.000206
1976.000000	-0.000036
1975.000000	-0.000377
1974.000000	-0.000766
1973.000000	-0.001114
1972.000000	-0.001278
1971.000000	-0.001178
1970.000000	-0.000903
1969.000000	-0.000648
1968.000000	-0.000551
1967.000000	-0.000608
1966.000000	-0.000750
1965.000000	-0.000921
1964.000000	-0.001074
1963.000000	-0.001132
1962.000000	-0.001038
1961.000000	-0.000832
1960.000000	-0.000633
1959.000000	-0.000546
1958.000000	-0.000596
1957.000000	-0.000728
1956.000000	-0.000839
1955.000000	-0.000843
1954.000000	-0.000738
1953.000000	-0.000612
1952.000000	-0.000561
1951.000000	-0.000592
1950.000000	-0.000640
1949.000000	-0.000649
1948.000000	-0.000619
1947.000000	-0.000563
1946.000000	-0.000482
1945.000000	-0.000396
1944.000000	-0.000350
1943.000000	-0.000377
1942.000000	-0.000463
1941.000000	-0.000563
1940.000000	-0.000641
1939.000000	-0.000669
1938.000000	-0.000624
1937.000000	-0.000523
1936.000000	-0.000433
1935.000000	-0.000407
1934.000000	-0.000430
1933.000000	-0.000444
1932.000000	-0.000423
1931.000000	-0.000392
1930.000000	-0.000377
1929.000000	-0.000374
1928.000000	-0.000366
1927.000000	-0.000356
1926.000000	-0.000371
1925.000000	-0.000434
1924.000000	-0.000540
1923.000000	-0.000652
1922.000000	-0.000722
1921.000000	-0.000726
1920.000000	-0.000675
1919.000000	-0.000587
1918.000000	-0.000489
1917.000000	-0.000407
1916.000000	-0.000356
1915.000000	-0.000324
1914.000000	-0.000284
1913.000000	-0.000231
1912.000000	-0.000192
1911.000000	-0.000197
1910.000000	-0.000257
1909.000000	-0.000357
1908.000000	-0.000466
1907.000000	-0.000549
1906.000000	-0.000579
1905.000000	-0.000562
1904.000000	-0.000540
1903.000000	-0.000550
1902.000000	-0.000585
1901.000000	-0.000604
1900.000000	-0.000595
1899.000000	-0.000578
1898.000000	-0.000565
1897.000000	-0.000536
1896.000000	-0.000474
1895.000000	-0.000410
1894.000000	-0.000400
1893.000000	-0.000468
1892.000000	-0.000576
1891.000000	-0.000656
1890.000000	-0.000668
1889.000000	-0.000633
1888.000000	-0.000610
1887.000000	-0.000620
1886.000000	-0.000630
1885.000000	-0.000605
1884.000000	-0.000559
1883.000000	-0.000542
1882.000000	-0.000573
1881.000000	-0.000617
1880.000000	-0.000638
1879.000000	-0.000640
1878.000000	-0.000649
1877.000000	-0.000670
1876.000000	-0.000687
1875.000000	-0.000689
1874.000000	-0.000685
1873.000000	-0.000681
1872.000000	-0.000677
1871.000000	-0.000667
1870.000000	-0.000643
1869.000000	-0.000604
1868.000000	-0.000557
1867.000000	-0.000528
1866.000000	-0.000544
1865.000000	-0.000608
1864.000000	-0.000701
1863.000000	-0.000786
1862.000000	-0.000824
1861.000000	-0.000798
1860.000000	-0.000729
1859.000000	-0.000666
1858.000000	-0.000653
1857.000000	-0.000697
1856.000000	-0.000769
1855.000000	-0.000831
1854.000000	-0.000860
1853.000000	-0.000854
1852.000000	-0.000819
1851.000000	-0.000762
1850.000000	-0.000692
1849.000000	-0.000630
1848.000000	-0.000605
1847.000000	-0.000629
1846.000000	-0.000679
1845.000000	-0.000716
1844.000000	-0.000723
1843.000000	-0.000723
1842.000000	-0.000742
1841.000000	-0.000778
1840.000000	-0.000806
1839.000000	-0.000810
1838.000000	-0.000792
1837.000000	-0.000765
1836.000000	-0.000750
1835.000000	-0.000754
1834.000000	-0.000765
1833.000000	-0.000771
1832.000000	-0.000767
1831.000000	-0.000755
1830.000000	-0.000732
1829.000000	-0.000701
1828.000000	-0.000687
1827.000000	-0.000707
1826.000000	-0.000738
1825.000000	-0.000743
1824.000000	-0.000724
1823.000000	-0.000718
1822.000000	-0.000751
1821.000000	-0.000810
1820.000000	-0.000867
1819.000000	-0.000907
1818.000000	-0.000927
1817.000000	-0.000923
1816.000000	-0.000894
1815.000000	-0.000851
1814.000000	-0.000808
1813.000000	-0.000773
1812.000000	-0.000750
1811.000000	-0.000742
1810.000000	-0.000746
1809.000000	-0.000757
1808.000000	-0.000777
1807.000000	-0.000804
1806.000000	-0.000839
1805.000000	-0.000875
1804.000000	-0.000906
1803.000000	-0.000926
1802.000000	-0.000925
1801.000000	-0.000895
1800.000000	-0.000845
1799.000000	-0.000797
1798.000000	-0.000764
1797.000000	-0.000744
1796.000000	-0.000742
1795.000000	-0.000763
1794.000000	-0.000799
1793.000000	-0.000823
1792.000000	-0.000821
1791.000000	-0.000809
1790.000000	-0.000810
1789.000000	-0.000819
1788.000000	-0.000820
1787.000000	-0.000814
1786.000000	-0.000812
1785.000000	-0.000820
1784.000000	-0.000834
1783.000000	-0.000849
1782.000000	-0.000859
1781.000000	-0.000855
1780.000000	-0.000840
1779.000000	-0.000834
1778.000000	-0.000843
1777.000000	-0.000846
1776.000000	-0.000828
1775.000000	-0.000795
1774.000000	-0.000766
1773.000000	-0.000747
1772.000000	-0.000735
1771.000000	-0.000737
1770.000000	-0.000754
1769.000000	-0.000769
1768.000000	-0.000766
1767.000000	-0.000755
1766.000000	-0.000751
1765.000000	-0.000755
1764.000000	-0.000758
1763.000000	-0.000763
1762.000000	-0.000786
1761.000000	-0.000821
1760.000000	-0.000847
1759.000000	-0.000851
1758.000000	-0.000827
1757.000000	-0.000780
1756.000000	-0.000735
1755.000000	-0.000724
1754.000000	-0.000755
1753.000000	-0.000796
1752.000000	-0.000813
1751.000000	-0.000798
1750.000000	-0.000771
1749.000000	-0.000756
1748.000000	-0.000756
1747.000000	-0.000762
1746.000000	-0.000769
1745.000000	-0.000765
1744.000000	-0.000749
1743.000000	-0.000730
1742.000000	-0.000720
1741.000000	-0.000721
1740.000000	-0.000717
1739.000000	-0.000701
1738.000000	-0.000689
1737.000000	-0.000698
1736.000000	-0.000723
1735.000000	-0.000753
1734.000000	-0.000762
1733.000000	-0.000732
1732.000000	-0.000702
1731.000000	-0.000705
1730.000000	-0.000723
1729.000000	-0.000736
1728.000000	-0.000738
1727.000000	-0.000734
1726.000000	-0.000722
1725.000000	-0.000698
1724.000000	-0.000667
1723.000000	-0.000645
1722.000000	-0.000638
1721.000000	-0.000636
1720.000000	-0.000620
1719.000000	-0.000579
1718.000000	-0.000517
1717.000000	-0.000448
1716.000000	-0.000394
1715.000000	-0.000377
1714.000000	-0.000396
1713.000000	-0.000431
1712.000000	-0.000462
1711.000000	-0.000478
1710.000000	-0.000473
1709.000000	-0.000445
1708.000000	-0.000402
1707.000000	-0.000355
1706.000000	-0.000297
1705.000000	-0.000217
1704.000000	-0.000124
1703.000000	-0.000047
1702.000000	0.000008
1701.000000	0.000042
1700.000000	0.000061
1699.000000	0.000069
1698.000000	0.000054
1697.000000	0.000038
1696.000000	0.000071
1695.000000	0.000157
1694.000000	0.000242
1693.000000	0.000300
1692.000000	0.000364
1691.000000	0.000454
1690.000000	0.000560
1689.000000	0.000660
1688.000000	0.000744
1687.000000	0.000809
1686.000000	0.000863
1685.000000	0.000922
1684.000000	0.001006
1683.000000	0.001103
1682.000000	0.001153
1681.000000	0.001172
1680.000000	0.001209
1679.000000	0.001273
1678.000000	0.001349
1677.000000	0.001431
1676.000000	0.001516
1675.000000	0.001599
1674.000000	0.001678
1673.000000	0.001760
1672.000000	0.001852
1671.000000	0.001947
1670.000000	0.002032
1669.000000	0.002113
1668.000000	0.002192
1667.000000	0.002259
1666.000000	0.002308
1665.000000	0.002350
1664.000000	0.002395
1663.000000	0.002446
1662.000000	0.002510
1661.000000	0.002586
1660.000000	0.002665
1659.000000	0.002737
1658.000000	0.002803
1657.000000	0.002875
1656.000000	0.002968
1655.000000	0.003082
1654.000000	0.003171
1653.000000	0.003199
1652.000000	0.003229
1651.000000	0.003264
1650.000000	0.003300
1649.000000	0.003365
1648.000000	0.003443
1647.000000	0.003504
1646.000000	0.003539
1645.000000	0.003564
1644.000000	0.003588
1643.000000	0.003616
1642.000000	0.003651
1641.000000	0.003703
1640.000000	0.003777
1639.000000	0.003858
1638.000000	0.003917
1637.000000	0.003927
1636.000000	0.003881
1635.000000	0.003823
1634.000000	0.003789
1633.000000	0.003779
1632.000000	0.003797
1631.000000	0.003839
1630.000000	0.003885
1629.000000	0.003919
1628.000000	0.003948
1627.000000	0.003989
1626.000000	0.004046
1625.000000	0.004106
1624.000000	0.004150
1623.000000	0.004169
1622.000000	0.004179
1621.000000	0.004201
1620.000000	0.004239
1619.000000	0.004272
1618.000000	0.004257
1617.000000	0.004173
1616.000000	0.004076
1615.000000	0.004031
1614.000000	0.004030
1613.000000	0.004043
1612.000000	0.004051
1611.000000	0.004042
1610.000000	0.004012
1609.000000	0.003965
1608.000000	0.003910
1607.000000	0.003854
1606.000000	0.003802
1605.000000	0.003754
1604.000000	0.003704
1603.000000	0.003647
1602.000000	0.003585
1601.000000	0.003524
1600.000000	0.003467
1599.000000	0.003408
1598.000000	0.003347
1597.000000	0.003285
1596.000000	0.003224
1595.000000	0.003162
1594.000000	0.003099
1593.000000	0.003036
1592.000000	0.002974
1591.000000	0.002912
1590.000000	0.002858
1589.000000	0.002820
1588.000000	0.002795
1587.000000	0.002762
1586.000000	0.002707
1585.000000	0.002638
1584.000000	0.002576
1583.000000	0.002531
1582.000000	0.002497
1581.000000	0.002472
1580.000000	0.002460
1579.000000	0.002468
1578.000000	0.002492
1577.000000	0.002498
1576.000000	0.002449
1575.000000	0.002368
1574.000000	0.002299
1573.000000	0.002259
1572.000000	0.002241
1571.000000	0.002217
1570.000000	0.002168
1569.000000	0.002118
1568.000000	0.002096
1567.000000	0.002097
1566.000000	0.002107
1565.000000	0.002113
1564.000000	0.002107
1563.000000	0.002097
1562.000000	0.002092
1561.000000	0.002084
1560.000000	0.002019
1559.000000	0.001887
1558.000000	0.001847
1557.000000	0.001880
1556.000000	0.001895
1555.000000	0.001899
1554.000000	0.001888
1553.000000	0.001863
1552.000000	0.001826
1551.000000	0.001788
1550.000000	0.001761
1549.000000	0.001756
1548.000000	0.001764
1547.000000	0.001772
1546.000000	0.001780
1545.000000	0.001789
1544.000000	0.001801
1543.000000	0.001808
1542.000000	0.001801
1541.000000	0.001766
1540.000000	0.001707
1539.000000	0.001659
1538.000000	0.001626
1537.000000	0.001600
1536.000000	0.001590
1535.000000	0.001588
1534.000000	0.001580
1533.000000	0.001576
1532.000000	0.001584
1531.000000	0.001584
1530.000000	0.001562
1529.000000	0.001517
1528.000000	0.001462
1527.000000	0.001422
1526.000000	0.001405
1525.000000	0.001400
1524.000000	0.001383
1523.000000	0.001338
1522.000000	0.001261
1521.000000	0.001188
1520.000000	0.001151
1519.000000	0.001127
1518.000000	0.001096
1517.000000	0.001066
1516.000000	0.001054
1515.000000	0.001058
1514.000000	0.001055
1513.000000	0.001040
1512.000000	0.001019
1511.000000	0.001003
1510.000000	0.000999
1509.000000	0.001001
1508.000000	0.000984
1507.000000	0.000922
1506.000000	0.000836
1505.000000	0.000746
1504.000000	0.000668
1503.000000	0.000621
1502.000000	0.000599
1501.000000	0.000588
1500.000000	0.000575
1499.000000	0.000560
1498.000000	0.000540
1497.000000	0.000512
1496.000000	0.000478
1495.000000	0.000450
1494.000000	0.000433
1493.000000	0.000429
1492.000000	0.000433
1491.000000	0.000428
1490.000000	0.000408
1489.000000	0.000393
1488.000000	0.000396
1487.000000	0.000407
1486.000000	0.000409
1485.000000	0.000391
1484.000000	0.000362
1483.000000	0.000334
1482.000000	0.000321
1481.000000	0.000332
1480.000000	0.000362
1479.000000	0.000396
1478.000000	0.000427
1477.000000	0.000456
1476.000000	0.000480
1475.000000	0.000489
1474.000000	0.000479
1473.000000	0.000474
1472.000000	0.000492
1471.000000	0.000513
1470.000000	0.000511
1469.000000	0.000499
1468.000000	0.000497
1467.000000	0.000511
1466.000000	0.000528
1465.000000	0.000538
1464.000000	0.000544
1463.000000	0.000547
1462.000000	0.000543
1461.000000	0.000539
1460.000000	0.000545
1459.000000	0.000566
1458.000000	0.000585
1457.000000	0.000584
1456.000000	0.000582
1455.000000	0.000587
1454.000000	0.000598
1453.000000	0.000612
1452.000000	0.000625
1451.000000	0.000636
1450.000000	0.000653
1449.000000	0.000675
1448.000000	0.000694
1447.000000	0.000707
1446.000000	0.000719
1445.000000	0.000735
1444.000000	0.000750
1443.000000	0.000753
1442.000000	0.000744
1441.000000	0.000731
1440.000000	0.000725
1439.000000	0.000729
1438.000000	0.000733
1437.000000	0.000722
1436.000000	0.000701
1435.000000	0.000691
1434.000000	0.000697
1433.000000	0.000717
1432.000000	0.000747
1431.000000	0.000776
1430.000000	0.000799
1429.000000	0.000811
1428.000000	0.000816
1427.000000	0.000822
1426.000000	0.000837
1425.000000	0.000858
1424.000000	0.000873
1423.000000	0.000874
1422.000000	0.000868
1421.000000	0.000868
1420.000000	0.000873
1419.000000	0.000871
1418.000000	0.000864
1417.000000	0.000854
1416.000000	0.000847
1415.000000	0.000849
1414.000000	0.000860
1413.000000	0.000869
1412.000000	0.000869
1411.000000	0.000859
1410.000000	0.000845
1409.000000	0.000837
1408.000000	0.000838
1407.000000	0.000847
1406.000000	0.000856
1405.000000	0.000857
1404.000000	0.000851
1403.000000	0.000848
1402.000000	0.000856
1401.000000	0.000876
1400.000000	0.000901
1399.000000	0.000921
1398.000000	0.000928
1397.000000	0.000914
1396.000000	0.000881
1395.000000	0.000840
1394.000000	0.000811
1393.000000	0.000793
1392.000000	0.000777
1391.000000	0.000755
1390.000000	0.000737
1389.000000	0.000730
1388.000000	0.000737
1387.000000	0.000752
1386.000000	0.000762
1385.000000	0.000757
1384.000000	0.000741
1383.000000	0.000728
1382.000000	0.000730
1381.000000	0.000751
1380.000000	0.000781
1379.000000	0.000811
1378.000000	0.000836
1377.000000	0.000856
1376.000000	0.000872
1375.000000	0.000880
1374.000000	0.000883
1373.000000	0.000888
1372.000000	0.000895
1371.000000	0.000899
1370.000000	0.000897
1369.000000	0.000893
1368.000000	0.000891
1367.000000	0.000893
1366.000000	0.000906
1365.000000	0.000927
1364.000000	0.000946
1363.000000	0.000946
1362.000000	0.000922
1361.000000	0.000888
1360.000000	0.000858
1359.000000	0.000834
1358.000000	0.000817
1357.000000	0.000806
1356.000000	0.000801
1355.000000	0.000798
1354.000000	0.000793
1353.000000	0.000786
1352.000000	0.000778
1351.000000	0.000771
1350.000000	0.000770
1349.000000	0.000781
1348.000000	0.000806
1347.000000	0.000832
1346.000000	0.000846
1345.000000	0.000847
1344.000000	0.000846
1343.000000	0.000854
1342.000000	0.000881
1341.000000	0.000929
1340.000000	0.000994
1339.000000	0.001059
1338.000000	0.001110
1337.000000	0.001150
1336.000000	0.001192
1335.000000	0.001253
1334.000000	0.001339
1333.000000	0.001449
1332.000000	0.001575
1331.000000	0.001707
1330.000000	0.001840
1329.000000	0.001981
1328.000000	0.002136
1327.000000	0.002296
1326.000000	0.002443
1325.000000	0.002567
1324.000000	0.002672
1323.000000	0.002767
1322.000000	0.002856
1321.000000	0.002931
1320.000000	0.002973
1319.000000	0.002966
1318.000000	0.002910
1317.000000	0.002818
1316.000000	0.002706
1315.000000	0.002580
1314.000000	0.002447
1313.000000	0.002315
1312.000000	0.002190
1311.000000	0.002069
1310.000000	0.001950
1309.000000	0.001833
1308.000000	0.001716
1307.000000	0.001597
1306.000000	0.001476
1305.000000	0.001362
1304.000000	0.001269
1303.000000	0.001205
1302.000000	0.001159
1301.000000	0.001112
1300.000000	0.001054
1299.000000	0.000992
1298.000000	0.000943
1297.000000	0.000915
1296.000000	0.000895
1295.000000	0.000864
1294.000000	0.000815
1293.000000	0.000757
1292.000000	0.000704
1291.000000	0.000660
1290.000000	0.000623
1289.000000	0.000584
1288.000000	0.000542
1287.000000	0.000500
1286.000000	0.000460
1285.000000	0.000425
1284.000000	0.000398
1283.000000	0.000383
1282.000000	0.000379
1281.000000	0.000378
1280.000000	0.000366
1279.000000	0.000337
1278.000000	0.000292
1277.000000	0.000240
1276.000000	0.000193
1275.000000	0.000166
1274.000000	0.000165
1273.000000	0.000182
1272.000000	0.000196
1271.000000	0.000190
1270.000000	0.000167
1269.000000	0.000144
1268.000000	0.000131
1267.000000	0.000123
1266.000000	0.000114
1265.000000	0.000100
1264.000000	0.000083
1263.000000	0.000068
1262.000000	0.000059
1261.000000	0.000056
1260.000000	0.000054
1259.000000	0.000049
1258.000000	0.000043
1257.000000	0.000043
1256.000000	0.000048
1255.000000	0.000052
1254.000000	0.000051
1253.000000	0.000041
1252.000000	0.000014
1251.000000	-0.000035
1250.000000	-0.000093
1249.000000	-0.000132
1248.000000	-0.000134
1247.000000	-0.000108
1246.000000	-0.000078
1245.000000	-0.000056
1244.000000	-0.000045
1243.000000	-0.000046
1242.000000	-0.000066
1241.000000	-0.000100
1240.000000	-0.000132
1239.000000	-0.000148
1238.000000	-0.000152
1237.000000	-0.000153
1236.000000	-0.000156
1235.000000	-0.000156
1234.000000	-0.000153
1233.000000	-0.000151
1232.000000	-0.000156
1231.000000	-0.000169
1230.000000	-0.000187
1229.000000	-0.000205
1228.000000	-0.000218
1227.000000	-0.000229
1226.000000	-0.000244
1225.000000	-0.000266
1224.000000	-0.000290
1223.000000	-0.000309
1222.000000	-0.000324
1221.000000	-0.000337
1220.000000	-0.000348
1219.000000	-0.000350
1218.000000	-0.000344
1217.000000	-0.000339
1216.000000	-0.000339
1215.000000	-0.000341
1214.000000	-0.000342
1213.000000	-0.000342
1212.000000	-0.000347
1211.000000	-0.000360
1210.000000	-0.000381
1209.000000	-0.000410
1208.000000	-0.000437
1207.000000	-0.000450
1206.000000	-0.000447
1205.000000	-0.000445
1204.000000	-0.000457
1203.000000	-0.000482
1202.000000	-0.000502
1201.000000	-0.000507
1200.000000	-0.000500
1199.000000	-0.000489
1198.000000	-0.000480
1197.000000	-0.000476
1196.000000	-0.000479
1195.000000	-0.000487
1194.000000	-0.000489
1193.000000	-0.000476
1192.000000	-0.000455
1191.000000	-0.000445
1190.000000	-0.000461
1189.000000	-0.000498
1188.000000	-0.000539
1187.000000	-0.000565
1186.000000	-0.000565
1185.000000	-0.000537
1184.000000	-0.000486
1183.000000	-0.000425
1182.000000	-0.000370
1181.000000	-0.000334
1180.000000	-0.000320
1179.000000	-0.000317
1178.000000	-0.000307
1177.000000	-0.000280
1176.000000	-0.000239
1175.000000	-0.000196
1174.000000	-0.000156
1173.000000	-0.000115
1172.000000	-0.000065
1171.000000	-0.000010
1170.000000	0.000036
1169.000000	0.000064
1168.000000	0.000083
1167.000000	0.000110
1166.000000	0.000153
1165.000000	0.000210
1164.000000	0.000269
1163.000000	0.000323
1162.000000	0.000369
1161.000000	0.000414
1160.000000	0.000470
1159.000000	0.000539
1158.000000	0.000609
1157.000000	0.000659
1156.000000	0.000680
1155.000000	0.000683
1154.000000	0.000696
1153.000000	0.000738
1152.000000	0.000808
1151.000000	0.000890
1150.000000	0.000963
1149.000000	0.001018
1148.000000	0.001055
1147.000000	0.001077
1146.000000	0.001088
1145.000000	0.001099
1144.000000	0.001119
1143.000000	0.001152
1142.000000	0.001188
1141.000000	0.001216
1140.000000	0.001234
1139.000000	0.001243
1138.000000	0.001251
1137.000000	0.001257
1136.000000	0.001261
1135.000000	0.001267
1134.000000	0.001284
1133.000000	0.001315
1132.000000	0.001351
1131.000000	0.001382
1130.000000	0.001401
1129.000000	0.001410
1128.000000	0.001413
1127.000000	0.001416
1126.000000	0.001429
1125.000000	0.001454
1124.000000	0.001486
1123.000000	0.001514
1122.000000	0.001536
1121.000000	0.001569
1120.000000	0.001626
1119.000000	0.001701
1118.000000	0.001770
1117.000000	0.001814
1116.000000	0.001834
1115.000000	0.001843
1114.000000	0.001852
1113.000000	0.001866
1112.000000	0.001890
1111.000000	0.001918
1110.000000	0.001933
1109.000000	0.001921
1108.000000	0.001886
1107.000000	0.001847
1106.000000	0.001823
1105.000000	0.001815
1104.000000	0.001820
1103.000000	0.001843
1102.000000	0.001887
1101.000000	0.001935
1100.000000	0.001956
1099.000000	0.001932
1098.000000	0.001880
1097.000000	0.001834
1096.000000	0.001816
1095.000000	0.001824
1094.000000	0.001840
1093.000000	0.001853
1092.000000	0.001862
1091.000000	0.001879
1090.000000	0.001905
1089.000000	0.001924
1088.000000	0.001920
1087.000000	0.001897
1086.000000	0.001882
1085.000000	0.001889
1084.000000	0.001904
1083.000000	0.001905
1082.000000	0.001895
1081.000000	0.001900
1080.000000	0.001931
1079.000000	0.001972
1078.000000	0.002002
1077.000000	0.002024
1076.000000	0.002054
1075.000000	0.002097
1074.000000	0.002133
1073.000000	0.002140
1072.000000	0.002117
1071.000000	0.002085
1070.000000	0.002055
1069.000000	0.002022
1068.000000	0.001972
1067.000000	0.001915
1066.000000	0.001879
1065.000000	0.001888
1064.000000	0.001938
1063.000000	0.002001
1062.000000	0.002043
1061.000000	0.002047
1060.000000	0.002015
1059.000000	0.001970
1058.000000	0.001935
1057.000000	0.001917
1056.000000	0.001906
1055.000000	0.001898
1054.000000	0.001903
1053.000000	0.001930
1052.000000	0.001975
1051.000000	0.002017
1050.000000	0.002039
1049.000000	0.002034
1048.000000	0.001999
1047.000000	0.001950
1046.000000	0.001912
1045.000000	0.001908
1044.000000	0.001947
1043.000000	0.002018
1042.000000	0.002096
1041.000000	0.002149
1040.000000	0.002155
1039.000000	0.002132
1038.000000	0.002118
1037.000000	0.002138
1036.000000	0.002171
1035.000000	0.002187
1034.000000	0.002181
1033.000000	0.002168
1032.000000	0.002163
1031.000000	0.002172
1030.000000	0.002204
1029.000000	0.002254
1028.000000	0.002286
1027.000000	0.002270
1026.000000	0.002214
1025.000000	0.002161
1024.000000	0.002127
1023.000000	0.002097
1022.000000	0.002064
1021.000000	0.002048
1020.000000	0.002063
1019.000000	0.002097
1018.000000	0.002126
1017.000000	0.002147
1016.000000	0.002169
1015.000000	0.002193
1014.000000	0.002212
1013.000000	0.002220
1012.000000	0.002210
1011.000000	0.002169
1010.000000	0.002095
1009.000000	0.002010
1008.000000	0.001946
1007.000000	0.001917
1006.000000	0.001917
1005.000000	0.001929
1004.000000	0.001934
1003.000000	0.001912
1002.000000	0.001868
1001.000000	0.001832
1000.000000	0.001829
999.000000	0.001850
998.000000	0.001864
997.000000	0.001848
996.000000	0.001806
995.000000	0.001751
994.000000	0.001693
993.000000	0.001642
992.000000	0.001602
991.000000	0.001571
990.000000	0.001544
989.000000	0.001521
988.000000	0.001512
987.000000	0.001515
986.000000	0.001514
985.000000	0.001488
984.000000	0.001434
983.000000	0.001370
982.000000	0.001323
981.000000	0.001306
980.000000	0.001309
979.000000	0.001310
978.000000	0.001293
977.000000	0.001263
976.000000	0.001221
975.000000	0.001164
974.000000	0.001091
973.000000	0.001021
972.000000	0.000973
971.000000	0.000942
970.000000	0.000907
969.000000	0.000854
968.000000	0.000786
967.000000	0.000716
966.000000	0.000651
965.000000	0.000600
964.000000	0.000570
963.000000	0.000563
962.000000	0.000569
961.000000	0.000574
960.000000	0.000570
959.000000	0.000547
958.000000	0.000505
957.000000	0.000456
956.000000	0.000417
955.000000	0.000392
954.000000	0.000366
953.000000	0.000326
952.000000	0.000272
951.000000	0.000223
950.000000	0.000194
949.000000	0.000183
948.000000	0.000171
947.000000	0.000135
946.000000	0.000069
945.000000	-0.000003
944.000000	-0.000048
943.000000	-0.000050
942.000000	-0.000030
941.000000	-0.000025
940.000000	-0.000051
939.000000	-0.000094
938.000000	-0.000131
937.000000	-0.000155
936.000000	-0.000173
935.000000	-0.000198
934.000000	-0.000236
933.000000	-0.000277
932.000000	-0.000304
931.000000	-0.000305
930.000000	-0.000285
929.000000	-0.000259
928.000000	-0.000240
927.000000	-0.000231
926.000000	-0.000237
925.000000	-0.000265
924.000000	-0.000314
923.000000	-0.000358
922.000000	-0.000365
921.000000	-0.000336
920.000000	-0.000304
919.000000	-0.000300
918.000000	-0.000317
917.000000	-0.000323
916.000000	-0.000300
915.000000	-0.000264
914.000000	-0.000248
913.000000	-0.000268
912.000000	-0.000316
911.000000	-0.000369
910.000000	-0.000406
909.000000	-0.000423
908.000000	-0.000431
907.000000	-0.000446
906.000000	-0.000465
905.000000	-0.000481
904.000000	-0.000489
903.000000	-0.000496
902.000000	-0.000505
901.000000	-0.000515
900.000000	-0.000536
899.000000	-0.000582
898.000000	-0.000656
897.000000	-0.000734
896.000000	-0.000786
895.000000	-0.000808
894.000000	-0.000812
893.000000	-0.000806
892.000000	-0.000785
891.000000	-0.000747
890.000000	-0.000704
889.000000	-0.000673
888.000000	-0.000664
887.000000	-0.000680
886.000000	-0.000713
885.000000	-0.000744
884.000000	-0.000751
883.000000	-0.000729
882.000000	-0.000692
881.000000	-0.000651
880.000000	-0.000603
879.000000	-0.000544
878.000000	-0.000494
877.000000	-0.000481
876.000000	-0.000515
875.000000	-0.000574
874.000000	-0.000620
873.000000	-0.000635
872.000000	-0.000624
871.000000	-0.000608
870.000000	-0.000604
869.000000	-0.000621
868.000000	-0.000665
867.000000	-0.000728
866.000000	-0.000784
865.000000	-0.000802
864.000000	-0.000768
863.000000	-0.000711
862.000000	-0.000683
861.000000	-0.000720
860.000000	-0.000805
859.000000	-0.000885
858.000000	-0.000912
857.000000	-0.000879
856.000000	-0.000824
855.000000	-0.000799
854.000000	-0.000829
853.000000	-0.000893
852.000000	-0.000941
851.000000	-0.000940
850.000000	-0.000901
849.000000	-0.000860
848.000000	-0.000842
847.000000	-0.000842
846.000000	-0.000837
845.000000	-0.000818
844.000000	-0.000800
843.000000	-0.000804
842.000000	-0.000833
841.000000	-0.000869
840.000000	-0.000886
839.000000	-0.000876
838.000000	-0.000849
837.000000	-0.000819
836.000000	-0.000790
835.000000	-0.000755
834.000000	-0.000711
833.000000	-0.000673
832.000000	-0.000658
831.000000	-0.000670
830.000000	-0.000701
829.000000	-0.000742
828.000000	-0.000797
827.000000	-0.000871
826.000000	-0.000944
825.000000	-0.000981
824.000000	-0.000960
823.000000	-0.000895
822.000000	-0.000817
821.000000	-0.000763
820.000000	-0.000761
819.000000	-0.000815
818.000000	-0.000891
817.000000	-0.000933
816.000000	-0.000908
815.000000	-0.000847
814.000000	-0.000806
813.000000	-0.000804
812.000000	-0.000811
811.000000	-0.000799
810.000000	-0.000782
809.000000	-0.000795
808.000000	-0.000848
807.000000	-0.000911
806.000000	-0.000943
805.000000	-0.000925
804.000000	-0.000868
803.000000	-0.000804
802.000000	-0.000752
801.000000	-0.000711
800.000000	-0.000672
799.000000	-0.000635
798.000000	-0.000615
797.000000	-0.000615
796.000000	-0.000612
795.000000	-0.000572
794.000000	-0.000489
793.000000	-0.000385
792.000000	-0.000292
791.000000	-0.000224
790.000000	-0.000173
789.000000	-0.000121
788.000000	-0.000075
787.000000	-0.000067
786.000000	-0.000117
785.000000	-0.000191
784.000000	-0.000221
783.000000	-0.000181
782.000000	-0.000119
781.000000	-0.000095
780.000000	-0.000114
779.000000	-0.000141
778.000000	-0.000164
777.000000	-0.000202
776.000000	-0.000253
775.000000	-0.000276
774.000000	-0.000240
773.000000	-0.000174
772.000000	-0.000134
771.000000	-0.000143
770.000000	-0.000188
769.000000	-0.000250
768.000000	-0.000315
767.000000	-0.000360
766.000000	-0.000361
765.000000	-0.000322
764.000000	-0.000281
763.000000	-0.000275
762.000000	-0.000302
761.000000	-0.000334
760.000000	-0.000350
759.000000	-0.000354
758.000000	-0.000362
757.000000	-0.000388
756.000000	-0.000436
755.000000	-0.000495
754.000000	-0.000549
753.000000	-0.000577
752.000000	-0.000564
751.000000	-0.000508
750.000000	-0.000440
749.000000	-0.000406
748.000000	-0.000432
747.000000	-0.000499
746.000000	-0.000564
745.000000	-0.000600
744.000000	-0.000610
743.000000	-0.000612
742.000000	-0.000616
741.000000	-0.000628
740.000000	-0.000641
739.000000	-0.000635
738.000000	-0.000602
737.000000	-0.000573
736.000000	-0.000597
735.000000	-0.000685
734.000000	-0.000784
733.000000	-0.000822
732.000000	-0.000781
731.000000	-0.000704
730.000000	-0.000649
729.000000	-0.000643
728.000000	-0.000677
727.000000	-0.000721
726.000000	-0.000743
725.000000	-0.000733
724.000000	-0.000713
723.000000	-0.000716
722.000000	-0.000755
721.000000	-0.000811
720.000000	-0.000848
719.000000	-0.000851
718.000000	-0.000833
717.000000	-0.000829
716.000000	-0.000854
715.000000	-0.000893
714.000000	-0.000908
713.000000	-0.000879
712.000000	-0.000830
711.000000	-0.000802
710.000000	-0.000819
709.000000	-0.000866
708.000000	-0.000909
707.000000	-0.000916
706.000000	-0.000876
705.000000	-0.000809
704.000000	-0.000751
703.000000	-0.000727
702.000000	-0.000731
701.000000	-0.000745
700.000000	-0.000770
699.000000	-0.000822
698.000000	-0.000891
697.000000	-0.000939
696.000000	-0.000941
695.000000	-0.000914
694.000000	-0.000883
693.000000	-0.000857
692.000000	-0.000832
691.000000	-0.000820
690.000000	-0.000836
689.000000	-0.000867
688.000000	-0.000870
687.000000	-0.000825
686.000000	-0.000769
685.000000	-0.000761
684.000000	-0.000811
683.000000	-0.000867
682.000000	-0.000872
681.000000	-0.000824
680.000000	-0.000768
679.000000	-0.000739
678.000000	-0.000725
677.000000	-0.000680
676.000000	-0.000570
675.000000	-0.000408
674.000000	-0.000245
673.000000	-0.000133
672.000000	-0.000091
671.000000	-0.000110
670.000000	-0.000187
669.000000	-0.000331
668.000000	-0.000556
667.000000	-0.000750
666.000000	-0.000732
665.000000	-0.000553
664.000000	-0.000407
663.000000	-0.000379
662.000000	-0.000423
661.000000	-0.000448
660.000000	-0.000440
659.000000	-0.000450
658.000000	-0.000500
657.000000	-0.000538
656.000000	-0.000511
655.000000	-0.000436
654.000000	-0.000382
653.000000	-0.000384
652.000000	-0.000422
651.000000	-0.000472
650.000000	-0.000526
649.000000	-0.000578
648.000000	-0.000616
647.000000	-0.000639
646.000000	-0.000664
645.000000	-0.000707
644.000000	-0.000760
643.000000	-0.000809
642.000000	-0.000852
641.000000	-0.000899
640.000000	-0.000955
639.000000	-0.001005
638.000000	-0.001025
637.000000	-0.001002
636.000000	-0.000938
635.000000	-0.000837
634.000000	-0.000712
633.000000	-0.000591
632.000000	-0.000515
631.000000	-0.000502
630.000000	-0.000532
629.000000	-0.000566
628.000000	-0.000589
627.000000	-0.000610
626.000000	-0.000624
625.000000	-0.000606
624.000000	-0.000554
623.000000	-0.000497
622.000000	-0.000471
621.000000	-0.000476
620.000000	-0.000489
619.000000	-0.000494
618.000000	-0.000504
617.000000	-0.000536
616.000000	-0.000593
615.000000	-0.000638
614.000000	-0.000620
613.000000	-0.000529
612.000000	-0.000422
611.000000	-0.000374
610.000000	-0.000395
609.000000	-0.000414
608.000000	-0.000363
607.000000	-0.000251
606.000000	-0.000128
605.000000	-0.000031
604.000000	0.000033
603.000000	0.000054
602.000000	0.000032
601.000000	-0.000010
600.000000	-0.000028
599.000000	-0.000004
598.000000	0.000049
597.000000	0.000112
596.000000	0.000169
595.000000	0.000200
594.000000	0.000179
593.000000	0.000106
592.000000	0.000016
591.000000	-0.000054
590.000000	-0.000094
589.000000	-0.000121
588.000000	-0.000151
587.000000	-0.000174
586.000000	-0.000171
585.000000	-0.000144
584.000000	-0.000119
583.000000	-0.000113
582.000000	-0.000113
581.000000	-0.000100
580.000000	-0.000095
579.000000	-0.000142
578.000000	-0.000249
577.000000	-0.000361
576.000000	-0.000400
575.000000	-0.000344
574.000000	-0.000248
573.000000	-0.000194
572.000000	-0.000214
571.000000	-0.000280
570.000000	-0.000350
569.000000	-0.000433
568.000000	-0.000565
567.000000	-0.000721
566.000000	-0.000795
565.000000	-0.000712
564.000000	-0.000524
563.000000	-0.000356
562.000000	-0.000271
561.000000	-0.000240
560.000000	-0.000239
559.000000	-0.000292
558.000000	-0.000400
557.000000	-0.000501
556.000000	-0.000543
555.000000	-0.000555
554.000000	-0.000600
553.000000	-0.000690
552.000000	-0.000789
551.000000	-0.000877
550.000000	-0.000950
549.000000	-0.001000
548.000000	-0.001002
547.000000	-0.000940
546.000000	-0.000823
545.000000	-0.000697
544.000000	-0.000643
543.000000	-0.000722
542.000000	-0.000898
541.000000	-0.001033
540.000000	-0.001019
539.000000	-0.000897
538.000000	-0.000804
537.000000	-0.000823
536.000000	-0.000904
535.000000	-0.000943
534.000000	-0.000895
533.000000	-0.000809
532.000000	-0.000765
531.000000	-0.000798
530.000000	-0.000852
529.000000	-0.000832
528.000000	-0.000682
527.000000	-0.000445
526.000000	-0.000243
525.000000	-0.000186
524.000000	-0.000300
523.000000	-0.000523
522.000000	-0.000754
521.000000	-0.000893
520.000000	-0.000893
519.000000	-0.000767
518.000000	-0.000578
517.000000	-0.000406
516.000000	-0.000324
515.000000	-0.000362
514.000000	-0.000489
513.000000	-0.000657
512.000000	-0.000862
511.000000	-0.001105
510.000000	-0.001318
509.000000	-0.001383
508.000000	-0.001246
507.000000	-0.000979
506.000000	-0.000690
505.000000	-0.000436
504.000000	-0.000256
503.000000	-0.000227
502.000000	-0.000399
501.000000	-0.000680
500.000000	-0.000903
499.000000	-0.000979
498.000000	-0.000914
497.000000	-0.000769
496.000000	-0.000647
495.000000	-0.000658
494.000000	-0.000818
493.000000	-0.001009
492.000000	-0.001097
491.000000	-0.001062
490.000000	-0.000976
489.000000	-0.000906
488.000000	-0.000879
487.000000	-0.000894
486.000000	-0.000886
485.000000	-0.000750
484.000000	-0.000494
483.000000	-0.000304
482.000000	-0.000339
481.000000	-0.000519
480.000000	-0.000647
479.000000	-0.000685
478.000000	-0.000756
477.000000	-0.000925
476.000000	-0.001106
475.000000	-0.001242
474.000000	-0.001407
473.000000	-0.001656
472.000000	-0.001878
471.000000	-0.001950
470.000000	-0.001922
469.000000	-0.001900
468.000000	-0.001883
467.000000	-0.001800
466.000000	-0.001657
465.000000	-0.001536
464.000000	-0.001461
463.000000	-0.001382
462.000000	-0.001263
461.000000	-0.001143
460.000000	-0.001094
459.000000	-0.001155
458.000000	-0.001291
457.000000	-0.001382
456.000000	-0.001334
455.000000	-0.001190
454.000000	-0.001114
453.000000	-0.001227
452.000000	-0.001611
451.000000	-0.002127
450.000000	-0.002618
