PE IR       SUBTECH     SPECTRUM    ASCII       PEDS        4.00        
   -1
P12-Noir039_1.ASC
23/06/09
15:36:32.00
23/06/09
15:45:29.00
uco
Sample 039 By uco Date Friday, June 09 2023
450.000000
#HDR
-1
-1
#GR
cm-1
A
1.0
0.0
4000.000000
-1.000000
3551
8
0.014346
-0.001252
#DATA
4000.000000	-0.000770
3999.000000	-0.000772
3998.000000	-0.000759
3997.000000	-0.000733
3996.000000	-0.000703
3995.000000	-0.000677
3994.000000	-0.000660
3993.000000	-0.000664
3992.000000	-0.000660
3991.000000	-0.000653
3990.000000	-0.000641
3989.000000	-0.000629
3988.000000	-0.000627
3987.000000	-0.000640
3986.000000	-0.000665
3985.000000	-0.000690
3984.000000	-0.000705
3983.000000	-0.000703
3982.000000	-0.000690
3981.000000	-0.000673
3980.000000	-0.000659
3979.000000	-0.000655
3978.000000	-0.000664
3977.000000	-0.000689
3976.000000	-0.000724
3975.000000	-0.000753
3974.000000	-0.000762
3973.000000	-0.000740
3972.000000	-0.000693
3971.000000	-0.000639
3970.000000	-0.000599
3969.000000	-0.000589
3968.000000	-0.000610
3967.000000	-0.000649
3966.000000	-0.000693
3965.000000	-0.000727
3964.000000	-0.000748
3963.000000	-0.000756
3962.000000	-0.000754
3961.000000	-0.000746
3960.000000	-0.000733
3959.000000	-0.000719
3958.000000	-0.000705
3957.000000	-0.000694
3956.000000	-0.000685
3955.000000	-0.000678
3954.000000	-0.000669
3953.000000	-0.000657
3952.000000	-0.000641
3951.000000	-0.000625
3950.000000	-0.000616
3949.000000	-0.000614
3948.000000	-0.000616
3947.000000	-0.000612
3946.000000	-0.000604
3945.000000	-0.000598
3944.000000	-0.000600
3943.000000	-0.000608
3942.000000	-0.000617
3941.000000	-0.000623
3940.000000	-0.000625
3939.000000	-0.000618
3938.000000	-0.000602
3937.000000	-0.000583
3936.000000	-0.000575
3935.000000	-0.000586
3934.000000	-0.000611
3933.000000	-0.000632
3932.000000	-0.000636
3931.000000	-0.000628
3930.000000	-0.000618
3929.000000	-0.000610
3928.000000	-0.000602
3927.000000	-0.000592
3926.000000	-0.000578
3925.000000	-0.000564
3924.000000	-0.000560
3923.000000	-0.000570
3922.000000	-0.000592
3921.000000	-0.000611
3920.000000	-0.000621
3919.000000	-0.000624
3918.000000	-0.000628
3917.000000	-0.000636
3916.000000	-0.000642
3915.000000	-0.000647
3914.000000	-0.000656
3913.000000	-0.000674
3912.000000	-0.000702
3911.000000	-0.000728
3910.000000	-0.000742
3909.000000	-0.000738
3908.000000	-0.000719
3907.000000	-0.000694
3906.000000	-0.000669
3905.000000	-0.000635
3904.000000	-0.000588
3903.000000	-0.000539
3902.000000	-0.000509
3901.000000	-0.000509
3900.000000	-0.000526
3899.000000	-0.000539
3898.000000	-0.000543
3897.000000	-0.000543
3896.000000	-0.000545
3895.000000	-0.000549
3894.000000	-0.000555
3893.000000	-0.000560
3892.000000	-0.000560
3891.000000	-0.000548
3890.000000	-0.000527
3889.000000	-0.000508
3888.000000	-0.000505
3887.000000	-0.000523
3886.000000	-0.000549
3885.000000	-0.000568
3884.000000	-0.000572
3883.000000	-0.000573
3882.000000	-0.000582
3881.000000	-0.000600
3880.000000	-0.000614
3879.000000	-0.000615
3878.000000	-0.000605
3877.000000	-0.000597
3876.000000	-0.000597
3875.000000	-0.000597
3874.000000	-0.000583
3873.000000	-0.000553
3872.000000	-0.000522
3871.000000	-0.000502
3870.000000	-0.000491
3869.000000	-0.000489
3868.000000	-0.000501
3867.000000	-0.000529
3866.000000	-0.000561
3865.000000	-0.000580
3864.000000	-0.000579
3863.000000	-0.000566
3862.000000	-0.000550
3861.000000	-0.000536
3860.000000	-0.000517
3859.000000	-0.000487
3858.000000	-0.000447
3857.000000	-0.000407
3856.000000	-0.000390
3855.000000	-0.000415
3854.000000	-0.000477
3853.000000	-0.000538
3852.000000	-0.000578
3851.000000	-0.000604
3850.000000	-0.000624
3849.000000	-0.000635
3848.000000	-0.000632
3847.000000	-0.000612
3846.000000	-0.000574
3845.000000	-0.000523
3844.000000	-0.000465
3843.000000	-0.000411
3842.000000	-0.000377
3841.000000	-0.000379
3840.000000	-0.000419
3839.000000	-0.000482
3838.000000	-0.000541
3837.000000	-0.000576
3836.000000	-0.000584
3835.000000	-0.000583
3834.000000	-0.000587
3833.000000	-0.000594
3832.000000	-0.000593
3831.000000	-0.000578
3830.000000	-0.000562
3829.000000	-0.000560
3828.000000	-0.000572
3827.000000	-0.000582
3826.000000	-0.000573
3825.000000	-0.000548
3824.000000	-0.000531
3823.000000	-0.000535
3822.000000	-0.000553
3821.000000	-0.000554
3820.000000	-0.000538
3819.000000	-0.000538
3818.000000	-0.000573
3817.000000	-0.000631
3816.000000	-0.000678
3815.000000	-0.000694
3814.000000	-0.000686
3813.000000	-0.000664
3812.000000	-0.000631
3811.000000	-0.000588
3810.000000	-0.000548
3809.000000	-0.000531
3808.000000	-0.000537
3807.000000	-0.000548
3806.000000	-0.000545
3805.000000	-0.000537
3804.000000	-0.000547
3803.000000	-0.000587
3802.000000	-0.000638
3801.000000	-0.000662
3800.000000	-0.000649
3799.000000	-0.000619
3798.000000	-0.000592
3797.000000	-0.000571
3796.000000	-0.000555
3795.000000	-0.000551
3794.000000	-0.000568
3793.000000	-0.000609
3792.000000	-0.000660
3791.000000	-0.000701
3790.000000	-0.000721
3789.000000	-0.000723
3788.000000	-0.000714
3787.000000	-0.000702
3786.000000	-0.000691
3785.000000	-0.000680
3784.000000	-0.000670
3783.000000	-0.000659
3782.000000	-0.000649
3781.000000	-0.000640
3780.000000	-0.000638
3779.000000	-0.000647
3778.000000	-0.000666
3777.000000	-0.000685
3776.000000	-0.000690
3775.000000	-0.000669
3774.000000	-0.000627
3773.000000	-0.000582
3772.000000	-0.000557
3771.000000	-0.000557
3770.000000	-0.000575
3769.000000	-0.000598
3768.000000	-0.000620
3767.000000	-0.000639
3766.000000	-0.000647
3765.000000	-0.000635
3764.000000	-0.000606
3763.000000	-0.000575
3762.000000	-0.000554
3761.000000	-0.000552
3760.000000	-0.000565
3759.000000	-0.000585
3758.000000	-0.000601
3757.000000	-0.000605
3756.000000	-0.000605
3755.000000	-0.000609
3754.000000	-0.000618
3753.000000	-0.000625
3752.000000	-0.000624
3751.000000	-0.000616
3750.000000	-0.000608
3749.000000	-0.000603
3748.000000	-0.000605
3747.000000	-0.000617
3746.000000	-0.000631
3745.000000	-0.000623
3744.000000	-0.000597
3743.000000	-0.000586
3742.000000	-0.000605
3741.000000	-0.000638
3740.000000	-0.000661
3739.000000	-0.000663
3738.000000	-0.000646
3737.000000	-0.000617
3736.000000	-0.000593
3735.000000	-0.000597
3734.000000	-0.000638
3733.000000	-0.000690
3732.000000	-0.000722
3731.000000	-0.000722
3730.000000	-0.000705
3729.000000	-0.000684
3728.000000	-0.000670
3727.000000	-0.000661
3726.000000	-0.000655
3725.000000	-0.000648
3724.000000	-0.000634
3723.000000	-0.000617
3722.000000	-0.000610
3721.000000	-0.000627
3720.000000	-0.000668
3719.000000	-0.000713
3718.000000	-0.000739
3717.000000	-0.000732
3716.000000	-0.000704
3715.000000	-0.000676
3714.000000	-0.000656
3713.000000	-0.000637
3712.000000	-0.000608
3711.000000	-0.000577
3710.000000	-0.000565
3709.000000	-0.000584
3708.000000	-0.000621
3707.000000	-0.000656
3706.000000	-0.000682
3705.000000	-0.000706
3704.000000	-0.000741
3703.000000	-0.000785
3702.000000	-0.000816
3701.000000	-0.000815
3700.000000	-0.000785
3699.000000	-0.000749
3698.000000	-0.000719
3697.000000	-0.000697
3696.000000	-0.000678
3695.000000	-0.000661
3694.000000	-0.000646
3693.000000	-0.000635
3692.000000	-0.000637
3691.000000	-0.000663
3690.000000	-0.000707
3689.000000	-0.000742
3688.000000	-0.000738
3687.000000	-0.000702
3686.000000	-0.000662
3685.000000	-0.000637
3684.000000	-0.000630
3683.000000	-0.000632
3682.000000	-0.000638
3681.000000	-0.000639
3680.000000	-0.000623
3679.000000	-0.000589
3678.000000	-0.000552
3677.000000	-0.000534
3676.000000	-0.000538
3675.000000	-0.000549
3674.000000	-0.000559
3673.000000	-0.000576
3672.000000	-0.000610
3671.000000	-0.000658
3670.000000	-0.000699
3669.000000	-0.000711
3668.000000	-0.000694
3667.000000	-0.000660
3666.000000	-0.000622
3665.000000	-0.000590
3664.000000	-0.000568
3663.000000	-0.000557
3662.000000	-0.000550
3661.000000	-0.000540
3660.000000	-0.000522
3659.000000	-0.000500
3658.000000	-0.000478
3657.000000	-0.000452
3656.000000	-0.000414
3655.000000	-0.000367
3654.000000	-0.000325
3653.000000	-0.000301
3652.000000	-0.000301
3651.000000	-0.000321
3650.000000	-0.000345
3649.000000	-0.000361
3648.000000	-0.000371
3647.000000	-0.000378
3646.000000	-0.000379
3645.000000	-0.000372
3644.000000	-0.000364
3643.000000	-0.000362
3642.000000	-0.000372
3641.000000	-0.000391
3640.000000	-0.000408
3639.000000	-0.000411
3638.000000	-0.000393
3637.000000	-0.000361
3636.000000	-0.000325
3635.000000	-0.000288
3634.000000	-0.000249
3633.000000	-0.000210
3632.000000	-0.000180
3631.000000	-0.000163
3630.000000	-0.000153
3629.000000	-0.000130
3628.000000	-0.000098
3627.000000	-0.000076
3626.000000	-0.000065
3625.000000	-0.000055
3624.000000	-0.000036
3623.000000	-0.000015
3622.000000	-0.000003
3621.000000	-0.000004
3620.000000	-0.000001
3619.000000	0.000031
3618.000000	0.000090
3617.000000	0.000153
3616.000000	0.000194
3615.000000	0.000208
3614.000000	0.000209
3613.000000	0.000221
3612.000000	0.000252
3611.000000	0.000293
3610.000000	0.000328
3609.000000	0.000351
3608.000000	0.000360
3607.000000	0.000363
3606.000000	0.000366
3605.000000	0.000375
3604.000000	0.000388
3603.000000	0.000403
3602.000000	0.000417
3601.000000	0.000436
3600.000000	0.000465
3599.000000	0.000500
3598.000000	0.000532
3597.000000	0.000549
3596.000000	0.000554
3595.000000	0.000560
3594.000000	0.000582
3593.000000	0.000617
3592.000000	0.000655
3591.000000	0.000686
3590.000000	0.000712
3589.000000	0.000739
3588.000000	0.000773
3587.000000	0.000811
3586.000000	0.000842
3585.000000	0.000858
3584.000000	0.000864
3583.000000	0.000867
3582.000000	0.000873
3581.000000	0.000887
3580.000000	0.000904
3579.000000	0.000920
3578.000000	0.000935
3577.000000	0.000951
3576.000000	0.000975
3575.000000	0.001009
3574.000000	0.001052
3573.000000	0.001093
3572.000000	0.001125
3571.000000	0.001154
3570.000000	0.001191
3569.000000	0.001245
3568.000000	0.001305
3567.000000	0.001352
3566.000000	0.001373
3565.000000	0.001375
3564.000000	0.001373
3563.000000	0.001380
3562.000000	0.001405
3561.000000	0.001452
3560.000000	0.001515
3559.000000	0.001580
3558.000000	0.001630
3557.000000	0.001662
3556.000000	0.001675
3555.000000	0.001673
3554.000000	0.001661
3553.000000	0.001651
3552.000000	0.001657
3551.000000	0.001688
3550.000000	0.001742
3549.000000	0.001805
3548.000000	0.001863
3547.000000	0.001901
3546.000000	0.001915
3545.000000	0.001914
3544.000000	0.001914
3543.000000	0.001923
3542.000000	0.001941
3541.000000	0.001967
3540.000000	0.001997
3539.000000	0.002028
3538.000000	0.002059
3537.000000	0.002087
3536.000000	0.002114
3535.000000	0.002137
3534.000000	0.002158
3533.000000	0.002181
3532.000000	0.002207
3531.000000	0.002234
3530.000000	0.002256
3529.000000	0.002276
3528.000000	0.002299
3527.000000	0.002326
3526.000000	0.002350
3525.000000	0.002364
3524.000000	0.002368
3523.000000	0.002370
3522.000000	0.002378
3521.000000	0.002392
3520.000000	0.002410
3519.000000	0.002430
3518.000000	0.002448
3517.000000	0.002461
3516.000000	0.002464
3515.000000	0.002459
3514.000000	0.002454
3513.000000	0.002463
3512.000000	0.002492
3511.000000	0.002539
3510.000000	0.002598
3509.000000	0.002661
3508.000000	0.002715
3507.000000	0.002748
3506.000000	0.002755
3505.000000	0.002747
3504.000000	0.002741
3503.000000	0.002747
3502.000000	0.002763
3501.000000	0.002782
3500.000000	0.002797
3499.000000	0.002803
3498.000000	0.002800
3497.000000	0.002795
3496.000000	0.002796
3495.000000	0.002811
3494.000000	0.002834
3493.000000	0.002861
3492.000000	0.002893
3491.000000	0.002932
3490.000000	0.002978
3489.000000	0.003021
3488.000000	0.003056
3487.000000	0.003084
3486.000000	0.003109
3485.000000	0.003134
3484.000000	0.003162
3483.000000	0.003191
3482.000000	0.003221
3481.000000	0.003254
3480.000000	0.003290
3479.000000	0.003327
3478.000000	0.003358
3477.000000	0.003375
3476.000000	0.003380
3475.000000	0.003383
3474.000000	0.003393
3473.000000	0.003414
3472.000000	0.003444
3471.000000	0.003479
3470.000000	0.003510
3469.000000	0.003532
3468.000000	0.003539
3467.000000	0.003540
3466.000000	0.003550
3465.000000	0.003577
3464.000000	0.003616
3463.000000	0.003656
3462.000000	0.003688
3461.000000	0.003712
3460.000000	0.003729
3459.000000	0.003739
3458.000000	0.003740
3457.000000	0.003731
3456.000000	0.003720
3455.000000	0.003716
3454.000000	0.003731
3453.000000	0.003767
3452.000000	0.003818
3451.000000	0.003874
3450.000000	0.003927
3449.000000	0.003972
3448.000000	0.004011
3447.000000	0.004050
3446.000000	0.004091
3445.000000	0.004135
3444.000000	0.004179
3443.000000	0.004222
3442.000000	0.004263
3441.000000	0.004301
3440.000000	0.004336
3439.000000	0.004371
3438.000000	0.004410
3437.000000	0.004453
3436.000000	0.004498
3435.000000	0.004541
3434.000000	0.004579
3433.000000	0.004610
3432.000000	0.004644
3431.000000	0.004689
3430.000000	0.004747
3429.000000	0.004805
3428.000000	0.004844
3427.000000	0.004862
3426.000000	0.004873
3425.000000	0.004891
3424.000000	0.004923
3423.000000	0.004968
3422.000000	0.005024
3421.000000	0.005090
3420.000000	0.005165
3419.000000	0.005243
3418.000000	0.005312
3417.000000	0.005361
3416.000000	0.005387
3415.000000	0.005400
3414.000000	0.005421
3413.000000	0.005462
3412.000000	0.005524
3411.000000	0.005591
3410.000000	0.005652
3409.000000	0.005699
3408.000000	0.005729
3407.000000	0.005750
3406.000000	0.005774
3405.000000	0.005807
3404.000000	0.005844
3403.000000	0.005878
3402.000000	0.005909
3401.000000	0.005944
3400.000000	0.005982
3399.000000	0.006018
3398.000000	0.006050
3397.000000	0.006082
3396.000000	0.006120
3395.000000	0.006163
3394.000000	0.006209
3393.000000	0.006253
3392.000000	0.006292
3391.000000	0.006323
3390.000000	0.006345
3389.000000	0.006367
3388.000000	0.006397
3387.000000	0.006432
3386.000000	0.006459
3385.000000	0.006468
3384.000000	0.006461
3383.000000	0.006450
3382.000000	0.006451
3381.000000	0.006469
3380.000000	0.006499
3379.000000	0.006526
3378.000000	0.006540
3377.000000	0.006543
3376.000000	0.006544
3375.000000	0.006547
3374.000000	0.006551
3373.000000	0.006550
3372.000000	0.006542
3371.000000	0.006533
3370.000000	0.006531
3369.000000	0.006540
3368.000000	0.006552
3367.000000	0.006561
3366.000000	0.006560
3365.000000	0.006555
3364.000000	0.006550
3363.000000	0.006547
3362.000000	0.006541
3361.000000	0.006529
3360.000000	0.006510
3359.000000	0.006490
3358.000000	0.006477
3357.000000	0.006481
3356.000000	0.006498
3355.000000	0.006518
3354.000000	0.006524
3353.000000	0.006512
3352.000000	0.006485
3351.000000	0.006447
3350.000000	0.006404
3349.000000	0.006361
3348.000000	0.006328
3347.000000	0.006309
3346.000000	0.006300
3345.000000	0.006294
3344.000000	0.006285
3343.000000	0.006273
3342.000000	0.006263
3341.000000	0.006257
3340.000000	0.006255
3339.000000	0.006254
3338.000000	0.006251
3337.000000	0.006240
3336.000000	0.006221
3335.000000	0.006198
3334.000000	0.006175
3333.000000	0.006151
3332.000000	0.006123
3331.000000	0.006090
3330.000000	0.006054
3329.000000	0.006017
3328.000000	0.005978
3327.000000	0.005936
3326.000000	0.005893
3325.000000	0.005855
3324.000000	0.005829
3323.000000	0.005821
3322.000000	0.005826
3321.000000	0.005829
3320.000000	0.005816
3319.000000	0.005788
3318.000000	0.005756
3317.000000	0.005732
3316.000000	0.005716
3315.000000	0.005703
3314.000000	0.005687
3313.000000	0.005672
3312.000000	0.005659
3311.000000	0.005645
3310.000000	0.005629
3309.000000	0.005608
3308.000000	0.005586
3307.000000	0.005565
3306.000000	0.005549
3305.000000	0.005543
3304.000000	0.005546
3303.000000	0.005549
3302.000000	0.005546
3301.000000	0.005532
3300.000000	0.005513
3299.000000	0.005498
3298.000000	0.005491
3297.000000	0.005491
3296.000000	0.005491
3295.000000	0.005481
3294.000000	0.005458
3293.000000	0.005427
3292.000000	0.005400
3291.000000	0.005387
3290.000000	0.005385
3289.000000	0.005380
3288.000000	0.005362
3287.000000	0.005336
3286.000000	0.005314
3285.000000	0.005304
3284.000000	0.005299
3283.000000	0.005294
3282.000000	0.005291
3281.000000	0.005292
3280.000000	0.005293
3279.000000	0.005285
3278.000000	0.005263
3277.000000	0.005232
3276.000000	0.005203
3275.000000	0.005181
3274.000000	0.005167
3273.000000	0.005160
3272.000000	0.005158
3271.000000	0.005155
3270.000000	0.005144
3269.000000	0.005127
3268.000000	0.005113
3267.000000	0.005116
3266.000000	0.005138
3265.000000	0.005166
3264.000000	0.005184
3263.000000	0.005181
3262.000000	0.005157
3261.000000	0.005118
3260.000000	0.005077
3259.000000	0.005043
3258.000000	0.005023
3257.000000	0.005017
3256.000000	0.005020
3255.000000	0.005025
3254.000000	0.005022
3253.000000	0.005003
3252.000000	0.004970
3251.000000	0.004931
3250.000000	0.004902
3249.000000	0.004892
3248.000000	0.004899
3247.000000	0.004919
3246.000000	0.004949
3245.000000	0.004983
3244.000000	0.005011
3243.000000	0.005020
3242.000000	0.005008
3241.000000	0.004982
3240.000000	0.004952
3239.000000	0.004932
3238.000000	0.004928
3237.000000	0.004937
3236.000000	0.004948
3235.000000	0.004948
3234.000000	0.004934
3233.000000	0.004915
3232.000000	0.004905
3231.000000	0.004914
3230.000000	0.004935
3229.000000	0.004950
3228.000000	0.004942
3227.000000	0.004912
3226.000000	0.004874
3225.000000	0.004841
3224.000000	0.004811
3223.000000	0.004780
3222.000000	0.004752
3221.000000	0.004735
3220.000000	0.004732
3219.000000	0.004737
3218.000000	0.004740
3217.000000	0.004737
3216.000000	0.004722
3215.000000	0.004694
3214.000000	0.004660
3213.000000	0.004628
3212.000000	0.004606
3211.000000	0.004592
3210.000000	0.004583
3209.000000	0.004575
3208.000000	0.004570
3207.000000	0.004571
3206.000000	0.004586
3205.000000	0.004614
3204.000000	0.004642
3203.000000	0.004654
3202.000000	0.004645
3201.000000	0.004622
3200.000000	0.004597
3199.000000	0.004575
3198.000000	0.004562
3197.000000	0.004559
3196.000000	0.004563
3195.000000	0.004564
3194.000000	0.004560
3193.000000	0.004557
3192.000000	0.004562
3191.000000	0.004569
3190.000000	0.004564
3189.000000	0.004536
3188.000000	0.004487
3187.000000	0.004431
3186.000000	0.004386
3185.000000	0.004367
3184.000000	0.004374
3183.000000	0.004399
3182.000000	0.004428
3181.000000	0.004454
3180.000000	0.004471
3179.000000	0.004478
3178.000000	0.004472
3177.000000	0.004449
3176.000000	0.004411
3175.000000	0.004365
3174.000000	0.004325
3173.000000	0.004300
3172.000000	0.004296
3171.000000	0.004305
3170.000000	0.004320
3169.000000	0.004334
3168.000000	0.004337
3167.000000	0.004323
3166.000000	0.004295
3165.000000	0.004263
3164.000000	0.004237
3163.000000	0.004222
3162.000000	0.004216
3161.000000	0.004217
3160.000000	0.004218
3159.000000	0.004213
3158.000000	0.004203
3157.000000	0.004196
3156.000000	0.004196
3155.000000	0.004192
3154.000000	0.004174
3153.000000	0.004143
3152.000000	0.004116
3151.000000	0.004100
3150.000000	0.004090
3149.000000	0.004072
3148.000000	0.004048
3147.000000	0.004029
3146.000000	0.004031
3145.000000	0.004053
3144.000000	0.004075
3143.000000	0.004074
3142.000000	0.004044
3141.000000	0.004005
3140.000000	0.003978
3139.000000	0.003972
3138.000000	0.003977
3137.000000	0.003978
3136.000000	0.003967
3135.000000	0.003939
3134.000000	0.003901
3133.000000	0.003863
3132.000000	0.003837
3131.000000	0.003828
3130.000000	0.003834
3129.000000	0.003849
3128.000000	0.003865
3127.000000	0.003878
3126.000000	0.003885
3125.000000	0.003887
3124.000000	0.003883
3123.000000	0.003872
3122.000000	0.003851
3121.000000	0.003825
3120.000000	0.003800
3119.000000	0.003778
3118.000000	0.003756
3117.000000	0.003732
3116.000000	0.003710
3115.000000	0.003693
3114.000000	0.003688
3113.000000	0.003693
3112.000000	0.003702
3111.000000	0.003705
3110.000000	0.003697
3109.000000	0.003683
3108.000000	0.003674
3107.000000	0.003673
3106.000000	0.003677
3105.000000	0.003675
3104.000000	0.003661
3103.000000	0.003636
3102.000000	0.003606
3101.000000	0.003580
3100.000000	0.003562
3099.000000	0.003544
3098.000000	0.003522
3097.000000	0.003495
3096.000000	0.003470
3095.000000	0.003458
3094.000000	0.003460
3093.000000	0.003471
3092.000000	0.003477
3091.000000	0.003469
3090.000000	0.003443
3089.000000	0.003408
3088.000000	0.003377
3087.000000	0.003358
3086.000000	0.003352
3085.000000	0.003356
3084.000000	0.003366
3083.000000	0.003380
3082.000000	0.003392
3081.000000	0.003396
3080.000000	0.003388
3079.000000	0.003368
3078.000000	0.003341
3077.000000	0.003320
3076.000000	0.003315
3075.000000	0.003324
3074.000000	0.003335
3073.000000	0.003334
3072.000000	0.003318
3071.000000	0.003295
3070.000000	0.003277
3069.000000	0.003274
3068.000000	0.003283
3067.000000	0.003292
3066.000000	0.003290
3065.000000	0.003273
3064.000000	0.003243
3063.000000	0.003212
3062.000000	0.003188
3061.000000	0.003167
3060.000000	0.003144
3059.000000	0.003118
3058.000000	0.003095
3057.000000	0.003079
3056.000000	0.003068
3055.000000	0.003057
3054.000000	0.003046
3053.000000	0.003040
3052.000000	0.003039
3051.000000	0.003037
3050.000000	0.003027
3049.000000	0.003011
3048.000000	0.002992
3047.000000	0.002973
3046.000000	0.002955
3045.000000	0.002938
3044.000000	0.002922
3043.000000	0.002903
3042.000000	0.002879
3041.000000	0.002852
3040.000000	0.002832
3039.000000	0.002823
3038.000000	0.002826
3037.000000	0.002834
3036.000000	0.002841
3035.000000	0.002840
3034.000000	0.002827
3033.000000	0.002810
3032.000000	0.002797
3031.000000	0.002791
3030.000000	0.002779
3029.000000	0.002756
3028.000000	0.002728
3027.000000	0.002707
3026.000000	0.002699
3025.000000	0.002701
3024.000000	0.002707
3023.000000	0.002713
3022.000000	0.002711
3021.000000	0.002696
3020.000000	0.002671
3019.000000	0.002647
3018.000000	0.002629
3017.000000	0.002617
3016.000000	0.002612
3015.000000	0.002618
3014.000000	0.002633
3013.000000	0.002649
3012.000000	0.002655
3011.000000	0.002650
3010.000000	0.002638
3009.000000	0.002629
3008.000000	0.002625
3007.000000	0.002622
3006.000000	0.002621
3005.000000	0.002624
3004.000000	0.002633
3003.000000	0.002648
3002.000000	0.002663
3001.000000	0.002677
3000.000000	0.002684
2999.000000	0.002682
2998.000000	0.002672
2997.000000	0.002660
2996.000000	0.002653
2995.000000	0.002650
2994.000000	0.002646
2993.000000	0.002636
2992.000000	0.002627
2991.000000	0.002632
2990.000000	0.002654
2989.000000	0.002689
2988.000000	0.002726
2987.000000	0.002760
2986.000000	0.002792
2985.000000	0.002827
2984.000000	0.002864
2983.000000	0.002895
2982.000000	0.002912
2981.000000	0.002916
2980.000000	0.002917
2979.000000	0.002924
2978.000000	0.002936
2977.000000	0.002941
2976.000000	0.002936
2975.000000	0.002930
2974.000000	0.002938
2973.000000	0.002966
2972.000000	0.003006
2971.000000	0.003051
2970.000000	0.003101
2969.000000	0.003164
2968.000000	0.003239
2967.000000	0.003313
2966.000000	0.003375
2965.000000	0.003421
2964.000000	0.003461
2963.000000	0.003503
2962.000000	0.003548
2961.000000	0.003582
2960.000000	0.003596
2959.000000	0.003587
2958.000000	0.003566
2957.000000	0.003548
2956.000000	0.003543
2955.000000	0.003550
2954.000000	0.003561
2953.000000	0.003564
2952.000000	0.003550
2951.000000	0.003519
2950.000000	0.003485
2949.000000	0.003466
2948.000000	0.003470
2947.000000	0.003496
2946.000000	0.003536
2945.000000	0.003582
2944.000000	0.003626
2943.000000	0.003660
2942.000000	0.003683
2941.000000	0.003705
2940.000000	0.003737
2939.000000	0.003786
2938.000000	0.003843
2937.000000	0.003897
2936.000000	0.003943
2935.000000	0.003984
2934.000000	0.004026
2933.000000	0.004068
2932.000000	0.004101
2931.000000	0.004118
2930.000000	0.004119
2929.000000	0.004108
2928.000000	0.004091
2927.000000	0.004068
2926.000000	0.004036
2925.000000	0.003995
2924.000000	0.003952
2923.000000	0.003912
2922.000000	0.003878
2921.000000	0.003847
2920.000000	0.003810
2919.000000	0.003763
2918.000000	0.003711
2917.000000	0.003660
2916.000000	0.003611
2915.000000	0.003559
2914.000000	0.003505
2913.000000	0.003458
2912.000000	0.003424
2911.000000	0.003399
2910.000000	0.003371
2909.000000	0.003335
2908.000000	0.003300
2907.000000	0.003276
2906.000000	0.003265
2905.000000	0.003259
2904.000000	0.003247
2903.000000	0.003221
2902.000000	0.003180
2901.000000	0.003130
2900.000000	0.003079
2899.000000	0.003031
2898.000000	0.002986
2897.000000	0.002948
2896.000000	0.002920
2895.000000	0.002908
2894.000000	0.002909
2893.000000	0.002913
2892.000000	0.002913
2891.000000	0.002905
2890.000000	0.002893
2889.000000	0.002879
2888.000000	0.002859
2887.000000	0.002832
2886.000000	0.002801
2885.000000	0.002772
2884.000000	0.002753
2883.000000	0.002745
2882.000000	0.002748
2881.000000	0.002760
2880.000000	0.002781
2879.000000	0.002808
2878.000000	0.002838
2877.000000	0.002873
2876.000000	0.002913
2875.000000	0.002952
2874.000000	0.002977
2873.000000	0.002978
2872.000000	0.002958
2871.000000	0.002926
2870.000000	0.002895
2869.000000	0.002876
2868.000000	0.002873
2867.000000	0.002881
2866.000000	0.002892
2865.000000	0.002902
2864.000000	0.002915
2863.000000	0.002934
2862.000000	0.002954
2861.000000	0.002966
2860.000000	0.002966
2859.000000	0.002963
2858.000000	0.002967
2857.000000	0.002976
2856.000000	0.002980
2855.000000	0.002971
2854.000000	0.002951
2853.000000	0.002924
2852.000000	0.002891
2851.000000	0.002844
2850.000000	0.002779
2849.000000	0.002697
2848.000000	0.002608
2847.000000	0.002526
2846.000000	0.002460
2845.000000	0.002413
2844.000000	0.002384
2843.000000	0.002371
2842.000000	0.002365
2841.000000	0.002356
2840.000000	0.002336
2839.000000	0.002310
2838.000000	0.002287
2837.000000	0.002271
2836.000000	0.002259
2835.000000	0.002248
2834.000000	0.002237
2833.000000	0.002227
2832.000000	0.002215
2831.000000	0.002196
2830.000000	0.002170
2829.000000	0.002139
2828.000000	0.002110
2827.000000	0.002090
2826.000000	0.002083
2825.000000	0.002087
2824.000000	0.002095
2823.000000	0.002097
2822.000000	0.002089
2821.000000	0.002077
2820.000000	0.002064
2819.000000	0.002051
2818.000000	0.002038
2817.000000	0.002025
2816.000000	0.002014
2815.000000	0.002004
2814.000000	0.001993
2813.000000	0.001978
2812.000000	0.001964
2811.000000	0.001951
2810.000000	0.001943
2809.000000	0.001937
2808.000000	0.001936
2807.000000	0.001938
2806.000000	0.001942
2805.000000	0.001944
2804.000000	0.001941
2803.000000	0.001937
2802.000000	0.001941
2801.000000	0.001957
2800.000000	0.001981
2799.000000	0.001996
2798.000000	0.001987
2797.000000	0.001958
2796.000000	0.001928
2795.000000	0.001911
2794.000000	0.001905
2793.000000	0.001899
2792.000000	0.001888
2791.000000	0.001880
2790.000000	0.001884
2789.000000	0.001897
2788.000000	0.001907
2787.000000	0.001904
2786.000000	0.001890
2785.000000	0.001875
2784.000000	0.001868
2783.000000	0.001871
2782.000000	0.001874
2781.000000	0.001866
2780.000000	0.001846
2779.000000	0.001828
2778.000000	0.001822
2777.000000	0.001832
2776.000000	0.001849
2775.000000	0.001862
2774.000000	0.001867
2773.000000	0.001862
2772.000000	0.001849
2771.000000	0.001831
2770.000000	0.001814
2769.000000	0.001805
2768.000000	0.001809
2767.000000	0.001821
2766.000000	0.001834
2765.000000	0.001840
2764.000000	0.001838
2763.000000	0.001832
2762.000000	0.001828
2761.000000	0.001829
2760.000000	0.001836
2759.000000	0.001844
2758.000000	0.001845
2757.000000	0.001832
2756.000000	0.001809
2755.000000	0.001792
2754.000000	0.001791
2753.000000	0.001806
2752.000000	0.001822
2751.000000	0.001823
2750.000000	0.001809
2749.000000	0.001785
2748.000000	0.001762
2747.000000	0.001748
2746.000000	0.001745
2745.000000	0.001749
2744.000000	0.001751
2743.000000	0.001745
2742.000000	0.001733
2741.000000	0.001720
2740.000000	0.001710
2739.000000	0.001704
2738.000000	0.001704
2737.000000	0.001708
2736.000000	0.001716
2735.000000	0.001719
2734.000000	0.001710
2733.000000	0.001689
2732.000000	0.001667
2731.000000	0.001660
2730.000000	0.001672
2729.000000	0.001692
2728.000000	0.001703
2727.000000	0.001700
2726.000000	0.001689
2725.000000	0.001678
2724.000000	0.001672
2723.000000	0.001671
2722.000000	0.001674
2721.000000	0.001679
2720.000000	0.001679
2719.000000	0.001669
2718.000000	0.001652
2717.000000	0.001636
2716.000000	0.001628
2715.000000	0.001627
2714.000000	0.001626
2713.000000	0.001624
2712.000000	0.001622
2711.000000	0.001623
2710.000000	0.001629
2709.000000	0.001638
2708.000000	0.001645
2707.000000	0.001646
2706.000000	0.001635
2705.000000	0.001612
2704.000000	0.001587
2703.000000	0.001576
2702.000000	0.001585
2701.000000	0.001605
2700.000000	0.001620
2699.000000	0.001621
2698.000000	0.001615
2697.000000	0.001609
2696.000000	0.001604
2695.000000	0.001597
2694.000000	0.001585
2693.000000	0.001573
2692.000000	0.001569
2691.000000	0.001577
2690.000000	0.001595
2689.000000	0.001615
2688.000000	0.001628
2687.000000	0.001628
2686.000000	0.001618
2685.000000	0.001605
2684.000000	0.001593
2683.000000	0.001582
2682.000000	0.001572
2681.000000	0.001565
2680.000000	0.001561
2679.000000	0.001557
2678.000000	0.001551
2677.000000	0.001543
2676.000000	0.001538
2675.000000	0.001537
2674.000000	0.001536
2673.000000	0.001534
2672.000000	0.001530
2671.000000	0.001530
2670.000000	0.001537
2669.000000	0.001551
2668.000000	0.001565
2667.000000	0.001574
2666.000000	0.001584
2665.000000	0.001598
2664.000000	0.001617
2663.000000	0.001633
2662.000000	0.001639
2661.000000	0.001635
2660.000000	0.001633
2659.000000	0.001645
2658.000000	0.001668
2657.000000	0.001688
2656.000000	0.001693
2655.000000	0.001683
2654.000000	0.001667
2653.000000	0.001653
2652.000000	0.001641
2651.000000	0.001627
2650.000000	0.001609
2649.000000	0.001591
2648.000000	0.001584
2647.000000	0.001593
2646.000000	0.001613
2645.000000	0.001626
2644.000000	0.001618
2643.000000	0.001589
2642.000000	0.001549
2641.000000	0.001507
2640.000000	0.001470
2639.000000	0.001447
2638.000000	0.001449
2637.000000	0.001476
2636.000000	0.001507
2635.000000	0.001518
2634.000000	0.001500
2633.000000	0.001467
2632.000000	0.001431
2631.000000	0.001399
2630.000000	0.001373
2629.000000	0.001357
2628.000000	0.001352
2627.000000	0.001346
2626.000000	0.001332
2625.000000	0.001311
2624.000000	0.001296
2623.000000	0.001298
2622.000000	0.001317
2621.000000	0.001340
2620.000000	0.001351
2619.000000	0.001342
2618.000000	0.001322
2617.000000	0.001304
2616.000000	0.001298
2615.000000	0.001300
2614.000000	0.001301
2613.000000	0.001296
2612.000000	0.001283
2611.000000	0.001260
2610.000000	0.001226
2609.000000	0.001185
2608.000000	0.001146
2607.000000	0.001116
2606.000000	0.001102
2605.000000	0.001108
2604.000000	0.001133
2603.000000	0.001165
2602.000000	0.001190
2601.000000	0.001192
2600.000000	0.001169
2599.000000	0.001131
2598.000000	0.001094
2597.000000	0.001072
2596.000000	0.001073
2595.000000	0.001090
2594.000000	0.001111
2593.000000	0.001122
2592.000000	0.001116
2591.000000	0.001095
2590.000000	0.001067
2589.000000	0.001044
2588.000000	0.001033
2587.000000	0.001039
2586.000000	0.001056
2585.000000	0.001072
2584.000000	0.001075
2583.000000	0.001065
2582.000000	0.001055
2581.000000	0.001057
2580.000000	0.001076
2579.000000	0.001096
2578.000000	0.001097
2577.000000	0.001075
2576.000000	0.001043
2575.000000	0.001014
2574.000000	0.000994
2573.000000	0.000982
2572.000000	0.000978
2571.000000	0.000984
2570.000000	0.000990
2569.000000	0.000985
2568.000000	0.000967
2567.000000	0.000947
2566.000000	0.000935
2565.000000	0.000927
2564.000000	0.000922
2563.000000	0.000926
2562.000000	0.000944
2561.000000	0.000968
2560.000000	0.000981
2559.000000	0.000978
2558.000000	0.000969
2557.000000	0.000967
2556.000000	0.000973
2555.000000	0.000982
2554.000000	0.000985
2553.000000	0.000974
2552.000000	0.000947
2551.000000	0.000916
2550.000000	0.000893
2549.000000	0.000877
2548.000000	0.000853
2547.000000	0.000817
2546.000000	0.000787
2545.000000	0.000780
2544.000000	0.000801
2543.000000	0.000835
2542.000000	0.000865
2541.000000	0.000872
2540.000000	0.000854
2539.000000	0.000825
2538.000000	0.000814
2537.000000	0.000829
2536.000000	0.000850
2535.000000	0.000851
2534.000000	0.000837
2533.000000	0.000831
2532.000000	0.000843
2531.000000	0.000855
2530.000000	0.000853
2529.000000	0.000845
2528.000000	0.000843
2527.000000	0.000845
2526.000000	0.000846
2525.000000	0.000850
2524.000000	0.000867
2523.000000	0.000896
2522.000000	0.000918
2521.000000	0.000923
2520.000000	0.000919
2519.000000	0.000927
2518.000000	0.000953
2517.000000	0.000984
2516.000000	0.000995
2515.000000	0.000975
2514.000000	0.000940
2513.000000	0.000911
2512.000000	0.000896
2511.000000	0.000887
2510.000000	0.000878
2509.000000	0.000871
2508.000000	0.000875
2507.000000	0.000891
2506.000000	0.000908
2505.000000	0.000909
2504.000000	0.000885
2503.000000	0.000845
2502.000000	0.000805
2501.000000	0.000782
2500.000000	0.000775
2499.000000	0.000774
2498.000000	0.000778
2497.000000	0.000796
2496.000000	0.000835
2495.000000	0.000877
2494.000000	0.000895
2493.000000	0.000870
2492.000000	0.000815
2491.000000	0.000762
2490.000000	0.000735
2489.000000	0.000736
2488.000000	0.000754
2487.000000	0.000781
2486.000000	0.000811
2485.000000	0.000837
2484.000000	0.000846
2483.000000	0.000835
2482.000000	0.000811
2481.000000	0.000785
2480.000000	0.000762
2479.000000	0.000749
2478.000000	0.000751
2477.000000	0.000766
2476.000000	0.000784
2475.000000	0.000799
2474.000000	0.000814
2473.000000	0.000833
2472.000000	0.000852
2471.000000	0.000863
2470.000000	0.000862
2469.000000	0.000853
2468.000000	0.000844
2467.000000	0.000842
2466.000000	0.000850
2465.000000	0.000857
2464.000000	0.000850
2463.000000	0.000823
2462.000000	0.000789
2461.000000	0.000769
2460.000000	0.000770
2459.000000	0.000786
2458.000000	0.000803
2457.000000	0.000806
2456.000000	0.000788
2455.000000	0.000760
2454.000000	0.000743
2453.000000	0.000750
2452.000000	0.000775
2451.000000	0.000795
2450.000000	0.000799
2449.000000	0.000789
2448.000000	0.000776
2447.000000	0.000766
2446.000000	0.000764
2445.000000	0.000773
2444.000000	0.000792
2443.000000	0.000812
2442.000000	0.000830
2441.000000	0.000846
2440.000000	0.000858
2439.000000	0.000863
2438.000000	0.000856
2437.000000	0.000839
2436.000000	0.000818
2435.000000	0.000795
2434.000000	0.000769
2433.000000	0.000737
2432.000000	0.000708
2431.000000	0.000701
2430.000000	0.000729
2429.000000	0.000779
2428.000000	0.000822
2427.000000	0.000840
2426.000000	0.000836
2425.000000	0.000819
2424.000000	0.000795
2423.000000	0.000765
2422.000000	0.000739
2421.000000	0.000726
2420.000000	0.000726
2419.000000	0.000727
2418.000000	0.000726
2417.000000	0.000721
2416.000000	0.000711
2415.000000	0.000698
2414.000000	0.000685
2413.000000	0.000680
2412.000000	0.000684
2411.000000	0.000695
2410.000000	0.000712
2409.000000	0.000726
2408.000000	0.000730
2407.000000	0.000723
2406.000000	0.000712
2405.000000	0.000703
2404.000000	0.000691
2403.000000	0.000675
2402.000000	0.000665
2401.000000	0.000667
2400.000000	0.000674
2399.000000	0.000675
2398.000000	0.000668
2397.000000	0.000663
2396.000000	0.000663
2395.000000	0.000673
2394.000000	0.000694
2393.000000	0.000723
2392.000000	0.000745
2391.000000	0.000753
2390.000000	0.000754
2389.000000	0.000761
2388.000000	0.000763
2387.000000	0.000740
2386.000000	0.000690
2385.000000	0.000625
2384.000000	0.000558
2383.000000	0.000491
2382.000000	0.000430
2381.000000	0.000377
2380.000000	0.000329
2379.000000	0.000285
2378.000000	0.000265
2377.000000	0.000296
2376.000000	0.000376
2375.000000	0.000472
2374.000000	0.000543
2373.000000	0.000572
2372.000000	0.000557
2371.000000	0.000503
2370.000000	0.000425
2369.000000	0.000351
2368.000000	0.000309
2367.000000	0.000314
2366.000000	0.000353
2365.000000	0.000401
2364.000000	0.000444
2363.000000	0.000486
2362.000000	0.000526
2361.000000	0.000546
2360.000000	0.000532
2359.000000	0.000497
2358.000000	0.000464
2357.000000	0.000434
2356.000000	0.000427
2355.000000	0.000465
2354.000000	0.000516
2353.000000	0.000519
2352.000000	0.000489
2351.000000	0.000488
2350.000000	0.000526
2349.000000	0.000557
2348.000000	0.000521
2347.000000	0.000402
2346.000000	0.000281
2345.000000	0.000285
2344.000000	0.000429
2343.000000	0.000602
2342.000000	0.000721
2341.000000	0.000771
2340.000000	0.000783
2339.000000	0.000785
2338.000000	0.000791
2337.000000	0.000801
2336.000000	0.000810
2335.000000	0.000805
2334.000000	0.000769
2333.000000	0.000710
2332.000000	0.000671
2331.000000	0.000696
2330.000000	0.000781
2329.000000	0.000901
2328.000000	0.001035
2327.000000	0.001176
2326.000000	0.001304
2325.000000	0.001386
2324.000000	0.001404
2323.000000	0.001368
2322.000000	0.001325
2321.000000	0.001322
2320.000000	0.001373
2319.000000	0.001446
2318.000000	0.001495
2317.000000	0.001497
2316.000000	0.001446
2315.000000	0.001349
2314.000000	0.001229
2313.000000	0.001132
2312.000000	0.001090
2311.000000	0.001097
2310.000000	0.001123
2309.000000	0.001140
2308.000000	0.001130
2307.000000	0.001082
2306.000000	0.001001
2305.000000	0.000918
2304.000000	0.000862
2303.000000	0.000839
2302.000000	0.000840
2301.000000	0.000858
2300.000000	0.000894
2299.000000	0.000941
2298.000000	0.000991
2297.000000	0.001041
2296.000000	0.001085
2295.000000	0.001112
2294.000000	0.001117
2293.000000	0.001122
2292.000000	0.001147
2291.000000	0.001194
2290.000000	0.001248
2289.000000	0.001295
2288.000000	0.001323
2287.000000	0.001323
2286.000000	0.001292
2285.000000	0.001251
2284.000000	0.001216
2283.000000	0.001177
2282.000000	0.001114
2281.000000	0.001035
2280.000000	0.000981
2279.000000	0.000975
2278.000000	0.001001
2277.000000	0.001029
2276.000000	0.001039
2275.000000	0.001031
2274.000000	0.001010
2273.000000	0.000988
2272.000000	0.000969
2271.000000	0.000958
2270.000000	0.000958
2269.000000	0.000974
2268.000000	0.000999
2267.000000	0.001004
2266.000000	0.000969
2265.000000	0.000909
2264.000000	0.000852
2263.000000	0.000807
2262.000000	0.000767
2261.000000	0.000745
2260.000000	0.000757
2259.000000	0.000794
2258.000000	0.000817
2257.000000	0.000807
2256.000000	0.000783
2255.000000	0.000766
2254.000000	0.000748
2253.000000	0.000725
2252.000000	0.000713
2251.000000	0.000728
2250.000000	0.000751
2249.000000	0.000747
2248.000000	0.000706
2247.000000	0.000649
2246.000000	0.000604
2245.000000	0.000580
2244.000000	0.000581
2243.000000	0.000612
2242.000000	0.000665
2241.000000	0.000706
2240.000000	0.000699
2239.000000	0.000647
2238.000000	0.000591
2237.000000	0.000573
2236.000000	0.000608
2235.000000	0.000681
2234.000000	0.000772
2233.000000	0.000846
2232.000000	0.000859
2231.000000	0.000787
2230.000000	0.000660
2229.000000	0.000543
2228.000000	0.000483
2227.000000	0.000485
2226.000000	0.000528
2225.000000	0.000583
2224.000000	0.000615
2223.000000	0.000597
2222.000000	0.000535
2221.000000	0.000464
2220.000000	0.000415
2219.000000	0.000405
2218.000000	0.000437
2217.000000	0.000495
2216.000000	0.000544
2215.000000	0.000554
2214.000000	0.000540
2213.000000	0.000543
2212.000000	0.000584
2211.000000	0.000659
2210.000000	0.000767
2209.000000	0.000907
2208.000000	0.001030
2207.000000	0.001055
2206.000000	0.000951
2205.000000	0.000776
2204.000000	0.000625
2203.000000	0.000560
2202.000000	0.000596
2201.000000	0.000705
2200.000000	0.000816
2199.000000	0.000858
2198.000000	0.000839
2197.000000	0.000844
2196.000000	0.000916
2195.000000	0.000992
2194.000000	0.000977
2193.000000	0.000858
2192.000000	0.000689
2191.000000	0.000515
2190.000000	0.000354
2189.000000	0.000232
2188.000000	0.000172
2187.000000	0.000155
2186.000000	0.000152
2185.000000	0.000181
2184.000000	0.000280
2183.000000	0.000424
2182.000000	0.000521
2181.000000	0.000508
2180.000000	0.000416
2179.000000	0.000332
2178.000000	0.000305
2177.000000	0.000315
2176.000000	0.000292
2175.000000	0.000191
2174.000000	0.000062
2173.000000	0.000021
2172.000000	0.000142
2171.000000	0.000387
2170.000000	0.000643
2169.000000	0.000814
2168.000000	0.000865
2167.000000	0.000813
2166.000000	0.000704
2165.000000	0.000602
2164.000000	0.000559
2163.000000	0.000576
2162.000000	0.000606
2161.000000	0.000561
2160.000000	0.000350
2159.000000	-0.000041
2158.000000	-0.000474
2157.000000	-0.000762
2156.000000	-0.000866
2155.000000	-0.000893
2154.000000	-0.000923
2153.000000	-0.000923
2152.000000	-0.000849
2151.000000	-0.000736
2150.000000	-0.000653
2149.000000	-0.000613
2148.000000	-0.000567
2147.000000	-0.000479
2146.000000	-0.000369
2145.000000	-0.000287
2144.000000	-0.000271
2143.000000	-0.000325
2142.000000	-0.000422
2141.000000	-0.000524
2140.000000	-0.000603
2139.000000	-0.000628
2138.000000	-0.000547
2137.000000	-0.000349
2136.000000	-0.000116
2135.000000	0.000027
2134.000000	0.000039
2133.000000	-0.000005
2132.000000	-0.000026
2131.000000	-0.000020
2130.000000	-0.000011
2129.000000	0.000002
2128.000000	0.000030
2127.000000	0.000048
2126.000000	0.000031
2125.000000	0.000013
2124.000000	0.000058
2123.000000	0.000185
2122.000000	0.000347
2121.000000	0.000480
2120.000000	0.000547
2119.000000	0.000548
2118.000000	0.000517
2117.000000	0.000507
2116.000000	0.000552
2115.000000	0.000624
2114.000000	0.000662
2113.000000	0.000640
2112.000000	0.000589
2111.000000	0.000559
2110.000000	0.000570
2109.000000	0.000605
2108.000000	0.000630
2107.000000	0.000620
2106.000000	0.000573
2105.000000	0.000520
2104.000000	0.000491
2103.000000	0.000479
2102.000000	0.000462
2101.000000	0.000434
2100.000000	0.000415
2099.000000	0.000404
2098.000000	0.000382
2097.000000	0.000342
2096.000000	0.000309
2095.000000	0.000307
2094.000000	0.000325
2093.000000	0.000338
2092.000000	0.000332
2091.000000	0.000307
2090.000000	0.000267
2089.000000	0.000224
2088.000000	0.000213
2087.000000	0.000257
2086.000000	0.000341
2085.000000	0.000412
2084.000000	0.000425
2083.000000	0.000385
2082.000000	0.000344
2081.000000	0.000342
2080.000000	0.000377
2079.000000	0.000413
2078.000000	0.000435
2077.000000	0.000453
2076.000000	0.000471
2075.000000	0.000466
2074.000000	0.000415
2073.000000	0.000344
2072.000000	0.000308
2071.000000	0.000339
2070.000000	0.000419
2069.000000	0.000499
2068.000000	0.000535
2067.000000	0.000514
2066.000000	0.000449
2065.000000	0.000373
2064.000000	0.000311
2063.000000	0.000277
2062.000000	0.000281
2061.000000	0.000319
2060.000000	0.000359
2059.000000	0.000360
2058.000000	0.000321
2057.000000	0.000289
2056.000000	0.000301
2055.000000	0.000342
2054.000000	0.000374
2053.000000	0.000402
2052.000000	0.000471
2051.000000	0.000593
2050.000000	0.000702
2049.000000	0.000705
2048.000000	0.000584
2047.000000	0.000410
2046.000000	0.000255
2045.000000	0.000122
2044.000000	-0.000018
2043.000000	-0.000150
2042.000000	-0.000223
2041.000000	-0.000224
2040.000000	-0.000204
2039.000000	-0.000199
2038.000000	-0.000172
2037.000000	-0.000081
2036.000000	0.000028
2035.000000	0.000078
2034.000000	0.000082
2033.000000	0.000108
2032.000000	0.000135
2031.000000	0.000045
2030.000000	-0.000193
2029.000000	-0.000443
2028.000000	-0.000546
2027.000000	-0.000483
2026.000000	-0.000350
2025.000000	-0.000247
2024.000000	-0.000244
2023.000000	-0.000374
2022.000000	-0.000590
2021.000000	-0.000774
2020.000000	-0.000846
2019.000000	-0.000841
2018.000000	-0.000814
2017.000000	-0.000747
2016.000000	-0.000604
2015.000000	-0.000435
2014.000000	-0.000333
2013.000000	-0.000312
2012.000000	-0.000295
2011.000000	-0.000224
2010.000000	-0.000129
2009.000000	-0.000098
2008.000000	-0.000207
2007.000000	-0.000462
2006.000000	-0.000761
2005.000000	-0.000931
2004.000000	-0.000854
2003.000000	-0.000580
2002.000000	-0.000289
2001.000000	-0.000149
2000.000000	-0.000214
1999.000000	-0.000406
1998.000000	-0.000593
1997.000000	-0.000680
1996.000000	-0.000652
1995.000000	-0.000553
1994.000000	-0.000411
1993.000000	-0.000215
1992.000000	0.000032
1991.000000	0.000255
1990.000000	0.000358
1989.000000	0.000312
1988.000000	0.000182
1987.000000	0.000067
1986.000000	0.000017
1985.000000	0.000023
1984.000000	0.000063
1983.000000	0.000146
1982.000000	0.000303
1981.000000	0.000507
1980.000000	0.000641
1979.000000	0.000573
1978.000000	0.000285
1977.000000	-0.000090
1976.000000	-0.000403
1975.000000	-0.000617
1974.000000	-0.000775
1973.000000	-0.000877
1972.000000	-0.000854
1971.000000	-0.000656
1970.000000	-0.000330
1969.000000	-0.000028
1968.000000	0.000076
1967.000000	-0.000089
1966.000000	-0.000429
1965.000000	-0.000764
1964.000000	-0.000967
1963.000000	-0.001024
1962.000000	-0.000979
1961.000000	-0.000872
1960.000000	-0.000730
1959.000000	-0.000595
1958.000000	-0.000524
1957.000000	-0.000549
1956.000000	-0.000635
1955.000000	-0.000677
1954.000000	-0.000588
1953.000000	-0.000388
1952.000000	-0.000205
1951.000000	-0.000150
1950.000000	-0.000216
1949.000000	-0.000315
1948.000000	-0.000368
1947.000000	-0.000346
1946.000000	-0.000262
1945.000000	-0.000164
1944.000000	-0.000127
1943.000000	-0.000192
1942.000000	-0.000322
1941.000000	-0.000438
1940.000000	-0.000494
1939.000000	-0.000488
1938.000000	-0.000417
1937.000000	-0.000292
1936.000000	-0.000175
1935.000000	-0.000138
1934.000000	-0.000191
1933.000000	-0.000268
1932.000000	-0.000298
1931.000000	-0.000265
1930.000000	-0.000196
1929.000000	-0.000125
1928.000000	-0.000080
1927.000000	-0.000068
1926.000000	-0.000072
1925.000000	-0.000070
1924.000000	-0.000067
1923.000000	-0.000069
1922.000000	-0.000060
1921.000000	-0.000021
1920.000000	0.000029
1919.000000	0.000043
1918.000000	0.000004
1917.000000	-0.000051
1916.000000	-0.000080
1915.000000	-0.000074
1914.000000	-0.000038
1913.000000	0.000020
1912.000000	0.000077
1911.000000	0.000092
1910.000000	0.000050
1909.000000	-0.000027
1908.000000	-0.000103
1907.000000	-0.000159
1906.000000	-0.000196
1905.000000	-0.000219
1904.000000	-0.000238
1903.000000	-0.000258
1902.000000	-0.000260
1901.000000	-0.000229
1900.000000	-0.000180
1899.000000	-0.000153
1898.000000	-0.000156
1897.000000	-0.000162
1896.000000	-0.000158
1895.000000	-0.000156
1894.000000	-0.000165
1893.000000	-0.000170
1892.000000	-0.000167
1891.000000	-0.000183
1890.000000	-0.000236
1889.000000	-0.000299
1888.000000	-0.000336
1887.000000	-0.000337
1886.000000	-0.000319
1885.000000	-0.000294
1884.000000	-0.000273
1883.000000	-0.000274
1882.000000	-0.000303
1881.000000	-0.000349
1880.000000	-0.000401
1879.000000	-0.000449
1878.000000	-0.000480
1877.000000	-0.000478
1876.000000	-0.000451
1875.000000	-0.000431
1874.000000	-0.000439
1873.000000	-0.000455
1872.000000	-0.000446
1871.000000	-0.000407
1870.000000	-0.000360
1869.000000	-0.000329
1868.000000	-0.000336
1867.000000	-0.000381
1866.000000	-0.000442
1865.000000	-0.000498
1864.000000	-0.000540
1863.000000	-0.000569
1862.000000	-0.000576
1861.000000	-0.000543
1860.000000	-0.000474
1859.000000	-0.000410
1858.000000	-0.000397
1857.000000	-0.000440
1856.000000	-0.000516
1855.000000	-0.000591
1854.000000	-0.000638
1853.000000	-0.000631
1852.000000	-0.000566
1851.000000	-0.000470
1850.000000	-0.000398
1849.000000	-0.000388
1848.000000	-0.000445
1847.000000	-0.000534
1846.000000	-0.000620
1845.000000	-0.000672
1844.000000	-0.000680
1843.000000	-0.000661
1842.000000	-0.000641
1841.000000	-0.000628
1840.000000	-0.000629
1839.000000	-0.000646
1838.000000	-0.000664
1837.000000	-0.000668
1836.000000	-0.000661
1835.000000	-0.000650
1834.000000	-0.000631
1833.000000	-0.000601
1832.000000	-0.000584
1831.000000	-0.000604
1830.000000	-0.000640
1829.000000	-0.000639
1828.000000	-0.000595
1827.000000	-0.000562
1826.000000	-0.000583
1825.000000	-0.000642
1824.000000	-0.000689
1823.000000	-0.000708
1822.000000	-0.000713
1821.000000	-0.000724
1820.000000	-0.000747
1819.000000	-0.000783
1818.000000	-0.000817
1817.000000	-0.000825
1816.000000	-0.000795
1815.000000	-0.000742
1814.000000	-0.000693
1813.000000	-0.000666
1812.000000	-0.000665
1811.000000	-0.000684
1810.000000	-0.000700
1809.000000	-0.000696
1808.000000	-0.000679
1807.000000	-0.000670
1806.000000	-0.000676
1805.000000	-0.000692
1804.000000	-0.000716
1803.000000	-0.000748
1802.000000	-0.000767
1801.000000	-0.000741
1800.000000	-0.000674
1799.000000	-0.000614
1798.000000	-0.000593
1797.000000	-0.000596
1796.000000	-0.000599
1795.000000	-0.000603
1794.000000	-0.000631
1793.000000	-0.000685
1792.000000	-0.000738
1791.000000	-0.000772
1790.000000	-0.000789
1789.000000	-0.000789
1788.000000	-0.000773
1787.000000	-0.000757
1786.000000	-0.000751
1785.000000	-0.000747
1784.000000	-0.000739
1783.000000	-0.000733
1782.000000	-0.000739
1781.000000	-0.000755
1780.000000	-0.000766
1779.000000	-0.000767
1778.000000	-0.000763
1777.000000	-0.000750
1776.000000	-0.000723
1775.000000	-0.000686
1774.000000	-0.000666
1773.000000	-0.000672
1772.000000	-0.000679
1771.000000	-0.000666
1770.000000	-0.000638
1769.000000	-0.000608
1768.000000	-0.000590
1767.000000	-0.000584
1766.000000	-0.000570
1765.000000	-0.000529
1764.000000	-0.000474
1763.000000	-0.000436
1762.000000	-0.000418
1761.000000	-0.000383
1760.000000	-0.000308
1759.000000	-0.000204
1758.000000	-0.000092
1757.000000	0.000029
1756.000000	0.000164
1755.000000	0.000310
1754.000000	0.000467
1753.000000	0.000640
1752.000000	0.000826
1751.000000	0.001005
1750.000000	0.001161
1749.000000	0.001314
1748.000000	0.001479
1747.000000	0.001642
1746.000000	0.001782
1745.000000	0.001895
1744.000000	0.001984
1743.000000	0.002048
1742.000000	0.002091
1741.000000	0.002126
1740.000000	0.002142
1739.000000	0.002125
1738.000000	0.002097
1737.000000	0.002094
1736.000000	0.002089
1735.000000	0.001988
1734.000000	0.001777
1733.000000	0.001557
1732.000000	0.001400
1731.000000	0.001293
1730.000000	0.001209
1729.000000	0.001138
1728.000000	0.001079
1727.000000	0.001024
1726.000000	0.000976
1725.000000	0.000947
1724.000000	0.000938
1723.000000	0.000932
1722.000000	0.000925
1721.000000	0.000938
1720.000000	0.000969
1719.000000	0.000972
1718.000000	0.000936
1717.000000	0.000915
1716.000000	0.000940
1715.000000	0.000990
1714.000000	0.001046
1713.000000	0.001114
1712.000000	0.001195
1711.000000	0.001282
1710.000000	0.001373
1709.000000	0.001474
1708.000000	0.001581
1707.000000	0.001678
1706.000000	0.001765
1705.000000	0.001878
1704.000000	0.002038
1703.000000	0.002235
1702.000000	0.002417
1701.000000	0.002539
1700.000000	0.002625
1699.000000	0.002707
1698.000000	0.002817
1697.000000	0.002977
1696.000000	0.003160
1695.000000	0.003316
1694.000000	0.003442
1693.000000	0.003587
1692.000000	0.003776
1691.000000	0.003985
1690.000000	0.004189
1689.000000	0.004389
1688.000000	0.004602
1687.000000	0.004827
1686.000000	0.005025
1685.000000	0.005180
1684.000000	0.005311
1683.000000	0.005421
1682.000000	0.005544
1681.000000	0.005727
1680.000000	0.005948
1679.000000	0.006157
1678.000000	0.006339
1677.000000	0.006514
1676.000000	0.006694
1675.000000	0.006864
1674.000000	0.007012
1673.000000	0.007161
1672.000000	0.007330
1671.000000	0.007504
1670.000000	0.007676
1669.000000	0.007869
1668.000000	0.008072
1667.000000	0.008254
1666.000000	0.008410
1665.000000	0.008559
1664.000000	0.008703
1663.000000	0.008833
1662.000000	0.008951
1661.000000	0.009084
1660.000000	0.009244
1659.000000	0.009403
1658.000000	0.009540
1657.000000	0.009686
1656.000000	0.009889
1655.000000	0.010119
1654.000000	0.010312
1653.000000	0.010473
1652.000000	0.010571
1651.000000	0.010599
1650.000000	0.010649
1649.000000	0.010766
1648.000000	0.010944
1647.000000	0.011149
1646.000000	0.011333
1645.000000	0.011485
1644.000000	0.011624
1643.000000	0.011759
1642.000000	0.011882
1641.000000	0.011993
1640.000000	0.012105
1639.000000	0.012223
1638.000000	0.012342
1637.000000	0.012459
1636.000000	0.012596
1635.000000	0.012740
1634.000000	0.012848
1633.000000	0.012944
1632.000000	0.013060
1631.000000	0.013187
1630.000000	0.013303
1629.000000	0.013412
1628.000000	0.013525
1627.000000	0.013638
1626.000000	0.013735
1625.000000	0.013820
1624.000000	0.013908
1623.000000	0.013992
1622.000000	0.014057
1621.000000	0.014114
1620.000000	0.014195
1619.000000	0.014290
1618.000000	0.014346
1617.000000	0.014329
1616.000000	0.014258
1615.000000	0.014166
1614.000000	0.014073
1613.000000	0.013989
1612.000000	0.013902
1611.000000	0.013791
1610.000000	0.013651
1609.000000	0.013495
1608.000000	0.013347
1607.000000	0.013207
1606.000000	0.013059
1605.000000	0.012893
1604.000000	0.012715
1603.000000	0.012536
1602.000000	0.012362
1601.000000	0.012196
1600.000000	0.012036
1599.000000	0.011876
1598.000000	0.011704
1597.000000	0.011522
1596.000000	0.011338
1595.000000	0.011159
1594.000000	0.010987
1593.000000	0.010822
1592.000000	0.010666
1591.000000	0.010513
1590.000000	0.010360
1589.000000	0.010213
1588.000000	0.010079
1587.000000	0.009949
1586.000000	0.009814
1585.000000	0.009676
1584.000000	0.009550
1583.000000	0.009438
1582.000000	0.009328
1581.000000	0.009218
1580.000000	0.009129
1579.000000	0.009075
1578.000000	0.009020
1577.000000	0.008898
1576.000000	0.008692
1575.000000	0.008467
1574.000000	0.008288
1573.000000	0.008181
1572.000000	0.008102
1571.000000	0.008028
1570.000000	0.007900
1569.000000	0.007868
1568.000000	0.007889
1567.000000	0.007799
1566.000000	0.007728
1565.000000	0.007624
1564.000000	0.007527
1563.000000	0.007439
1562.000000	0.007371
1561.000000	0.007316
1560.000000	0.007246
1559.000000	0.007157
1558.000000	0.007041
1557.000000	0.007008
1556.000000	0.006893
1555.000000	0.006756
1554.000000	0.006741
1553.000000	0.006628
1552.000000	0.006532
1551.000000	0.006428
1550.000000	0.006342
1549.000000	0.006274
1548.000000	0.006240
1547.000000	0.006227
1546.000000	0.006212
1545.000000	0.006182
1544.000000	0.006152
1543.000000	0.006132
1542.000000	0.006102
1541.000000	0.006033
1540.000000	0.005933
1539.000000	0.005831
1538.000000	0.005741
1537.000000	0.005678
1536.000000	0.005637
1535.000000	0.005578
1534.000000	0.005471
1533.000000	0.005355
1532.000000	0.005285
1531.000000	0.005251
1530.000000	0.005218
1529.000000	0.005165
1528.000000	0.005096
1527.000000	0.005022
1526.000000	0.004952
1525.000000	0.004900
1524.000000	0.004879
1523.000000	0.004862
1522.000000	0.004799
1521.000000	0.004681
1520.000000	0.004553
1519.000000	0.004453
1518.000000	0.004370
1517.000000	0.004288
1516.000000	0.004225
1515.000000	0.004198
1514.000000	0.004190
1513.000000	0.004166
1512.000000	0.004110
1511.000000	0.004055
1510.000000	0.004038
1509.000000	0.004052
1508.000000	0.004027
1507.000000	0.003901
1506.000000	0.003728
1505.000000	0.003594
1504.000000	0.003509
1503.000000	0.003459
1502.000000	0.003436
1501.000000	0.003431
1500.000000	0.003443
1499.000000	0.003462
1498.000000	0.003465
1497.000000	0.003432
1496.000000	0.003365
1495.000000	0.003288
1494.000000	0.003236
1493.000000	0.003225
1492.000000	0.003238
1491.000000	0.003250
1490.000000	0.003256
1489.000000	0.003265
1488.000000	0.003282
1487.000000	0.003302
1486.000000	0.003326
1485.000000	0.003357
1484.000000	0.003396
1483.000000	0.003439
1482.000000	0.003483
1481.000000	0.003531
1480.000000	0.003583
1479.000000	0.003639
1478.000000	0.003696
1477.000000	0.003760
1476.000000	0.003826
1475.000000	0.003886
1474.000000	0.003938
1473.000000	0.004008
1472.000000	0.004110
1471.000000	0.004211
1470.000000	0.004288
1469.000000	0.004350
1468.000000	0.004406
1467.000000	0.004455
1466.000000	0.004493
1465.000000	0.004521
1464.000000	0.004545
1463.000000	0.004570
1462.000000	0.004599
1461.000000	0.004633
1460.000000	0.004668
1459.000000	0.004694
1458.000000	0.004711
1457.000000	0.004751
1456.000000	0.004799
1455.000000	0.004830
1454.000000	0.004862
1453.000000	0.004910
1452.000000	0.004961
1451.000000	0.005003
1450.000000	0.005038
1449.000000	0.005075
1448.000000	0.005112
1447.000000	0.005145
1446.000000	0.005177
1445.000000	0.005212
1444.000000	0.005250
1443.000000	0.005280
1442.000000	0.005305
1441.000000	0.005337
1440.000000	0.005389
1439.000000	0.005455
1438.000000	0.005524
1437.000000	0.005596
1436.000000	0.005662
1435.000000	0.005698
1434.000000	0.005716
1433.000000	0.005745
1432.000000	0.005789
1431.000000	0.005837
1430.000000	0.005886
1429.000000	0.005938
1428.000000	0.005986
1427.000000	0.006025
1426.000000	0.006055
1425.000000	0.006080
1424.000000	0.006101
1423.000000	0.006116
1422.000000	0.006133
1421.000000	0.006157
1420.000000	0.006186
1419.000000	0.006217
1418.000000	0.006235
1417.000000	0.006237
1416.000000	0.006232
1415.000000	0.006222
1414.000000	0.006204
1413.000000	0.006181
1412.000000	0.006156
1411.000000	0.006123
1410.000000	0.006083
1409.000000	0.006044
1408.000000	0.006006
1407.000000	0.005964
1406.000000	0.005922
1405.000000	0.005895
1404.000000	0.005892
1403.000000	0.005905
1402.000000	0.005922
1401.000000	0.005934
1400.000000	0.005932
1399.000000	0.005909
1398.000000	0.005869
1397.000000	0.005832
1396.000000	0.005812
1395.000000	0.005809
1394.000000	0.005815
1393.000000	0.005818
1392.000000	0.005812
1391.000000	0.005799
1390.000000	0.005780
1389.000000	0.005756
1388.000000	0.005728
1387.000000	0.005703
1386.000000	0.005690
1385.000000	0.005694
1384.000000	0.005710
1383.000000	0.005722
1382.000000	0.005720
1381.000000	0.005705
1380.000000	0.005690
1379.000000	0.005685
1378.000000	0.005701
1377.000000	0.005740
1376.000000	0.005801
1375.000000	0.005889
1374.000000	0.006007
1373.000000	0.006155
1372.000000	0.006331
1371.000000	0.006533
1370.000000	0.006761
1369.000000	0.007008
1368.000000	0.007251
1367.000000	0.007463
1366.000000	0.007633
1365.000000	0.007761
1364.000000	0.007843
1363.000000	0.007866
1362.000000	0.007826
1361.000000	0.007739
1360.000000	0.007619
1359.000000	0.007467
1358.000000	0.007286
1357.000000	0.007098
1356.000000	0.006924
1355.000000	0.006771
1354.000000	0.006630
1353.000000	0.006497
1352.000000	0.006379
1351.000000	0.006282
1350.000000	0.006206
1349.000000	0.006148
1348.000000	0.006103
1347.000000	0.006070
1346.000000	0.006048
1345.000000	0.006037
1344.000000	0.006030
1343.000000	0.006016
1342.000000	0.005996
1341.000000	0.005987
1340.000000	0.006014
1339.000000	0.006085
1338.000000	0.006187
1337.000000	0.006303
1336.000000	0.006434
1335.000000	0.006584
1334.000000	0.006761
1333.000000	0.006969
1332.000000	0.007215
1331.000000	0.007505
1330.000000	0.007841
1329.000000	0.008215
1328.000000	0.008614
1327.000000	0.009020
1326.000000	0.009423
1325.000000	0.009827
1324.000000	0.010239
1323.000000	0.010642
1322.000000	0.011005
1321.000000	0.011301
1320.000000	0.011514
1319.000000	0.011631
1318.000000	0.011640
1317.000000	0.011531
1316.000000	0.011308
1315.000000	0.010991
1314.000000	0.010612
1313.000000	0.010202
1312.000000	0.009775
1311.000000	0.009337
1310.000000	0.008901
1309.000000	0.008486
1308.000000	0.008101
1307.000000	0.007746
1306.000000	0.007416
1305.000000	0.007111
1304.000000	0.006830
1303.000000	0.006571
1302.000000	0.006334
1301.000000	0.006119
1300.000000	0.005928
1299.000000	0.005762
1298.000000	0.005613
1297.000000	0.005471
1296.000000	0.005322
1295.000000	0.005168
1294.000000	0.005017
1293.000000	0.004878
1292.000000	0.004752
1291.000000	0.004636
1290.000000	0.004527
1289.000000	0.004418
1288.000000	0.004301
1287.000000	0.004176
1286.000000	0.004052
1285.000000	0.003942
1284.000000	0.003854
1283.000000	0.003785
1282.000000	0.003725
1281.000000	0.003661
1280.000000	0.003584
1279.000000	0.003497
1278.000000	0.003413
1277.000000	0.003341
1276.000000	0.003286
1275.000000	0.003249
1274.000000	0.003229
1273.000000	0.003220
1272.000000	0.003214
1271.000000	0.003208
1270.000000	0.003208
1269.000000	0.003216
1268.000000	0.003225
1267.000000	0.003222
1266.000000	0.003203
1265.000000	0.003179
1264.000000	0.003163
1263.000000	0.003156
1262.000000	0.003158
1261.000000	0.003163
1260.000000	0.003171
1259.000000	0.003178
1258.000000	0.003181
1257.000000	0.003177
1256.000000	0.003166
1255.000000	0.003151
1254.000000	0.003130
1253.000000	0.003099
1252.000000	0.003051
1251.000000	0.002991
1250.000000	0.002936
1249.000000	0.002904
1248.000000	0.002900
1247.000000	0.002911
1246.000000	0.002919
1245.000000	0.002914
1244.000000	0.002894
1243.000000	0.002857
1242.000000	0.002803
1241.000000	0.002742
1240.000000	0.002691
1239.000000	0.002658
1238.000000	0.002637
1237.000000	0.002614
1236.000000	0.002582
1235.000000	0.002543
1234.000000	0.002502
1233.000000	0.002462
1232.000000	0.002422
1231.000000	0.002375
1230.000000	0.002321
1229.000000	0.002267
1228.000000	0.002219
1227.000000	0.002173
1226.000000	0.002121
1225.000000	0.002060
1224.000000	0.002005
1223.000000	0.001963
1222.000000	0.001926
1221.000000	0.001878
1220.000000	0.001817
1219.000000	0.001756
1218.000000	0.001713
1217.000000	0.001688
1216.000000	0.001671
1215.000000	0.001650
1214.000000	0.001619
1213.000000	0.001580
1212.000000	0.001537
1211.000000	0.001498
1210.000000	0.001460
1209.000000	0.001422
1208.000000	0.001388
1207.000000	0.001362
1206.000000	0.001342
1205.000000	0.001319
1204.000000	0.001282
1203.000000	0.001239
1202.000000	0.001197
1201.000000	0.001161
1200.000000	0.001125
1199.000000	0.001092
1198.000000	0.001071
1197.000000	0.001069
1196.000000	0.001084
1195.000000	0.001107
1194.000000	0.001132
1193.000000	0.001156
1192.000000	0.001172
1191.000000	0.001170
1190.000000	0.001141
1189.000000	0.001097
1188.000000	0.001064
1187.000000	0.001070
1186.000000	0.001123
1185.000000	0.001208
1184.000000	0.001302
1183.000000	0.001388
1182.000000	0.001460
1181.000000	0.001520
1180.000000	0.001573
1179.000000	0.001629
1178.000000	0.001698
1177.000000	0.001786
1176.000000	0.001890
1175.000000	0.001999
1174.000000	0.002109
1173.000000	0.002220
1172.000000	0.002331
1171.000000	0.002436
1170.000000	0.002530
1169.000000	0.002624
1168.000000	0.002738
1167.000000	0.002877
1166.000000	0.003029
1165.000000	0.003173
1164.000000	0.003301
1163.000000	0.003420
1162.000000	0.003532
1161.000000	0.003638
1160.000000	0.003739
1159.000000	0.003836
1158.000000	0.003924
1157.000000	0.003993
1156.000000	0.004041
1155.000000	0.004079
1154.000000	0.004125
1153.000000	0.004180
1152.000000	0.004234
1151.000000	0.004275
1150.000000	0.004299
1149.000000	0.004303
1148.000000	0.004280
1147.000000	0.004231
1146.000000	0.004168
1145.000000	0.004103
1144.000000	0.004038
1143.000000	0.003973
1142.000000	0.003915
1141.000000	0.003869
1140.000000	0.003833
1139.000000	0.003797
1138.000000	0.003754
1137.000000	0.003699
1136.000000	0.003637
1135.000000	0.003580
1134.000000	0.003545
1133.000000	0.003542
1132.000000	0.003558
1131.000000	0.003572
1130.000000	0.003577
1129.000000	0.003585
1128.000000	0.003605
1127.000000	0.003637
1126.000000	0.003671
1125.000000	0.003705
1124.000000	0.003745
1123.000000	0.003791
1122.000000	0.003845
1121.000000	0.003910
1120.000000	0.003990
1119.000000	0.004081
1118.000000	0.004171
1117.000000	0.004245
1116.000000	0.004303
1115.000000	0.004350
1114.000000	0.004398
1113.000000	0.004454
1112.000000	0.004516
1111.000000	0.004582
1110.000000	0.004645
1109.000000	0.004694
1108.000000	0.004711
1107.000000	0.004687
1106.000000	0.004635
1105.000000	0.004581
1104.000000	0.004551
1103.000000	0.004550
1102.000000	0.004574
1101.000000	0.004610
1100.000000	0.004645
1099.000000	0.004668
1098.000000	0.004687
1097.000000	0.004720
1096.000000	0.004776
1095.000000	0.004840
1094.000000	0.004889
1093.000000	0.004924
1092.000000	0.004970
1091.000000	0.005043
1090.000000	0.005126
1089.000000	0.005190
1088.000000	0.005227
1087.000000	0.005258
1086.000000	0.005299
1085.000000	0.005337
1084.000000	0.005340
1083.000000	0.005306
1082.000000	0.005273
1081.000000	0.005280
1080.000000	0.005329
1079.000000	0.005387
1078.000000	0.005425
1077.000000	0.005447
1076.000000	0.005477
1075.000000	0.005525
1074.000000	0.005572
1073.000000	0.005591
1072.000000	0.005578
1071.000000	0.005563
1070.000000	0.005570
1069.000000	0.005591
1068.000000	0.005594
1067.000000	0.005571
1066.000000	0.005554
1065.000000	0.005576
1064.000000	0.005627
1063.000000	0.005666
1062.000000	0.005669
1061.000000	0.005650
1060.000000	0.005633
1059.000000	0.005626
1058.000000	0.005623
1057.000000	0.005613
1056.000000	0.005594
1055.000000	0.005573
1054.000000	0.005567
1053.000000	0.005585
1052.000000	0.005622
1051.000000	0.005660
1050.000000	0.005693
1049.000000	0.005730
1048.000000	0.005775
1047.000000	0.005827
1046.000000	0.005878
1045.000000	0.005925
1044.000000	0.005964
1043.000000	0.005995
1042.000000	0.006028
1041.000000	0.006081
1040.000000	0.006162
1039.000000	0.006261
1038.000000	0.006362
1037.000000	0.006453
1036.000000	0.006526
1035.000000	0.006582
1034.000000	0.006631
1033.000000	0.006685
1032.000000	0.006747
1031.000000	0.006807
1030.000000	0.006859
1029.000000	0.006900
1028.000000	0.006921
1027.000000	0.006918
1026.000000	0.006902
1025.000000	0.006897
1024.000000	0.006909
1023.000000	0.006917
1022.000000	0.006907
1021.000000	0.006894
1020.000000	0.006899
1019.000000	0.006915
1018.000000	0.006922
1017.000000	0.006918
1016.000000	0.006921
1015.000000	0.006944
1014.000000	0.006975
1013.000000	0.006986
1012.000000	0.006957
1011.000000	0.006891
1010.000000	0.006808
1009.000000	0.006734
1008.000000	0.006678
1007.000000	0.006638
1006.000000	0.006600
1005.000000	0.006549
1004.000000	0.006471
1003.000000	0.006367
1002.000000	0.006254
1001.000000	0.006151
1000.000000	0.006067
999.000000	0.005994
998.000000	0.005926
997.000000	0.005867
996.000000	0.005811
995.000000	0.005745
994.000000	0.005672
993.000000	0.005615
992.000000	0.005583
991.000000	0.005551
990.000000	0.005493
989.000000	0.005425
988.000000	0.005387
987.000000	0.005383
986.000000	0.005369
985.000000	0.005301
984.000000	0.005181
983.000000	0.005044
982.000000	0.004921
981.000000	0.004828
980.000000	0.004768
979.000000	0.004734
978.000000	0.004702
977.000000	0.004645
976.000000	0.004560
975.000000	0.004468
974.000000	0.004379
973.000000	0.004283
972.000000	0.004161
971.000000	0.004020
970.000000	0.003885
969.000000	0.003767
968.000000	0.003654
967.000000	0.003531
966.000000	0.003400
965.000000	0.003281
964.000000	0.003185
963.000000	0.003107
962.000000	0.003036
961.000000	0.002963
960.000000	0.002885
959.000000	0.002801
958.000000	0.002709
957.000000	0.002609
956.000000	0.002507
955.000000	0.002405
954.000000	0.002301
953.000000	0.002193
952.000000	0.002080
951.000000	0.001969
950.000000	0.001868
949.000000	0.001782
948.000000	0.001707
947.000000	0.001637
946.000000	0.001565
945.000000	0.001489
944.000000	0.001408
943.000000	0.001324
942.000000	0.001231
941.000000	0.001120
940.000000	0.000985
939.000000	0.000844
938.000000	0.000733
937.000000	0.000673
936.000000	0.000646
935.000000	0.000615
934.000000	0.000565
933.000000	0.000512
932.000000	0.000481
931.000000	0.000469
930.000000	0.000462
929.000000	0.000453
928.000000	0.000443
927.000000	0.000430
926.000000	0.000402
925.000000	0.000353
924.000000	0.000297
923.000000	0.000253
922.000000	0.000228
921.000000	0.000210
920.000000	0.000179
919.000000	0.000130
918.000000	0.000084
917.000000	0.000070
916.000000	0.000084
915.000000	0.000095
914.000000	0.000072
913.000000	0.000026
912.000000	-0.000005
911.000000	-0.000002
910.000000	0.000012
909.000000	-0.000004
908.000000	-0.000066
907.000000	-0.000153
906.000000	-0.000232
905.000000	-0.000281
904.000000	-0.000303
903.000000	-0.000314
902.000000	-0.000329
901.000000	-0.000352
900.000000	-0.000382
899.000000	-0.000422
898.000000	-0.000471
897.000000	-0.000531
896.000000	-0.000600
895.000000	-0.000678
894.000000	-0.000753
893.000000	-0.000802
892.000000	-0.000807
891.000000	-0.000784
890.000000	-0.000767
889.000000	-0.000774
888.000000	-0.000784
887.000000	-0.000754
886.000000	-0.000663
885.000000	-0.000514
884.000000	-0.000328
883.000000	-0.000127
882.000000	0.000078
881.000000	0.000289
880.000000	0.000509
879.000000	0.000719
878.000000	0.000887
877.000000	0.001001
876.000000	0.001083
875.000000	0.001166
874.000000	0.001240
873.000000	0.001267
872.000000	0.001208
871.000000	0.001059
870.000000	0.000843
869.000000	0.000593
868.000000	0.000342
867.000000	0.000120
866.000000	-0.000058
865.000000	-0.000188
864.000000	-0.000278
863.000000	-0.000349
862.000000	-0.000430
861.000000	-0.000540
860.000000	-0.000660
859.000000	-0.000745
858.000000	-0.000769
857.000000	-0.000748
856.000000	-0.000726
855.000000	-0.000736
854.000000	-0.000780
853.000000	-0.000838
852.000000	-0.000875
851.000000	-0.000864
850.000000	-0.000815
849.000000	-0.000763
848.000000	-0.000739
847.000000	-0.000735
846.000000	-0.000713
845.000000	-0.000648
844.000000	-0.000556
843.000000	-0.000474
842.000000	-0.000420
841.000000	-0.000373
840.000000	-0.000294
839.000000	-0.000168
838.000000	-0.000017
837.000000	0.000130
836.000000	0.000267
835.000000	0.000417
834.000000	0.000594
833.000000	0.000780
832.000000	0.000946
831.000000	0.001079
830.000000	0.001195
829.000000	0.001302
828.000000	0.001386
827.000000	0.001424
826.000000	0.001431
825.000000	0.001459
824.000000	0.001552
823.000000	0.001693
822.000000	0.001816
821.000000	0.001859
820.000000	0.001806
819.000000	0.001682
818.000000	0.001528
817.000000	0.001378
816.000000	0.001241
815.000000	0.001111
814.000000	0.000977
813.000000	0.000839
812.000000	0.000709
811.000000	0.000588
810.000000	0.000462
809.000000	0.000317
808.000000	0.000171
807.000000	0.000071
806.000000	0.000047
805.000000	0.000087
804.000000	0.000138
803.000000	0.000154
802.000000	0.000120
801.000000	0.000056
800.000000	-0.000005
799.000000	-0.000037
798.000000	-0.000033
797.000000	-0.000008
796.000000	0.000026
795.000000	0.000063
794.000000	0.000107
793.000000	0.000166
792.000000	0.000240
791.000000	0.000321
790.000000	0.000401
789.000000	0.000475
788.000000	0.000541
787.000000	0.000586
786.000000	0.000600
785.000000	0.000602
784.000000	0.000633
783.000000	0.000710
782.000000	0.000798
781.000000	0.000852
780.000000	0.000871
779.000000	0.000892
778.000000	0.000936
777.000000	0.000975
776.000000	0.000979
775.000000	0.000951
774.000000	0.000924
773.000000	0.000916
772.000000	0.000924
771.000000	0.000937
770.000000	0.000948
769.000000	0.000942
768.000000	0.000914
767.000000	0.000883
766.000000	0.000883
765.000000	0.000927
764.000000	0.000995
763.000000	0.001047
762.000000	0.001060
761.000000	0.001036
760.000000	0.000992
759.000000	0.000951
758.000000	0.000927
757.000000	0.000918
756.000000	0.000917
755.000000	0.000919
754.000000	0.000925
753.000000	0.000927
752.000000	0.000905
751.000000	0.000858
750.000000	0.000803
749.000000	0.000772
748.000000	0.000771
747.000000	0.000779
746.000000	0.000762
745.000000	0.000715
744.000000	0.000665
743.000000	0.000644
742.000000	0.000656
741.000000	0.000666
740.000000	0.000644
739.000000	0.000590
738.000000	0.000528
737.000000	0.000471
736.000000	0.000410
735.000000	0.000339
734.000000	0.000268
733.000000	0.000223
732.000000	0.000214
731.000000	0.000219
730.000000	0.000202
729.000000	0.000151
728.000000	0.000085
727.000000	0.000030
726.000000	-0.000011
725.000000	-0.000045
724.000000	-0.000084
723.000000	-0.000130
722.000000	-0.000179
721.000000	-0.000218
720.000000	-0.000226
719.000000	-0.000185
718.000000	-0.000097
717.000000	0.000013
716.000000	0.000133
715.000000	0.000273
714.000000	0.000434
713.000000	0.000579
712.000000	0.000645
711.000000	0.000595
710.000000	0.000450
709.000000	0.000279
708.000000	0.000155
707.000000	0.000100
706.000000	0.000090
705.000000	0.000088
704.000000	0.000075
703.000000	0.000051
702.000000	0.000008
701.000000	-0.000071
700.000000	-0.000183
699.000000	-0.000293
698.000000	-0.000357
697.000000	-0.000363
696.000000	-0.000344
695.000000	-0.000344
694.000000	-0.000376
693.000000	-0.000417
692.000000	-0.000428
691.000000	-0.000410
690.000000	-0.000406
689.000000	-0.000460
688.000000	-0.000562
687.000000	-0.000656
686.000000	-0.000716
685.000000	-0.000767
684.000000	-0.000817
683.000000	-0.000844
682.000000	-0.000833
681.000000	-0.000812
680.000000	-0.000794
679.000000	-0.000763
678.000000	-0.000714
677.000000	-0.000661
676.000000	-0.000601
675.000000	-0.000516
674.000000	-0.000407
673.000000	-0.000341
672.000000	-0.000392
671.000000	-0.000579
670.000000	-0.000867
669.000000	-0.001147
668.000000	-0.001063
667.000000	-0.000557
666.000000	-0.000263
665.000000	-0.000241
664.000000	-0.000289
663.000000	-0.000385
662.000000	-0.000522
661.000000	-0.000632
660.000000	-0.000678
659.000000	-0.000705
658.000000	-0.000755
657.000000	-0.000770
656.000000	-0.000704
655.000000	-0.000617
654.000000	-0.000583
653.000000	-0.000572
652.000000	-0.000527
651.000000	-0.000461
650.000000	-0.000420
649.000000	-0.000398
648.000000	-0.000373
647.000000	-0.000369
646.000000	-0.000401
645.000000	-0.000434
644.000000	-0.000419
643.000000	-0.000355
642.000000	-0.000279
641.000000	-0.000216
640.000000	-0.000182
639.000000	-0.000184
638.000000	-0.000195
637.000000	-0.000157
636.000000	-0.000059
635.000000	0.000042
634.000000	0.000099
633.000000	0.000132
632.000000	0.000175
631.000000	0.000221
630.000000	0.000249
629.000000	0.000275
628.000000	0.000323
627.000000	0.000379
626.000000	0.000417
625.000000	0.000445
624.000000	0.000493
623.000000	0.000565
622.000000	0.000638
621.000000	0.000685
620.000000	0.000683
619.000000	0.000628
618.000000	0.000540
617.000000	0.000457
616.000000	0.000416
615.000000	0.000448
614.000000	0.000570
613.000000	0.000754
612.000000	0.000912
611.000000	0.000955
610.000000	0.000897
609.000000	0.000838
608.000000	0.000841
607.000000	0.000874
606.000000	0.000892
605.000000	0.000904
604.000000	0.000936
603.000000	0.000985
602.000000	0.001022
601.000000	0.001031
600.000000	0.001005
599.000000	0.000953
598.000000	0.000921
597.000000	0.000951
596.000000	0.001015
595.000000	0.001015
594.000000	0.000902
593.000000	0.000737
592.000000	0.000612
591.000000	0.000545
590.000000	0.000498
589.000000	0.000446
588.000000	0.000395
587.000000	0.000335
586.000000	0.000263
585.000000	0.000213
584.000000	0.000225
583.000000	0.000290
582.000000	0.000344
581.000000	0.000325
580.000000	0.000219
579.000000	0.000061
578.000000	-0.000084
577.000000	-0.000156
576.000000	-0.000143
575.000000	-0.000096
574.000000	-0.000080
573.000000	-0.000121
572.000000	-0.000199
571.000000	-0.000270
570.000000	-0.000285
569.000000	-0.000230
568.000000	-0.000160
567.000000	-0.000153
566.000000	-0.000226
565.000000	-0.000320
564.000000	-0.000374
563.000000	-0.000376
562.000000	-0.000335
561.000000	-0.000267
560.000000	-0.000220
559.000000	-0.000242
558.000000	-0.000324
557.000000	-0.000395
556.000000	-0.000416
555.000000	-0.000417
554.000000	-0.000432
553.000000	-0.000453
552.000000	-0.000482
551.000000	-0.000556
550.000000	-0.000683
549.000000	-0.000786
548.000000	-0.000797
547.000000	-0.000732
546.000000	-0.000651
545.000000	-0.000584
544.000000	-0.000549
543.000000	-0.000580
542.000000	-0.000676
541.000000	-0.000772
540.000000	-0.000807
539.000000	-0.000801
538.000000	-0.000797
537.000000	-0.000796
536.000000	-0.000782
535.000000	-0.000785
534.000000	-0.000832
533.000000	-0.000876
532.000000	-0.000853
531.000000	-0.000764
530.000000	-0.000657
529.000000	-0.000532
528.000000	-0.000364
527.000000	-0.000184
526.000000	-0.000075
525.000000	-0.000074
524.000000	-0.000150
523.000000	-0.000277
522.000000	-0.000447
521.000000	-0.000626
520.000000	-0.000761
519.000000	-0.000827
518.000000	-0.000822
517.000000	-0.000746
516.000000	-0.000633
515.000000	-0.000591
514.000000	-0.000688
513.000000	-0.000849
512.000000	-0.000923
511.000000	-0.000865
510.000000	-0.000772
509.000000	-0.000742
508.000000	-0.000744
507.000000	-0.000680
506.000000	-0.000517
505.000000	-0.000317
504.000000	-0.000167
503.000000	-0.000122
502.000000	-0.000171
501.000000	-0.000219
500.000000	-0.000155
499.000000	0.000072
498.000000	0.000447
497.000000	0.000916
496.000000	0.001397
495.000000	0.001793
494.000000	0.002051
493.000000	0.002195
492.000000	0.002300
491.000000	0.002386
490.000000	0.002382
489.000000	0.002191
488.000000	0.001799
487.000000	0.001336
486.000000	0.001028
485.000000	0.001031
484.000000	0.001254
483.000000	0.001425
482.000000	0.001355
481.000000	0.001070
480.000000	0.000693
479.000000	0.000308
478.000000	-0.000026
477.000000	-0.000268
476.000000	-0.000460
475.000000	-0.000694
474.000000	-0.000930
473.000000	-0.000955
472.000000	-0.000665
471.000000	-0.000310
470.000000	-0.000194
469.000000	-0.000303
468.000000	-0.000415
467.000000	-0.000424
466.000000	-0.000385
465.000000	-0.000339
464.000000	-0.000246
463.000000	-0.000133
462.000000	-0.000118
461.000000	-0.000266
460.000000	-0.000535
459.000000	-0.000867
458.000000	-0.001171
457.000000	-0.001252
456.000000	-0.001004
455.000000	-0.000615
454.000000	-0.000396
453.000000	-0.000491
452.000000	-0.000757
451.000000	-0.000931
450.000000	-0.000929
