PE IR       SUBTECH     SPECTRUM    ASCII       PEDS        4.00        
   -1
P12-Noir004_1.ASC
23/06/09
11:38:53.00
23/06/09
11:56:02.00
uco
Sample 004 By uco Date Friday, June 09 2023
450.000000
#HDR
-1
-1
#GR
cm-1
A
1.0
0.0
4000.000000
-1.000000
3551
8
0.010288
-0.000028
#DATA
4000.000000	0.000822
3999.000000	0.000843
3998.000000	0.000859
3997.000000	0.000861
3996.000000	0.000848
3995.000000	0.000827
3994.000000	0.000809
3993.000000	0.000801
3992.000000	0.000807
3991.000000	0.000823
3990.000000	0.000844
3989.000000	0.000863
3988.000000	0.000873
3987.000000	0.000873
3986.000000	0.000865
3985.000000	0.000860
3984.000000	0.000865
3983.000000	0.000883
3982.000000	0.000904
3981.000000	0.000918
3980.000000	0.000916
3979.000000	0.000899
3978.000000	0.000873
3977.000000	0.000849
3976.000000	0.000834
3975.000000	0.000834
3974.000000	0.000845
3973.000000	0.000859
3972.000000	0.000870
3971.000000	0.000875
3970.000000	0.000876
3969.000000	0.000879
3968.000000	0.000882
3967.000000	0.000881
3966.000000	0.000877
3965.000000	0.000874
3964.000000	0.000875
3963.000000	0.000877
3962.000000	0.000874
3961.000000	0.000865
3960.000000	0.000856
3959.000000	0.000858
3958.000000	0.000874
3957.000000	0.000896
3956.000000	0.000911
3955.000000	0.000913
3954.000000	0.000903
3953.000000	0.000895
3952.000000	0.000894
3951.000000	0.000899
3950.000000	0.000903
3949.000000	0.000898
3948.000000	0.000890
3947.000000	0.000893
3946.000000	0.000912
3945.000000	0.000938
3944.000000	0.000957
3943.000000	0.000963
3942.000000	0.000960
3941.000000	0.000956
3940.000000	0.000954
3939.000000	0.000952
3938.000000	0.000944
3937.000000	0.000931
3936.000000	0.000912
3935.000000	0.000895
3934.000000	0.000888
3933.000000	0.000897
3932.000000	0.000919
3931.000000	0.000939
3930.000000	0.000943
3929.000000	0.000934
3928.000000	0.000920
3927.000000	0.000913
3926.000000	0.000919
3925.000000	0.000940
3924.000000	0.000972
3923.000000	0.000999
3922.000000	0.001008
3921.000000	0.001003
3920.000000	0.000996
3919.000000	0.000997
3918.000000	0.001004
3917.000000	0.001006
3916.000000	0.000996
3915.000000	0.000978
3914.000000	0.000959
3913.000000	0.000943
3912.000000	0.000935
3911.000000	0.000932
3910.000000	0.000930
3909.000000	0.000922
3908.000000	0.000910
3907.000000	0.000897
3906.000000	0.000885
3905.000000	0.000878
3904.000000	0.000879
3903.000000	0.000893
3902.000000	0.000914
3901.000000	0.000936
3900.000000	0.000953
3899.000000	0.000962
3898.000000	0.000962
3897.000000	0.000951
3896.000000	0.000934
3895.000000	0.000915
3894.000000	0.000900
3893.000000	0.000885
3892.000000	0.000873
3891.000000	0.000869
3890.000000	0.000878
3889.000000	0.000894
3888.000000	0.000904
3887.000000	0.000896
3886.000000	0.000881
3885.000000	0.000878
3884.000000	0.000891
3883.000000	0.000906
3882.000000	0.000905
3881.000000	0.000886
3880.000000	0.000866
3879.000000	0.000862
3878.000000	0.000878
3877.000000	0.000901
3876.000000	0.000912
3875.000000	0.000910
3874.000000	0.000909
3873.000000	0.000916
3872.000000	0.000918
3871.000000	0.000905
3870.000000	0.000899
3869.000000	0.000917
3868.000000	0.000947
3867.000000	0.000961
3866.000000	0.000953
3865.000000	0.000938
3864.000000	0.000931
3863.000000	0.000925
3862.000000	0.000911
3861.000000	0.000895
3860.000000	0.000887
3859.000000	0.000895
3858.000000	0.000924
3857.000000	0.000973
3856.000000	0.001020
3855.000000	0.001026
3854.000000	0.001010
3853.000000	0.001014
3852.000000	0.001022
3851.000000	0.001013
3850.000000	0.000993
3849.000000	0.000971
3848.000000	0.000956
3847.000000	0.000947
3846.000000	0.000939
3845.000000	0.000931
3844.000000	0.000924
3843.000000	0.000923
3842.000000	0.000928
3841.000000	0.000932
3840.000000	0.000929
3839.000000	0.000926
3838.000000	0.000931
3837.000000	0.000943
3836.000000	0.000953
3835.000000	0.000957
3834.000000	0.000958
3833.000000	0.000955
3832.000000	0.000950
3831.000000	0.000950
3830.000000	0.000957
3829.000000	0.000964
3828.000000	0.000958
3827.000000	0.000940
3826.000000	0.000928
3825.000000	0.000938
3824.000000	0.000965
3823.000000	0.000975
3822.000000	0.000954
3821.000000	0.000928
3820.000000	0.000924
3819.000000	0.000941
3818.000000	0.000955
3817.000000	0.000942
3816.000000	0.000918
3815.000000	0.000910
3814.000000	0.000915
3813.000000	0.000915
3812.000000	0.000905
3811.000000	0.000899
3810.000000	0.000900
3809.000000	0.000892
3808.000000	0.000857
3807.000000	0.000815
3806.000000	0.000801
3805.000000	0.000825
3804.000000	0.000865
3803.000000	0.000896
3802.000000	0.000917
3801.000000	0.000945
3800.000000	0.000970
3799.000000	0.000980
3798.000000	0.000971
3797.000000	0.000954
3796.000000	0.000946
3795.000000	0.000949
3794.000000	0.000949
3793.000000	0.000935
3792.000000	0.000913
3791.000000	0.000894
3790.000000	0.000881
3789.000000	0.000869
3788.000000	0.000861
3787.000000	0.000864
3786.000000	0.000883
3785.000000	0.000910
3784.000000	0.000934
3783.000000	0.000948
3782.000000	0.000946
3781.000000	0.000923
3780.000000	0.000889
3779.000000	0.000867
3778.000000	0.000872
3777.000000	0.000893
3776.000000	0.000913
3775.000000	0.000923
3774.000000	0.000929
3773.000000	0.000935
3772.000000	0.000940
3771.000000	0.000946
3770.000000	0.000965
3769.000000	0.000990
3768.000000	0.001002
3767.000000	0.000988
3766.000000	0.000950
3765.000000	0.000903
3764.000000	0.000869
3763.000000	0.000854
3762.000000	0.000855
3761.000000	0.000869
3760.000000	0.000895
3759.000000	0.000921
3758.000000	0.000934
3757.000000	0.000933
3756.000000	0.000930
3755.000000	0.000933
3754.000000	0.000933
3753.000000	0.000926
3752.000000	0.000924
3751.000000	0.000942
3750.000000	0.000967
3749.000000	0.000978
3748.000000	0.000979
3747.000000	0.000981
3746.000000	0.000961
3745.000000	0.000924
3744.000000	0.000911
3743.000000	0.000909
3742.000000	0.000889
3741.000000	0.000853
3740.000000	0.000826
3739.000000	0.000824
3738.000000	0.000838
3737.000000	0.000846
3736.000000	0.000846
3735.000000	0.000847
3734.000000	0.000840
3733.000000	0.000816
3732.000000	0.000789
3731.000000	0.000784
3730.000000	0.000815
3729.000000	0.000870
3728.000000	0.000922
3727.000000	0.000955
3726.000000	0.000972
3725.000000	0.000975
3724.000000	0.000967
3723.000000	0.000946
3722.000000	0.000914
3721.000000	0.000875
3720.000000	0.000841
3719.000000	0.000821
3718.000000	0.000817
3717.000000	0.000826
3716.000000	0.000840
3715.000000	0.000852
3714.000000	0.000861
3713.000000	0.000882
3712.000000	0.000930
3711.000000	0.000990
3710.000000	0.001024
3709.000000	0.001014
3708.000000	0.000972
3707.000000	0.000923
3706.000000	0.000882
3705.000000	0.000851
3704.000000	0.000825
3703.000000	0.000805
3702.000000	0.000797
3701.000000	0.000806
3700.000000	0.000822
3699.000000	0.000836
3698.000000	0.000840
3697.000000	0.000841
3696.000000	0.000854
3695.000000	0.000888
3694.000000	0.000936
3693.000000	0.000974
3692.000000	0.000987
3691.000000	0.000963
3690.000000	0.000909
3689.000000	0.000852
3688.000000	0.000817
3687.000000	0.000809
3686.000000	0.000813
3685.000000	0.000814
3684.000000	0.000816
3683.000000	0.000831
3682.000000	0.000858
3681.000000	0.000880
3680.000000	0.000890
3679.000000	0.000901
3678.000000	0.000909
3677.000000	0.000892
3676.000000	0.000862
3675.000000	0.000857
3674.000000	0.000875
3673.000000	0.000894
3672.000000	0.000893
3671.000000	0.000872
3670.000000	0.000864
3669.000000	0.000884
3668.000000	0.000908
3667.000000	0.000921
3666.000000	0.000923
3665.000000	0.000926
3664.000000	0.000937
3663.000000	0.000956
3662.000000	0.000970
3661.000000	0.000971
3660.000000	0.000967
3659.000000	0.000968
3658.000000	0.000970
3657.000000	0.000961
3656.000000	0.000942
3655.000000	0.000930
3654.000000	0.000933
3653.000000	0.000944
3652.000000	0.000946
3651.000000	0.000945
3650.000000	0.000974
3649.000000	0.001039
3648.000000	0.001103
3647.000000	0.001132
3646.000000	0.001125
3645.000000	0.001097
3644.000000	0.001068
3643.000000	0.001053
3642.000000	0.001055
3641.000000	0.001064
3640.000000	0.001073
3639.000000	0.001086
3638.000000	0.001115
3637.000000	0.001152
3636.000000	0.001178
3635.000000	0.001181
3634.000000	0.001171
3633.000000	0.001174
3632.000000	0.001203
3631.000000	0.001249
3630.000000	0.001297
3629.000000	0.001343
3628.000000	0.001369
3627.000000	0.001359
3626.000000	0.001327
3625.000000	0.001297
3624.000000	0.001282
3623.000000	0.001285
3622.000000	0.001293
3621.000000	0.001292
3620.000000	0.001287
3619.000000	0.001298
3618.000000	0.001330
3617.000000	0.001372
3616.000000	0.001416
3615.000000	0.001458
3614.000000	0.001497
3613.000000	0.001529
3612.000000	0.001550
3611.000000	0.001568
3610.000000	0.001597
3609.000000	0.001644
3608.000000	0.001701
3607.000000	0.001739
3606.000000	0.001741
3605.000000	0.001710
3604.000000	0.001668
3603.000000	0.001637
3602.000000	0.001622
3601.000000	0.001617
3600.000000	0.001615
3599.000000	0.001623
3598.000000	0.001648
3597.000000	0.001691
3596.000000	0.001745
3595.000000	0.001797
3594.000000	0.001834
3593.000000	0.001849
3592.000000	0.001853
3591.000000	0.001862
3590.000000	0.001885
3589.000000	0.001915
3588.000000	0.001949
3587.000000	0.001983
3586.000000	0.002006
3585.000000	0.002017
3584.000000	0.002026
3583.000000	0.002046
3582.000000	0.002078
3581.000000	0.002110
3580.000000	0.002134
3579.000000	0.002154
3578.000000	0.002177
3577.000000	0.002203
3576.000000	0.002221
3575.000000	0.002226
3574.000000	0.002220
3573.000000	0.002212
3572.000000	0.002214
3571.000000	0.002233
3570.000000	0.002265
3569.000000	0.002295
3568.000000	0.002318
3567.000000	0.002348
3566.000000	0.002391
3565.000000	0.002444
3564.000000	0.002504
3563.000000	0.002567
3562.000000	0.002628
3561.000000	0.002671
3560.000000	0.002690
3559.000000	0.002686
3558.000000	0.002673
3557.000000	0.002658
3556.000000	0.002649
3555.000000	0.002656
3554.000000	0.002692
3553.000000	0.002757
3552.000000	0.002838
3551.000000	0.002912
3550.000000	0.002962
3549.000000	0.002983
3548.000000	0.002987
3547.000000	0.002992
3546.000000	0.003013
3545.000000	0.003048
3544.000000	0.003090
3543.000000	0.003132
3542.000000	0.003166
3541.000000	0.003186
3540.000000	0.003193
3539.000000	0.003194
3538.000000	0.003204
3537.000000	0.003230
3536.000000	0.003270
3535.000000	0.003314
3534.000000	0.003345
3533.000000	0.003352
3532.000000	0.003336
3531.000000	0.003312
3530.000000	0.003294
3529.000000	0.003289
3528.000000	0.003300
3527.000000	0.003325
3526.000000	0.003357
3525.000000	0.003386
3524.000000	0.003408
3523.000000	0.003425
3522.000000	0.003437
3521.000000	0.003443
3520.000000	0.003451
3519.000000	0.003469
3518.000000	0.003495
3517.000000	0.003513
3516.000000	0.003512
3515.000000	0.003499
3514.000000	0.003487
3513.000000	0.003485
3512.000000	0.003492
3511.000000	0.003511
3510.000000	0.003544
3509.000000	0.003581
3508.000000	0.003606
3507.000000	0.003612
3506.000000	0.003601
3505.000000	0.003585
3504.000000	0.003576
3503.000000	0.003584
3502.000000	0.003605
3501.000000	0.003624
3500.000000	0.003634
3499.000000	0.003634
3498.000000	0.003626
3497.000000	0.003613
3496.000000	0.003599
3495.000000	0.003586
3494.000000	0.003580
3493.000000	0.003581
3492.000000	0.003591
3491.000000	0.003610
3490.000000	0.003636
3489.000000	0.003661
3488.000000	0.003683
3487.000000	0.003703
3486.000000	0.003724
3485.000000	0.003744
3484.000000	0.003763
3483.000000	0.003785
3482.000000	0.003813
3481.000000	0.003840
3480.000000	0.003856
3479.000000	0.003863
3478.000000	0.003868
3477.000000	0.003876
3476.000000	0.003883
3475.000000	0.003883
3474.000000	0.003871
3473.000000	0.003847
3472.000000	0.003822
3471.000000	0.003816
3470.000000	0.003838
3469.000000	0.003882
3468.000000	0.003925
3467.000000	0.003951
3466.000000	0.003957
3465.000000	0.003950
3464.000000	0.003946
3463.000000	0.003954
3462.000000	0.003972
3461.000000	0.003995
3460.000000	0.004013
3459.000000	0.004022
3458.000000	0.004020
3457.000000	0.004003
3456.000000	0.003982
3455.000000	0.003970
3454.000000	0.003975
3453.000000	0.003990
3452.000000	0.004010
3451.000000	0.004040
3450.000000	0.004086
3449.000000	0.004142
3448.000000	0.004193
3447.000000	0.004229
3446.000000	0.004249
3445.000000	0.004262
3444.000000	0.004276
3443.000000	0.004295
3442.000000	0.004316
3441.000000	0.004340
3440.000000	0.004371
3439.000000	0.004412
3438.000000	0.004457
3437.000000	0.004490
3436.000000	0.004504
3435.000000	0.004506
3434.000000	0.004509
3433.000000	0.004515
3432.000000	0.004526
3431.000000	0.004543
3430.000000	0.004567
3429.000000	0.004594
3428.000000	0.004618
3427.000000	0.004640
3426.000000	0.004664
3425.000000	0.004693
3424.000000	0.004723
3423.000000	0.004751
3422.000000	0.004772
3421.000000	0.004787
3420.000000	0.004805
3419.000000	0.004836
3418.000000	0.004881
3417.000000	0.004932
3416.000000	0.004981
3415.000000	0.005026
3414.000000	0.005064
3413.000000	0.005096
3412.000000	0.005123
3411.000000	0.005148
3410.000000	0.005175
3409.000000	0.005206
3408.000000	0.005248
3407.000000	0.005307
3406.000000	0.005376
3405.000000	0.005430
3404.000000	0.005449
3403.000000	0.005435
3402.000000	0.005409
3401.000000	0.005394
3400.000000	0.005409
3399.000000	0.005456
3398.000000	0.005518
3397.000000	0.005563
3396.000000	0.005576
3395.000000	0.005564
3394.000000	0.005546
3393.000000	0.005533
3392.000000	0.005530
3391.000000	0.005541
3390.000000	0.005564
3389.000000	0.005588
3388.000000	0.005599
3387.000000	0.005598
3386.000000	0.005597
3385.000000	0.005606
3384.000000	0.005620
3383.000000	0.005625
3382.000000	0.005612
3381.000000	0.005588
3380.000000	0.005571
3379.000000	0.005577
3378.000000	0.005611
3377.000000	0.005658
3376.000000	0.005700
3375.000000	0.005727
3374.000000	0.005740
3373.000000	0.005743
3372.000000	0.005738
3371.000000	0.005726
3370.000000	0.005708
3369.000000	0.005689
3368.000000	0.005675
3367.000000	0.005676
3366.000000	0.005690
3365.000000	0.005707
3364.000000	0.005717
3363.000000	0.005716
3362.000000	0.005705
3361.000000	0.005683
3360.000000	0.005653
3359.000000	0.005623
3358.000000	0.005605
3357.000000	0.005602
3356.000000	0.005607
3355.000000	0.005609
3354.000000	0.005601
3353.000000	0.005589
3352.000000	0.005583
3351.000000	0.005589
3350.000000	0.005601
3349.000000	0.005610
3348.000000	0.005616
3347.000000	0.005628
3346.000000	0.005648
3345.000000	0.005664
3344.000000	0.005667
3343.000000	0.005658
3342.000000	0.005646
3341.000000	0.005638
3340.000000	0.005638
3339.000000	0.005645
3338.000000	0.005655
3337.000000	0.005659
3336.000000	0.005653
3335.000000	0.005635
3334.000000	0.005611
3333.000000	0.005589
3332.000000	0.005580
3331.000000	0.005589
3330.000000	0.005608
3329.000000	0.005620
3328.000000	0.005623
3327.000000	0.005624
3326.000000	0.005629
3325.000000	0.005633
3324.000000	0.005635
3323.000000	0.005636
3322.000000	0.005636
3321.000000	0.005631
3320.000000	0.005621
3319.000000	0.005617
3318.000000	0.005624
3317.000000	0.005630
3316.000000	0.005619
3315.000000	0.005593
3314.000000	0.005567
3313.000000	0.005554
3312.000000	0.005552
3311.000000	0.005549
3310.000000	0.005534
3309.000000	0.005506
3308.000000	0.005472
3307.000000	0.005444
3306.000000	0.005426
3305.000000	0.005418
3304.000000	0.005418
3303.000000	0.005431
3302.000000	0.005452
3301.000000	0.005472
3300.000000	0.005484
3299.000000	0.005486
3298.000000	0.005482
3297.000000	0.005476
3296.000000	0.005468
3295.000000	0.005461
3294.000000	0.005453
3293.000000	0.005437
3292.000000	0.005419
3291.000000	0.005408
3290.000000	0.005409
3289.000000	0.005417
3288.000000	0.005426
3287.000000	0.005434
3286.000000	0.005437
3285.000000	0.005428
3284.000000	0.005409
3283.000000	0.005394
3282.000000	0.005398
3281.000000	0.005419
3280.000000	0.005440
3279.000000	0.005446
3278.000000	0.005428
3277.000000	0.005394
3276.000000	0.005359
3275.000000	0.005346
3274.000000	0.005358
3273.000000	0.005373
3272.000000	0.005367
3271.000000	0.005336
3270.000000	0.005301
3269.000000	0.005280
3268.000000	0.005284
3267.000000	0.005304
3266.000000	0.005327
3265.000000	0.005333
3264.000000	0.005316
3263.000000	0.005286
3262.000000	0.005262
3261.000000	0.005256
3260.000000	0.005260
3259.000000	0.005263
3258.000000	0.005259
3257.000000	0.005246
3256.000000	0.005229
3255.000000	0.005216
3254.000000	0.005213
3253.000000	0.005220
3252.000000	0.005228
3251.000000	0.005228
3250.000000	0.005214
3249.000000	0.005184
3248.000000	0.005146
3247.000000	0.005116
3246.000000	0.005109
3245.000000	0.005127
3244.000000	0.005159
3243.000000	0.005190
3242.000000	0.005205
3241.000000	0.005200
3240.000000	0.005181
3239.000000	0.005159
3238.000000	0.005147
3237.000000	0.005143
3236.000000	0.005139
3235.000000	0.005122
3234.000000	0.005092
3233.000000	0.005060
3232.000000	0.005040
3231.000000	0.005035
3230.000000	0.005039
3229.000000	0.005043
3228.000000	0.005044
3227.000000	0.005045
3226.000000	0.005048
3225.000000	0.005051
3224.000000	0.005053
3223.000000	0.005053
3222.000000	0.005050
3221.000000	0.005044
3220.000000	0.005041
3219.000000	0.005044
3218.000000	0.005051
3217.000000	0.005052
3216.000000	0.005040
3215.000000	0.005017
3214.000000	0.004991
3213.000000	0.004970
3212.000000	0.004960
3211.000000	0.004960
3210.000000	0.004963
3209.000000	0.004965
3208.000000	0.004967
3207.000000	0.004970
3206.000000	0.004975
3205.000000	0.004974
3204.000000	0.004967
3203.000000	0.004955
3202.000000	0.004936
3201.000000	0.004905
3200.000000	0.004864
3199.000000	0.004828
3198.000000	0.004812
3197.000000	0.004816
3196.000000	0.004833
3195.000000	0.004850
3194.000000	0.004864
3193.000000	0.004868
3192.000000	0.004861
3191.000000	0.004848
3190.000000	0.004840
3189.000000	0.004840
3188.000000	0.004846
3187.000000	0.004846
3186.000000	0.004831
3185.000000	0.004803
3184.000000	0.004775
3183.000000	0.004760
3182.000000	0.004761
3181.000000	0.004771
3180.000000	0.004782
3179.000000	0.004794
3178.000000	0.004803
3177.000000	0.004798
3176.000000	0.004774
3175.000000	0.004737
3174.000000	0.004707
3173.000000	0.004697
3172.000000	0.004709
3171.000000	0.004732
3170.000000	0.004750
3169.000000	0.004756
3168.000000	0.004747
3167.000000	0.004726
3166.000000	0.004691
3165.000000	0.004646
3164.000000	0.004603
3163.000000	0.004578
3162.000000	0.004577
3161.000000	0.004593
3160.000000	0.004611
3159.000000	0.004620
3158.000000	0.004621
3157.000000	0.004617
3156.000000	0.004614
3155.000000	0.004611
3154.000000	0.004603
3153.000000	0.004590
3152.000000	0.004580
3151.000000	0.004578
3150.000000	0.004579
3149.000000	0.004573
3148.000000	0.004559
3147.000000	0.004545
3146.000000	0.004532
3145.000000	0.004508
3144.000000	0.004466
3143.000000	0.004412
3142.000000	0.004364
3141.000000	0.004337
3140.000000	0.004338
3139.000000	0.004360
3138.000000	0.004386
3137.000000	0.004399
3136.000000	0.004392
3135.000000	0.004372
3134.000000	0.004353
3133.000000	0.004342
3132.000000	0.004343
3131.000000	0.004351
3130.000000	0.004359
3129.000000	0.004358
3128.000000	0.004348
3127.000000	0.004339
3126.000000	0.004332
3125.000000	0.004323
3124.000000	0.004310
3123.000000	0.004303
3122.000000	0.004312
3121.000000	0.004329
3120.000000	0.004337
3119.000000	0.004326
3118.000000	0.004308
3117.000000	0.004296
3116.000000	0.004295
3115.000000	0.004296
3114.000000	0.004287
3113.000000	0.004269
3112.000000	0.004248
3111.000000	0.004234
3110.000000	0.004226
3109.000000	0.004216
3108.000000	0.004198
3107.000000	0.004178
3106.000000	0.004168
3105.000000	0.004173
3104.000000	0.004188
3103.000000	0.004198
3102.000000	0.004194
3101.000000	0.004178
3100.000000	0.004162
3099.000000	0.004153
3098.000000	0.004142
3097.000000	0.004123
3096.000000	0.004104
3095.000000	0.004108
3094.000000	0.004147
3093.000000	0.004203
3092.000000	0.004247
3091.000000	0.004260
3090.000000	0.004244
3089.000000	0.004215
3088.000000	0.004184
3087.000000	0.004158
3086.000000	0.004139
3085.000000	0.004126
3084.000000	0.004117
3083.000000	0.004109
3082.000000	0.004098
3081.000000	0.004079
3080.000000	0.004055
3079.000000	0.004037
3078.000000	0.004029
3077.000000	0.004029
3076.000000	0.004037
3075.000000	0.004053
3074.000000	0.004078
3073.000000	0.004098
3072.000000	0.004101
3071.000000	0.004085
3070.000000	0.004063
3069.000000	0.004050
3068.000000	0.004049
3067.000000	0.004051
3066.000000	0.004047
3065.000000	0.004032
3064.000000	0.004009
3063.000000	0.003996
3062.000000	0.004002
3061.000000	0.004024
3060.000000	0.004039
3059.000000	0.004033
3058.000000	0.004007
3057.000000	0.003978
3056.000000	0.003962
3055.000000	0.003959
3054.000000	0.003958
3053.000000	0.003951
3052.000000	0.003940
3051.000000	0.003935
3050.000000	0.003943
3049.000000	0.003957
3048.000000	0.003963
3047.000000	0.003953
3046.000000	0.003929
3045.000000	0.003900
3044.000000	0.003876
3043.000000	0.003861
3042.000000	0.003855
3041.000000	0.003860
3040.000000	0.003870
3039.000000	0.003881
3038.000000	0.003883
3037.000000	0.003868
3036.000000	0.003838
3035.000000	0.003805
3034.000000	0.003779
3033.000000	0.003766
3032.000000	0.003764
3031.000000	0.003766
3030.000000	0.003768
3029.000000	0.003768
3028.000000	0.003766
3027.000000	0.003767
3026.000000	0.003779
3025.000000	0.003800
3024.000000	0.003823
3023.000000	0.003834
3022.000000	0.003825
3021.000000	0.003794
3020.000000	0.003751
3019.000000	0.003709
3018.000000	0.003682
3017.000000	0.003675
3016.000000	0.003682
3015.000000	0.003693
3014.000000	0.003699
3013.000000	0.003702
3012.000000	0.003707
3011.000000	0.003717
3010.000000	0.003724
3009.000000	0.003725
3008.000000	0.003717
3007.000000	0.003709
3006.000000	0.003704
3005.000000	0.003707
3004.000000	0.003720
3003.000000	0.003741
3002.000000	0.003762
3001.000000	0.003775
3000.000000	0.003777
2999.000000	0.003776
2998.000000	0.003778
2997.000000	0.003790
2996.000000	0.003809
2995.000000	0.003831
2994.000000	0.003848
2993.000000	0.003863
2992.000000	0.003878
2991.000000	0.003895
2990.000000	0.003904
2989.000000	0.003902
2988.000000	0.003895
2987.000000	0.003897
2986.000000	0.003915
2985.000000	0.003943
2984.000000	0.003973
2983.000000	0.004002
2982.000000	0.004028
2981.000000	0.004045
2980.000000	0.004054
2979.000000	0.004061
2978.000000	0.004080
2977.000000	0.004114
2976.000000	0.004161
2975.000000	0.004213
2974.000000	0.004267
2973.000000	0.004321
2972.000000	0.004370
2971.000000	0.004412
2970.000000	0.004449
2969.000000	0.004486
2968.000000	0.004529
2967.000000	0.004574
2966.000000	0.004612
2965.000000	0.004632
2964.000000	0.004634
2963.000000	0.004629
2962.000000	0.004633
2961.000000	0.004659
2960.000000	0.004699
2959.000000	0.004736
2958.000000	0.004755
2957.000000	0.004756
2956.000000	0.004751
2955.000000	0.004751
2954.000000	0.004752
2953.000000	0.004745
2952.000000	0.004730
2951.000000	0.004715
2950.000000	0.004710
2949.000000	0.004718
2948.000000	0.004738
2947.000000	0.004760
2946.000000	0.004778
2945.000000	0.004790
2944.000000	0.004808
2943.000000	0.004846
2942.000000	0.004902
2941.000000	0.004968
2940.000000	0.005039
2939.000000	0.005115
2938.000000	0.005188
2937.000000	0.005243
2936.000000	0.005272
2935.000000	0.005282
2934.000000	0.005288
2933.000000	0.005299
2932.000000	0.005318
2931.000000	0.005343
2930.000000	0.005374
2929.000000	0.005405
2928.000000	0.005427
2927.000000	0.005436
2926.000000	0.005429
2925.000000	0.005412
2924.000000	0.005393
2923.000000	0.005382
2922.000000	0.005376
2921.000000	0.005362
2920.000000	0.005334
2919.000000	0.005294
2918.000000	0.005248
2917.000000	0.005199
2916.000000	0.005149
2915.000000	0.005103
2914.000000	0.005059
2913.000000	0.005014
2912.000000	0.004969
2911.000000	0.004931
2910.000000	0.004902
2909.000000	0.004876
2908.000000	0.004848
2907.000000	0.004823
2906.000000	0.004804
2905.000000	0.004780
2904.000000	0.004738
2903.000000	0.004677
2902.000000	0.004614
2901.000000	0.004563
2900.000000	0.004524
2899.000000	0.004486
2898.000000	0.004445
2897.000000	0.004407
2896.000000	0.004385
2895.000000	0.004386
2894.000000	0.004401
2893.000000	0.004409
2892.000000	0.004397
2891.000000	0.004367
2890.000000	0.004332
2889.000000	0.004297
2888.000000	0.004258
2887.000000	0.004216
2886.000000	0.004181
2885.000000	0.004167
2884.000000	0.004169
2883.000000	0.004180
2882.000000	0.004194
2881.000000	0.004219
2880.000000	0.004260
2879.000000	0.004310
2878.000000	0.004357
2877.000000	0.004394
2876.000000	0.004419
2875.000000	0.004433
2874.000000	0.004436
2873.000000	0.004429
2872.000000	0.004418
2871.000000	0.004417
2870.000000	0.004430
2869.000000	0.004449
2868.000000	0.004455
2867.000000	0.004441
2866.000000	0.004414
2865.000000	0.004391
2864.000000	0.004381
2863.000000	0.004383
2862.000000	0.004393
2861.000000	0.004409
2860.000000	0.004433
2859.000000	0.004460
2858.000000	0.004484
2857.000000	0.004497
2856.000000	0.004495
2855.000000	0.004481
2854.000000	0.004462
2853.000000	0.004442
2852.000000	0.004415
2851.000000	0.004373
2850.000000	0.004305
2849.000000	0.004217
2848.000000	0.004129
2847.000000	0.004064
2846.000000	0.004033
2845.000000	0.004024
2844.000000	0.004015
2843.000000	0.003990
2842.000000	0.003955
2841.000000	0.003921
2840.000000	0.003892
2839.000000	0.003871
2838.000000	0.003854
2837.000000	0.003837
2836.000000	0.003812
2835.000000	0.003777
2834.000000	0.003744
2833.000000	0.003725
2832.000000	0.003719
2831.000000	0.003710
2830.000000	0.003687
2829.000000	0.003657
2828.000000	0.003638
2827.000000	0.003635
2826.000000	0.003637
2825.000000	0.003632
2824.000000	0.003617
2823.000000	0.003597
2822.000000	0.003579
2821.000000	0.003563
2820.000000	0.003548
2819.000000	0.003535
2818.000000	0.003524
2817.000000	0.003514
2816.000000	0.003503
2815.000000	0.003493
2814.000000	0.003488
2813.000000	0.003486
2812.000000	0.003480
2811.000000	0.003470
2810.000000	0.003464
2809.000000	0.003473
2808.000000	0.003491
2807.000000	0.003498
2806.000000	0.003486
2805.000000	0.003466
2804.000000	0.003460
2803.000000	0.003474
2802.000000	0.003497
2801.000000	0.003513
2800.000000	0.003512
2799.000000	0.003489
2798.000000	0.003450
2797.000000	0.003409
2796.000000	0.003379
2795.000000	0.003364
2794.000000	0.003356
2793.000000	0.003352
2792.000000	0.003353
2791.000000	0.003363
2790.000000	0.003376
2789.000000	0.003384
2788.000000	0.003383
2787.000000	0.003373
2786.000000	0.003357
2785.000000	0.003341
2784.000000	0.003335
2783.000000	0.003339
2782.000000	0.003346
2781.000000	0.003348
2780.000000	0.003344
2779.000000	0.003341
2778.000000	0.003347
2777.000000	0.003366
2776.000000	0.003393
2775.000000	0.003413
2774.000000	0.003412
2773.000000	0.003386
2772.000000	0.003350
2771.000000	0.003317
2770.000000	0.003292
2769.000000	0.003272
2768.000000	0.003259
2767.000000	0.003259
2766.000000	0.003268
2765.000000	0.003275
2764.000000	0.003272
2763.000000	0.003265
2762.000000	0.003269
2761.000000	0.003290
2760.000000	0.003316
2759.000000	0.003328
2758.000000	0.003314
2757.000000	0.003282
2756.000000	0.003253
2755.000000	0.003244
2754.000000	0.003255
2753.000000	0.003274
2752.000000	0.003295
2751.000000	0.003313
2750.000000	0.003324
2749.000000	0.003318
2748.000000	0.003290
2747.000000	0.003251
2746.000000	0.003221
2745.000000	0.003212
2744.000000	0.003220
2743.000000	0.003231
2742.000000	0.003236
2741.000000	0.003235
2740.000000	0.003234
2739.000000	0.003238
2738.000000	0.003247
2737.000000	0.003258
2736.000000	0.003265
2735.000000	0.003263
2734.000000	0.003252
2733.000000	0.003234
2732.000000	0.003219
2731.000000	0.003213
2730.000000	0.003213
2729.000000	0.003214
2728.000000	0.003214
2727.000000	0.003216
2726.000000	0.003222
2725.000000	0.003230
2724.000000	0.003231
2723.000000	0.003222
2722.000000	0.003202
2721.000000	0.003178
2720.000000	0.003155
2719.000000	0.003139
2718.000000	0.003131
2717.000000	0.003131
2716.000000	0.003133
2715.000000	0.003134
2714.000000	0.003134
2713.000000	0.003141
2712.000000	0.003161
2711.000000	0.003189
2710.000000	0.003207
2709.000000	0.003202
2708.000000	0.003176
2707.000000	0.003149
2706.000000	0.003137
2705.000000	0.003141
2704.000000	0.003152
2703.000000	0.003161
2702.000000	0.003166
2701.000000	0.003166
2700.000000	0.003160
2699.000000	0.003149
2698.000000	0.003138
2697.000000	0.003126
2696.000000	0.003112
2695.000000	0.003094
2694.000000	0.003076
2693.000000	0.003064
2692.000000	0.003063
2691.000000	0.003077
2690.000000	0.003101
2689.000000	0.003125
2688.000000	0.003138
2687.000000	0.003136
2686.000000	0.003123
2685.000000	0.003107
2684.000000	0.003092
2683.000000	0.003079
2682.000000	0.003069
2681.000000	0.003062
2680.000000	0.003057
2679.000000	0.003059
2678.000000	0.003070
2677.000000	0.003088
2676.000000	0.003100
2675.000000	0.003104
2674.000000	0.003105
2673.000000	0.003109
2672.000000	0.003114
2671.000000	0.003114
2670.000000	0.003110
2669.000000	0.003107
2668.000000	0.003109
2667.000000	0.003113
2666.000000	0.003114
2665.000000	0.003116
2664.000000	0.003120
2663.000000	0.003127
2662.000000	0.003137
2661.000000	0.003152
2660.000000	0.003168
2659.000000	0.003177
2658.000000	0.003170
2657.000000	0.003147
2656.000000	0.003115
2655.000000	0.003085
2654.000000	0.003066
2653.000000	0.003061
2652.000000	0.003071
2651.000000	0.003088
2650.000000	0.003104
2649.000000	0.003114
2648.000000	0.003118
2647.000000	0.003118
2646.000000	0.003109
2645.000000	0.003087
2644.000000	0.003055
2643.000000	0.003027
2642.000000	0.003018
2641.000000	0.003027
2640.000000	0.003042
2639.000000	0.003048
2638.000000	0.003044
2637.000000	0.003036
2636.000000	0.003029
2635.000000	0.003023
2634.000000	0.003019
2633.000000	0.003019
2632.000000	0.003019
2631.000000	0.003009
2630.000000	0.002988
2629.000000	0.002962
2628.000000	0.002943
2627.000000	0.002936
2626.000000	0.002939
2625.000000	0.002941
2624.000000	0.002930
2623.000000	0.002901
2622.000000	0.002865
2621.000000	0.002835
2620.000000	0.002813
2619.000000	0.002792
2618.000000	0.002770
2617.000000	0.002764
2616.000000	0.002787
2615.000000	0.002826
2614.000000	0.002857
2613.000000	0.002869
2612.000000	0.002874
2611.000000	0.002882
2610.000000	0.002890
2609.000000	0.002878
2608.000000	0.002837
2607.000000	0.002784
2606.000000	0.002749
2605.000000	0.002750
2604.000000	0.002773
2603.000000	0.002785
2602.000000	0.002775
2601.000000	0.002756
2600.000000	0.002753
2599.000000	0.002772
2598.000000	0.002798
2597.000000	0.002815
2596.000000	0.002819
2595.000000	0.002812
2594.000000	0.002801
2593.000000	0.002789
2592.000000	0.002772
2591.000000	0.002749
2590.000000	0.002721
2589.000000	0.002694
2588.000000	0.002676
2587.000000	0.002668
2586.000000	0.002669
2585.000000	0.002679
2584.000000	0.002690
2583.000000	0.002693
2582.000000	0.002690
2581.000000	0.002687
2580.000000	0.002688
2579.000000	0.002686
2578.000000	0.002676
2577.000000	0.002671
2576.000000	0.002682
2575.000000	0.002700
2574.000000	0.002706
2573.000000	0.002696
2572.000000	0.002679
2571.000000	0.002664
2570.000000	0.002649
2569.000000	0.002635
2568.000000	0.002636
2567.000000	0.002658
2566.000000	0.002687
2565.000000	0.002697
2564.000000	0.002679
2563.000000	0.002649
2562.000000	0.002630
2561.000000	0.002633
2560.000000	0.002646
2559.000000	0.002648
2558.000000	0.002640
2557.000000	0.002633
2556.000000	0.002634
2555.000000	0.002627
2554.000000	0.002592
2553.000000	0.002528
2552.000000	0.002463
2551.000000	0.002424
2550.000000	0.002423
2549.000000	0.002448
2548.000000	0.002480
2547.000000	0.002505
2546.000000	0.002513
2545.000000	0.002508
2544.000000	0.002501
2543.000000	0.002503
2542.000000	0.002518
2541.000000	0.002537
2540.000000	0.002555
2539.000000	0.002575
2538.000000	0.002602
2537.000000	0.002632
2536.000000	0.002645
2535.000000	0.002621
2534.000000	0.002568
2533.000000	0.002521
2532.000000	0.002516
2531.000000	0.002559
2530.000000	0.002618
2529.000000	0.002657
2528.000000	0.002657
2527.000000	0.002628
2526.000000	0.002593
2525.000000	0.002566
2524.000000	0.002556
2523.000000	0.002564
2522.000000	0.002584
2521.000000	0.002598
2520.000000	0.002588
2519.000000	0.002549
2518.000000	0.002503
2517.000000	0.002471
2516.000000	0.002461
2515.000000	0.002472
2514.000000	0.002500
2513.000000	0.002540
2512.000000	0.002571
2511.000000	0.002570
2510.000000	0.002527
2509.000000	0.002460
2508.000000	0.002401
2507.000000	0.002377
2506.000000	0.002397
2505.000000	0.002450
2504.000000	0.002510
2503.000000	0.002551
2502.000000	0.002566
2501.000000	0.002565
2500.000000	0.002562
2499.000000	0.002560
2498.000000	0.002555
2497.000000	0.002539
2496.000000	0.002510
2495.000000	0.002473
2494.000000	0.002443
2493.000000	0.002426
2492.000000	0.002421
2491.000000	0.002420
2490.000000	0.002421
2489.000000	0.002427
2488.000000	0.002435
2487.000000	0.002440
2486.000000	0.002444
2485.000000	0.002455
2484.000000	0.002471
2483.000000	0.002483
2482.000000	0.002475
2481.000000	0.002441
2480.000000	0.002385
2479.000000	0.002328
2478.000000	0.002301
2477.000000	0.002317
2476.000000	0.002359
2475.000000	0.002391
2474.000000	0.002396
2473.000000	0.002381
2472.000000	0.002362
2471.000000	0.002349
2470.000000	0.002342
2469.000000	0.002342
2468.000000	0.002349
2467.000000	0.002359
2466.000000	0.002371
2465.000000	0.002386
2464.000000	0.002403
2463.000000	0.002425
2462.000000	0.002454
2461.000000	0.002487
2460.000000	0.002508
2459.000000	0.002509
2458.000000	0.002505
2457.000000	0.002520
2456.000000	0.002558
2455.000000	0.002596
2454.000000	0.002608
2453.000000	0.002591
2452.000000	0.002553
2451.000000	0.002509
2450.000000	0.002466
2449.000000	0.002430
2448.000000	0.002400
2447.000000	0.002378
2446.000000	0.002372
2445.000000	0.002385
2444.000000	0.002404
2443.000000	0.002406
2442.000000	0.002387
2441.000000	0.002361
2440.000000	0.002347
2439.000000	0.002355
2438.000000	0.002387
2437.000000	0.002435
2436.000000	0.002475
2435.000000	0.002477
2434.000000	0.002442
2433.000000	0.002399
2432.000000	0.002382
2431.000000	0.002396
2430.000000	0.002425
2429.000000	0.002443
2428.000000	0.002427
2427.000000	0.002370
2426.000000	0.002300
2425.000000	0.002265
2424.000000	0.002293
2423.000000	0.002367
2422.000000	0.002445
2421.000000	0.002496
2420.000000	0.002515
2419.000000	0.002509
2418.000000	0.002495
2417.000000	0.002479
2416.000000	0.002462
2415.000000	0.002436
2414.000000	0.002395
2413.000000	0.002340
2412.000000	0.002278
2411.000000	0.002229
2410.000000	0.002222
2409.000000	0.002271
2408.000000	0.002351
2407.000000	0.002416
2406.000000	0.002439
2405.000000	0.002434
2404.000000	0.002421
2403.000000	0.002408
2402.000000	0.002399
2401.000000	0.002399
2400.000000	0.002407
2399.000000	0.002412
2398.000000	0.002403
2397.000000	0.002387
2396.000000	0.002370
2395.000000	0.002352
2394.000000	0.002331
2393.000000	0.002310
2392.000000	0.002296
2391.000000	0.002289
2390.000000	0.002287
2389.000000	0.002296
2388.000000	0.002319
2387.000000	0.002350
2386.000000	0.002373
2385.000000	0.002374
2384.000000	0.002344
2383.000000	0.002282
2382.000000	0.002207
2381.000000	0.002146
2380.000000	0.002122
2379.000000	0.002138
2378.000000	0.002179
2377.000000	0.002231
2376.000000	0.002278
2375.000000	0.002308
2374.000000	0.002308
2373.000000	0.002266
2372.000000	0.002183
2371.000000	0.002088
2370.000000	0.002024
2369.000000	0.002009
2368.000000	0.002029
2367.000000	0.002072
2366.000000	0.002141
2365.000000	0.002230
2364.000000	0.002318
2363.000000	0.002384
2362.000000	0.002427
2361.000000	0.002445
2360.000000	0.002430
2359.000000	0.002388
2358.000000	0.002339
2357.000000	0.002303
2356.000000	0.002310
2355.000000	0.002373
2354.000000	0.002431
2353.000000	0.002405
2352.000000	0.002319
2351.000000	0.002276
2350.000000	0.002317
2349.000000	0.002399
2348.000000	0.002460
2347.000000	0.002462
2346.000000	0.002433
2345.000000	0.002447
2344.000000	0.002522
2343.000000	0.002589
2342.000000	0.002596
2341.000000	0.002558
2340.000000	0.002527
2339.000000	0.002537
2338.000000	0.002566
2337.000000	0.002574
2336.000000	0.002551
2335.000000	0.002513
2334.000000	0.002467
2333.000000	0.002405
2332.000000	0.002350
2331.000000	0.002332
2330.000000	0.002356
2329.000000	0.002403
2328.000000	0.002471
2327.000000	0.002565
2326.000000	0.002667
2325.000000	0.002740
2324.000000	0.002763
2323.000000	0.002750
2322.000000	0.002739
2321.000000	0.002765
2320.000000	0.002830
2319.000000	0.002908
2318.000000	0.002961
2317.000000	0.002971
2316.000000	0.002941
2315.000000	0.002885
2314.000000	0.002826
2313.000000	0.002777
2312.000000	0.002743
2311.000000	0.002715
2310.000000	0.002690
2309.000000	0.002668
2308.000000	0.002646
2307.000000	0.002617
2306.000000	0.002585
2305.000000	0.002565
2304.000000	0.002561
2303.000000	0.002558
2302.000000	0.002548
2301.000000	0.002540
2300.000000	0.002544
2299.000000	0.002554
2298.000000	0.002566
2297.000000	0.002584
2296.000000	0.002609
2295.000000	0.002623
2294.000000	0.002610
2293.000000	0.002579
2292.000000	0.002555
2291.000000	0.002557
2290.000000	0.002588
2289.000000	0.002642
2288.000000	0.002705
2287.000000	0.002751
2286.000000	0.002750
2285.000000	0.002689
2284.000000	0.002582
2283.000000	0.002473
2282.000000	0.002411
2281.000000	0.002418
2280.000000	0.002458
2279.000000	0.002471
2278.000000	0.002436
2277.000000	0.002389
2276.000000	0.002367
2275.000000	0.002370
2274.000000	0.002377
2273.000000	0.002377
2272.000000	0.002364
2271.000000	0.002323
2270.000000	0.002263
2269.000000	0.002224
2268.000000	0.002244
2267.000000	0.002314
2266.000000	0.002386
2265.000000	0.002423
2264.000000	0.002422
2263.000000	0.002396
2262.000000	0.002359
2261.000000	0.002316
2260.000000	0.002271
2259.000000	0.002235
2258.000000	0.002218
2257.000000	0.002212
2256.000000	0.002183
2255.000000	0.002119
2254.000000	0.002072
2253.000000	0.002114
2252.000000	0.002249
2251.000000	0.002401
2250.000000	0.002495
2249.000000	0.002514
2248.000000	0.002482
2247.000000	0.002419
2246.000000	0.002341
2245.000000	0.002263
2244.000000	0.002194
2243.000000	0.002143
2242.000000	0.002133
2241.000000	0.002180
2240.000000	0.002252
2239.000000	0.002303
2238.000000	0.002330
2237.000000	0.002366
2236.000000	0.002404
2235.000000	0.002403
2234.000000	0.002370
2233.000000	0.002360
2232.000000	0.002381
2231.000000	0.002367
2230.000000	0.002284
2229.000000	0.002195
2228.000000	0.002167
2227.000000	0.002181
2226.000000	0.002179
2225.000000	0.002161
2224.000000	0.002171
2223.000000	0.002229
2222.000000	0.002326
2221.000000	0.002446
2220.000000	0.002544
2219.000000	0.002547
2218.000000	0.002425
2217.000000	0.002232
2216.000000	0.002053
2215.000000	0.001927
2214.000000	0.001864
2213.000000	0.001888
2212.000000	0.001987
2211.000000	0.002078
2210.000000	0.002086
2209.000000	0.002028
2208.000000	0.001968
2207.000000	0.001932
2206.000000	0.001900
2205.000000	0.001874
2204.000000	0.001875
2203.000000	0.001891
2202.000000	0.001886
2201.000000	0.001849
2200.000000	0.001806
2199.000000	0.001781
2198.000000	0.001767
2197.000000	0.001734
2196.000000	0.001659
2195.000000	0.001555
2194.000000	0.001498
2193.000000	0.001567
2192.000000	0.001742
2191.000000	0.001906
2190.000000	0.001967
2189.000000	0.001952
2188.000000	0.001943
2187.000000	0.001978
2186.000000	0.002032
2185.000000	0.002073
2184.000000	0.002078
2183.000000	0.002025
2182.000000	0.001910
2181.000000	0.001768
2180.000000	0.001650
2179.000000	0.001604
2178.000000	0.001648
2177.000000	0.001737
2176.000000	0.001759
2175.000000	0.001641
2174.000000	0.001457
2173.000000	0.001363
2172.000000	0.001426
2171.000000	0.001583
2170.000000	0.001755
2169.000000	0.001901
2168.000000	0.001976
2167.000000	0.001954
2166.000000	0.001906
2165.000000	0.001949
2164.000000	0.002067
2163.000000	0.002108
2162.000000	0.001992
2161.000000	0.001780
2160.000000	0.001495
2159.000000	0.001062
2158.000000	0.000561
2157.000000	0.000310
2156.000000	0.000484
2155.000000	0.000879
2154.000000	0.001152
2153.000000	0.001151
2152.000000	0.000954
2151.000000	0.000724
2150.000000	0.000583
2149.000000	0.000576
2148.000000	0.000679
2147.000000	0.000846
2146.000000	0.001067
2145.000000	0.001325
2144.000000	0.001539
2143.000000	0.001628
2142.000000	0.001630
2141.000000	0.001663
2140.000000	0.001760
2139.000000	0.001824
2138.000000	0.001777
2137.000000	0.001649
2136.000000	0.001501
2135.000000	0.001347
2134.000000	0.001193
2133.000000	0.001087
2132.000000	0.001067
2131.000000	0.001112
2130.000000	0.001177
2129.000000	0.001247
2128.000000	0.001314
2127.000000	0.001357
2126.000000	0.001370
2125.000000	0.001387
2124.000000	0.001454
2123.000000	0.001589
2122.000000	0.001771
2121.000000	0.001946
2120.000000	0.002037
2119.000000	0.002011
2118.000000	0.001922
2117.000000	0.001868
2116.000000	0.001889
2115.000000	0.001946
2114.000000	0.001996
2113.000000	0.002028
2112.000000	0.002039
2111.000000	0.002008
2110.000000	0.001949
2109.000000	0.001911
2108.000000	0.001919
2107.000000	0.001942
2106.000000	0.001960
2105.000000	0.001988
2104.000000	0.002025
2103.000000	0.002024
2102.000000	0.001962
2101.000000	0.001892
2100.000000	0.001871
2099.000000	0.001889
2098.000000	0.001886
2097.000000	0.001833
2096.000000	0.001738
2095.000000	0.001625
2094.000000	0.001540
2093.000000	0.001542
2092.000000	0.001648
2091.000000	0.001798
2090.000000	0.001916
2089.000000	0.001969
2088.000000	0.001975
2087.000000	0.001958
2086.000000	0.001938
2085.000000	0.001927
2084.000000	0.001919
2083.000000	0.001889
2082.000000	0.001838
2081.000000	0.001812
2080.000000	0.001860
2079.000000	0.001988
2078.000000	0.002148
2077.000000	0.002261
2076.000000	0.002248
2075.000000	0.002097
2074.000000	0.001890
2073.000000	0.001730
2072.000000	0.001647
2071.000000	0.001612
2070.000000	0.001628
2069.000000	0.001723
2068.000000	0.001856
2067.000000	0.001932
2066.000000	0.001932
2065.000000	0.001933
2064.000000	0.001981
2063.000000	0.002018
2062.000000	0.001996
2061.000000	0.001959
2060.000000	0.001968
2059.000000	0.002000
2058.000000	0.001986
2057.000000	0.001899
2056.000000	0.001747
2055.000000	0.001563
2054.000000	0.001421
2053.000000	0.001416
2052.000000	0.001565
2051.000000	0.001776
2050.000000	0.001949
2049.000000	0.002038
2048.000000	0.002006
2047.000000	0.001808
2046.000000	0.001492
2045.000000	0.001220
2044.000000	0.001110
2043.000000	0.001113
2042.000000	0.001136
2041.000000	0.001171
2040.000000	0.001237
2039.000000	0.001283
2038.000000	0.001243
2037.000000	0.001147
2036.000000	0.001085
2035.000000	0.001088
2034.000000	0.001120
2033.000000	0.001109
2032.000000	0.000997
2031.000000	0.000803
2030.000000	0.000670
2029.000000	0.000733
2028.000000	0.000934
2027.000000	0.001084
2026.000000	0.001113
2025.000000	0.001099
2024.000000	0.001073
2023.000000	0.000987
2022.000000	0.000898
2021.000000	0.000957
2020.000000	0.001148
2019.000000	0.001242
2018.000000	0.001092
2017.000000	0.000834
2016.000000	0.000687
2015.000000	0.000691
2014.000000	0.000762
2013.000000	0.000850
2012.000000	0.000936
2011.000000	0.000994
2010.000000	0.001032
2009.000000	0.001068
2008.000000	0.001038
2007.000000	0.000882
2006.000000	0.000721
2005.000000	0.000770
2004.000000	0.001041
2003.000000	0.001308
2002.000000	0.001414
2001.000000	0.001405
2000.000000	0.001351
1999.000000	0.001224
1998.000000	0.001027
1997.000000	0.000887
1996.000000	0.000904
1995.000000	0.001019
1994.000000	0.001122
1993.000000	0.001189
1992.000000	0.001234
1991.000000	0.001235
1990.000000	0.001192
1989.000000	0.001168
1988.000000	0.001197
1987.000000	0.001251
1986.000000	0.001339
1985.000000	0.001524
1984.000000	0.001776
1983.000000	0.001936
1982.000000	0.001911
1981.000000	0.001781
1980.000000	0.001649
1979.000000	0.001509
1978.000000	0.001352
1977.000000	0.001268
1976.000000	0.001308
1975.000000	0.001370
1974.000000	0.001370
1973.000000	0.001339
1972.000000	0.001272
1971.000000	0.001081
1970.000000	0.000777
1969.000000	0.000549
1968.000000	0.000535
1967.000000	0.000648
1966.000000	0.000750
1965.000000	0.000858
1964.000000	0.001047
1963.000000	0.001274
1962.000000	0.001423
1961.000000	0.001425
1960.000000	0.001276
1959.000000	0.001014
1958.000000	0.000739
1957.000000	0.000581
1956.000000	0.000584
1955.000000	0.000680
1954.000000	0.000806
1953.000000	0.000949
1952.000000	0.001078
1951.000000	0.001138
1950.000000	0.001144
1949.000000	0.001172
1948.000000	0.001220
1947.000000	0.001206
1946.000000	0.001112
1945.000000	0.001036
1944.000000	0.001052
1943.000000	0.001113
1942.000000	0.001147
1941.000000	0.001154
1940.000000	0.001150
1939.000000	0.001117
1938.000000	0.001068
1937.000000	0.001063
1936.000000	0.001116
1935.000000	0.001169
1934.000000	0.001188
1933.000000	0.001208
1932.000000	0.001239
1931.000000	0.001225
1930.000000	0.001151
1929.000000	0.001105
1928.000000	0.001166
1927.000000	0.001306
1926.000000	0.001450
1925.000000	0.001562
1924.000000	0.001621
1923.000000	0.001582
1922.000000	0.001441
1921.000000	0.001274
1920.000000	0.001149
1919.000000	0.001064
1918.000000	0.001001
1917.000000	0.000982
1916.000000	0.001018
1915.000000	0.001079
1914.000000	0.001135
1913.000000	0.001193
1912.000000	0.001251
1911.000000	0.001276
1910.000000	0.001249
1909.000000	0.001196
1908.000000	0.001151
1907.000000	0.001117
1906.000000	0.001095
1905.000000	0.001100
1904.000000	0.001123
1903.000000	0.001131
1902.000000	0.001120
1901.000000	0.001125
1900.000000	0.001157
1899.000000	0.001186
1898.000000	0.001197
1897.000000	0.001215
1896.000000	0.001252
1895.000000	0.001270
1894.000000	0.001245
1893.000000	0.001198
1892.000000	0.001160
1891.000000	0.001137
1890.000000	0.001138
1889.000000	0.001184
1888.000000	0.001258
1887.000000	0.001308
1886.000000	0.001319
1885.000000	0.001314
1884.000000	0.001300
1883.000000	0.001261
1882.000000	0.001204
1881.000000	0.001172
1880.000000	0.001176
1879.000000	0.001180
1878.000000	0.001162
1877.000000	0.001144
1876.000000	0.001132
1875.000000	0.001099
1874.000000	0.001043
1873.000000	0.001011
1872.000000	0.001017
1871.000000	0.001017
1870.000000	0.000975
1869.000000	0.000934
1868.000000	0.000951
1867.000000	0.001005
1866.000000	0.001060
1865.000000	0.001119
1864.000000	0.001180
1863.000000	0.001207
1862.000000	0.001179
1861.000000	0.001127
1860.000000	0.001087
1859.000000	0.001057
1858.000000	0.001025
1857.000000	0.001013
1856.000000	0.001036
1855.000000	0.001068
1854.000000	0.001079
1853.000000	0.001067
1852.000000	0.001045
1851.000000	0.001014
1850.000000	0.000990
1849.000000	0.001010
1848.000000	0.001078
1847.000000	0.001142
1846.000000	0.001148
1845.000000	0.001097
1844.000000	0.001036
1843.000000	0.000992
1842.000000	0.000966
1841.000000	0.000968
1840.000000	0.000994
1839.000000	0.001010
1838.000000	0.001004
1837.000000	0.000997
1836.000000	0.001004
1835.000000	0.001004
1834.000000	0.000980
1833.000000	0.000948
1832.000000	0.000926
1831.000000	0.000902
1830.000000	0.000874
1829.000000	0.000876
1828.000000	0.000915
1827.000000	0.000946
1826.000000	0.000933
1825.000000	0.000899
1824.000000	0.000879
1823.000000	0.000872
1822.000000	0.000865
1821.000000	0.000867
1820.000000	0.000878
1819.000000	0.000862
1818.000000	0.000812
1817.000000	0.000771
1816.000000	0.000774
1815.000000	0.000804
1814.000000	0.000828
1813.000000	0.000848
1812.000000	0.000873
1811.000000	0.000893
1810.000000	0.000904
1809.000000	0.000925
1808.000000	0.000955
1807.000000	0.000966
1806.000000	0.000947
1805.000000	0.000931
1804.000000	0.000938
1803.000000	0.000955
1802.000000	0.000952
1801.000000	0.000936
1800.000000	0.000932
1799.000000	0.000932
1798.000000	0.000922
1797.000000	0.000906
1796.000000	0.000898
1795.000000	0.000900
1794.000000	0.000910
1793.000000	0.000935
1792.000000	0.000966
1791.000000	0.000973
1790.000000	0.000953
1789.000000	0.000941
1788.000000	0.000947
1787.000000	0.000948
1786.000000	0.000922
1785.000000	0.000881
1784.000000	0.000849
1783.000000	0.000833
1782.000000	0.000822
1781.000000	0.000820
1780.000000	0.000830
1779.000000	0.000838
1778.000000	0.000828
1777.000000	0.000812
1776.000000	0.000814
1775.000000	0.000830
1774.000000	0.000842
1773.000000	0.000849
1772.000000	0.000866
1771.000000	0.000879
1770.000000	0.000877
1769.000000	0.000884
1768.000000	0.000915
1767.000000	0.000956
1766.000000	0.000991
1765.000000	0.001027
1764.000000	0.001069
1763.000000	0.001105
1762.000000	0.001125
1761.000000	0.001155
1760.000000	0.001208
1759.000000	0.001274
1758.000000	0.001353
1757.000000	0.001463
1756.000000	0.001607
1755.000000	0.001749
1754.000000	0.001871
1753.000000	0.001996
1752.000000	0.002156
1751.000000	0.002343
1750.000000	0.002537
1749.000000	0.002746
1748.000000	0.002966
1747.000000	0.003151
1746.000000	0.003271
1745.000000	0.003357
1744.000000	0.003441
1743.000000	0.003509
1742.000000	0.003539
1741.000000	0.003552
1740.000000	0.003561
1739.000000	0.003552
1738.000000	0.003521
1737.000000	0.003497
1736.000000	0.003485
1735.000000	0.003456
1734.000000	0.003403
1733.000000	0.003350
1732.000000	0.003288
1731.000000	0.003206
1730.000000	0.003116
1729.000000	0.003036
1728.000000	0.002966
1727.000000	0.002885
1726.000000	0.002787
1725.000000	0.002708
1724.000000	0.002666
1723.000000	0.002628
1722.000000	0.002573
1721.000000	0.002534
1720.000000	0.002538
1719.000000	0.002556
1718.000000	0.002544
1717.000000	0.002538
1716.000000	0.002570
1715.000000	0.002607
1714.000000	0.002636
1713.000000	0.002677
1712.000000	0.002730
1711.000000	0.002772
1710.000000	0.002792
1709.000000	0.002803
1708.000000	0.002829
1707.000000	0.002872
1706.000000	0.002926
1705.000000	0.002989
1704.000000	0.003050
1703.000000	0.003084
1702.000000	0.003089
1701.000000	0.003146
1700.000000	0.003332
1699.000000	0.003550
1698.000000	0.003726
1697.000000	0.003871
1696.000000	0.003987
1695.000000	0.004071
1694.000000	0.004135
1693.000000	0.004230
1692.000000	0.004372
1691.000000	0.004515
1690.000000	0.004631
1689.000000	0.004745
1688.000000	0.004890
1687.000000	0.005051
1686.000000	0.005203
1685.000000	0.005365
1684.000000	0.005543
1683.000000	0.005666
1682.000000	0.005726
1681.000000	0.005795
1680.000000	0.005885
1679.000000	0.005961
1678.000000	0.006009
1677.000000	0.006067
1676.000000	0.006179
1675.000000	0.006336
1674.000000	0.006471
1673.000000	0.006576
1672.000000	0.006685
1671.000000	0.006807
1670.000000	0.006932
1669.000000	0.007064
1668.000000	0.007191
1667.000000	0.007287
1666.000000	0.007357
1665.000000	0.007438
1664.000000	0.007545
1663.000000	0.007647
1662.000000	0.007722
1661.000000	0.007800
1660.000000	0.007912
1659.000000	0.008034
1658.000000	0.008140
1657.000000	0.008253
1656.000000	0.008410
1655.000000	0.008585
1654.000000	0.008697
1653.000000	0.008781
1652.000000	0.008868
1651.000000	0.008886
1650.000000	0.008896
1649.000000	0.008982
1648.000000	0.009130
1647.000000	0.009266
1646.000000	0.009343
1645.000000	0.009376
1644.000000	0.009393
1643.000000	0.009407
1642.000000	0.009418
1641.000000	0.009434
1640.000000	0.009468
1639.000000	0.009510
1638.000000	0.009539
1637.000000	0.009538
1636.000000	0.009527
1635.000000	0.009543
1634.000000	0.009575
1633.000000	0.009614
1632.000000	0.009659
1631.000000	0.009700
1630.000000	0.009738
1629.000000	0.009790
1628.000000	0.009858
1627.000000	0.009916
1626.000000	0.009951
1625.000000	0.009989
1624.000000	0.010051
1623.000000	0.010116
1622.000000	0.010160
1621.000000	0.010194
1620.000000	0.010244
1619.000000	0.010288
1618.000000	0.010274
1617.000000	0.010191
1616.000000	0.010091
1615.000000	0.009999
1614.000000	0.009910
1613.000000	0.009824
1612.000000	0.009738
1611.000000	0.009643
1610.000000	0.009543
1609.000000	0.009453
1608.000000	0.009373
1607.000000	0.009288
1606.000000	0.009182
1605.000000	0.009069
1604.000000	0.008965
1603.000000	0.008862
1602.000000	0.008748
1601.000000	0.008632
1600.000000	0.008525
1599.000000	0.008419
1598.000000	0.008309
1597.000000	0.008204
1596.000000	0.008109
1595.000000	0.008013
1594.000000	0.007912
1593.000000	0.007821
1592.000000	0.007747
1591.000000	0.007677
1590.000000	0.007601
1589.000000	0.007534
1588.000000	0.007482
1587.000000	0.007429
1586.000000	0.007368
1585.000000	0.007314
1584.000000	0.007283
1583.000000	0.007264
1582.000000	0.007234
1581.000000	0.007197
1580.000000	0.007185
1579.000000	0.007201
1578.000000	0.007204
1577.000000	0.007142
1576.000000	0.007016
1575.000000	0.006877
1574.000000	0.006763
1573.000000	0.006703
1572.000000	0.006690
1571.000000	0.006682
1570.000000	0.006643
1569.000000	0.006588
1568.000000	0.006556
1567.000000	0.006541
1566.000000	0.006521
1565.000000	0.006493
1564.000000	0.006480
1563.000000	0.006486
1562.000000	0.006487
1561.000000	0.006443
1560.000000	0.006359
1559.000000	0.006220
1558.000000	0.006167
1557.000000	0.006217
1556.000000	0.006281
1555.000000	0.006310
1554.000000	0.006289
1553.000000	0.006261
1552.000000	0.006259
1551.000000	0.006259
1550.000000	0.006237
1549.000000	0.006218
1548.000000	0.006230
1547.000000	0.006262
1546.000000	0.006289
1545.000000	0.006305
1544.000000	0.006317
1543.000000	0.006319
1542.000000	0.006308
1541.000000	0.006280
1540.000000	0.006231
1539.000000	0.006167
1538.000000	0.006073
1537.000000	0.005980
1536.000000	0.005931
1535.000000	0.005923
1534.000000	0.005923
1533.000000	0.005918
1532.000000	0.005908
1531.000000	0.005882
1530.000000	0.005849
1529.000000	0.005833
1528.000000	0.005827
1527.000000	0.005792
1526.000000	0.005711
1525.000000	0.005628
1524.000000	0.005581
1523.000000	0.005541
1522.000000	0.005473
1521.000000	0.005419
1520.000000	0.005406
1519.000000	0.005393
1518.000000	0.005348
1517.000000	0.005276
1516.000000	0.005202
1515.000000	0.005135
1514.000000	0.005077
1513.000000	0.005045
1512.000000	0.005043
1511.000000	0.005047
1510.000000	0.005049
1509.000000	0.005059
1508.000000	0.005039
1507.000000	0.004904
1506.000000	0.004756
1505.000000	0.004693
1504.000000	0.004670
1503.000000	0.004641
1502.000000	0.004590
1501.000000	0.004521
1500.000000	0.004460
1499.000000	0.004416
1498.000000	0.004388
1497.000000	0.004394
1496.000000	0.004424
1495.000000	0.004423
1494.000000	0.004384
1493.000000	0.004361
1492.000000	0.004385
1491.000000	0.004431
1490.000000	0.004453
1489.000000	0.004457
1488.000000	0.004470
1487.000000	0.004481
1486.000000	0.004489
1485.000000	0.004509
1484.000000	0.004548
1483.000000	0.004592
1482.000000	0.004632
1481.000000	0.004678
1480.000000	0.004732
1479.000000	0.004777
1478.000000	0.004818
1477.000000	0.004881
1476.000000	0.004963
1475.000000	0.005030
1474.000000	0.005079
1473.000000	0.005176
1472.000000	0.005354
1471.000000	0.005531
1470.000000	0.005648
1469.000000	0.005726
1468.000000	0.005787
1467.000000	0.005825
1466.000000	0.005853
1465.000000	0.005911
1464.000000	0.006012
1463.000000	0.006096
1462.000000	0.006128
1461.000000	0.006141
1460.000000	0.006185
1459.000000	0.006275
1458.000000	0.006406
1457.000000	0.006589
1456.000000	0.006756
1455.000000	0.006810
1454.000000	0.006795
1453.000000	0.006793
1452.000000	0.006814
1451.000000	0.006816
1450.000000	0.006786
1449.000000	0.006775
1448.000000	0.006819
1447.000000	0.006888
1446.000000	0.006935
1445.000000	0.006969
1444.000000	0.007016
1443.000000	0.007069
1442.000000	0.007111
1441.000000	0.007144
1440.000000	0.007177
1439.000000	0.007196
1438.000000	0.007212
1437.000000	0.007285
1436.000000	0.007428
1435.000000	0.007550
1434.000000	0.007609
1433.000000	0.007644
1432.000000	0.007693
1431.000000	0.007753
1430.000000	0.007816
1429.000000	0.007896
1428.000000	0.007986
1427.000000	0.008053
1426.000000	0.008087
1425.000000	0.008112
1424.000000	0.008138
1423.000000	0.008138
1422.000000	0.008102
1421.000000	0.008074
1420.000000	0.008101
1419.000000	0.008159
1418.000000	0.008188
1417.000000	0.008190
1416.000000	0.008194
1415.000000	0.008190
1414.000000	0.008168
1413.000000	0.008144
1412.000000	0.008127
1411.000000	0.008097
1410.000000	0.008042
1409.000000	0.007978
1408.000000	0.007918
1407.000000	0.007848
1406.000000	0.007768
1405.000000	0.007704
1404.000000	0.007664
1403.000000	0.007607
1402.000000	0.007515
1401.000000	0.007426
1400.000000	0.007385
1399.000000	0.007379
1398.000000	0.007376
1397.000000	0.007375
1396.000000	0.007391
1395.000000	0.007406
1394.000000	0.007396
1393.000000	0.007372
1392.000000	0.007348
1391.000000	0.007311
1390.000000	0.007256
1389.000000	0.007203
1388.000000	0.007173
1387.000000	0.007146
1386.000000	0.007097
1385.000000	0.007030
1384.000000	0.006957
1383.000000	0.006877
1382.000000	0.006799
1381.000000	0.006749
1380.000000	0.006727
1379.000000	0.006700
1378.000000	0.006651
1377.000000	0.006607
1376.000000	0.006596
1375.000000	0.006605
1374.000000	0.006610
1373.000000	0.006622
1372.000000	0.006658
1371.000000	0.006717
1370.000000	0.006788
1369.000000	0.006862
1368.000000	0.006926
1367.000000	0.006956
1366.000000	0.006965
1365.000000	0.006988
1364.000000	0.007030
1363.000000	0.007039
1362.000000	0.006977
1361.000000	0.006880
1360.000000	0.006791
1359.000000	0.006708
1358.000000	0.006620
1357.000000	0.006539
1356.000000	0.006468
1355.000000	0.006383
1354.000000	0.006275
1353.000000	0.006172
1352.000000	0.006097
1351.000000	0.006037
1350.000000	0.005974
1349.000000	0.005917
1348.000000	0.005874
1347.000000	0.005831
1346.000000	0.005781
1345.000000	0.005745
1344.000000	0.005738
1343.000000	0.005747
1342.000000	0.005761
1341.000000	0.005786
1340.000000	0.005823
1339.000000	0.005847
1338.000000	0.005849
1337.000000	0.005858
1336.000000	0.005893
1335.000000	0.005934
1334.000000	0.005968
1333.000000	0.006013
1332.000000	0.006087
1331.000000	0.006184
1330.000000	0.006296
1329.000000	0.006434
1328.000000	0.006596
1327.000000	0.006754
1326.000000	0.006894
1325.000000	0.007036
1324.000000	0.007193
1323.000000	0.007340
1322.000000	0.007454
1321.000000	0.007546
1320.000000	0.007624
1319.000000	0.007662
1318.000000	0.007642
1317.000000	0.007582
1316.000000	0.007493
1315.000000	0.007350
1314.000000	0.007149
1313.000000	0.006934
1312.000000	0.006741
1311.000000	0.006558
1310.000000	0.006366
1309.000000	0.006182
1308.000000	0.006027
1307.000000	0.005883
1306.000000	0.005733
1305.000000	0.005593
1304.000000	0.005481
1303.000000	0.005378
1302.000000	0.005265
1301.000000	0.005153
1300.000000	0.005057
1299.000000	0.004962
1298.000000	0.004853
1297.000000	0.004753
1296.000000	0.004679
1295.000000	0.004613
1294.000000	0.004541
1293.000000	0.004482
1292.000000	0.004452
1291.000000	0.004424
1290.000000	0.004375
1289.000000	0.004323
1288.000000	0.004284
1287.000000	0.004237
1286.000000	0.004159
1285.000000	0.004076
1284.000000	0.004018
1283.000000	0.003974
1282.000000	0.003918
1281.000000	0.003861
1280.000000	0.003829
1279.000000	0.003816
1278.000000	0.003802
1277.000000	0.003792
1276.000000	0.003795
1275.000000	0.003799
1274.000000	0.003789
1273.000000	0.003776
1272.000000	0.003772
1271.000000	0.003772
1270.000000	0.003776
1269.000000	0.003804
1268.000000	0.003862
1267.000000	0.003913
1266.000000	0.003931
1265.000000	0.003937
1264.000000	0.003959
1263.000000	0.003988
1262.000000	0.004008
1261.000000	0.004030
1260.000000	0.004072
1259.000000	0.004119
1258.000000	0.004151
1257.000000	0.004174
1256.000000	0.004190
1255.000000	0.004173
1254.000000	0.004117
1253.000000	0.004065
1252.000000	0.004053
1251.000000	0.004070
1250.000000	0.004082
1249.000000	0.004082
1248.000000	0.004076
1247.000000	0.004057
1246.000000	0.004029
1245.000000	0.004013
1244.000000	0.004016
1243.000000	0.004012
1242.000000	0.003988
1241.000000	0.003969
1240.000000	0.003965
1239.000000	0.003945
1238.000000	0.003894
1237.000000	0.003839
1236.000000	0.003802
1235.000000	0.003763
1234.000000	0.003703
1233.000000	0.003643
1232.000000	0.003606
1231.000000	0.003575
1230.000000	0.003533
1229.000000	0.003491
1228.000000	0.003456
1227.000000	0.003404
1226.000000	0.003322
1225.000000	0.003236
1224.000000	0.003159
1223.000000	0.003070
1222.000000	0.002962
1221.000000	0.002872
1220.000000	0.002831
1219.000000	0.002813
1218.000000	0.002787
1217.000000	0.002760
1216.000000	0.002740
1215.000000	0.002710
1214.000000	0.002660
1213.000000	0.002623
1212.000000	0.002616
1211.000000	0.002601
1210.000000	0.002548
1209.000000	0.002484
1208.000000	0.002449
1207.000000	0.002434
1206.000000	0.002414
1205.000000	0.002397
1204.000000	0.002392
1203.000000	0.002386
1202.000000	0.002373
1201.000000	0.002380
1200.000000	0.002413
1199.000000	0.002438
1198.000000	0.002433
1197.000000	0.002429
1196.000000	0.002455
1195.000000	0.002490
1194.000000	0.002512
1193.000000	0.002538
1192.000000	0.002584
1191.000000	0.002628
1190.000000	0.002652
1189.000000	0.002683
1188.000000	0.002742
1187.000000	0.002799
1186.000000	0.002828
1185.000000	0.002855
1184.000000	0.002911
1183.000000	0.002991
1182.000000	0.003078
1181.000000	0.003186
1180.000000	0.003321
1179.000000	0.003452
1178.000000	0.003566
1177.000000	0.003700
1176.000000	0.003865
1175.000000	0.004017
1174.000000	0.004125
1173.000000	0.004231
1172.000000	0.004375
1171.000000	0.004528
1170.000000	0.004649
1169.000000	0.004757
1168.000000	0.004888
1167.000000	0.005032
1166.000000	0.005168
1165.000000	0.005306
1164.000000	0.005454
1163.000000	0.005576
1162.000000	0.005652
1161.000000	0.005721
1160.000000	0.005820
1159.000000	0.005920
1158.000000	0.005985
1157.000000	0.006035
1156.000000	0.006108
1155.000000	0.006189
1154.000000	0.006252
1153.000000	0.006312
1152.000000	0.006384
1151.000000	0.006446
1150.000000	0.006476
1149.000000	0.006501
1148.000000	0.006536
1147.000000	0.006548
1146.000000	0.006520
1145.000000	0.006498
1144.000000	0.006519
1143.000000	0.006546
1142.000000	0.006538
1141.000000	0.006513
1140.000000	0.006500
1139.000000	0.006477
1138.000000	0.006423
1137.000000	0.006375
1136.000000	0.006373
1135.000000	0.006396
1134.000000	0.006416
1133.000000	0.006451
1132.000000	0.006516
1131.000000	0.006568
1130.000000	0.006573
1129.000000	0.006568
1128.000000	0.006603
1127.000000	0.006663
1126.000000	0.006716
1125.000000	0.006783
1124.000000	0.006889
1123.000000	0.007002
1122.000000	0.007082
1121.000000	0.007150
1120.000000	0.007242
1119.000000	0.007348
1118.000000	0.007448
1117.000000	0.007563
1116.000000	0.007709
1115.000000	0.007852
1114.000000	0.007960
1113.000000	0.008051
1112.000000	0.008145
1111.000000	0.008218
1110.000000	0.008259
1109.000000	0.008307
1108.000000	0.008374
1107.000000	0.008411
1106.000000	0.008393
1105.000000	0.008370
1104.000000	0.008381
1103.000000	0.008389
1102.000000	0.008356
1101.000000	0.008323
1100.000000	0.008339
1099.000000	0.008373
1098.000000	0.008382
1097.000000	0.008385
1096.000000	0.008417
1095.000000	0.008461
1094.000000	0.008495
1093.000000	0.008541
1092.000000	0.008605
1091.000000	0.008634
1090.000000	0.008594
1089.000000	0.008533
1088.000000	0.008498
1087.000000	0.008465
1086.000000	0.008404
1085.000000	0.008342
1084.000000	0.008301
1083.000000	0.008247
1082.000000	0.008163
1081.000000	0.008101
1080.000000	0.008100
1079.000000	0.008118
1078.000000	0.008111
1077.000000	0.008101
1076.000000	0.008111
1075.000000	0.008108
1074.000000	0.008075
1073.000000	0.008061
1072.000000	0.008092
1071.000000	0.008114
1070.000000	0.008087
1069.000000	0.008054
1068.000000	0.008059
1067.000000	0.008067
1066.000000	0.008034
1065.000000	0.007996
1064.000000	0.007998
1063.000000	0.008014
1062.000000	0.008006
1061.000000	0.007987
1060.000000	0.007971
1059.000000	0.007925
1058.000000	0.007844
1057.000000	0.007795
1056.000000	0.007834
1055.000000	0.007917
1054.000000	0.007973
1053.000000	0.007992
1052.000000	0.007986
1051.000000	0.007935
1050.000000	0.007847
1049.000000	0.007792
1048.000000	0.007810
1047.000000	0.007850
1046.000000	0.007864
1045.000000	0.007877
1044.000000	0.007914
1043.000000	0.007936
1042.000000	0.007925
1041.000000	0.007933
1040.000000	0.008000
1039.000000	0.008086
1038.000000	0.008145
1037.000000	0.008191
1036.000000	0.008231
1035.000000	0.008231
1034.000000	0.008197
1033.000000	0.008204
1032.000000	0.008277
1031.000000	0.008344
1030.000000	0.008355
1029.000000	0.008359
1028.000000	0.008397
1027.000000	0.008420
1026.000000	0.008389
1025.000000	0.008359
1024.000000	0.008381
1023.000000	0.008417
1022.000000	0.008415
1021.000000	0.008402
1020.000000	0.008407
1019.000000	0.008392
1018.000000	0.008327
1017.000000	0.008261
1016.000000	0.008236
1015.000000	0.008212
1014.000000	0.008155
1013.000000	0.008103
1012.000000	0.008088
1011.000000	0.008067
1010.000000	0.008006
1009.000000	0.007946
1008.000000	0.007923
1007.000000	0.007892
1006.000000	0.007815
1005.000000	0.007731
1004.000000	0.007681
1003.000000	0.007631
1002.000000	0.007551
1001.000000	0.007480
1000.000000	0.007447
999.000000	0.007405
998.000000	0.007317
997.000000	0.007224
996.000000	0.007165
995.000000	0.007104
994.000000	0.007007
993.000000	0.006918
992.000000	0.006876
991.000000	0.006845
990.000000	0.006787
989.000000	0.006734
988.000000	0.006715
987.000000	0.006689
986.000000	0.006617
985.000000	0.006521
984.000000	0.006432
983.000000	0.006327
982.000000	0.006208
981.000000	0.006129
980.000000	0.006112
979.000000	0.006096
978.000000	0.006040
977.000000	0.005975
976.000000	0.005924
975.000000	0.005846
974.000000	0.005732
973.000000	0.005655
972.000000	0.005648
971.000000	0.005632
970.000000	0.005540
969.000000	0.005416
968.000000	0.005319
967.000000	0.005226
966.000000	0.005106
965.000000	0.005002
964.000000	0.004949
963.000000	0.004897
962.000000	0.004804
961.000000	0.004716
960.000000	0.004686
959.000000	0.004670
958.000000	0.004610
957.000000	0.004524
956.000000	0.004448
955.000000	0.004365
954.000000	0.004254
953.000000	0.004156
952.000000	0.004094
951.000000	0.004016
950.000000	0.003887
949.000000	0.003761
948.000000	0.003691
947.000000	0.003645
946.000000	0.003574
945.000000	0.003495
944.000000	0.003427
943.000000	0.003333
942.000000	0.003196
941.000000	0.003070
940.000000	0.003002
939.000000	0.002956
938.000000	0.002901
937.000000	0.002864
936.000000	0.002858
935.000000	0.002823
934.000000	0.002726
933.000000	0.002623
932.000000	0.002563
931.000000	0.002517
930.000000	0.002460
929.000000	0.002445
928.000000	0.002495
927.000000	0.002527
926.000000	0.002469
925.000000	0.002367
924.000000	0.002294
923.000000	0.002237
922.000000	0.002163
921.000000	0.002102
920.000000	0.002086
919.000000	0.002074
918.000000	0.002015
917.000000	0.001928
916.000000	0.001845
915.000000	0.001758
914.000000	0.001680
913.000000	0.001670
912.000000	0.001732
911.000000	0.001779
910.000000	0.001766
909.000000	0.001752
908.000000	0.001778
907.000000	0.001788
906.000000	0.001749
905.000000	0.001726
904.000000	0.001764
903.000000	0.001798
902.000000	0.001765
901.000000	0.001697
900.000000	0.001637
899.000000	0.001546
898.000000	0.001409
897.000000	0.001308
896.000000	0.001302
895.000000	0.001318
894.000000	0.001281
893.000000	0.001224
892.000000	0.001202
891.000000	0.001187
890.000000	0.001150
889.000000	0.001154
888.000000	0.001253
887.000000	0.001397
886.000000	0.001526
885.000000	0.001671
884.000000	0.001858
883.000000	0.002027
882.000000	0.002143
881.000000	0.002292
880.000000	0.002557
879.000000	0.002876
878.000000	0.003145
877.000000	0.003354
876.000000	0.003528
875.000000	0.003633
874.000000	0.003637
873.000000	0.003583
872.000000	0.003489
871.000000	0.003288
870.000000	0.002958
869.000000	0.002610
868.000000	0.002341
867.000000	0.002123
866.000000	0.001909
865.000000	0.001736
864.000000	0.001632
863.000000	0.001529
862.000000	0.001380
861.000000	0.001248
860.000000	0.001180
859.000000	0.001118
858.000000	0.001006
857.000000	0.000903
856.000000	0.000868
855.000000	0.000853
854.000000	0.000806
853.000000	0.000769
852.000000	0.000780
851.000000	0.000787
850.000000	0.000764
849.000000	0.000774
848.000000	0.000842
847.000000	0.000876
846.000000	0.000820
845.000000	0.000766
844.000000	0.000795
843.000000	0.000842
842.000000	0.000835
841.000000	0.000834
840.000000	0.000903
839.000000	0.000982
838.000000	0.001000
837.000000	0.001011
836.000000	0.001081
835.000000	0.001154
834.000000	0.001168
833.000000	0.001185
832.000000	0.001284
831.000000	0.001416
830.000000	0.001496
829.000000	0.001546
828.000000	0.001613
827.000000	0.001656
826.000000	0.001638
825.000000	0.001630
824.000000	0.001695
823.000000	0.001772
822.000000	0.001791
821.000000	0.001784
820.000000	0.001782
819.000000	0.001722
818.000000	0.001584
817.000000	0.001462
816.000000	0.001424
815.000000	0.001403
814.000000	0.001341
813.000000	0.001285
812.000000	0.001260
811.000000	0.001174
810.000000	0.000996
809.000000	0.000852
808.000000	0.000843
807.000000	0.000893
806.000000	0.000901
805.000000	0.000901
804.000000	0.000950
803.000000	0.001001
802.000000	0.001004
801.000000	0.001023
800.000000	0.001107
799.000000	0.001181
798.000000	0.001188
797.000000	0.001207
796.000000	0.001302
795.000000	0.001389
794.000000	0.001385
793.000000	0.001347
792.000000	0.001344
791.000000	0.001326
790.000000	0.001252
789.000000	0.001204
788.000000	0.001233
787.000000	0.001248
786.000000	0.001176
785.000000	0.001108
784.000000	0.001146
783.000000	0.001226
782.000000	0.001239
781.000000	0.001205
780.000000	0.001196
779.000000	0.001203
778.000000	0.001209
777.000000	0.001273
776.000000	0.001414
775.000000	0.001517
774.000000	0.001485
773.000000	0.001381
772.000000	0.001314
771.000000	0.001276
770.000000	0.001230
769.000000	0.001212
768.000000	0.001251
767.000000	0.001263
766.000000	0.001181
765.000000	0.001076
764.000000	0.001042
763.000000	0.001063
762.000000	0.001087
761.000000	0.001136
760.000000	0.001219
759.000000	0.001261
758.000000	0.001227
757.000000	0.001197
756.000000	0.001228
755.000000	0.001254
754.000000	0.001227
753.000000	0.001226
752.000000	0.001301
751.000000	0.001356
750.000000	0.001296
749.000000	0.001187
748.000000	0.001129
747.000000	0.001100
746.000000	0.001052
745.000000	0.001027
744.000000	0.001052
743.000000	0.001051
742.000000	0.000981
741.000000	0.000936
740.000000	0.000987
739.000000	0.001046
738.000000	0.001010
737.000000	0.000933
736.000000	0.000905
735.000000	0.000904
734.000000	0.000881
733.000000	0.000880
732.000000	0.000936
731.000000	0.000965
730.000000	0.000891
729.000000	0.000794
728.000000	0.000777
727.000000	0.000807
726.000000	0.000815
725.000000	0.000830
724.000000	0.000884
723.000000	0.000900
722.000000	0.000820
721.000000	0.000736
720.000000	0.000744
719.000000	0.000802
718.000000	0.000845
717.000000	0.000934
716.000000	0.001144
715.000000	0.001421
714.000000	0.001663
713.000000	0.001840
712.000000	0.001936
711.000000	0.001882
710.000000	0.001680
709.000000	0.001471
708.000000	0.001370
707.000000	0.001314
706.000000	0.001209
705.000000	0.001092
704.000000	0.001030
703.000000	0.000998
702.000000	0.000972
701.000000	0.001000
700.000000	0.001079
699.000000	0.001096
698.000000	0.001018
697.000000	0.000975
696.000000	0.001045
695.000000	0.001114
694.000000	0.001072
693.000000	0.000982
692.000000	0.000941
691.000000	0.000904
690.000000	0.000817
689.000000	0.000769
688.000000	0.000825
687.000000	0.000877
686.000000	0.000810
685.000000	0.000704
684.000000	0.000692
683.000000	0.000762
682.000000	0.000826
681.000000	0.000889
680.000000	0.000996
679.000000	0.001106
678.000000	0.001184
677.000000	0.001330
676.000000	0.001622
675.000000	0.001957
674.000000	0.002206
673.000000	0.002373
672.000000	0.002478
671.000000	0.002388
670.000000	0.001998
669.000000	0.001441
668.000000	0.001241
667.000000	0.001559
666.000000	0.001826
665.000000	0.001951
664.000000	0.002085
663.000000	0.002115
662.000000	0.001968
661.000000	0.001740
660.000000	0.001550
659.000000	0.001342
658.000000	0.001086
657.000000	0.000937
656.000000	0.000976
655.000000	0.001035
654.000000	0.000990
653.000000	0.000969
652.000000	0.001061
651.000000	0.001118
650.000000	0.001053
649.000000	0.001044
648.000000	0.001209
647.000000	0.001367
646.000000	0.001356
645.000000	0.001290
644.000000	0.001310
643.000000	0.001345
642.000000	0.001323
641.000000	0.001354
640.000000	0.001486
639.000000	0.001540
638.000000	0.001413
637.000000	0.001300
636.000000	0.001370
635.000000	0.001497
634.000000	0.001514
633.000000	0.001494
632.000000	0.001543
631.000000	0.001583
630.000000	0.001545
629.000000	0.001551
628.000000	0.001673
627.000000	0.001760
626.000000	0.001717
625.000000	0.001691
624.000000	0.001773
623.000000	0.001786
622.000000	0.001605
621.000000	0.001422
620.000000	0.001455
619.000000	0.001630
618.000000	0.001777
617.000000	0.001901
616.000000	0.002034
615.000000	0.002061
614.000000	0.001942
613.000000	0.001882
612.000000	0.002031
611.000000	0.002238
610.000000	0.002325
609.000000	0.002367
608.000000	0.002469
607.000000	0.002548
606.000000	0.002559
605.000000	0.002679
604.000000	0.003004
603.000000	0.003327
602.000000	0.003453
601.000000	0.003482
600.000000	0.003549
599.000000	0.003572
598.000000	0.003490
597.000000	0.003464
596.000000	0.003587
595.000000	0.003679
594.000000	0.003597
593.000000	0.003485
592.000000	0.003470
591.000000	0.003401
590.000000	0.003161
589.000000	0.002939
588.000000	0.002912
587.000000	0.002951
586.000000	0.002892
585.000000	0.002812
584.000000	0.002789
583.000000	0.002686
582.000000	0.002454
581.000000	0.002327
580.000000	0.002443
579.000000	0.002565
578.000000	0.002472
577.000000	0.002313
576.000000	0.002288
575.000000	0.002296
574.000000	0.002220
573.000000	0.002208
572.000000	0.002358
571.000000	0.002443
570.000000	0.002277
569.000000	0.002055
568.000000	0.002003
567.000000	0.001996
566.000000	0.001851
565.000000	0.001667
564.000000	0.001566
563.000000	0.001422
562.000000	0.001160
561.000000	0.000992
560.000000	0.001049
559.000000	0.001109
558.000000	0.001017
557.000000	0.001013
556.000000	0.001289
555.000000	0.001589
554.000000	0.001618
553.000000	0.001516
552.000000	0.001531
551.000000	0.001563
550.000000	0.001438
549.000000	0.001312
548.000000	0.001368
547.000000	0.001438
546.000000	0.001303
545.000000	0.001104
544.000000	0.001062
543.000000	0.001087
542.000000	0.001015
541.000000	0.000934
540.000000	0.000951
539.000000	0.000911
538.000000	0.000703
537.000000	0.000515
536.000000	0.000502
535.000000	0.000508
534.000000	0.000429
533.000000	0.000489
532.000000	0.000834
531.000000	0.001207
530.000000	0.001364
529.000000	0.001418
528.000000	0.001491
527.000000	0.001425
526.000000	0.001176
525.000000	0.001089
524.000000	0.001319
523.000000	0.001496
522.000000	0.001329
521.000000	0.001063
520.000000	0.001002
519.000000	0.000999
518.000000	0.000818
517.000000	0.000643
516.000000	0.000706
515.000000	0.000825
514.000000	0.000795
513.000000	0.000771
512.000000	0.000902
511.000000	0.000986
510.000000	0.000858
509.000000	0.000735
508.000000	0.000828
507.000000	0.000991
506.000000	0.001102
505.000000	0.001330
504.000000	0.001677
503.000000	0.001739
502.000000	0.001365
501.000000	0.001045
500.000000	0.001141
499.000000	0.001354
498.000000	0.001387
497.000000	0.001471
496.000000	0.001822
495.000000	0.002152
494.000000	0.002199
493.000000	0.002228
492.000000	0.002490
491.000000	0.002684
490.000000	0.002513
489.000000	0.002254
488.000000	0.002204
487.000000	0.002115
486.000000	0.001716
485.000000	0.001295
484.000000	0.001181
483.000000	0.001133
482.000000	0.000854
481.000000	0.000591
480.000000	0.000609
479.000000	0.000661
478.000000	0.000536
477.000000	0.000577
476.000000	0.001043
475.000000	0.001496
474.000000	0.001428
473.000000	0.001072
472.000000	0.000923
471.000000	0.000875
470.000000	0.000659
469.000000	0.000546
468.000000	0.000807
467.000000	0.001081
466.000000	0.000981
465.000000	0.000795
464.000000	0.000903
463.000000	0.001071
462.000000	0.000973
461.000000	0.000823
460.000000	0.000849
459.000000	0.000704
458.000000	0.000190
457.000000	-0.000028
456.000000	0.000484
455.000000	0.001048
454.000000	0.001123
453.000000	0.001087
452.000000	0.001436
451.000000	0.001735
450.000000	0.001582
