PE IR       SUBTECH     SPECTRUM    ASCII       PEDS        4.00        
   -1
P12-Noir028_1.ASC
23/06/09
15:27:02.00
23/06/09
15:45:29.00
uco
Sample 028 By uco Date Friday, June 09 2023
450.000000
#HDR
-1
-1
#GR
cm-1
A
1.0
0.0
4000.000000
-1.000000
3551
8
0.003429
-0.001592
#DATA
4000.000000	-0.000769
3999.000000	-0.000785
3998.000000	-0.000786
3997.000000	-0.000775
3996.000000	-0.000759
3995.000000	-0.000746
3994.000000	-0.000735
3993.000000	-0.000725
3992.000000	-0.000713
3991.000000	-0.000699
3990.000000	-0.000683
3989.000000	-0.000673
3988.000000	-0.000672
3987.000000	-0.000681
3986.000000	-0.000697
3985.000000	-0.000709
3984.000000	-0.000713
3983.000000	-0.000712
3982.000000	-0.000717
3981.000000	-0.000732
3980.000000	-0.000756
3979.000000	-0.000778
3978.000000	-0.000795
3977.000000	-0.000803
3976.000000	-0.000804
3975.000000	-0.000796
3974.000000	-0.000777
3973.000000	-0.000749
3972.000000	-0.000722
3971.000000	-0.000703
3970.000000	-0.000694
3969.000000	-0.000694
3968.000000	-0.000699
3967.000000	-0.000704
3966.000000	-0.000709
3965.000000	-0.000714
3964.000000	-0.000720
3963.000000	-0.000727
3962.000000	-0.000734
3961.000000	-0.000738
3960.000000	-0.000734
3959.000000	-0.000722
3958.000000	-0.000709
3957.000000	-0.000705
3956.000000	-0.000714
3955.000000	-0.000731
3954.000000	-0.000746
3953.000000	-0.000753
3952.000000	-0.000751
3951.000000	-0.000743
3950.000000	-0.000735
3949.000000	-0.000728
3948.000000	-0.000721
3947.000000	-0.000711
3946.000000	-0.000700
3945.000000	-0.000690
3944.000000	-0.000686
3943.000000	-0.000683
3942.000000	-0.000677
3941.000000	-0.000667
3940.000000	-0.000657
3939.000000	-0.000650
3938.000000	-0.000648
3937.000000	-0.000651
3936.000000	-0.000658
3935.000000	-0.000671
3934.000000	-0.000687
3933.000000	-0.000698
3932.000000	-0.000697
3931.000000	-0.000683
3930.000000	-0.000662
3929.000000	-0.000643
3928.000000	-0.000629
3927.000000	-0.000620
3926.000000	-0.000611
3925.000000	-0.000607
3924.000000	-0.000613
3923.000000	-0.000636
3922.000000	-0.000667
3921.000000	-0.000694
3920.000000	-0.000705
3919.000000	-0.000695
3918.000000	-0.000674
3917.000000	-0.000652
3916.000000	-0.000639
3915.000000	-0.000634
3914.000000	-0.000636
3913.000000	-0.000643
3912.000000	-0.000655
3911.000000	-0.000671
3910.000000	-0.000690
3909.000000	-0.000707
3908.000000	-0.000721
3907.000000	-0.000733
3906.000000	-0.000741
3905.000000	-0.000744
3904.000000	-0.000741
3903.000000	-0.000728
3902.000000	-0.000710
3901.000000	-0.000698
3900.000000	-0.000697
3899.000000	-0.000701
3898.000000	-0.000698
3897.000000	-0.000683
3896.000000	-0.000662
3895.000000	-0.000644
3894.000000	-0.000635
3893.000000	-0.000643
3892.000000	-0.000668
3891.000000	-0.000697
3890.000000	-0.000711
3889.000000	-0.000703
3888.000000	-0.000684
3887.000000	-0.000672
3886.000000	-0.000679
3885.000000	-0.000698
3884.000000	-0.000710
3883.000000	-0.000706
3882.000000	-0.000691
3881.000000	-0.000678
3880.000000	-0.000670
3879.000000	-0.000664
3878.000000	-0.000654
3877.000000	-0.000642
3876.000000	-0.000630
3875.000000	-0.000617
3874.000000	-0.000602
3873.000000	-0.000587
3872.000000	-0.000576
3871.000000	-0.000577
3870.000000	-0.000599
3869.000000	-0.000635
3868.000000	-0.000671
3867.000000	-0.000698
3866.000000	-0.000713
3865.000000	-0.000711
3864.000000	-0.000691
3863.000000	-0.000665
3862.000000	-0.000645
3861.000000	-0.000636
3860.000000	-0.000635
3859.000000	-0.000636
3858.000000	-0.000638
3857.000000	-0.000644
3856.000000	-0.000662
3855.000000	-0.000699
3854.000000	-0.000755
3853.000000	-0.000811
3852.000000	-0.000831
3851.000000	-0.000809
3850.000000	-0.000769
3849.000000	-0.000729
3848.000000	-0.000699
3847.000000	-0.000676
3846.000000	-0.000654
3845.000000	-0.000630
3844.000000	-0.000606
3843.000000	-0.000587
3842.000000	-0.000576
3841.000000	-0.000574
3840.000000	-0.000584
3839.000000	-0.000611
3838.000000	-0.000648
3837.000000	-0.000681
3836.000000	-0.000696
3835.000000	-0.000694
3834.000000	-0.000684
3833.000000	-0.000671
3832.000000	-0.000655
3831.000000	-0.000641
3830.000000	-0.000631
3829.000000	-0.000627
3828.000000	-0.000626
3827.000000	-0.000623
3826.000000	-0.000614
3825.000000	-0.000602
3824.000000	-0.000592
3823.000000	-0.000583
3822.000000	-0.000579
3821.000000	-0.000589
3820.000000	-0.000619
3819.000000	-0.000660
3818.000000	-0.000700
3817.000000	-0.000723
3816.000000	-0.000725
3815.000000	-0.000707
3814.000000	-0.000680
3813.000000	-0.000656
3812.000000	-0.000642
3811.000000	-0.000634
3810.000000	-0.000628
3809.000000	-0.000620
3808.000000	-0.000613
3807.000000	-0.000618
3806.000000	-0.000637
3805.000000	-0.000661
3804.000000	-0.000682
3803.000000	-0.000691
3802.000000	-0.000686
3801.000000	-0.000672
3800.000000	-0.000653
3799.000000	-0.000638
3798.000000	-0.000631
3797.000000	-0.000629
3796.000000	-0.000626
3795.000000	-0.000622
3794.000000	-0.000620
3793.000000	-0.000625
3792.000000	-0.000637
3791.000000	-0.000648
3790.000000	-0.000654
3789.000000	-0.000655
3788.000000	-0.000653
3787.000000	-0.000649
3786.000000	-0.000646
3785.000000	-0.000646
3784.000000	-0.000653
3783.000000	-0.000665
3782.000000	-0.000675
3781.000000	-0.000677
3780.000000	-0.000672
3779.000000	-0.000664
3778.000000	-0.000659
3777.000000	-0.000657
3776.000000	-0.000655
3775.000000	-0.000653
3774.000000	-0.000649
3773.000000	-0.000646
3772.000000	-0.000649
3771.000000	-0.000664
3770.000000	-0.000687
3769.000000	-0.000708
3768.000000	-0.000720
3767.000000	-0.000723
3766.000000	-0.000720
3765.000000	-0.000710
3764.000000	-0.000694
3763.000000	-0.000673
3762.000000	-0.000657
3761.000000	-0.000651
3760.000000	-0.000655
3759.000000	-0.000664
3758.000000	-0.000672
3757.000000	-0.000680
3756.000000	-0.000695
3755.000000	-0.000719
3754.000000	-0.000746
3753.000000	-0.000769
3752.000000	-0.000780
3751.000000	-0.000783
3750.000000	-0.000784
3749.000000	-0.000787
3748.000000	-0.000792
3747.000000	-0.000789
3746.000000	-0.000769
3745.000000	-0.000739
3744.000000	-0.000721
3743.000000	-0.000723
3742.000000	-0.000737
3741.000000	-0.000751
3740.000000	-0.000760
3739.000000	-0.000759
3738.000000	-0.000752
3737.000000	-0.000745
3736.000000	-0.000744
3735.000000	-0.000746
3734.000000	-0.000739
3733.000000	-0.000727
3732.000000	-0.000720
3731.000000	-0.000728
3730.000000	-0.000745
3729.000000	-0.000758
3728.000000	-0.000758
3727.000000	-0.000743
3726.000000	-0.000711
3725.000000	-0.000668
3724.000000	-0.000623
3723.000000	-0.000596
3722.000000	-0.000598
3721.000000	-0.000628
3720.000000	-0.000671
3719.000000	-0.000708
3718.000000	-0.000731
3717.000000	-0.000743
3716.000000	-0.000750
3715.000000	-0.000754
3714.000000	-0.000745
3713.000000	-0.000719
3712.000000	-0.000680
3711.000000	-0.000645
3710.000000	-0.000628
3709.000000	-0.000631
3708.000000	-0.000646
3707.000000	-0.000666
3706.000000	-0.000686
3705.000000	-0.000707
3704.000000	-0.000730
3703.000000	-0.000752
3702.000000	-0.000764
3701.000000	-0.000759
3700.000000	-0.000741
3699.000000	-0.000718
3698.000000	-0.000697
3697.000000	-0.000677
3696.000000	-0.000663
3695.000000	-0.000660
3694.000000	-0.000673
3693.000000	-0.000707
3692.000000	-0.000755
3691.000000	-0.000797
3690.000000	-0.000817
3689.000000	-0.000810
3688.000000	-0.000787
3687.000000	-0.000762
3686.000000	-0.000744
3685.000000	-0.000733
3684.000000	-0.000727
3683.000000	-0.000726
3682.000000	-0.000732
3681.000000	-0.000745
3680.000000	-0.000763
3679.000000	-0.000779
3678.000000	-0.000791
3677.000000	-0.000796
3676.000000	-0.000796
3675.000000	-0.000791
3674.000000	-0.000775
3673.000000	-0.000749
3672.000000	-0.000721
3671.000000	-0.000698
3670.000000	-0.000687
3669.000000	-0.000684
3668.000000	-0.000677
3667.000000	-0.000662
3666.000000	-0.000644
3665.000000	-0.000627
3664.000000	-0.000617
3663.000000	-0.000613
3662.000000	-0.000611
3661.000000	-0.000607
3660.000000	-0.000603
3659.000000	-0.000604
3658.000000	-0.000613
3657.000000	-0.000622
3656.000000	-0.000621
3655.000000	-0.000605
3654.000000	-0.000584
3653.000000	-0.000577
3652.000000	-0.000601
3651.000000	-0.000650
3650.000000	-0.000705
3649.000000	-0.000737
3648.000000	-0.000739
3647.000000	-0.000716
3646.000000	-0.000681
3645.000000	-0.000638
3644.000000	-0.000598
3643.000000	-0.000575
3642.000000	-0.000580
3641.000000	-0.000602
3640.000000	-0.000621
3639.000000	-0.000621
3638.000000	-0.000605
3637.000000	-0.000586
3636.000000	-0.000572
3635.000000	-0.000565
3634.000000	-0.000561
3633.000000	-0.000561
3632.000000	-0.000565
3631.000000	-0.000576
3630.000000	-0.000594
3629.000000	-0.000620
3628.000000	-0.000636
3627.000000	-0.000617
3626.000000	-0.000563
3625.000000	-0.000495
3624.000000	-0.000441
3623.000000	-0.000419
3622.000000	-0.000427
3621.000000	-0.000451
3620.000000	-0.000468
3619.000000	-0.000470
3618.000000	-0.000464
3617.000000	-0.000462
3616.000000	-0.000468
3615.000000	-0.000479
3614.000000	-0.000484
3613.000000	-0.000473
3612.000000	-0.000443
3611.000000	-0.000400
3610.000000	-0.000354
3609.000000	-0.000318
3608.000000	-0.000303
3607.000000	-0.000307
3606.000000	-0.000318
3605.000000	-0.000324
3604.000000	-0.000322
3603.000000	-0.000317
3602.000000	-0.000306
3601.000000	-0.000287
3600.000000	-0.000262
3599.000000	-0.000240
3598.000000	-0.000236
3597.000000	-0.000255
3596.000000	-0.000286
3595.000000	-0.000309
3594.000000	-0.000312
3593.000000	-0.000296
3592.000000	-0.000273
3591.000000	-0.000255
3590.000000	-0.000246
3589.000000	-0.000245
3588.000000	-0.000251
3587.000000	-0.000259
3586.000000	-0.000257
3585.000000	-0.000239
3584.000000	-0.000210
3583.000000	-0.000181
3582.000000	-0.000157
3581.000000	-0.000135
3580.000000	-0.000110
3579.000000	-0.000085
3578.000000	-0.000067
3577.000000	-0.000063
3576.000000	-0.000070
3575.000000	-0.000077
3574.000000	-0.000079
3573.000000	-0.000077
3572.000000	-0.000078
3571.000000	-0.000082
3570.000000	-0.000080
3569.000000	-0.000064
3568.000000	-0.000041
3567.000000	-0.000024
3566.000000	-0.000018
3565.000000	-0.000013
3564.000000	-0.000003
3563.000000	0.000011
3562.000000	0.000028
3561.000000	0.000050
3560.000000	0.000074
3559.000000	0.000091
3558.000000	0.000095
3557.000000	0.000091
3556.000000	0.000091
3555.000000	0.000102
3554.000000	0.000124
3553.000000	0.000147
3552.000000	0.000165
3551.000000	0.000179
3550.000000	0.000199
3549.000000	0.000229
3548.000000	0.000266
3547.000000	0.000293
3546.000000	0.000295
3545.000000	0.000273
3544.000000	0.000246
3543.000000	0.000229
3542.000000	0.000224
3541.000000	0.000222
3540.000000	0.000212
3539.000000	0.000194
3538.000000	0.000180
3537.000000	0.000181
3536.000000	0.000203
3535.000000	0.000238
3534.000000	0.000275
3533.000000	0.000306
3532.000000	0.000326
3531.000000	0.000341
3530.000000	0.000356
3529.000000	0.000377
3528.000000	0.000402
3527.000000	0.000421
3526.000000	0.000420
3525.000000	0.000393
3524.000000	0.000354
3523.000000	0.000319
3522.000000	0.000303
3521.000000	0.000306
3520.000000	0.000319
3519.000000	0.000331
3518.000000	0.000336
3517.000000	0.000336
3516.000000	0.000334
3515.000000	0.000337
3514.000000	0.000346
3513.000000	0.000360
3512.000000	0.000382
3511.000000	0.000416
3510.000000	0.000459
3509.000000	0.000501
3508.000000	0.000528
3507.000000	0.000526
3506.000000	0.000499
3505.000000	0.000462
3504.000000	0.000438
3503.000000	0.000438
3502.000000	0.000460
3501.000000	0.000489
3500.000000	0.000513
3499.000000	0.000529
3498.000000	0.000537
3497.000000	0.000538
3496.000000	0.000535
3495.000000	0.000535
3494.000000	0.000542
3493.000000	0.000557
3492.000000	0.000573
3491.000000	0.000585
3490.000000	0.000587
3489.000000	0.000581
3488.000000	0.000574
3487.000000	0.000573
3486.000000	0.000584
3485.000000	0.000603
3484.000000	0.000623
3483.000000	0.000638
3482.000000	0.000651
3481.000000	0.000670
3480.000000	0.000695
3479.000000	0.000717
3478.000000	0.000721
3477.000000	0.000698
3476.000000	0.000659
3475.000000	0.000628
3474.000000	0.000624
3473.000000	0.000645
3472.000000	0.000673
3471.000000	0.000691
3470.000000	0.000692
3469.000000	0.000684
3468.000000	0.000677
3467.000000	0.000676
3466.000000	0.000686
3465.000000	0.000701
3464.000000	0.000720
3463.000000	0.000740
3462.000000	0.000759
3461.000000	0.000776
3460.000000	0.000785
3459.000000	0.000785
3458.000000	0.000771
3457.000000	0.000744
3456.000000	0.000709
3455.000000	0.000684
3454.000000	0.000681
3453.000000	0.000699
3452.000000	0.000724
3451.000000	0.000741
3450.000000	0.000748
3449.000000	0.000752
3448.000000	0.000764
3447.000000	0.000787
3446.000000	0.000821
3445.000000	0.000857
3444.000000	0.000886
3443.000000	0.000902
3442.000000	0.000906
3441.000000	0.000909
3440.000000	0.000918
3439.000000	0.000935
3438.000000	0.000956
3437.000000	0.000970
3436.000000	0.000971
3435.000000	0.000962
3434.000000	0.000952
3433.000000	0.000948
3432.000000	0.000954
3431.000000	0.000972
3430.000000	0.001004
3429.000000	0.001042
3428.000000	0.001069
3427.000000	0.001074
3426.000000	0.001061
3425.000000	0.001047
3424.000000	0.001046
3423.000000	0.001062
3422.000000	0.001088
3421.000000	0.001113
3420.000000	0.001129
3419.000000	0.001139
3418.000000	0.001149
3417.000000	0.001161
3416.000000	0.001175
3415.000000	0.001190
3414.000000	0.001215
3413.000000	0.001256
3412.000000	0.001306
3411.000000	0.001348
3410.000000	0.001369
3409.000000	0.001367
3408.000000	0.001348
3407.000000	0.001324
3406.000000	0.001307
3405.000000	0.001303
3404.000000	0.001309
3403.000000	0.001318
3402.000000	0.001327
3401.000000	0.001337
3400.000000	0.001349
3399.000000	0.001360
3398.000000	0.001366
3397.000000	0.001366
3396.000000	0.001364
3395.000000	0.001368
3394.000000	0.001386
3393.000000	0.001416
3392.000000	0.001448
3391.000000	0.001469
3390.000000	0.001477
3389.000000	0.001483
3388.000000	0.001496
3387.000000	0.001511
3386.000000	0.001518
3385.000000	0.001510
3384.000000	0.001491
3383.000000	0.001473
3382.000000	0.001465
3381.000000	0.001467
3380.000000	0.001473
3379.000000	0.001472
3378.000000	0.001462
3377.000000	0.001450
3376.000000	0.001446
3375.000000	0.001455
3374.000000	0.001472
3373.000000	0.001490
3372.000000	0.001501
3371.000000	0.001506
3370.000000	0.001508
3369.000000	0.001513
3368.000000	0.001519
3367.000000	0.001519
3366.000000	0.001508
3365.000000	0.001492
3364.000000	0.001478
3363.000000	0.001472
3362.000000	0.001469
3361.000000	0.001467
3360.000000	0.001466
3359.000000	0.001473
3358.000000	0.001490
3357.000000	0.001518
3356.000000	0.001550
3355.000000	0.001574
3354.000000	0.001579
3353.000000	0.001563
3352.000000	0.001535
3351.000000	0.001508
3350.000000	0.001490
3349.000000	0.001479
3348.000000	0.001472
3347.000000	0.001470
3346.000000	0.001478
3345.000000	0.001497
3344.000000	0.001522
3343.000000	0.001538
3342.000000	0.001534
3341.000000	0.001511
3340.000000	0.001481
3339.000000	0.001463
3338.000000	0.001467
3337.000000	0.001486
3336.000000	0.001505
3335.000000	0.001513
3334.000000	0.001511
3333.000000	0.001501
3332.000000	0.001483
3331.000000	0.001458
3330.000000	0.001430
3329.000000	0.001409
3328.000000	0.001402
3327.000000	0.001406
3326.000000	0.001413
3325.000000	0.001412
3324.000000	0.001403
3323.000000	0.001391
3322.000000	0.001384
3321.000000	0.001380
3320.000000	0.001369
3319.000000	0.001350
3318.000000	0.001341
3317.000000	0.001357
3316.000000	0.001398
3315.000000	0.001445
3314.000000	0.001476
3313.000000	0.001483
3312.000000	0.001470
3311.000000	0.001449
3310.000000	0.001432
3309.000000	0.001420
3308.000000	0.001408
3307.000000	0.001391
3306.000000	0.001375
3305.000000	0.001371
3304.000000	0.001383
3303.000000	0.001402
3302.000000	0.001415
3301.000000	0.001419
3300.000000	0.001416
3299.000000	0.001410
3298.000000	0.001400
3297.000000	0.001388
3296.000000	0.001378
3295.000000	0.001377
3294.000000	0.001381
3293.000000	0.001390
3292.000000	0.001403
3291.000000	0.001423
3290.000000	0.001445
3289.000000	0.001457
3288.000000	0.001451
3287.000000	0.001432
3286.000000	0.001414
3285.000000	0.001404
3284.000000	0.001397
3283.000000	0.001384
3282.000000	0.001370
3281.000000	0.001365
3280.000000	0.001371
3279.000000	0.001379
3278.000000	0.001377
3277.000000	0.001362
3276.000000	0.001343
3275.000000	0.001332
3274.000000	0.001336
3273.000000	0.001348
3272.000000	0.001354
3271.000000	0.001344
3270.000000	0.001323
3269.000000	0.001306
3268.000000	0.001310
3267.000000	0.001337
3266.000000	0.001376
3265.000000	0.001407
3264.000000	0.001417
3263.000000	0.001402
3262.000000	0.001369
3261.000000	0.001333
3260.000000	0.001305
3259.000000	0.001294
3258.000000	0.001296
3257.000000	0.001303
3256.000000	0.001305
3255.000000	0.001297
3254.000000	0.001288
3253.000000	0.001287
3252.000000	0.001295
3251.000000	0.001302
3250.000000	0.001300
3249.000000	0.001297
3248.000000	0.001307
3247.000000	0.001333
3246.000000	0.001359
3245.000000	0.001368
3244.000000	0.001359
3243.000000	0.001347
3242.000000	0.001342
3241.000000	0.001341
3240.000000	0.001337
3239.000000	0.001333
3238.000000	0.001333
3237.000000	0.001337
3236.000000	0.001334
3235.000000	0.001318
3234.000000	0.001298
3233.000000	0.001292
3232.000000	0.001307
3231.000000	0.001334
3230.000000	0.001350
3229.000000	0.001343
3228.000000	0.001321
3227.000000	0.001304
3226.000000	0.001304
3225.000000	0.001313
3224.000000	0.001317
3223.000000	0.001310
3222.000000	0.001298
3221.000000	0.001288
3220.000000	0.001275
3219.000000	0.001253
3218.000000	0.001226
3217.000000	0.001204
3216.000000	0.001194
3215.000000	0.001193
3214.000000	0.001193
3213.000000	0.001189
3212.000000	0.001182
3211.000000	0.001179
3210.000000	0.001183
3209.000000	0.001191
3208.000000	0.001198
3207.000000	0.001202
3206.000000	0.001205
3205.000000	0.001208
3204.000000	0.001209
3203.000000	0.001207
3202.000000	0.001198
3201.000000	0.001188
3200.000000	0.001182
3199.000000	0.001185
3198.000000	0.001194
3197.000000	0.001203
3196.000000	0.001207
3195.000000	0.001208
3194.000000	0.001213
3193.000000	0.001225
3192.000000	0.001233
3191.000000	0.001225
3190.000000	0.001197
3189.000000	0.001161
3188.000000	0.001127
3187.000000	0.001101
3186.000000	0.001082
3185.000000	0.001074
3184.000000	0.001084
3183.000000	0.001111
3182.000000	0.001144
3181.000000	0.001168
3180.000000	0.001180
3179.000000	0.001187
3178.000000	0.001192
3177.000000	0.001191
3176.000000	0.001170
3175.000000	0.001127
3174.000000	0.001081
3173.000000	0.001053
3172.000000	0.001054
3171.000000	0.001076
3170.000000	0.001103
3169.000000	0.001121
3168.000000	0.001124
3167.000000	0.001115
3166.000000	0.001102
3165.000000	0.001091
3164.000000	0.001080
3163.000000	0.001069
3162.000000	0.001060
3161.000000	0.001053
3160.000000	0.001048
3159.000000	0.001042
3158.000000	0.001038
3157.000000	0.001045
3156.000000	0.001059
3155.000000	0.001072
3154.000000	0.001075
3153.000000	0.001069
3152.000000	0.001063
3151.000000	0.001059
3150.000000	0.001049
3149.000000	0.001029
3148.000000	0.001005
3147.000000	0.000989
3146.000000	0.000994
3145.000000	0.001016
3144.000000	0.001041
3143.000000	0.001051
3142.000000	0.001038
3141.000000	0.001010
3140.000000	0.000982
3139.000000	0.000967
3138.000000	0.000968
3137.000000	0.000977
3136.000000	0.000977
3135.000000	0.000959
3134.000000	0.000932
3133.000000	0.000908
3132.000000	0.000901
3131.000000	0.000910
3130.000000	0.000926
3129.000000	0.000942
3128.000000	0.000952
3127.000000	0.000956
3126.000000	0.000963
3125.000000	0.000977
3124.000000	0.000991
3123.000000	0.000992
3122.000000	0.000974
3121.000000	0.000947
3120.000000	0.000922
3119.000000	0.000907
3118.000000	0.000904
3117.000000	0.000915
3116.000000	0.000939
3115.000000	0.000964
3114.000000	0.000979
3113.000000	0.000978
3112.000000	0.000967
3111.000000	0.000950
3110.000000	0.000933
3109.000000	0.000922
3108.000000	0.000926
3107.000000	0.000942
3106.000000	0.000959
3105.000000	0.000965
3104.000000	0.000957
3103.000000	0.000938
3102.000000	0.000913
3101.000000	0.000886
3100.000000	0.000859
3099.000000	0.000835
3098.000000	0.000817
3097.000000	0.000811
3096.000000	0.000818
3095.000000	0.000836
3094.000000	0.000858
3093.000000	0.000878
3092.000000	0.000894
3091.000000	0.000902
3090.000000	0.000900
3089.000000	0.000889
3088.000000	0.000874
3087.000000	0.000865
3086.000000	0.000862
3085.000000	0.000864
3084.000000	0.000866
3083.000000	0.000866
3082.000000	0.000865
3081.000000	0.000861
3080.000000	0.000855
3079.000000	0.000849
3078.000000	0.000843
3077.000000	0.000837
3076.000000	0.000831
3075.000000	0.000825
3074.000000	0.000821
3073.000000	0.000823
3072.000000	0.000835
3071.000000	0.000853
3070.000000	0.000873
3069.000000	0.000887
3068.000000	0.000892
3067.000000	0.000891
3066.000000	0.000884
3065.000000	0.000873
3064.000000	0.000858
3063.000000	0.000844
3062.000000	0.000831
3061.000000	0.000816
3060.000000	0.000796
3059.000000	0.000774
3058.000000	0.000758
3057.000000	0.000753
3056.000000	0.000755
3055.000000	0.000753
3054.000000	0.000749
3053.000000	0.000750
3052.000000	0.000756
3051.000000	0.000756
3050.000000	0.000743
3049.000000	0.000725
3048.000000	0.000721
3047.000000	0.000734
3046.000000	0.000754
3045.000000	0.000767
3044.000000	0.000769
3043.000000	0.000764
3042.000000	0.000757
3041.000000	0.000750
3040.000000	0.000744
3039.000000	0.000737
3038.000000	0.000730
3037.000000	0.000727
3036.000000	0.000732
3035.000000	0.000742
3034.000000	0.000746
3033.000000	0.000742
3032.000000	0.000729
3031.000000	0.000711
3030.000000	0.000689
3029.000000	0.000668
3028.000000	0.000654
3027.000000	0.000652
3026.000000	0.000656
3025.000000	0.000658
3024.000000	0.000657
3023.000000	0.000659
3022.000000	0.000665
3021.000000	0.000668
3020.000000	0.000658
3019.000000	0.000641
3018.000000	0.000626
3017.000000	0.000620
3016.000000	0.000619
3015.000000	0.000618
3014.000000	0.000614
3013.000000	0.000605
3012.000000	0.000596
3011.000000	0.000588
3010.000000	0.000588
3009.000000	0.000596
3008.000000	0.000605
3007.000000	0.000605
3006.000000	0.000593
3005.000000	0.000576
3004.000000	0.000560
3003.000000	0.000550
3002.000000	0.000543
3001.000000	0.000540
3000.000000	0.000542
2999.000000	0.000553
2998.000000	0.000570
2997.000000	0.000586
2996.000000	0.000600
2995.000000	0.000607
2994.000000	0.000608
2993.000000	0.000605
2992.000000	0.000606
2991.000000	0.000619
2990.000000	0.000638
2989.000000	0.000651
2988.000000	0.000649
2987.000000	0.000635
2986.000000	0.000623
2985.000000	0.000621
2984.000000	0.000627
2983.000000	0.000639
2982.000000	0.000651
2981.000000	0.000663
2980.000000	0.000676
2979.000000	0.000685
2978.000000	0.000687
2977.000000	0.000678
2976.000000	0.000659
2975.000000	0.000637
2974.000000	0.000622
2973.000000	0.000611
2972.000000	0.000600
2971.000000	0.000586
2970.000000	0.000575
2969.000000	0.000583
2968.000000	0.000612
2967.000000	0.000650
2966.000000	0.000675
2965.000000	0.000680
2964.000000	0.000672
2963.000000	0.000668
2962.000000	0.000679
2961.000000	0.000698
2960.000000	0.000714
2959.000000	0.000719
2958.000000	0.000715
2957.000000	0.000709
2956.000000	0.000709
2955.000000	0.000715
2954.000000	0.000728
2953.000000	0.000744
2952.000000	0.000757
2951.000000	0.000761
2950.000000	0.000756
2949.000000	0.000747
2948.000000	0.000743
2947.000000	0.000740
2946.000000	0.000734
2945.000000	0.000723
2944.000000	0.000715
2943.000000	0.000721
2942.000000	0.000743
2941.000000	0.000774
2940.000000	0.000802
2939.000000	0.000826
2938.000000	0.000849
2937.000000	0.000872
2936.000000	0.000893
2935.000000	0.000903
2934.000000	0.000897
2933.000000	0.000878
2932.000000	0.000855
2931.000000	0.000836
2930.000000	0.000820
2929.000000	0.000801
2928.000000	0.000780
2927.000000	0.000762
2926.000000	0.000749
2925.000000	0.000738
2924.000000	0.000727
2923.000000	0.000721
2922.000000	0.000728
2921.000000	0.000749
2920.000000	0.000770
2919.000000	0.000778
2918.000000	0.000767
2917.000000	0.000747
2916.000000	0.000728
2915.000000	0.000717
2914.000000	0.000711
2913.000000	0.000706
2912.000000	0.000701
2911.000000	0.000697
2910.000000	0.000693
2909.000000	0.000686
2908.000000	0.000678
2907.000000	0.000669
2906.000000	0.000665
2905.000000	0.000664
2904.000000	0.000668
2903.000000	0.000678
2902.000000	0.000689
2901.000000	0.000695
2900.000000	0.000694
2899.000000	0.000688
2898.000000	0.000686
2897.000000	0.000687
2896.000000	0.000688
2895.000000	0.000686
2894.000000	0.000684
2893.000000	0.000679
2892.000000	0.000672
2891.000000	0.000663
2890.000000	0.000656
2889.000000	0.000652
2888.000000	0.000649
2887.000000	0.000645
2886.000000	0.000642
2885.000000	0.000645
2884.000000	0.000654
2883.000000	0.000661
2882.000000	0.000660
2881.000000	0.000649
2880.000000	0.000634
2879.000000	0.000618
2878.000000	0.000607
2877.000000	0.000602
2876.000000	0.000607
2875.000000	0.000621
2874.000000	0.000636
2873.000000	0.000640
2872.000000	0.000623
2871.000000	0.000592
2870.000000	0.000559
2869.000000	0.000540
2868.000000	0.000540
2867.000000	0.000553
2866.000000	0.000572
2865.000000	0.000587
2864.000000	0.000596
2863.000000	0.000605
2862.000000	0.000620
2861.000000	0.000642
2860.000000	0.000661
2859.000000	0.000664
2858.000000	0.000647
2857.000000	0.000616
2856.000000	0.000582
2855.000000	0.000560
2854.000000	0.000555
2853.000000	0.000564
2852.000000	0.000578
2851.000000	0.000588
2850.000000	0.000587
2849.000000	0.000577
2848.000000	0.000559
2847.000000	0.000539
2846.000000	0.000523
2845.000000	0.000516
2844.000000	0.000516
2843.000000	0.000516
2842.000000	0.000509
2841.000000	0.000496
2840.000000	0.000482
2839.000000	0.000474
2838.000000	0.000476
2837.000000	0.000487
2836.000000	0.000502
2835.000000	0.000518
2834.000000	0.000531
2833.000000	0.000534
2832.000000	0.000526
2831.000000	0.000512
2830.000000	0.000500
2829.000000	0.000498
2828.000000	0.000499
2827.000000	0.000497
2826.000000	0.000492
2825.000000	0.000490
2824.000000	0.000492
2823.000000	0.000494
2822.000000	0.000489
2821.000000	0.000478
2820.000000	0.000465
2819.000000	0.000455
2818.000000	0.000451
2817.000000	0.000458
2816.000000	0.000476
2815.000000	0.000498
2814.000000	0.000512
2813.000000	0.000517
2812.000000	0.000513
2811.000000	0.000505
2810.000000	0.000491
2809.000000	0.000473
2808.000000	0.000456
2807.000000	0.000445
2806.000000	0.000442
2805.000000	0.000442
2804.000000	0.000440
2803.000000	0.000440
2802.000000	0.000449
2801.000000	0.000470
2800.000000	0.000495
2799.000000	0.000510
2798.000000	0.000510
2797.000000	0.000498
2796.000000	0.000482
2795.000000	0.000466
2794.000000	0.000453
2793.000000	0.000447
2792.000000	0.000451
2791.000000	0.000466
2790.000000	0.000483
2789.000000	0.000494
2788.000000	0.000496
2787.000000	0.000494
2786.000000	0.000492
2785.000000	0.000498
2784.000000	0.000510
2783.000000	0.000516
2782.000000	0.000502
2781.000000	0.000465
2780.000000	0.000420
2779.000000	0.000391
2778.000000	0.000390
2777.000000	0.000414
2776.000000	0.000448
2775.000000	0.000476
2774.000000	0.000490
2773.000000	0.000493
2772.000000	0.000490
2771.000000	0.000485
2770.000000	0.000477
2769.000000	0.000469
2768.000000	0.000467
2767.000000	0.000477
2766.000000	0.000492
2765.000000	0.000497
2764.000000	0.000487
2763.000000	0.000466
2762.000000	0.000447
2761.000000	0.000441
2760.000000	0.000448
2759.000000	0.000464
2758.000000	0.000479
2757.000000	0.000486
2756.000000	0.000484
2755.000000	0.000479
2754.000000	0.000474
2753.000000	0.000469
2752.000000	0.000458
2751.000000	0.000442
2750.000000	0.000424
2749.000000	0.000408
2748.000000	0.000399
2747.000000	0.000399
2746.000000	0.000405
2745.000000	0.000412
2744.000000	0.000415
2743.000000	0.000413
2742.000000	0.000407
2741.000000	0.000400
2740.000000	0.000395
2739.000000	0.000395
2738.000000	0.000400
2737.000000	0.000405
2736.000000	0.000406
2735.000000	0.000408
2734.000000	0.000415
2733.000000	0.000426
2732.000000	0.000434
2731.000000	0.000435
2730.000000	0.000429
2729.000000	0.000421
2728.000000	0.000417
2727.000000	0.000416
2726.000000	0.000416
2725.000000	0.000414
2724.000000	0.000405
2723.000000	0.000392
2722.000000	0.000381
2721.000000	0.000376
2720.000000	0.000376
2719.000000	0.000375
2718.000000	0.000373
2717.000000	0.000377
2716.000000	0.000388
2715.000000	0.000398
2714.000000	0.000403
2713.000000	0.000404
2712.000000	0.000410
2711.000000	0.000424
2710.000000	0.000438
2709.000000	0.000445
2708.000000	0.000439
2707.000000	0.000423
2706.000000	0.000399
2705.000000	0.000371
2704.000000	0.000346
2703.000000	0.000337
2702.000000	0.000349
2701.000000	0.000376
2700.000000	0.000402
2699.000000	0.000416
2698.000000	0.000416
2697.000000	0.000405
2696.000000	0.000387
2695.000000	0.000369
2694.000000	0.000357
2693.000000	0.000349
2692.000000	0.000342
2691.000000	0.000339
2690.000000	0.000343
2689.000000	0.000359
2688.000000	0.000375
2687.000000	0.000382
2686.000000	0.000376
2685.000000	0.000364
2684.000000	0.000355
2683.000000	0.000352
2682.000000	0.000355
2681.000000	0.000362
2680.000000	0.000374
2679.000000	0.000387
2678.000000	0.000398
2677.000000	0.000405
2676.000000	0.000409
2675.000000	0.000410
2674.000000	0.000408
2673.000000	0.000402
2672.000000	0.000393
2671.000000	0.000382
2670.000000	0.000370
2669.000000	0.000361
2668.000000	0.000354
2667.000000	0.000353
2666.000000	0.000363
2665.000000	0.000384
2664.000000	0.000413
2663.000000	0.000441
2662.000000	0.000458
2661.000000	0.000461
2660.000000	0.000457
2659.000000	0.000456
2658.000000	0.000462
2657.000000	0.000469
2656.000000	0.000470
2655.000000	0.000464
2654.000000	0.000459
2653.000000	0.000461
2652.000000	0.000466
2651.000000	0.000466
2650.000000	0.000460
2649.000000	0.000448
2648.000000	0.000434
2647.000000	0.000421
2646.000000	0.000412
2645.000000	0.000409
2644.000000	0.000407
2643.000000	0.000402
2642.000000	0.000394
2641.000000	0.000384
2640.000000	0.000376
2639.000000	0.000371
2638.000000	0.000373
2637.000000	0.000384
2636.000000	0.000396
2635.000000	0.000402
2634.000000	0.000402
2633.000000	0.000399
2632.000000	0.000389
2631.000000	0.000369
2630.000000	0.000342
2629.000000	0.000323
2628.000000	0.000321
2627.000000	0.000327
2626.000000	0.000324
2625.000000	0.000307
2624.000000	0.000280
2623.000000	0.000253
2622.000000	0.000231
2621.000000	0.000214
2620.000000	0.000203
2619.000000	0.000198
2618.000000	0.000200
2617.000000	0.000211
2616.000000	0.000235
2615.000000	0.000270
2614.000000	0.000306
2613.000000	0.000331
2612.000000	0.000334
2611.000000	0.000312
2610.000000	0.000270
2609.000000	0.000219
2608.000000	0.000171
2607.000000	0.000134
2606.000000	0.000109
2605.000000	0.000100
2604.000000	0.000107
2603.000000	0.000124
2602.000000	0.000145
2601.000000	0.000161
2600.000000	0.000171
2599.000000	0.000179
2598.000000	0.000190
2597.000000	0.000198
2596.000000	0.000198
2595.000000	0.000188
2594.000000	0.000173
2593.000000	0.000153
2592.000000	0.000126
2591.000000	0.000095
2590.000000	0.000070
2589.000000	0.000063
2588.000000	0.000075
2587.000000	0.000098
2586.000000	0.000121
2585.000000	0.000136
2584.000000	0.000135
2583.000000	0.000118
2582.000000	0.000099
2581.000000	0.000096
2580.000000	0.000113
2579.000000	0.000134
2578.000000	0.000139
2577.000000	0.000126
2576.000000	0.000109
2575.000000	0.000097
2574.000000	0.000089
2573.000000	0.000082
2572.000000	0.000080
2571.000000	0.000087
2570.000000	0.000100
2569.000000	0.000108
2568.000000	0.000104
2567.000000	0.000093
2566.000000	0.000082
2565.000000	0.000070
2564.000000	0.000049
2563.000000	0.000021
2562.000000	-0.000003
2561.000000	-0.000012
2560.000000	-0.000006
2559.000000	0.000007
2558.000000	0.000015
2557.000000	0.000012
2556.000000	-0.000002
2555.000000	-0.000020
2554.000000	-0.000027
2553.000000	-0.000022
2552.000000	-0.000019
2551.000000	-0.000032
2550.000000	-0.000057
2549.000000	-0.000079
2548.000000	-0.000089
2547.000000	-0.000093
2546.000000	-0.000097
2545.000000	-0.000099
2544.000000	-0.000094
2543.000000	-0.000075
2542.000000	-0.000043
2541.000000	-0.000010
2540.000000	0.000005
2539.000000	-0.000005
2538.000000	-0.000025
2537.000000	-0.000037
2536.000000	-0.000039
2535.000000	-0.000043
2534.000000	-0.000051
2533.000000	-0.000046
2532.000000	-0.000018
2531.000000	0.000016
2530.000000	0.000032
2529.000000	0.000028
2528.000000	0.000027
2527.000000	0.000042
2526.000000	0.000067
2525.000000	0.000082
2524.000000	0.000079
2523.000000	0.000061
2522.000000	0.000035
2521.000000	0.000008
2520.000000	-0.000016
2519.000000	-0.000027
2518.000000	-0.000020
2517.000000	0.000004
2516.000000	0.000032
2515.000000	0.000050
2514.000000	0.000054
2513.000000	0.000047
2512.000000	0.000032
2511.000000	0.000012
2510.000000	-0.000005
2509.000000	-0.000007
2508.000000	0.000007
2507.000000	0.000026
2506.000000	0.000038
2505.000000	0.000037
2504.000000	0.000024
2503.000000	0.000002
2502.000000	-0.000019
2501.000000	-0.000024
2500.000000	-0.000010
2499.000000	0.000009
2498.000000	0.000013
2497.000000	-0.000003
2496.000000	-0.000020
2495.000000	-0.000025
2494.000000	-0.000023
2493.000000	-0.000029
2492.000000	-0.000047
2491.000000	-0.000057
2490.000000	-0.000045
2489.000000	-0.000015
2488.000000	0.000016
2487.000000	0.000032
2486.000000	0.000031
2485.000000	0.000021
2484.000000	0.000010
2483.000000	0.000012
2482.000000	0.000029
2481.000000	0.000050
2480.000000	0.000053
2479.000000	0.000027
2478.000000	-0.000006
2477.000000	-0.000017
2476.000000	0.000000
2475.000000	0.000026
2474.000000	0.000039
2473.000000	0.000042
2472.000000	0.000045
2471.000000	0.000048
2470.000000	0.000041
2469.000000	0.000025
2468.000000	0.000021
2467.000000	0.000043
2466.000000	0.000083
2465.000000	0.000113
2464.000000	0.000110
2463.000000	0.000076
2462.000000	0.000038
2461.000000	0.000016
2460.000000	0.000011
2459.000000	0.000009
2458.000000	-0.000002
2457.000000	-0.000019
2456.000000	-0.000034
2455.000000	-0.000044
2454.000000	-0.000049
2453.000000	-0.000048
2452.000000	-0.000041
2451.000000	-0.000035
2450.000000	-0.000037
2449.000000	-0.000046
2448.000000	-0.000055
2447.000000	-0.000059
2446.000000	-0.000058
2445.000000	-0.000053
2444.000000	-0.000041
2443.000000	-0.000025
2442.000000	-0.000013
2441.000000	-0.000011
2440.000000	-0.000013
2439.000000	-0.000012
2438.000000	-0.000010
2437.000000	-0.000020
2436.000000	-0.000043
2435.000000	-0.000068
2434.000000	-0.000080
2433.000000	-0.000082
2432.000000	-0.000082
2431.000000	-0.000073
2430.000000	-0.000042
2429.000000	0.000010
2428.000000	0.000058
2427.000000	0.000078
2426.000000	0.000075
2425.000000	0.000065
2424.000000	0.000051
2423.000000	0.000021
2422.000000	-0.000030
2421.000000	-0.000087
2420.000000	-0.000128
2419.000000	-0.000145
2418.000000	-0.000144
2417.000000	-0.000133
2416.000000	-0.000120
2415.000000	-0.000117
2414.000000	-0.000131
2413.000000	-0.000155
2412.000000	-0.000164
2411.000000	-0.000148
2410.000000	-0.000118
2409.000000	-0.000093
2408.000000	-0.000082
2407.000000	-0.000070
2406.000000	-0.000042
2405.000000	-0.000007
2404.000000	0.000006
2403.000000	-0.000021
2402.000000	-0.000078
2401.000000	-0.000135
2400.000000	-0.000168
2399.000000	-0.000176
2398.000000	-0.000172
2397.000000	-0.000166
2396.000000	-0.000159
2395.000000	-0.000143
2394.000000	-0.000118
2393.000000	-0.000092
2392.000000	-0.000080
2391.000000	-0.000084
2390.000000	-0.000089
2389.000000	-0.000084
2388.000000	-0.000077
2387.000000	-0.000088
2386.000000	-0.000121
2385.000000	-0.000167
2384.000000	-0.000211
2383.000000	-0.000249
2382.000000	-0.000277
2381.000000	-0.000287
2380.000000	-0.000281
2379.000000	-0.000269
2378.000000	-0.000259
2377.000000	-0.000253
2376.000000	-0.000250
2375.000000	-0.000255
2374.000000	-0.000266
2373.000000	-0.000275
2372.000000	-0.000273
2371.000000	-0.000261
2370.000000	-0.000242
2369.000000	-0.000215
2368.000000	-0.000180
2367.000000	-0.000152
2366.000000	-0.000154
2365.000000	-0.000191
2364.000000	-0.000237
2363.000000	-0.000256
2362.000000	-0.000235
2361.000000	-0.000191
2360.000000	-0.000150
2359.000000	-0.000134
2358.000000	-0.000151
2357.000000	-0.000191
2356.000000	-0.000226
2355.000000	-0.000227
2354.000000	-0.000198
2353.000000	-0.000167
2352.000000	-0.000149
2351.000000	-0.000141
2350.000000	-0.000134
2349.000000	-0.000125
2348.000000	-0.000113
2347.000000	-0.000102
2346.000000	-0.000084
2345.000000	-0.000043
2344.000000	0.000013
2343.000000	0.000051
2342.000000	0.000049
2341.000000	0.000017
2340.000000	-0.000014
2339.000000	-0.000023
2338.000000	-0.000016
2337.000000	-0.000013
2336.000000	-0.000021
2335.000000	-0.000036
2334.000000	-0.000054
2333.000000	-0.000062
2332.000000	-0.000041
2331.000000	0.000011
2330.000000	0.000068
2329.000000	0.000104
2328.000000	0.000129
2327.000000	0.000179
2326.000000	0.000270
2325.000000	0.000379
2324.000000	0.000462
2323.000000	0.000489
2322.000000	0.000466
2321.000000	0.000426
2320.000000	0.000404
2319.000000	0.000409
2318.000000	0.000421
2317.000000	0.000412
2316.000000	0.000364
2315.000000	0.000281
2314.000000	0.000191
2313.000000	0.000129
2312.000000	0.000110
2311.000000	0.000121
2310.000000	0.000133
2309.000000	0.000129
2308.000000	0.000109
2307.000000	0.000075
2306.000000	0.000028
2305.000000	-0.000023
2304.000000	-0.000056
2303.000000	-0.000056
2302.000000	-0.000027
2301.000000	0.000012
2300.000000	0.000042
2299.000000	0.000051
2298.000000	0.000045
2297.000000	0.000044
2296.000000	0.000069
2295.000000	0.000122
2294.000000	0.000180
2293.000000	0.000219
2292.000000	0.000233
2291.000000	0.000240
2290.000000	0.000261
2289.000000	0.000303
2288.000000	0.000353
2287.000000	0.000388
2286.000000	0.000392
2285.000000	0.000372
2284.000000	0.000354
2283.000000	0.000343
2282.000000	0.000317
2281.000000	0.000262
2280.000000	0.000204
2279.000000	0.000182
2278.000000	0.000201
2277.000000	0.000218
2276.000000	0.000207
2275.000000	0.000192
2274.000000	0.000206
2273.000000	0.000240
2272.000000	0.000251
2271.000000	0.000225
2270.000000	0.000198
2269.000000	0.000202
2268.000000	0.000222
2267.000000	0.000209
2266.000000	0.000150
2265.000000	0.000079
2264.000000	0.000046
2263.000000	0.000060
2262.000000	0.000093
2261.000000	0.000119
2260.000000	0.000130
2259.000000	0.000122
2258.000000	0.000087
2257.000000	0.000030
2256.000000	-0.000010
2255.000000	0.000007
2254.000000	0.000077
2253.000000	0.000151
2252.000000	0.000187
2251.000000	0.000182
2250.000000	0.000145
2249.000000	0.000077
2248.000000	-0.000018
2247.000000	-0.000119
2246.000000	-0.000200
2245.000000	-0.000262
2244.000000	-0.000307
2243.000000	-0.000317
2242.000000	-0.000265
2241.000000	-0.000174
2240.000000	-0.000109
2239.000000	-0.000118
2238.000000	-0.000183
2237.000000	-0.000243
2236.000000	-0.000253
2235.000000	-0.000207
2234.000000	-0.000128
2233.000000	-0.000046
2232.000000	0.000020
2231.000000	0.000059
2230.000000	0.000065
2229.000000	0.000029
2228.000000	-0.000043
2227.000000	-0.000120
2226.000000	-0.000161
2225.000000	-0.000161
2224.000000	-0.000151
2223.000000	-0.000162
2222.000000	-0.000198
2221.000000	-0.000238
2220.000000	-0.000248
2219.000000	-0.000190
2218.000000	-0.000054
2217.000000	0.000103
2216.000000	0.000197
2215.000000	0.000191
2214.000000	0.000122
2213.000000	0.000041
2212.000000	-0.000035
2211.000000	-0.000086
2210.000000	-0.000059
2209.000000	0.000057
2208.000000	0.000180
2207.000000	0.000187
2206.000000	0.000051
2205.000000	-0.000125
2204.000000	-0.000212
2203.000000	-0.000162
2202.000000	-0.000024
2201.000000	0.000106
2200.000000	0.000158
2199.000000	0.000137
2198.000000	0.000118
2197.000000	0.000161
2196.000000	0.000230
2195.000000	0.000233
2194.000000	0.000130
2193.000000	-0.000028
2192.000000	-0.000173
2191.000000	-0.000268
2190.000000	-0.000294
2189.000000	-0.000246
2188.000000	-0.000165
2187.000000	-0.000132
2186.000000	-0.000174
2185.000000	-0.000226
2184.000000	-0.000206
2183.000000	-0.000126
2182.000000	-0.000067
2181.000000	-0.000074
2180.000000	-0.000117
2179.000000	-0.000158
2178.000000	-0.000210
2177.000000	-0.000322
2176.000000	-0.000515
2175.000000	-0.000732
2174.000000	-0.000856
2173.000000	-0.000797
2172.000000	-0.000577
2171.000000	-0.000301
2170.000000	-0.000045
2169.000000	0.000192
2168.000000	0.000423
2167.000000	0.000604
2166.000000	0.000661
2165.000000	0.000570
2164.000000	0.000397
2163.000000	0.000230
2162.000000	0.000106
2161.000000	-0.000012
2160.000000	-0.000204
2159.000000	-0.000512
2158.000000	-0.000870
2157.000000	-0.001154
2156.000000	-0.001310
2155.000000	-0.001370
2154.000000	-0.001362
2153.000000	-0.001258
2152.000000	-0.001054
2151.000000	-0.000831
2150.000000	-0.000701
2149.000000	-0.000702
2148.000000	-0.000761
2147.000000	-0.000784
2146.000000	-0.000737
2145.000000	-0.000659
2144.000000	-0.000608
2143.000000	-0.000613
2142.000000	-0.000656
2141.000000	-0.000695
2140.000000	-0.000697
2139.000000	-0.000651
2138.000000	-0.000562
2137.000000	-0.000458
2136.000000	-0.000386
2135.000000	-0.000382
2134.000000	-0.000441
2133.000000	-0.000524
2132.000000	-0.000595
2131.000000	-0.000628
2130.000000	-0.000593
2129.000000	-0.000472
2128.000000	-0.000315
2127.000000	-0.000217
2126.000000	-0.000232
2125.000000	-0.000311
2124.000000	-0.000356
2123.000000	-0.000320
2122.000000	-0.000245
2121.000000	-0.000199
2120.000000	-0.000204
2119.000000	-0.000231
2118.000000	-0.000243
2117.000000	-0.000224
2116.000000	-0.000190
2115.000000	-0.000163
2114.000000	-0.000151
2113.000000	-0.000145
2112.000000	-0.000131
2111.000000	-0.000120
2110.000000	-0.000126
2109.000000	-0.000155
2108.000000	-0.000195
2107.000000	-0.000235
2106.000000	-0.000264
2105.000000	-0.000263
2104.000000	-0.000213
2103.000000	-0.000129
2102.000000	-0.000051
2101.000000	-0.000008
2100.000000	0.000007
2099.000000	0.000009
2098.000000	-0.000005
2097.000000	-0.000040
2096.000000	-0.000087
2095.000000	-0.000132
2094.000000	-0.000181
2093.000000	-0.000244
2092.000000	-0.000301
2091.000000	-0.000309
2090.000000	-0.000255
2089.000000	-0.000174
2088.000000	-0.000114
2087.000000	-0.000078
2086.000000	-0.000043
2085.000000	-0.000004
2084.000000	0.000016
2083.000000	-0.000007
2082.000000	-0.000062
2081.000000	-0.000115
2080.000000	-0.000136
2079.000000	-0.000111
2078.000000	-0.000043
2077.000000	0.000050
2076.000000	0.000130
2075.000000	0.000153
2074.000000	0.000098
2073.000000	-0.000019
2072.000000	-0.000154
2071.000000	-0.000260
2070.000000	-0.000313
2069.000000	-0.000312
2068.000000	-0.000266
2067.000000	-0.000176
2066.000000	-0.000054
2065.000000	0.000054
2064.000000	0.000092
2063.000000	0.000052
2062.000000	-0.000016
2061.000000	-0.000061
2060.000000	-0.000080
2059.000000	-0.000099
2058.000000	-0.000122
2057.000000	-0.000143
2056.000000	-0.000180
2055.000000	-0.000262
2054.000000	-0.000362
2053.000000	-0.000401
2052.000000	-0.000321
2051.000000	-0.000152
2050.000000	0.000017
2049.000000	0.000104
2048.000000	0.000082
2047.000000	-0.000023
2046.000000	-0.000161
2045.000000	-0.000297
2044.000000	-0.000418
2043.000000	-0.000509
2042.000000	-0.000522
2041.000000	-0.000414
2040.000000	-0.000208
2039.000000	0.000016
2038.000000	0.000189
2037.000000	0.000289
2036.000000	0.000308
2035.000000	0.000236
2034.000000	0.000101
2033.000000	-0.000042
2032.000000	-0.000174
2031.000000	-0.000329
2030.000000	-0.000500
2029.000000	-0.000601
2028.000000	-0.000566
2027.000000	-0.000446
2026.000000	-0.000335
2025.000000	-0.000267
2024.000000	-0.000231
2023.000000	-0.000253
2022.000000	-0.000370
2021.000000	-0.000533
2020.000000	-0.000628
2019.000000	-0.000597
2018.000000	-0.000494
2017.000000	-0.000400
2016.000000	-0.000336
2015.000000	-0.000269
2014.000000	-0.000180
2013.000000	-0.000081
2012.000000	-0.000006
2011.000000	0.000001
2010.000000	-0.000065
2009.000000	-0.000144
2008.000000	-0.000156
2007.000000	-0.000113
2006.000000	-0.000127
2005.000000	-0.000278
2004.000000	-0.000495
2003.000000	-0.000648
2002.000000	-0.000698
2001.000000	-0.000728
2000.000000	-0.000814
1999.000000	-0.000917
1998.000000	-0.000926
1997.000000	-0.000799
1996.000000	-0.000619
1995.000000	-0.000501
1994.000000	-0.000469
1993.000000	-0.000437
1992.000000	-0.000301
1991.000000	-0.000063
1990.000000	0.000165
1989.000000	0.000249
1988.000000	0.000136
1987.000000	-0.000107
1986.000000	-0.000347
1985.000000	-0.000495
1984.000000	-0.000559
1983.000000	-0.000579
1982.000000	-0.000539
1981.000000	-0.000374
1980.000000	-0.000090
1979.000000	0.000170
1978.000000	0.000220
1977.000000	-0.000001
1976.000000	-0.000388
1975.000000	-0.000784
1974.000000	-0.001090
1973.000000	-0.001248
1972.000000	-0.001233
1971.000000	-0.001076
1970.000000	-0.000856
1969.000000	-0.000660
1968.000000	-0.000541
1967.000000	-0.000525
1966.000000	-0.000616
1965.000000	-0.000779
1964.000000	-0.000946
1963.000000	-0.001045
1962.000000	-0.001027
1961.000000	-0.000886
1960.000000	-0.000667
1959.000000	-0.000464
1958.000000	-0.000369
1957.000000	-0.000410
1956.000000	-0.000523
1955.000000	-0.000603
1954.000000	-0.000588
1953.000000	-0.000492
1952.000000	-0.000378
1951.000000	-0.000312
1950.000000	-0.000332
1949.000000	-0.000422
1948.000000	-0.000512
1947.000000	-0.000517
1946.000000	-0.000415
1945.000000	-0.000283
1944.000000	-0.000242
1943.000000	-0.000340
1942.000000	-0.000495
1941.000000	-0.000577
1940.000000	-0.000538
1939.000000	-0.000427
1938.000000	-0.000324
1937.000000	-0.000272
1936.000000	-0.000271
1935.000000	-0.000300
1934.000000	-0.000348
1933.000000	-0.000411
1932.000000	-0.000480
1931.000000	-0.000542
1930.000000	-0.000589
1929.000000	-0.000624
1928.000000	-0.000645
1927.000000	-0.000632
1926.000000	-0.000572
1925.000000	-0.000479
1924.000000	-0.000393
1923.000000	-0.000342
1922.000000	-0.000320
1921.000000	-0.000316
1920.000000	-0.000335
1919.000000	-0.000374
1918.000000	-0.000400
1917.000000	-0.000386
1916.000000	-0.000352
1915.000000	-0.000342
1914.000000	-0.000367
1913.000000	-0.000397
1912.000000	-0.000402
1911.000000	-0.000386
1910.000000	-0.000367
1909.000000	-0.000359
1908.000000	-0.000364
1907.000000	-0.000377
1906.000000	-0.000395
1905.000000	-0.000410
1904.000000	-0.000432
1903.000000	-0.000485
1902.000000	-0.000580
1901.000000	-0.000695
1900.000000	-0.000784
1899.000000	-0.000809
1898.000000	-0.000757
1897.000000	-0.000641
1896.000000	-0.000498
1895.000000	-0.000381
1894.000000	-0.000331
1893.000000	-0.000352
1892.000000	-0.000405
1891.000000	-0.000446
1890.000000	-0.000452
1889.000000	-0.000441
1888.000000	-0.000448
1887.000000	-0.000481
1886.000000	-0.000521
1885.000000	-0.000545
1884.000000	-0.000555
1883.000000	-0.000561
1882.000000	-0.000561
1881.000000	-0.000539
1880.000000	-0.000502
1879.000000	-0.000470
1878.000000	-0.000456
1877.000000	-0.000448
1876.000000	-0.000437
1875.000000	-0.000439
1874.000000	-0.000470
1873.000000	-0.000517
1872.000000	-0.000548
1871.000000	-0.000540
1870.000000	-0.000500
1869.000000	-0.000451
1868.000000	-0.000417
1867.000000	-0.000412
1866.000000	-0.000440
1865.000000	-0.000499
1864.000000	-0.000575
1863.000000	-0.000644
1862.000000	-0.000679
1861.000000	-0.000668
1860.000000	-0.000628
1859.000000	-0.000586
1858.000000	-0.000566
1857.000000	-0.000569
1856.000000	-0.000581
1855.000000	-0.000596
1854.000000	-0.000615
1853.000000	-0.000637
1852.000000	-0.000651
1851.000000	-0.000640
1850.000000	-0.000608
1849.000000	-0.000576
1848.000000	-0.000568
1847.000000	-0.000582
1846.000000	-0.000594
1845.000000	-0.000590
1844.000000	-0.000581
1843.000000	-0.000592
1842.000000	-0.000622
1841.000000	-0.000649
1840.000000	-0.000658
1839.000000	-0.000646
1838.000000	-0.000620
1837.000000	-0.000590
1836.000000	-0.000566
1835.000000	-0.000555
1834.000000	-0.000550
1833.000000	-0.000545
1832.000000	-0.000538
1831.000000	-0.000539
1830.000000	-0.000550
1829.000000	-0.000565
1828.000000	-0.000578
1827.000000	-0.000591
1826.000000	-0.000607
1825.000000	-0.000621
1824.000000	-0.000636
1823.000000	-0.000665
1822.000000	-0.000717
1821.000000	-0.000774
1820.000000	-0.000809
1819.000000	-0.000817
1818.000000	-0.000812
1817.000000	-0.000807
1816.000000	-0.000791
1815.000000	-0.000757
1814.000000	-0.000714
1813.000000	-0.000679
1812.000000	-0.000658
1811.000000	-0.000642
1810.000000	-0.000626
1809.000000	-0.000618
1808.000000	-0.000634
1807.000000	-0.000670
1806.000000	-0.000705
1805.000000	-0.000725
1804.000000	-0.000731
1803.000000	-0.000734
1802.000000	-0.000740
1801.000000	-0.000741
1800.000000	-0.000723
1799.000000	-0.000686
1798.000000	-0.000639
1797.000000	-0.000601
1796.000000	-0.000583
1795.000000	-0.000582
1794.000000	-0.000589
1793.000000	-0.000597
1792.000000	-0.000612
1791.000000	-0.000634
1790.000000	-0.000651
1789.000000	-0.000650
1788.000000	-0.000629
1787.000000	-0.000604
1786.000000	-0.000592
1785.000000	-0.000605
1784.000000	-0.000633
1783.000000	-0.000655
1782.000000	-0.000660
1781.000000	-0.000651
1780.000000	-0.000640
1779.000000	-0.000630
1778.000000	-0.000619
1777.000000	-0.000608
1776.000000	-0.000600
1775.000000	-0.000602
1774.000000	-0.000612
1773.000000	-0.000628
1772.000000	-0.000636
1771.000000	-0.000628
1770.000000	-0.000608
1769.000000	-0.000586
1768.000000	-0.000574
1767.000000	-0.000572
1766.000000	-0.000566
1765.000000	-0.000550
1764.000000	-0.000534
1763.000000	-0.000542
1762.000000	-0.000580
1761.000000	-0.000621
1760.000000	-0.000631
1759.000000	-0.000600
1758.000000	-0.000547
1757.000000	-0.000504
1756.000000	-0.000492
1755.000000	-0.000502
1754.000000	-0.000506
1753.000000	-0.000491
1752.000000	-0.000466
1751.000000	-0.000445
1750.000000	-0.000434
1749.000000	-0.000428
1748.000000	-0.000417
1747.000000	-0.000395
1746.000000	-0.000362
1745.000000	-0.000331
1744.000000	-0.000322
1743.000000	-0.000336
1742.000000	-0.000346
1741.000000	-0.000330
1740.000000	-0.000298
1739.000000	-0.000284
1738.000000	-0.000294
1737.000000	-0.000304
1736.000000	-0.000307
1735.000000	-0.000325
1734.000000	-0.000371
1733.000000	-0.000413
1732.000000	-0.000425
1731.000000	-0.000413
1730.000000	-0.000390
1729.000000	-0.000366
1728.000000	-0.000346
1727.000000	-0.000333
1726.000000	-0.000319
1725.000000	-0.000289
1724.000000	-0.000245
1723.000000	-0.000208
1722.000000	-0.000190
1721.000000	-0.000188
1720.000000	-0.000191
1719.000000	-0.000193
1718.000000	-0.000178
1717.000000	-0.000128
1716.000000	-0.000060
1715.000000	-0.000009
1714.000000	0.000019
1713.000000	0.000037
1712.000000	0.000057
1711.000000	0.000076
1710.000000	0.000090
1709.000000	0.000104
1708.000000	0.000126
1707.000000	0.000163
1706.000000	0.000216
1705.000000	0.000282
1704.000000	0.000346
1703.000000	0.000401
1702.000000	0.000445
1701.000000	0.000472
1700.000000	0.000490
1699.000000	0.000516
1698.000000	0.000563
1697.000000	0.000633
1696.000000	0.000706
1695.000000	0.000754
1694.000000	0.000784
1693.000000	0.000821
1692.000000	0.000877
1691.000000	0.000948
1690.000000	0.001026
1689.000000	0.001093
1688.000000	0.001139
1687.000000	0.001166
1686.000000	0.001184
1685.000000	0.001212
1684.000000	0.001258
1683.000000	0.001314
1682.000000	0.001371
1681.000000	0.001428
1680.000000	0.001473
1679.000000	0.001505
1678.000000	0.001544
1677.000000	0.001608
1676.000000	0.001685
1675.000000	0.001740
1674.000000	0.001761
1673.000000	0.001781
1672.000000	0.001824
1671.000000	0.001881
1670.000000	0.001938
1669.000000	0.001991
1668.000000	0.002046
1667.000000	0.002101
1666.000000	0.002157
1665.000000	0.002221
1664.000000	0.002288
1663.000000	0.002339
1662.000000	0.002363
1661.000000	0.002379
1660.000000	0.002404
1659.000000	0.002430
1658.000000	0.002440
1657.000000	0.002438
1656.000000	0.002443
1655.000000	0.002475
1654.000000	0.002541
1653.000000	0.002611
1652.000000	0.002635
1651.000000	0.002623
1650.000000	0.002613
1649.000000	0.002629
1648.000000	0.002687
1647.000000	0.002783
1646.000000	0.002873
1645.000000	0.002924
1644.000000	0.002948
1643.000000	0.002965
1642.000000	0.002987
1641.000000	0.003015
1640.000000	0.003046
1639.000000	0.003073
1638.000000	0.003098
1637.000000	0.003130
1636.000000	0.003170
1635.000000	0.003190
1634.000000	0.003183
1633.000000	0.003176
1632.000000	0.003191
1631.000000	0.003227
1630.000000	0.003271
1629.000000	0.003310
1628.000000	0.003336
1627.000000	0.003353
1626.000000	0.003366
1625.000000	0.003384
1624.000000	0.003409
1623.000000	0.003429
1622.000000	0.003428
1621.000000	0.003404
1620.000000	0.003362
1619.000000	0.003310
1618.000000	0.003259
1617.000000	0.003234
1616.000000	0.003246
1615.000000	0.003269
1614.000000	0.003275
1613.000000	0.003258
1612.000000	0.003225
1611.000000	0.003185
1610.000000	0.003142
1609.000000	0.003096
1608.000000	0.003048
1607.000000	0.003003
1606.000000	0.002967
1605.000000	0.002937
1604.000000	0.002907
1603.000000	0.002873
1602.000000	0.002840
1601.000000	0.002810
1600.000000	0.002782
1599.000000	0.002747
1598.000000	0.002702
1597.000000	0.002651
1596.000000	0.002603
1595.000000	0.002566
1594.000000	0.002543
1593.000000	0.002532
1592.000000	0.002522
1591.000000	0.002500
1590.000000	0.002468
1589.000000	0.002439
1588.000000	0.002418
1587.000000	0.002398
1586.000000	0.002367
1585.000000	0.002326
1584.000000	0.002291
1583.000000	0.002272
1582.000000	0.002262
1581.000000	0.002244
1580.000000	0.002214
1579.000000	0.002187
1578.000000	0.002173
1577.000000	0.002165
1576.000000	0.002150
1575.000000	0.002125
1574.000000	0.002107
1573.000000	0.002098
1572.000000	0.002090
1571.000000	0.002073
1570.000000	0.002047
1569.000000	0.002022
1568.000000	0.002006
1567.000000	0.001998
1566.000000	0.001992
1565.000000	0.001976
1564.000000	0.001941
1563.000000	0.001895
1562.000000	0.001855
1561.000000	0.001833
1560.000000	0.001830
1559.000000	0.001837
1558.000000	0.001837
1557.000000	0.001847
1556.000000	0.001884
1555.000000	0.001932
1554.000000	0.001962
1553.000000	0.001961
1552.000000	0.001940
1551.000000	0.001906
1550.000000	0.001860
1549.000000	0.001815
1548.000000	0.001787
1547.000000	0.001779
1546.000000	0.001782
1545.000000	0.001785
1544.000000	0.001784
1543.000000	0.001776
1542.000000	0.001756
1541.000000	0.001735
1540.000000	0.001726
1539.000000	0.001722
1538.000000	0.001715
1537.000000	0.001710
1536.000000	0.001710
1535.000000	0.001714
1534.000000	0.001711
1533.000000	0.001699
1532.000000	0.001686
1531.000000	0.001669
1530.000000	0.001643
1529.000000	0.001606
1528.000000	0.001567
1527.000000	0.001539
1526.000000	0.001525
1525.000000	0.001524
1524.000000	0.001537
1523.000000	0.001549
1522.000000	0.001527
1521.000000	0.001453
1520.000000	0.001363
1519.000000	0.001299
1518.000000	0.001261
1517.000000	0.001235
1516.000000	0.001218
1515.000000	0.001218
1514.000000	0.001231
1513.000000	0.001239
1512.000000	0.001223
1511.000000	0.001186
1510.000000	0.001151
1509.000000	0.001139
1508.000000	0.001143
1507.000000	0.001125
1506.000000	0.001060
1505.000000	0.000992
1504.000000	0.000949
1503.000000	0.000920
1502.000000	0.000889
1501.000000	0.000852
1500.000000	0.000817
1499.000000	0.000795
1498.000000	0.000779
1497.000000	0.000759
1496.000000	0.000727
1495.000000	0.000693
1494.000000	0.000671
1493.000000	0.000670
1492.000000	0.000677
1491.000000	0.000667
1490.000000	0.000631
1489.000000	0.000597
1488.000000	0.000595
1487.000000	0.000609
1486.000000	0.000612
1485.000000	0.000598
1484.000000	0.000583
1483.000000	0.000581
1482.000000	0.000587
1481.000000	0.000597
1480.000000	0.000612
1479.000000	0.000633
1478.000000	0.000655
1477.000000	0.000665
1476.000000	0.000657
1475.000000	0.000637
1474.000000	0.000618
1473.000000	0.000613
1472.000000	0.000636
1471.000000	0.000679
1470.000000	0.000724
1469.000000	0.000761
1468.000000	0.000791
1467.000000	0.000813
1466.000000	0.000824
1465.000000	0.000816
1464.000000	0.000795
1463.000000	0.000783
1462.000000	0.000796
1461.000000	0.000831
1460.000000	0.000881
1459.000000	0.000933
1458.000000	0.000963
1457.000000	0.000941
1456.000000	0.000890
1455.000000	0.000862
1454.000000	0.000868
1453.000000	0.000891
1452.000000	0.000913
1451.000000	0.000932
1450.000000	0.000953
1449.000000	0.000978
1448.000000	0.000994
1447.000000	0.001003
1446.000000	0.001019
1445.000000	0.001045
1444.000000	0.001070
1443.000000	0.001075
1442.000000	0.001056
1441.000000	0.001029
1440.000000	0.001018
1439.000000	0.001030
1438.000000	0.001058
1437.000000	0.001083
1436.000000	0.001090
1435.000000	0.001084
1434.000000	0.001082
1433.000000	0.001088
1432.000000	0.001102
1431.000000	0.001123
1430.000000	0.001149
1429.000000	0.001170
1428.000000	0.001170
1427.000000	0.001153
1426.000000	0.001140
1425.000000	0.001144
1424.000000	0.001159
1423.000000	0.001169
1422.000000	0.001168
1421.000000	0.001165
1420.000000	0.001166
1419.000000	0.001172
1418.000000	0.001182
1417.000000	0.001195
1416.000000	0.001206
1415.000000	0.001215
1414.000000	0.001223
1413.000000	0.001233
1412.000000	0.001239
1411.000000	0.001230
1410.000000	0.001202
1409.000000	0.001172
1408.000000	0.001156
1407.000000	0.001160
1406.000000	0.001177
1405.000000	0.001196
1404.000000	0.001207
1403.000000	0.001213
1402.000000	0.001227
1401.000000	0.001253
1400.000000	0.001275
1399.000000	0.001274
1398.000000	0.001252
1397.000000	0.001233
1396.000000	0.001225
1395.000000	0.001214
1394.000000	0.001185
1393.000000	0.001148
1392.000000	0.001122
1391.000000	0.001114
1390.000000	0.001116
1389.000000	0.001118
1388.000000	0.001110
1387.000000	0.001095
1386.000000	0.001092
1385.000000	0.001107
1384.000000	0.001130
1383.000000	0.001144
1382.000000	0.001141
1381.000000	0.001129
1380.000000	0.001115
1379.000000	0.001101
1378.000000	0.001099
1377.000000	0.001121
1376.000000	0.001165
1375.000000	0.001209
1374.000000	0.001233
1373.000000	0.001241
1372.000000	0.001251
1371.000000	0.001272
1370.000000	0.001304
1369.000000	0.001341
1368.000000	0.001380
1367.000000	0.001417
1366.000000	0.001452
1365.000000	0.001486
1364.000000	0.001514
1363.000000	0.001527
1362.000000	0.001517
1361.000000	0.001492
1360.000000	0.001459
1359.000000	0.001417
1358.000000	0.001371
1357.000000	0.001331
1356.000000	0.001302
1355.000000	0.001281
1354.000000	0.001263
1353.000000	0.001250
1352.000000	0.001243
1351.000000	0.001238
1350.000000	0.001234
1349.000000	0.001236
1348.000000	0.001247
1347.000000	0.001255
1346.000000	0.001247
1345.000000	0.001226
1344.000000	0.001206
1343.000000	0.001196
1342.000000	0.001194
1341.000000	0.001192
1340.000000	0.001187
1339.000000	0.001179
1338.000000	0.001174
1337.000000	0.001182
1336.000000	0.001206
1335.000000	0.001236
1334.000000	0.001259
1333.000000	0.001276
1332.000000	0.001298
1331.000000	0.001336
1330.000000	0.001387
1329.000000	0.001446
1328.000000	0.001515
1327.000000	0.001593
1326.000000	0.001672
1325.000000	0.001739
1324.000000	0.001788
1323.000000	0.001824
1322.000000	0.001859
1321.000000	0.001904
1320.000000	0.001956
1319.000000	0.002002
1318.000000	0.002022
1317.000000	0.002011
1316.000000	0.001977
1315.000000	0.001928
1314.000000	0.001867
1313.000000	0.001802
1312.000000	0.001741
1311.000000	0.001687
1310.000000	0.001633
1309.000000	0.001572
1308.000000	0.001506
1307.000000	0.001439
1306.000000	0.001371
1305.000000	0.001305
1304.000000	0.001252
1303.000000	0.001217
1302.000000	0.001196
1301.000000	0.001177
1300.000000	0.001154
1299.000000	0.001128
1298.000000	0.001103
1297.000000	0.001083
1296.000000	0.001063
1295.000000	0.001039
1294.000000	0.001005
1293.000000	0.000966
1292.000000	0.000931
1291.000000	0.000910
1290.000000	0.000899
1289.000000	0.000884
1288.000000	0.000857
1287.000000	0.000816
1286.000000	0.000772
1285.000000	0.000737
1284.000000	0.000720
1283.000000	0.000726
1282.000000	0.000743
1281.000000	0.000749
1280.000000	0.000730
1279.000000	0.000689
1278.000000	0.000646
1277.000000	0.000619
1276.000000	0.000611
1275.000000	0.000613
1274.000000	0.000613
1273.000000	0.000607
1272.000000	0.000596
1271.000000	0.000586
1270.000000	0.000578
1269.000000	0.000571
1268.000000	0.000558
1267.000000	0.000537
1266.000000	0.000509
1265.000000	0.000482
1264.000000	0.000464
1263.000000	0.000460
1262.000000	0.000470
1261.000000	0.000482
1260.000000	0.000486
1259.000000	0.000477
1258.000000	0.000461
1257.000000	0.000452
1256.000000	0.000455
1255.000000	0.000465
1254.000000	0.000470
1253.000000	0.000460
1252.000000	0.000437
1251.000000	0.000406
1250.000000	0.000381
1249.000000	0.000373
1248.000000	0.000390
1247.000000	0.000428
1246.000000	0.000470
1245.000000	0.000497
1244.000000	0.000502
1243.000000	0.000485
1242.000000	0.000455
1241.000000	0.000422
1240.000000	0.000398
1239.000000	0.000388
1238.000000	0.000390
1237.000000	0.000391
1236.000000	0.000384
1235.000000	0.000371
1234.000000	0.000362
1233.000000	0.000354
1232.000000	0.000339
1231.000000	0.000318
1230.000000	0.000308
1229.000000	0.000321
1228.000000	0.000347
1227.000000	0.000361
1226.000000	0.000346
1225.000000	0.000312
1224.000000	0.000279
1223.000000	0.000261
1222.000000	0.000256
1221.000000	0.000257
1220.000000	0.000253
1219.000000	0.000239
1218.000000	0.000219
1217.000000	0.000204
1216.000000	0.000201
1215.000000	0.000200
1214.000000	0.000189
1213.000000	0.000168
1212.000000	0.000153
1211.000000	0.000154
1210.000000	0.000168
1209.000000	0.000181
1208.000000	0.000183
1207.000000	0.000173
1206.000000	0.000150
1205.000000	0.000123
1204.000000	0.000103
1203.000000	0.000099
1202.000000	0.000106
1201.000000	0.000108
1200.000000	0.000092
1199.000000	0.000062
1198.000000	0.000030
1197.000000	0.000007
1196.000000	-0.000001
1195.000000	0.000010
1194.000000	0.000041
1193.000000	0.000078
1192.000000	0.000100
1191.000000	0.000088
1190.000000	0.000046
1189.000000	-0.000004
1188.000000	-0.000037
1187.000000	-0.000043
1186.000000	-0.000032
1185.000000	-0.000015
1184.000000	0.000005
1183.000000	0.000028
1182.000000	0.000044
1181.000000	0.000039
1180.000000	0.000013
1179.000000	-0.000008
1178.000000	0.000008
1177.000000	0.000061
1176.000000	0.000122
1175.000000	0.000162
1174.000000	0.000178
1173.000000	0.000192
1172.000000	0.000218
1171.000000	0.000246
1170.000000	0.000262
1169.000000	0.000267
1168.000000	0.000275
1167.000000	0.000292
1166.000000	0.000318
1165.000000	0.000354
1164.000000	0.000399
1163.000000	0.000453
1162.000000	0.000507
1161.000000	0.000554
1160.000000	0.000594
1159.000000	0.000625
1158.000000	0.000647
1157.000000	0.000660
1156.000000	0.000670
1155.000000	0.000686
1154.000000	0.000713
1153.000000	0.000755
1152.000000	0.000806
1151.000000	0.000851
1150.000000	0.000877
1149.000000	0.000882
1148.000000	0.000882
1147.000000	0.000894
1146.000000	0.000924
1145.000000	0.000964
1144.000000	0.000999
1143.000000	0.001021
1142.000000	0.001027
1141.000000	0.001023
1140.000000	0.001012
1139.000000	0.000996
1138.000000	0.000986
1137.000000	0.000996
1136.000000	0.001028
1135.000000	0.001071
1134.000000	0.001104
1133.000000	0.001118
1132.000000	0.001120
1131.000000	0.001120
1130.000000	0.001123
1129.000000	0.001134
1128.000000	0.001148
1127.000000	0.001159
1126.000000	0.001160
1125.000000	0.001161
1124.000000	0.001172
1123.000000	0.001197
1122.000000	0.001227
1121.000000	0.001257
1120.000000	0.001291
1119.000000	0.001333
1118.000000	0.001378
1117.000000	0.001415
1116.000000	0.001435
1115.000000	0.001437
1114.000000	0.001422
1113.000000	0.001404
1112.000000	0.001399
1111.000000	0.001416
1110.000000	0.001441
1109.000000	0.001456
1108.000000	0.001452
1107.000000	0.001443
1106.000000	0.001446
1105.000000	0.001470
1104.000000	0.001509
1103.000000	0.001550
1102.000000	0.001583
1101.000000	0.001595
1100.000000	0.001580
1099.000000	0.001538
1098.000000	0.001483
1097.000000	0.001437
1096.000000	0.001418
1095.000000	0.001427
1094.000000	0.001447
1093.000000	0.001469
1092.000000	0.001502
1091.000000	0.001554
1090.000000	0.001615
1089.000000	0.001656
1088.000000	0.001666
1087.000000	0.001659
1086.000000	0.001659
1085.000000	0.001675
1084.000000	0.001697
1083.000000	0.001717
1082.000000	0.001731
1081.000000	0.001747
1080.000000	0.001766
1079.000000	0.001785
1078.000000	0.001799
1077.000000	0.001800
1076.000000	0.001800
1075.000000	0.001814
1074.000000	0.001851
1073.000000	0.001893
1072.000000	0.001919
1071.000000	0.001927
1070.000000	0.001931
1069.000000	0.001930
1068.000000	0.001910
1067.000000	0.001869
1066.000000	0.001840
1065.000000	0.001859
1064.000000	0.001923
1063.000000	0.001988
1062.000000	0.002008
1061.000000	0.001980
1060.000000	0.001934
1059.000000	0.001899
1058.000000	0.001876
1057.000000	0.001847
1056.000000	0.001799
1055.000000	0.001743
1054.000000	0.001708
1053.000000	0.001714
1052.000000	0.001756
1051.000000	0.001807
1050.000000	0.001846
1049.000000	0.001866
1048.000000	0.001874
1047.000000	0.001874
1046.000000	0.001873
1045.000000	0.001886
1044.000000	0.001921
1043.000000	0.001972
1042.000000	0.002017
1041.000000	0.002039
1040.000000	0.002052
1039.000000	0.002084
1038.000000	0.002142
1037.000000	0.002192
1036.000000	0.002191
1035.000000	0.002138
1034.000000	0.002073
1033.000000	0.002040
1032.000000	0.002045
1031.000000	0.002073
1030.000000	0.002111
1029.000000	0.002147
1028.000000	0.002163
1027.000000	0.002145
1026.000000	0.002105
1025.000000	0.002068
1024.000000	0.002045
1023.000000	0.002027
1022.000000	0.002011
1021.000000	0.002010
1020.000000	0.002033
1019.000000	0.002068
1018.000000	0.002092
1017.000000	0.002095
1016.000000	0.002088
1015.000000	0.002080
1014.000000	0.002075
1013.000000	0.002066
1012.000000	0.002052
1011.000000	0.002033
1010.000000	0.002010
1009.000000	0.001984
1008.000000	0.001962
1007.000000	0.001952
1006.000000	0.001956
1005.000000	0.001958
1004.000000	0.001935
1003.000000	0.001877
1002.000000	0.001806
1001.000000	0.001751
1000.000000	0.001724
999.000000	0.001707
998.000000	0.001679
997.000000	0.001635
996.000000	0.001584
995.000000	0.001535
994.000000	0.001495
993.000000	0.001467
992.000000	0.001456
991.000000	0.001460
990.000000	0.001469
989.000000	0.001479
988.000000	0.001485
987.000000	0.001486
986.000000	0.001477
985.000000	0.001449
984.000000	0.001397
983.000000	0.001332
982.000000	0.001279
981.000000	0.001263
980.000000	0.001283
979.000000	0.001315
978.000000	0.001330
977.000000	0.001313
976.000000	0.001269
975.000000	0.001215
974.000000	0.001168
973.000000	0.001137
972.000000	0.001114
971.000000	0.001082
970.000000	0.001025
969.000000	0.000943
968.000000	0.000851
967.000000	0.000775
966.000000	0.000733
965.000000	0.000727
964.000000	0.000736
963.000000	0.000729
962.000000	0.000691
961.000000	0.000629
960.000000	0.000563
959.000000	0.000512
958.000000	0.000484
957.000000	0.000472
956.000000	0.000457
955.000000	0.000430
954.000000	0.000396
953.000000	0.000363
952.000000	0.000329
951.000000	0.000285
950.000000	0.000235
949.000000	0.000195
948.000000	0.000182
947.000000	0.000195
946.000000	0.000221
945.000000	0.000251
944.000000	0.000278
943.000000	0.000291
942.000000	0.000274
941.000000	0.000218
940.000000	0.000128
939.000000	0.000027
938.000000	-0.000049
937.000000	-0.000077
936.000000	-0.000064
935.000000	-0.000045
934.000000	-0.000048
933.000000	-0.000072
932.000000	-0.000101
931.000000	-0.000126
930.000000	-0.000147
929.000000	-0.000160
928.000000	-0.000158
927.000000	-0.000141
926.000000	-0.000122
925.000000	-0.000121
924.000000	-0.000143
923.000000	-0.000177
922.000000	-0.000195
921.000000	-0.000182
920.000000	-0.000155
919.000000	-0.000152
918.000000	-0.000195
917.000000	-0.000267
916.000000	-0.000331
915.000000	-0.000368
914.000000	-0.000384
913.000000	-0.000389
912.000000	-0.000377
911.000000	-0.000346
910.000000	-0.000312
909.000000	-0.000306
908.000000	-0.000348
907.000000	-0.000423
906.000000	-0.000486
905.000000	-0.000495
904.000000	-0.000454
903.000000	-0.000406
902.000000	-0.000385
901.000000	-0.000390
900.000000	-0.000396
899.000000	-0.000400
898.000000	-0.000419
897.000000	-0.000461
896.000000	-0.000514
895.000000	-0.000555
894.000000	-0.000572
893.000000	-0.000556
892.000000	-0.000516
891.000000	-0.000477
890.000000	-0.000478
889.000000	-0.000525
888.000000	-0.000588
887.000000	-0.000623
886.000000	-0.000614
885.000000	-0.000573
884.000000	-0.000525
883.000000	-0.000483
882.000000	-0.000447
881.000000	-0.000408
880.000000	-0.000364
879.000000	-0.000334
878.000000	-0.000350
877.000000	-0.000418
876.000000	-0.000507
875.000000	-0.000566
874.000000	-0.000570
873.000000	-0.000533
872.000000	-0.000487
871.000000	-0.000471
870.000000	-0.000510
869.000000	-0.000600
868.000000	-0.000711
867.000000	-0.000800
866.000000	-0.000843
865.000000	-0.000839
864.000000	-0.000800
863.000000	-0.000746
862.000000	-0.000705
861.000000	-0.000695
860.000000	-0.000703
859.000000	-0.000700
858.000000	-0.000668
857.000000	-0.000619
856.000000	-0.000581
855.000000	-0.000578
854.000000	-0.000619
853.000000	-0.000696
852.000000	-0.000770
851.000000	-0.000801
850.000000	-0.000783
849.000000	-0.000761
848.000000	-0.000778
847.000000	-0.000830
846.000000	-0.000868
845.000000	-0.000848
844.000000	-0.000772
843.000000	-0.000676
842.000000	-0.000602
841.000000	-0.000568
840.000000	-0.000567
839.000000	-0.000579
838.000000	-0.000594
837.000000	-0.000614
836.000000	-0.000638
835.000000	-0.000646
834.000000	-0.000613
833.000000	-0.000537
832.000000	-0.000452
831.000000	-0.000391
830.000000	-0.000363
829.000000	-0.000354
828.000000	-0.000361
827.000000	-0.000393
826.000000	-0.000446
825.000000	-0.000483
824.000000	-0.000464
823.000000	-0.000391
822.000000	-0.000308
821.000000	-0.000261
820.000000	-0.000263
819.000000	-0.000296
818.000000	-0.000328
817.000000	-0.000337
816.000000	-0.000330
815.000000	-0.000328
814.000000	-0.000344
813.000000	-0.000363
812.000000	-0.000352
811.000000	-0.000301
810.000000	-0.000246
809.000000	-0.000236
808.000000	-0.000289
807.000000	-0.000376
806.000000	-0.000454
805.000000	-0.000499
804.000000	-0.000517
803.000000	-0.000519
802.000000	-0.000507
801.000000	-0.000487
800.000000	-0.000478
799.000000	-0.000497
798.000000	-0.000536
797.000000	-0.000557
796.000000	-0.000538
795.000000	-0.000498
794.000000	-0.000470
793.000000	-0.000462
792.000000	-0.000448
791.000000	-0.000406
790.000000	-0.000344
789.000000	-0.000290
788.000000	-0.000271
787.000000	-0.000299
786.000000	-0.000355
785.000000	-0.000397
784.000000	-0.000387
783.000000	-0.000330
782.000000	-0.000270
781.000000	-0.000245
780.000000	-0.000249
779.000000	-0.000256
778.000000	-0.000263
777.000000	-0.000287
776.000000	-0.000327
775.000000	-0.000355
774.000000	-0.000343
773.000000	-0.000303
772.000000	-0.000272
771.000000	-0.000277
770.000000	-0.000314
769.000000	-0.000363
768.000000	-0.000406
767.000000	-0.000439
766.000000	-0.000461
765.000000	-0.000462
764.000000	-0.000435
763.000000	-0.000397
762.000000	-0.000380
761.000000	-0.000399
760.000000	-0.000431
759.000000	-0.000450
758.000000	-0.000456
757.000000	-0.000467
756.000000	-0.000477
755.000000	-0.000462
754.000000	-0.000413
753.000000	-0.000358
752.000000	-0.000327
751.000000	-0.000329
750.000000	-0.000349
749.000000	-0.000377
748.000000	-0.000409
747.000000	-0.000439
746.000000	-0.000466
745.000000	-0.000487
744.000000	-0.000496
743.000000	-0.000484
742.000000	-0.000454
741.000000	-0.000425
740.000000	-0.000415
739.000000	-0.000421
738.000000	-0.000430
737.000000	-0.000444
736.000000	-0.000475
735.000000	-0.000527
734.000000	-0.000580
733.000000	-0.000608
732.000000	-0.000599
731.000000	-0.000566
730.000000	-0.000540
729.000000	-0.000539
728.000000	-0.000553
727.000000	-0.000561
726.000000	-0.000562
725.000000	-0.000579
724.000000	-0.000626
723.000000	-0.000685
722.000000	-0.000714
721.000000	-0.000687
720.000000	-0.000622
719.000000	-0.000563
718.000000	-0.000548
717.000000	-0.000585
716.000000	-0.000640
715.000000	-0.000670
714.000000	-0.000656
713.000000	-0.000627
712.000000	-0.000623
711.000000	-0.000654
710.000000	-0.000694
709.000000	-0.000714
708.000000	-0.000703
707.000000	-0.000667
706.000000	-0.000614
705.000000	-0.000556
704.000000	-0.000511
703.000000	-0.000492
702.000000	-0.000495
701.000000	-0.000506
700.000000	-0.000514
699.000000	-0.000526
698.000000	-0.000552
697.000000	-0.000604
696.000000	-0.000684
695.000000	-0.000776
694.000000	-0.000844
693.000000	-0.000856
692.000000	-0.000818
691.000000	-0.000769
690.000000	-0.000745
689.000000	-0.000749
688.000000	-0.000754
687.000000	-0.000750
686.000000	-0.000762
685.000000	-0.000806
684.000000	-0.000853
683.000000	-0.000851
682.000000	-0.000784
681.000000	-0.000694
680.000000	-0.000642
679.000000	-0.000654
678.000000	-0.000716
677.000000	-0.000779
676.000000	-0.000778
675.000000	-0.000680
674.000000	-0.000520
673.000000	-0.000391
672.000000	-0.000369
671.000000	-0.000462
670.000000	-0.000624
669.000000	-0.000771
668.000000	-0.000752
667.000000	-0.000592
666.000000	-0.000502
665.000000	-0.000488
664.000000	-0.000503
663.000000	-0.000548
662.000000	-0.000594
661.000000	-0.000601
660.000000	-0.000567
659.000000	-0.000535
658.000000	-0.000518
657.000000	-0.000472
656.000000	-0.000383
655.000000	-0.000330
654.000000	-0.000381
653.000000	-0.000497
652.000000	-0.000580
651.000000	-0.000593
650.000000	-0.000565
649.000000	-0.000521
648.000000	-0.000460
647.000000	-0.000404
646.000000	-0.000401
645.000000	-0.000476
644.000000	-0.000598
643.000000	-0.000706
642.000000	-0.000761
641.000000	-0.000769
640.000000	-0.000766
639.000000	-0.000779
638.000000	-0.000796
637.000000	-0.000791
636.000000	-0.000758
635.000000	-0.000723
634.000000	-0.000695
633.000000	-0.000658
632.000000	-0.000603
631.000000	-0.000553
630.000000	-0.000536
629.000000	-0.000552
628.000000	-0.000588
627.000000	-0.000635
626.000000	-0.000668
625.000000	-0.000638
624.000000	-0.000533
623.000000	-0.000417
622.000000	-0.000379
621.000000	-0.000432
620.000000	-0.000491
619.000000	-0.000486
618.000000	-0.000445
617.000000	-0.000459
616.000000	-0.000550
615.000000	-0.000630
614.000000	-0.000610
613.000000	-0.000504
612.000000	-0.000419
611.000000	-0.000425
610.000000	-0.000484
609.000000	-0.000506
608.000000	-0.000459
607.000000	-0.000383
606.000000	-0.000316
605.000000	-0.000247
604.000000	-0.000170
603.000000	-0.000115
602.000000	-0.000112
601.000000	-0.000134
600.000000	-0.000128
599.000000	-0.000082
598.000000	-0.000025
597.000000	0.000019
596.000000	0.000038
595.000000	0.000015
594.000000	-0.000067
593.000000	-0.000183
592.000000	-0.000264
591.000000	-0.000275
590.000000	-0.000253
589.000000	-0.000261
588.000000	-0.000318
587.000000	-0.000397
586.000000	-0.000471
585.000000	-0.000525
584.000000	-0.000536
583.000000	-0.000476
582.000000	-0.000358
581.000000	-0.000253
580.000000	-0.000233
579.000000	-0.000298
578.000000	-0.000381
577.000000	-0.000418
576.000000	-0.000385
575.000000	-0.000288
574.000000	-0.000158
573.000000	-0.000065
572.000000	-0.000100
571.000000	-0.000299
570.000000	-0.000578
569.000000	-0.000778
568.000000	-0.000805
567.000000	-0.000684
566.000000	-0.000502
565.000000	-0.000322
564.000000	-0.000167
563.000000	-0.000045
562.000000	0.000051
561.000000	0.000131
560.000000	0.000184
559.000000	0.000158
558.000000	0.000017
557.000000	-0.000205
556.000000	-0.000415
555.000000	-0.000527
554.000000	-0.000511
553.000000	-0.000406
552.000000	-0.000295
551.000000	-0.000274
550.000000	-0.000395
549.000000	-0.000632
548.000000	-0.000892
547.000000	-0.001062
546.000000	-0.001059
545.000000	-0.000888
544.000000	-0.000667
543.000000	-0.000556
542.000000	-0.000615
541.000000	-0.000753
540.000000	-0.000828
539.000000	-0.000787
538.000000	-0.000690
537.000000	-0.000619
536.000000	-0.000605
535.000000	-0.000632
534.000000	-0.000659
533.000000	-0.000634
532.000000	-0.000528
531.000000	-0.000383
530.000000	-0.000289
529.000000	-0.000298
528.000000	-0.000379
527.000000	-0.000458
526.000000	-0.000488
525.000000	-0.000478
524.000000	-0.000479
523.000000	-0.000535
522.000000	-0.000650
521.000000	-0.000786
520.000000	-0.000895
519.000000	-0.000943
518.000000	-0.000911
517.000000	-0.000792
516.000000	-0.000620
515.000000	-0.000489
514.000000	-0.000484
513.000000	-0.000594
512.000000	-0.000735
511.000000	-0.000829
510.000000	-0.000869
509.000000	-0.000870
508.000000	-0.000819
507.000000	-0.000683
506.000000	-0.000473
505.000000	-0.000256
504.000000	-0.000115
503.000000	-0.000112
502.000000	-0.000259
501.000000	-0.000494
500.000000	-0.000704
499.000000	-0.000789
498.000000	-0.000696
497.000000	-0.000451
496.000000	-0.000188
495.000000	-0.000086
494.000000	-0.000227
493.000000	-0.000484
492.000000	-0.000614
491.000000	-0.000497
490.000000	-0.000252
489.000000	-0.000105
488.000000	-0.000167
487.000000	-0.000362
486.000000	-0.000518
485.000000	-0.000511
484.000000	-0.000363
483.000000	-0.000219
482.000000	-0.000210
481.000000	-0.000345
480.000000	-0.000526
479.000000	-0.000647
478.000000	-0.000652
477.000000	-0.000562
476.000000	-0.000460
475.000000	-0.000456
474.000000	-0.000606
473.000000	-0.000845
472.000000	-0.001019
471.000000	-0.001035
470.000000	-0.000928
469.000000	-0.000772
468.000000	-0.000622
467.000000	-0.000544
466.000000	-0.000593
465.000000	-0.000734
464.000000	-0.000868
463.000000	-0.000932
462.000000	-0.000952
461.000000	-0.000967
460.000000	-0.000957
459.000000	-0.000872
458.000000	-0.000717
457.000000	-0.000586
456.000000	-0.000525
455.000000	-0.000510
454.000000	-0.000537
453.000000	-0.000649
452.000000	-0.000899
451.000000	-0.001249
450.000000	-0.001592
