PE IR       SUBTECH     SPECTRUM    ASCII       PEDS        4.00        
   -1
P12-Noir026_1.ASC
23/06/09
15:25:13.00
23/06/09
15:45:29.00
uco
Sample 026 By uco Date Friday, June 09 2023
450.000000
#HDR
-1
-1
#GR
cm-1
A
1.0
0.0
4000.000000
-1.000000
3551
8
0.000854
-0.001824
#DATA
4000.000000	-0.001088
3999.000000	-0.001058
3998.000000	-0.001027
3997.000000	-0.000997
3996.000000	-0.000966
3995.000000	-0.000936
3994.000000	-0.000916
3993.000000	-0.000912
3992.000000	-0.000918
3991.000000	-0.000923
3990.000000	-0.000920
3989.000000	-0.000906
3988.000000	-0.000889
3987.000000	-0.000879
3986.000000	-0.000880
3985.000000	-0.000889
3984.000000	-0.000898
3983.000000	-0.000902
3982.000000	-0.000906
3981.000000	-0.000915
3980.000000	-0.000929
3979.000000	-0.000944
3978.000000	-0.000955
3977.000000	-0.000964
3976.000000	-0.000972
3975.000000	-0.000975
3974.000000	-0.000964
3973.000000	-0.000937
3972.000000	-0.000901
3971.000000	-0.000872
3970.000000	-0.000861
3969.000000	-0.000865
3968.000000	-0.000874
3967.000000	-0.000878
3966.000000	-0.000878
3965.000000	-0.000882
3964.000000	-0.000898
3963.000000	-0.000922
3962.000000	-0.000943
3961.000000	-0.000951
3960.000000	-0.000942
3959.000000	-0.000920
3958.000000	-0.000895
3957.000000	-0.000875
3956.000000	-0.000864
3955.000000	-0.000864
3954.000000	-0.000868
3953.000000	-0.000871
3952.000000	-0.000870
3951.000000	-0.000866
3950.000000	-0.000865
3949.000000	-0.000870
3948.000000	-0.000878
3947.000000	-0.000884
3946.000000	-0.000889
3945.000000	-0.000895
3944.000000	-0.000907
3943.000000	-0.000919
3942.000000	-0.000920
3941.000000	-0.000907
3940.000000	-0.000887
3939.000000	-0.000872
3938.000000	-0.000873
3937.000000	-0.000888
3936.000000	-0.000910
3935.000000	-0.000931
3934.000000	-0.000944
3933.000000	-0.000950
3932.000000	-0.000949
3931.000000	-0.000942
3930.000000	-0.000929
3929.000000	-0.000909
3928.000000	-0.000881
3927.000000	-0.000850
3926.000000	-0.000821
3925.000000	-0.000806
3924.000000	-0.000811
3923.000000	-0.000835
3922.000000	-0.000868
3921.000000	-0.000896
3920.000000	-0.000910
3919.000000	-0.000915
3918.000000	-0.000921
3917.000000	-0.000932
3916.000000	-0.000943
3915.000000	-0.000944
3914.000000	-0.000930
3913.000000	-0.000905
3912.000000	-0.000878
3911.000000	-0.000858
3910.000000	-0.000847
3909.000000	-0.000847
3908.000000	-0.000854
3907.000000	-0.000866
3906.000000	-0.000878
3905.000000	-0.000886
3904.000000	-0.000891
3903.000000	-0.000895
3902.000000	-0.000896
3901.000000	-0.000890
3900.000000	-0.000879
3899.000000	-0.000866
3898.000000	-0.000862
3897.000000	-0.000868
3896.000000	-0.000879
3895.000000	-0.000887
3894.000000	-0.000886
3893.000000	-0.000879
3892.000000	-0.000874
3891.000000	-0.000879
3890.000000	-0.000887
3889.000000	-0.000891
3888.000000	-0.000890
3887.000000	-0.000892
3886.000000	-0.000901
3885.000000	-0.000909
3884.000000	-0.000907
3883.000000	-0.000893
3882.000000	-0.000880
3881.000000	-0.000881
3880.000000	-0.000893
3879.000000	-0.000902
3878.000000	-0.000894
3877.000000	-0.000874
3876.000000	-0.000855
3875.000000	-0.000841
3874.000000	-0.000829
3873.000000	-0.000809
3872.000000	-0.000784
3871.000000	-0.000768
3870.000000	-0.000775
3869.000000	-0.000796
3868.000000	-0.000813
3867.000000	-0.000817
3866.000000	-0.000814
3865.000000	-0.000810
3864.000000	-0.000811
3863.000000	-0.000819
3862.000000	-0.000836
3861.000000	-0.000861
3860.000000	-0.000883
3859.000000	-0.000886
3858.000000	-0.000863
3857.000000	-0.000817
3856.000000	-0.000764
3855.000000	-0.000725
3854.000000	-0.000721
3853.000000	-0.000749
3852.000000	-0.000774
3851.000000	-0.000779
3850.000000	-0.000777
3849.000000	-0.000787
3848.000000	-0.000813
3847.000000	-0.000842
3846.000000	-0.000862
3845.000000	-0.000868
3844.000000	-0.000864
3843.000000	-0.000853
3842.000000	-0.000832
3841.000000	-0.000805
3840.000000	-0.000787
3839.000000	-0.000796
3838.000000	-0.000827
3837.000000	-0.000858
3836.000000	-0.000868
3835.000000	-0.000861
3834.000000	-0.000856
3833.000000	-0.000862
3832.000000	-0.000874
3831.000000	-0.000883
3830.000000	-0.000887
3829.000000	-0.000890
3828.000000	-0.000897
3827.000000	-0.000904
3826.000000	-0.000905
3825.000000	-0.000899
3824.000000	-0.000890
3823.000000	-0.000882
3822.000000	-0.000878
3821.000000	-0.000880
3820.000000	-0.000891
3819.000000	-0.000907
3818.000000	-0.000922
3817.000000	-0.000931
3816.000000	-0.000929
3815.000000	-0.000914
3814.000000	-0.000886
3813.000000	-0.000853
3812.000000	-0.000822
3811.000000	-0.000802
3810.000000	-0.000790
3809.000000	-0.000786
3808.000000	-0.000794
3807.000000	-0.000817
3806.000000	-0.000848
3805.000000	-0.000875
3804.000000	-0.000896
3803.000000	-0.000915
3802.000000	-0.000931
3801.000000	-0.000931
3800.000000	-0.000907
3799.000000	-0.000867
3798.000000	-0.000830
3797.000000	-0.000810
3796.000000	-0.000806
3795.000000	-0.000812
3794.000000	-0.000827
3793.000000	-0.000852
3792.000000	-0.000883
3791.000000	-0.000907
3790.000000	-0.000914
3789.000000	-0.000901
3788.000000	-0.000879
3787.000000	-0.000861
3786.000000	-0.000855
3785.000000	-0.000868
3784.000000	-0.000895
3783.000000	-0.000924
3782.000000	-0.000943
3781.000000	-0.000949
3780.000000	-0.000948
3779.000000	-0.000950
3778.000000	-0.000957
3777.000000	-0.000963
3776.000000	-0.000961
3775.000000	-0.000953
3774.000000	-0.000941
3773.000000	-0.000928
3772.000000	-0.000915
3771.000000	-0.000903
3770.000000	-0.000898
3769.000000	-0.000908
3768.000000	-0.000932
3767.000000	-0.000959
3766.000000	-0.000972
3765.000000	-0.000966
3764.000000	-0.000951
3763.000000	-0.000942
3762.000000	-0.000948
3761.000000	-0.000968
3760.000000	-0.000990
3759.000000	-0.001001
3758.000000	-0.001002
3757.000000	-0.001002
3756.000000	-0.001011
3755.000000	-0.001030
3754.000000	-0.001054
3753.000000	-0.001078
3752.000000	-0.001094
3751.000000	-0.001096
3750.000000	-0.001078
3749.000000	-0.001049
3748.000000	-0.001021
3747.000000	-0.000992
3746.000000	-0.000951
3745.000000	-0.000886
3744.000000	-0.000821
3743.000000	-0.000795
3742.000000	-0.000818
3741.000000	-0.000871
3740.000000	-0.000932
3739.000000	-0.000979
3738.000000	-0.000996
3737.000000	-0.000979
3736.000000	-0.000942
3735.000000	-0.000906
3734.000000	-0.000884
3733.000000	-0.000872
3732.000000	-0.000866
3731.000000	-0.000863
3730.000000	-0.000861
3729.000000	-0.000860
3728.000000	-0.000863
3727.000000	-0.000875
3726.000000	-0.000895
3725.000000	-0.000915
3724.000000	-0.000929
3723.000000	-0.000939
3722.000000	-0.000954
3721.000000	-0.000978
3720.000000	-0.001010
3719.000000	-0.001037
3718.000000	-0.001046
3717.000000	-0.001030
3716.000000	-0.000994
3715.000000	-0.000950
3714.000000	-0.000912
3713.000000	-0.000893
3712.000000	-0.000900
3711.000000	-0.000924
3710.000000	-0.000946
3709.000000	-0.000956
3708.000000	-0.000961
3707.000000	-0.000971
3706.000000	-0.000989
3705.000000	-0.001008
3704.000000	-0.001024
3703.000000	-0.001040
3702.000000	-0.001057
3701.000000	-0.001069
3700.000000	-0.001072
3699.000000	-0.001067
3698.000000	-0.001058
3697.000000	-0.001050
3696.000000	-0.001048
3695.000000	-0.001050
3694.000000	-0.001050
3693.000000	-0.001039
3692.000000	-0.001013
3691.000000	-0.000986
3690.000000	-0.000980
3689.000000	-0.001005
3688.000000	-0.001039
3687.000000	-0.001051
3686.000000	-0.001035
3685.000000	-0.001007
3684.000000	-0.000985
3683.000000	-0.000978
3682.000000	-0.000986
3681.000000	-0.001002
3680.000000	-0.001018
3679.000000	-0.001028
3678.000000	-0.001029
3677.000000	-0.001026
3676.000000	-0.001022
3675.000000	-0.001012
3674.000000	-0.000985
3673.000000	-0.000945
3672.000000	-0.000911
3671.000000	-0.000903
3670.000000	-0.000924
3669.000000	-0.000951
3668.000000	-0.000964
3667.000000	-0.000961
3666.000000	-0.000955
3665.000000	-0.000953
3664.000000	-0.000954
3663.000000	-0.000957
3662.000000	-0.000955
3661.000000	-0.000940
3660.000000	-0.000913
3659.000000	-0.000883
3658.000000	-0.000866
3657.000000	-0.000869
3656.000000	-0.000883
3655.000000	-0.000893
3654.000000	-0.000896
3653.000000	-0.000898
3652.000000	-0.000909
3651.000000	-0.000929
3650.000000	-0.000948
3649.000000	-0.000955
3648.000000	-0.000953
3647.000000	-0.000956
3646.000000	-0.000965
3645.000000	-0.000979
3644.000000	-0.000993
3643.000000	-0.001005
3642.000000	-0.001017
3641.000000	-0.001029
3640.000000	-0.001034
3639.000000	-0.001031
3638.000000	-0.001019
3637.000000	-0.001007
3636.000000	-0.000997
3635.000000	-0.000992
3634.000000	-0.000992
3633.000000	-0.000999
3632.000000	-0.001004
3631.000000	-0.000994
3630.000000	-0.000965
3629.000000	-0.000933
3628.000000	-0.000917
3627.000000	-0.000917
3626.000000	-0.000914
3625.000000	-0.000896
3624.000000	-0.000867
3623.000000	-0.000842
3622.000000	-0.000836
3621.000000	-0.000853
3620.000000	-0.000881
3619.000000	-0.000902
3618.000000	-0.000905
3617.000000	-0.000896
3616.000000	-0.000891
3615.000000	-0.000902
3614.000000	-0.000927
3613.000000	-0.000950
3612.000000	-0.000958
3611.000000	-0.000949
3610.000000	-0.000937
3609.000000	-0.000933
3608.000000	-0.000939
3607.000000	-0.000944
3606.000000	-0.000937
3605.000000	-0.000913
3604.000000	-0.000874
3603.000000	-0.000829
3602.000000	-0.000795
3601.000000	-0.000782
3600.000000	-0.000790
3599.000000	-0.000812
3598.000000	-0.000839
3597.000000	-0.000866
3596.000000	-0.000889
3595.000000	-0.000903
3594.000000	-0.000901
3593.000000	-0.000888
3592.000000	-0.000870
3591.000000	-0.000851
3590.000000	-0.000831
3589.000000	-0.000808
3588.000000	-0.000786
3587.000000	-0.000776
3586.000000	-0.000788
3585.000000	-0.000825
3584.000000	-0.000875
3583.000000	-0.000920
3582.000000	-0.000942
3581.000000	-0.000931
3580.000000	-0.000893
3579.000000	-0.000847
3578.000000	-0.000812
3577.000000	-0.000797
3576.000000	-0.000794
3575.000000	-0.000790
3574.000000	-0.000777
3573.000000	-0.000757
3572.000000	-0.000738
3571.000000	-0.000721
3570.000000	-0.000708
3569.000000	-0.000703
3568.000000	-0.000716
3567.000000	-0.000751
3566.000000	-0.000793
3565.000000	-0.000824
3564.000000	-0.000836
3563.000000	-0.000835
3562.000000	-0.000826
3561.000000	-0.000808
3560.000000	-0.000782
3559.000000	-0.000753
3558.000000	-0.000729
3557.000000	-0.000713
3556.000000	-0.000703
3555.000000	-0.000696
3554.000000	-0.000696
3553.000000	-0.000705
3552.000000	-0.000717
3551.000000	-0.000718
3550.000000	-0.000698
3549.000000	-0.000662
3548.000000	-0.000628
3547.000000	-0.000615
3546.000000	-0.000634
3545.000000	-0.000675
3544.000000	-0.000717
3543.000000	-0.000739
3542.000000	-0.000738
3541.000000	-0.000723
3540.000000	-0.000711
3539.000000	-0.000707
3538.000000	-0.000704
3537.000000	-0.000693
3536.000000	-0.000676
3535.000000	-0.000661
3534.000000	-0.000653
3533.000000	-0.000646
3532.000000	-0.000634
3531.000000	-0.000614
3530.000000	-0.000591
3529.000000	-0.000573
3528.000000	-0.000561
3527.000000	-0.000560
3526.000000	-0.000577
3525.000000	-0.000615
3524.000000	-0.000664
3523.000000	-0.000702
3522.000000	-0.000715
3521.000000	-0.000703
3520.000000	-0.000682
3519.000000	-0.000662
3518.000000	-0.000650
3517.000000	-0.000646
3516.000000	-0.000649
3515.000000	-0.000651
3514.000000	-0.000642
3513.000000	-0.000615
3512.000000	-0.000575
3511.000000	-0.000533
3510.000000	-0.000499
3509.000000	-0.000478
3508.000000	-0.000470
3507.000000	-0.000474
3506.000000	-0.000493
3505.000000	-0.000522
3504.000000	-0.000549
3503.000000	-0.000564
3502.000000	-0.000569
3501.000000	-0.000575
3500.000000	-0.000589
3499.000000	-0.000608
3498.000000	-0.000622
3497.000000	-0.000623
3496.000000	-0.000612
3495.000000	-0.000594
3494.000000	-0.000576
3493.000000	-0.000559
3492.000000	-0.000544
3491.000000	-0.000529
3490.000000	-0.000517
3489.000000	-0.000510
3488.000000	-0.000514
3487.000000	-0.000528
3486.000000	-0.000543
3485.000000	-0.000546
3484.000000	-0.000532
3483.000000	-0.000509
3482.000000	-0.000494
3481.000000	-0.000492
3480.000000	-0.000498
3479.000000	-0.000505
3478.000000	-0.000513
3477.000000	-0.000527
3476.000000	-0.000543
3475.000000	-0.000550
3474.000000	-0.000539
3473.000000	-0.000520
3472.000000	-0.000502
3471.000000	-0.000492
3470.000000	-0.000490
3469.000000	-0.000495
3468.000000	-0.000507
3467.000000	-0.000521
3466.000000	-0.000532
3465.000000	-0.000532
3464.000000	-0.000524
3463.000000	-0.000512
3462.000000	-0.000497
3461.000000	-0.000483
3460.000000	-0.000473
3459.000000	-0.000473
3458.000000	-0.000491
3457.000000	-0.000525
3456.000000	-0.000562
3455.000000	-0.000586
3454.000000	-0.000585
3453.000000	-0.000563
3452.000000	-0.000542
3451.000000	-0.000538
3450.000000	-0.000553
3449.000000	-0.000573
3448.000000	-0.000582
3447.000000	-0.000574
3446.000000	-0.000550
3445.000000	-0.000516
3444.000000	-0.000484
3443.000000	-0.000466
3442.000000	-0.000462
3441.000000	-0.000466
3440.000000	-0.000464
3439.000000	-0.000452
3438.000000	-0.000440
3437.000000	-0.000439
3436.000000	-0.000450
3435.000000	-0.000465
3434.000000	-0.000475
3433.000000	-0.000483
3432.000000	-0.000491
3431.000000	-0.000498
3430.000000	-0.000499
3429.000000	-0.000493
3428.000000	-0.000482
3427.000000	-0.000471
3426.000000	-0.000462
3425.000000	-0.000458
3424.000000	-0.000459
3423.000000	-0.000462
3422.000000	-0.000461
3421.000000	-0.000456
3420.000000	-0.000447
3419.000000	-0.000442
3418.000000	-0.000438
3417.000000	-0.000435
3416.000000	-0.000429
3415.000000	-0.000419
3414.000000	-0.000403
3413.000000	-0.000386
3412.000000	-0.000370
3411.000000	-0.000358
3410.000000	-0.000351
3409.000000	-0.000348
3408.000000	-0.000347
3407.000000	-0.000347
3406.000000	-0.000346
3405.000000	-0.000345
3404.000000	-0.000350
3403.000000	-0.000363
3402.000000	-0.000380
3401.000000	-0.000394
3400.000000	-0.000400
3399.000000	-0.000400
3398.000000	-0.000395
3397.000000	-0.000385
3396.000000	-0.000373
3395.000000	-0.000365
3394.000000	-0.000362
3393.000000	-0.000361
3392.000000	-0.000359
3391.000000	-0.000361
3390.000000	-0.000369
3389.000000	-0.000378
3388.000000	-0.000378
3387.000000	-0.000367
3386.000000	-0.000357
3385.000000	-0.000361
3384.000000	-0.000379
3383.000000	-0.000402
3382.000000	-0.000417
3381.000000	-0.000421
3380.000000	-0.000419
3379.000000	-0.000415
3378.000000	-0.000411
3377.000000	-0.000407
3376.000000	-0.000400
3375.000000	-0.000389
3374.000000	-0.000376
3373.000000	-0.000368
3372.000000	-0.000373
3371.000000	-0.000389
3370.000000	-0.000402
3369.000000	-0.000400
3368.000000	-0.000383
3367.000000	-0.000364
3366.000000	-0.000352
3365.000000	-0.000348
3364.000000	-0.000345
3363.000000	-0.000340
3362.000000	-0.000335
3361.000000	-0.000333
3360.000000	-0.000338
3359.000000	-0.000348
3358.000000	-0.000355
3357.000000	-0.000350
3356.000000	-0.000329
3355.000000	-0.000303
3354.000000	-0.000286
3353.000000	-0.000285
3352.000000	-0.000296
3351.000000	-0.000306
3350.000000	-0.000309
3349.000000	-0.000305
3348.000000	-0.000299
3347.000000	-0.000299
3346.000000	-0.000305
3345.000000	-0.000311
3344.000000	-0.000308
3343.000000	-0.000297
3342.000000	-0.000288
3341.000000	-0.000290
3340.000000	-0.000303
3339.000000	-0.000318
3338.000000	-0.000326
3337.000000	-0.000329
3336.000000	-0.000331
3335.000000	-0.000333
3334.000000	-0.000333
3333.000000	-0.000331
3332.000000	-0.000330
3331.000000	-0.000333
3330.000000	-0.000339
3329.000000	-0.000343
3328.000000	-0.000340
3327.000000	-0.000326
3326.000000	-0.000305
3325.000000	-0.000285
3324.000000	-0.000274
3323.000000	-0.000275
3322.000000	-0.000286
3321.000000	-0.000303
3320.000000	-0.000323
3319.000000	-0.000343
3318.000000	-0.000356
3317.000000	-0.000359
3316.000000	-0.000351
3315.000000	-0.000341
3314.000000	-0.000334
3313.000000	-0.000330
3312.000000	-0.000322
3311.000000	-0.000308
3310.000000	-0.000297
3309.000000	-0.000298
3308.000000	-0.000317
3307.000000	-0.000346
3306.000000	-0.000371
3305.000000	-0.000378
3304.000000	-0.000364
3303.000000	-0.000335
3302.000000	-0.000304
3301.000000	-0.000284
3300.000000	-0.000279
3299.000000	-0.000281
3298.000000	-0.000283
3297.000000	-0.000278
3296.000000	-0.000273
3295.000000	-0.000276
3294.000000	-0.000291
3293.000000	-0.000312
3292.000000	-0.000327
3291.000000	-0.000326
3290.000000	-0.000313
3289.000000	-0.000298
3288.000000	-0.000290
3287.000000	-0.000292
3286.000000	-0.000298
3285.000000	-0.000307
3284.000000	-0.000317
3283.000000	-0.000324
3282.000000	-0.000326
3281.000000	-0.000317
3280.000000	-0.000302
3279.000000	-0.000293
3278.000000	-0.000298
3277.000000	-0.000318
3276.000000	-0.000339
3275.000000	-0.000349
3274.000000	-0.000343
3273.000000	-0.000331
3272.000000	-0.000325
3271.000000	-0.000331
3270.000000	-0.000338
3269.000000	-0.000332
3268.000000	-0.000305
3267.000000	-0.000262
3266.000000	-0.000221
3265.000000	-0.000202
3264.000000	-0.000210
3263.000000	-0.000235
3262.000000	-0.000262
3261.000000	-0.000281
3260.000000	-0.000293
3259.000000	-0.000301
3258.000000	-0.000305
3257.000000	-0.000304
3256.000000	-0.000298
3255.000000	-0.000287
3254.000000	-0.000279
3253.000000	-0.000278
3252.000000	-0.000285
3251.000000	-0.000298
3250.000000	-0.000310
3249.000000	-0.000317
3248.000000	-0.000311
3247.000000	-0.000291
3246.000000	-0.000261
3245.000000	-0.000235
3244.000000	-0.000222
3243.000000	-0.000225
3242.000000	-0.000239
3241.000000	-0.000259
3240.000000	-0.000276
3239.000000	-0.000281
3238.000000	-0.000270
3237.000000	-0.000249
3236.000000	-0.000228
3235.000000	-0.000212
3234.000000	-0.000204
3233.000000	-0.000203
3232.000000	-0.000208
3231.000000	-0.000218
3230.000000	-0.000231
3229.000000	-0.000250
3228.000000	-0.000273
3227.000000	-0.000292
3226.000000	-0.000301
3225.000000	-0.000303
3224.000000	-0.000311
3223.000000	-0.000330
3222.000000	-0.000355
3221.000000	-0.000373
3220.000000	-0.000375
3219.000000	-0.000361
3218.000000	-0.000336
3217.000000	-0.000313
3216.000000	-0.000305
3215.000000	-0.000318
3214.000000	-0.000346
3213.000000	-0.000372
3212.000000	-0.000384
3211.000000	-0.000376
3210.000000	-0.000357
3209.000000	-0.000336
3208.000000	-0.000321
3207.000000	-0.000307
3206.000000	-0.000290
3205.000000	-0.000272
3204.000000	-0.000264
3203.000000	-0.000267
3202.000000	-0.000276
3201.000000	-0.000288
3200.000000	-0.000304
3199.000000	-0.000326
3198.000000	-0.000350
3197.000000	-0.000368
3196.000000	-0.000371
3195.000000	-0.000355
3194.000000	-0.000326
3193.000000	-0.000300
3192.000000	-0.000294
3191.000000	-0.000314
3190.000000	-0.000348
3189.000000	-0.000374
3188.000000	-0.000380
3187.000000	-0.000375
3186.000000	-0.000371
3185.000000	-0.000368
3184.000000	-0.000359
3183.000000	-0.000338
3182.000000	-0.000312
3181.000000	-0.000291
3180.000000	-0.000282
3179.000000	-0.000283
3178.000000	-0.000294
3177.000000	-0.000317
3176.000000	-0.000353
3175.000000	-0.000394
3174.000000	-0.000425
3173.000000	-0.000436
3172.000000	-0.000425
3171.000000	-0.000398
3170.000000	-0.000361
3169.000000	-0.000325
3168.000000	-0.000302
3167.000000	-0.000295
3166.000000	-0.000299
3165.000000	-0.000309
3164.000000	-0.000323
3163.000000	-0.000342
3162.000000	-0.000358
3161.000000	-0.000362
3160.000000	-0.000350
3159.000000	-0.000329
3158.000000	-0.000308
3157.000000	-0.000296
3156.000000	-0.000300
3155.000000	-0.000327
3154.000000	-0.000367
3153.000000	-0.000401
3152.000000	-0.000415
3151.000000	-0.000408
3150.000000	-0.000393
3149.000000	-0.000386
3148.000000	-0.000388
3147.000000	-0.000391
3146.000000	-0.000389
3145.000000	-0.000384
3144.000000	-0.000382
3143.000000	-0.000384
3142.000000	-0.000385
3141.000000	-0.000381
3140.000000	-0.000375
3139.000000	-0.000371
3138.000000	-0.000370
3137.000000	-0.000374
3136.000000	-0.000386
3135.000000	-0.000407
3134.000000	-0.000427
3133.000000	-0.000435
3132.000000	-0.000428
3131.000000	-0.000411
3130.000000	-0.000393
3129.000000	-0.000380
3128.000000	-0.000373
3127.000000	-0.000367
3126.000000	-0.000361
3125.000000	-0.000355
3124.000000	-0.000351
3123.000000	-0.000353
3122.000000	-0.000363
3121.000000	-0.000378
3120.000000	-0.000396
3119.000000	-0.000410
3118.000000	-0.000419
3117.000000	-0.000418
3116.000000	-0.000410
3115.000000	-0.000398
3114.000000	-0.000382
3113.000000	-0.000365
3112.000000	-0.000351
3111.000000	-0.000344
3110.000000	-0.000340
3109.000000	-0.000334
3108.000000	-0.000329
3107.000000	-0.000331
3106.000000	-0.000345
3105.000000	-0.000366
3104.000000	-0.000383
3103.000000	-0.000397
3102.000000	-0.000409
3101.000000	-0.000425
3100.000000	-0.000444
3099.000000	-0.000463
3098.000000	-0.000477
3097.000000	-0.000484
3096.000000	-0.000480
3095.000000	-0.000469
3094.000000	-0.000455
3093.000000	-0.000443
3092.000000	-0.000437
3091.000000	-0.000432
3090.000000	-0.000424
3089.000000	-0.000410
3088.000000	-0.000397
3087.000000	-0.000390
3086.000000	-0.000389
3085.000000	-0.000388
3084.000000	-0.000386
3083.000000	-0.000386
3082.000000	-0.000391
3081.000000	-0.000403
3080.000000	-0.000419
3079.000000	-0.000434
3078.000000	-0.000446
3077.000000	-0.000457
3076.000000	-0.000468
3075.000000	-0.000477
3074.000000	-0.000481
3073.000000	-0.000477
3072.000000	-0.000461
3071.000000	-0.000437
3070.000000	-0.000408
3069.000000	-0.000385
3068.000000	-0.000376
3067.000000	-0.000382
3066.000000	-0.000397
3065.000000	-0.000414
3064.000000	-0.000429
3063.000000	-0.000439
3062.000000	-0.000437
3061.000000	-0.000423
3060.000000	-0.000403
3059.000000	-0.000384
3058.000000	-0.000372
3057.000000	-0.000364
3056.000000	-0.000365
3055.000000	-0.000377
3054.000000	-0.000397
3053.000000	-0.000411
3052.000000	-0.000414
3051.000000	-0.000407
3050.000000	-0.000401
3049.000000	-0.000400
3048.000000	-0.000403
3047.000000	-0.000408
3046.000000	-0.000414
3045.000000	-0.000422
3044.000000	-0.000430
3043.000000	-0.000434
3042.000000	-0.000429
3041.000000	-0.000411
3040.000000	-0.000389
3039.000000	-0.000373
3038.000000	-0.000369
3037.000000	-0.000371
3036.000000	-0.000371
3035.000000	-0.000371
3034.000000	-0.000379
3033.000000	-0.000396
3032.000000	-0.000414
3031.000000	-0.000427
3030.000000	-0.000438
3029.000000	-0.000448
3028.000000	-0.000458
3027.000000	-0.000462
3026.000000	-0.000458
3025.000000	-0.000450
3024.000000	-0.000441
3023.000000	-0.000434
3022.000000	-0.000432
3021.000000	-0.000440
3020.000000	-0.000453
3019.000000	-0.000460
3018.000000	-0.000453
3017.000000	-0.000437
3016.000000	-0.000425
3015.000000	-0.000424
3014.000000	-0.000428
3013.000000	-0.000426
3012.000000	-0.000415
3011.000000	-0.000397
3010.000000	-0.000379
3009.000000	-0.000369
3008.000000	-0.000378
3007.000000	-0.000406
3006.000000	-0.000438
3005.000000	-0.000459
3004.000000	-0.000457
3003.000000	-0.000439
3002.000000	-0.000416
3001.000000	-0.000399
3000.000000	-0.000394
2999.000000	-0.000404
2998.000000	-0.000421
2997.000000	-0.000431
2996.000000	-0.000429
2995.000000	-0.000420
2994.000000	-0.000415
2993.000000	-0.000417
2992.000000	-0.000423
2991.000000	-0.000425
2990.000000	-0.000422
2989.000000	-0.000414
2988.000000	-0.000407
2987.000000	-0.000404
2986.000000	-0.000406
2985.000000	-0.000411
2984.000000	-0.000414
2983.000000	-0.000414
2982.000000	-0.000414
2981.000000	-0.000416
2980.000000	-0.000419
2979.000000	-0.000423
2978.000000	-0.000427
2977.000000	-0.000432
2976.000000	-0.000442
2975.000000	-0.000456
2974.000000	-0.000468
2973.000000	-0.000468
2972.000000	-0.000455
2971.000000	-0.000434
2970.000000	-0.000409
2969.000000	-0.000381
2968.000000	-0.000350
2967.000000	-0.000327
2966.000000	-0.000323
2965.000000	-0.000335
2964.000000	-0.000351
2963.000000	-0.000360
2962.000000	-0.000360
2961.000000	-0.000356
2960.000000	-0.000352
2959.000000	-0.000350
2958.000000	-0.000353
2957.000000	-0.000359
2956.000000	-0.000361
2955.000000	-0.000353
2954.000000	-0.000331
2953.000000	-0.000306
2952.000000	-0.000294
2951.000000	-0.000299
2950.000000	-0.000310
2949.000000	-0.000310
2948.000000	-0.000294
2947.000000	-0.000276
2946.000000	-0.000271
2945.000000	-0.000282
2944.000000	-0.000301
2943.000000	-0.000320
2942.000000	-0.000334
2941.000000	-0.000339
2940.000000	-0.000338
2939.000000	-0.000331
2938.000000	-0.000318
2937.000000	-0.000297
2936.000000	-0.000272
2935.000000	-0.000255
2934.000000	-0.000257
2933.000000	-0.000272
2932.000000	-0.000283
2931.000000	-0.000284
2930.000000	-0.000280
2929.000000	-0.000284
2928.000000	-0.000296
2927.000000	-0.000307
2926.000000	-0.000310
2925.000000	-0.000306
2924.000000	-0.000302
2923.000000	-0.000304
2922.000000	-0.000315
2921.000000	-0.000327
2920.000000	-0.000335
2919.000000	-0.000333
2918.000000	-0.000324
2917.000000	-0.000315
2916.000000	-0.000310
2915.000000	-0.000310
2914.000000	-0.000312
2913.000000	-0.000311
2912.000000	-0.000309
2911.000000	-0.000308
2910.000000	-0.000316
2909.000000	-0.000330
2908.000000	-0.000341
2907.000000	-0.000344
2906.000000	-0.000339
2905.000000	-0.000333
2904.000000	-0.000327
2903.000000	-0.000319
2902.000000	-0.000308
2901.000000	-0.000299
2900.000000	-0.000300
2899.000000	-0.000315
2898.000000	-0.000340
2897.000000	-0.000365
2896.000000	-0.000380
2895.000000	-0.000387
2894.000000	-0.000388
2893.000000	-0.000388
2892.000000	-0.000386
2891.000000	-0.000379
2890.000000	-0.000369
2889.000000	-0.000363
2888.000000	-0.000361
2887.000000	-0.000362
2886.000000	-0.000360
2885.000000	-0.000351
2884.000000	-0.000338
2883.000000	-0.000323
2882.000000	-0.000310
2881.000000	-0.000298
2880.000000	-0.000293
2879.000000	-0.000302
2878.000000	-0.000322
2877.000000	-0.000340
2876.000000	-0.000341
2875.000000	-0.000329
2874.000000	-0.000319
2873.000000	-0.000319
2872.000000	-0.000328
2871.000000	-0.000338
2870.000000	-0.000345
2869.000000	-0.000348
2868.000000	-0.000341
2867.000000	-0.000328
2866.000000	-0.000319
2865.000000	-0.000322
2864.000000	-0.000332
2863.000000	-0.000334
2862.000000	-0.000322
2861.000000	-0.000303
2860.000000	-0.000292
2859.000000	-0.000290
2858.000000	-0.000299
2857.000000	-0.000318
2856.000000	-0.000344
2855.000000	-0.000368
2854.000000	-0.000377
2853.000000	-0.000366
2852.000000	-0.000344
2851.000000	-0.000333
2850.000000	-0.000344
2849.000000	-0.000374
2848.000000	-0.000407
2847.000000	-0.000428
2846.000000	-0.000436
2845.000000	-0.000434
2844.000000	-0.000427
2843.000000	-0.000412
2842.000000	-0.000391
2841.000000	-0.000373
2840.000000	-0.000365
2839.000000	-0.000368
2838.000000	-0.000378
2837.000000	-0.000386
2836.000000	-0.000385
2835.000000	-0.000378
2834.000000	-0.000373
2833.000000	-0.000376
2832.000000	-0.000384
2831.000000	-0.000394
2830.000000	-0.000397
2829.000000	-0.000393
2828.000000	-0.000381
2827.000000	-0.000364
2826.000000	-0.000350
2825.000000	-0.000342
2824.000000	-0.000342
2823.000000	-0.000348
2822.000000	-0.000357
2821.000000	-0.000368
2820.000000	-0.000380
2819.000000	-0.000391
2818.000000	-0.000396
2817.000000	-0.000394
2816.000000	-0.000386
2815.000000	-0.000377
2814.000000	-0.000369
2813.000000	-0.000364
2812.000000	-0.000362
2811.000000	-0.000361
2810.000000	-0.000359
2809.000000	-0.000357
2808.000000	-0.000356
2807.000000	-0.000357
2806.000000	-0.000361
2805.000000	-0.000371
2804.000000	-0.000383
2803.000000	-0.000388
2802.000000	-0.000376
2801.000000	-0.000352
2800.000000	-0.000325
2799.000000	-0.000310
2798.000000	-0.000312
2797.000000	-0.000331
2796.000000	-0.000359
2795.000000	-0.000388
2794.000000	-0.000409
2793.000000	-0.000417
2792.000000	-0.000410
2791.000000	-0.000387
2790.000000	-0.000355
2789.000000	-0.000325
2788.000000	-0.000307
2787.000000	-0.000306
2786.000000	-0.000313
2785.000000	-0.000321
2784.000000	-0.000323
2783.000000	-0.000325
2782.000000	-0.000338
2781.000000	-0.000365
2780.000000	-0.000398
2779.000000	-0.000415
2778.000000	-0.000406
2777.000000	-0.000379
2776.000000	-0.000350
2775.000000	-0.000334
2774.000000	-0.000331
2773.000000	-0.000335
2772.000000	-0.000340
2771.000000	-0.000344
2770.000000	-0.000344
2769.000000	-0.000343
2768.000000	-0.000341
2767.000000	-0.000342
2766.000000	-0.000343
2765.000000	-0.000338
2764.000000	-0.000326
2763.000000	-0.000309
2762.000000	-0.000298
2761.000000	-0.000300
2760.000000	-0.000311
2759.000000	-0.000319
2758.000000	-0.000319
2757.000000	-0.000314
2756.000000	-0.000314
2755.000000	-0.000317
2754.000000	-0.000319
2753.000000	-0.000320
2752.000000	-0.000324
2751.000000	-0.000331
2750.000000	-0.000339
2749.000000	-0.000347
2748.000000	-0.000356
2747.000000	-0.000365
2746.000000	-0.000365
2745.000000	-0.000352
2744.000000	-0.000332
2743.000000	-0.000317
2742.000000	-0.000313
2741.000000	-0.000324
2740.000000	-0.000345
2739.000000	-0.000363
2738.000000	-0.000367
2737.000000	-0.000350
2736.000000	-0.000320
2735.000000	-0.000296
2734.000000	-0.000289
2733.000000	-0.000301
2732.000000	-0.000321
2731.000000	-0.000337
2730.000000	-0.000343
2729.000000	-0.000341
2728.000000	-0.000341
2727.000000	-0.000344
2726.000000	-0.000347
2725.000000	-0.000349
2724.000000	-0.000352
2723.000000	-0.000362
2722.000000	-0.000372
2721.000000	-0.000376
2720.000000	-0.000369
2719.000000	-0.000356
2718.000000	-0.000344
2717.000000	-0.000334
2716.000000	-0.000327
2715.000000	-0.000326
2714.000000	-0.000329
2713.000000	-0.000333
2712.000000	-0.000333
2711.000000	-0.000329
2710.000000	-0.000320
2709.000000	-0.000314
2708.000000	-0.000314
2707.000000	-0.000323
2706.000000	-0.000332
2705.000000	-0.000337
2704.000000	-0.000335
2703.000000	-0.000331
2702.000000	-0.000329
2701.000000	-0.000327
2700.000000	-0.000324
2699.000000	-0.000318
2698.000000	-0.000312
2697.000000	-0.000312
2696.000000	-0.000319
2695.000000	-0.000330
2694.000000	-0.000337
2693.000000	-0.000335
2692.000000	-0.000327
2691.000000	-0.000319
2690.000000	-0.000309
2689.000000	-0.000298
2688.000000	-0.000293
2687.000000	-0.000300
2686.000000	-0.000317
2685.000000	-0.000332
2684.000000	-0.000340
2683.000000	-0.000346
2682.000000	-0.000355
2681.000000	-0.000363
2680.000000	-0.000362
2679.000000	-0.000351
2678.000000	-0.000340
2677.000000	-0.000332
2676.000000	-0.000328
2675.000000	-0.000327
2674.000000	-0.000328
2673.000000	-0.000327
2672.000000	-0.000320
2671.000000	-0.000307
2670.000000	-0.000294
2669.000000	-0.000288
2668.000000	-0.000292
2667.000000	-0.000301
2666.000000	-0.000305
2665.000000	-0.000296
2664.000000	-0.000274
2663.000000	-0.000248
2662.000000	-0.000228
2661.000000	-0.000216
2660.000000	-0.000211
2659.000000	-0.000207
2658.000000	-0.000202
2657.000000	-0.000199
2656.000000	-0.000199
2655.000000	-0.000204
2654.000000	-0.000210
2653.000000	-0.000212
2652.000000	-0.000210
2651.000000	-0.000207
2650.000000	-0.000207
2649.000000	-0.000210
2648.000000	-0.000215
2647.000000	-0.000220
2646.000000	-0.000232
2645.000000	-0.000256
2644.000000	-0.000292
2643.000000	-0.000328
2642.000000	-0.000350
2641.000000	-0.000355
2640.000000	-0.000350
2639.000000	-0.000343
2638.000000	-0.000327
2637.000000	-0.000297
2636.000000	-0.000258
2635.000000	-0.000230
2634.000000	-0.000228
2633.000000	-0.000249
2632.000000	-0.000279
2631.000000	-0.000310
2630.000000	-0.000337
2629.000000	-0.000351
2628.000000	-0.000346
2627.000000	-0.000326
2626.000000	-0.000307
2625.000000	-0.000302
2624.000000	-0.000317
2623.000000	-0.000345
2622.000000	-0.000374
2621.000000	-0.000386
2620.000000	-0.000371
2619.000000	-0.000336
2618.000000	-0.000299
2617.000000	-0.000274
2616.000000	-0.000263
2615.000000	-0.000263
2614.000000	-0.000272
2613.000000	-0.000291
2612.000000	-0.000319
2611.000000	-0.000354
2610.000000	-0.000394
2609.000000	-0.000433
2608.000000	-0.000462
2607.000000	-0.000477
2606.000000	-0.000480
2605.000000	-0.000473
2604.000000	-0.000456
2603.000000	-0.000426
2602.000000	-0.000395
2601.000000	-0.000377
2600.000000	-0.000383
2599.000000	-0.000409
2598.000000	-0.000446
2597.000000	-0.000486
2596.000000	-0.000526
2595.000000	-0.000556
2594.000000	-0.000568
2593.000000	-0.000563
2592.000000	-0.000549
2591.000000	-0.000533
2590.000000	-0.000515
2589.000000	-0.000493
2588.000000	-0.000471
2587.000000	-0.000461
2586.000000	-0.000471
2585.000000	-0.000494
2584.000000	-0.000516
2583.000000	-0.000523
2582.000000	-0.000510
2581.000000	-0.000479
2580.000000	-0.000439
2579.000000	-0.000398
2578.000000	-0.000372
2577.000000	-0.000374
2576.000000	-0.000406
2575.000000	-0.000456
2574.000000	-0.000506
2573.000000	-0.000542
2572.000000	-0.000562
2571.000000	-0.000572
2570.000000	-0.000578
2569.000000	-0.000579
2568.000000	-0.000569
2567.000000	-0.000550
2566.000000	-0.000533
2565.000000	-0.000528
2564.000000	-0.000539
2563.000000	-0.000559
2562.000000	-0.000582
2561.000000	-0.000604
2560.000000	-0.000620
2559.000000	-0.000624
2558.000000	-0.000611
2557.000000	-0.000590
2556.000000	-0.000578
2555.000000	-0.000581
2554.000000	-0.000591
2553.000000	-0.000598
2552.000000	-0.000603
2551.000000	-0.000615
2550.000000	-0.000636
2549.000000	-0.000656
2548.000000	-0.000664
2547.000000	-0.000655
2546.000000	-0.000635
2545.000000	-0.000614
2544.000000	-0.000598
2543.000000	-0.000589
2542.000000	-0.000582
2541.000000	-0.000579
2540.000000	-0.000581
2539.000000	-0.000587
2538.000000	-0.000583
2537.000000	-0.000563
2536.000000	-0.000534
2535.000000	-0.000513
2534.000000	-0.000510
2533.000000	-0.000523
2532.000000	-0.000545
2531.000000	-0.000571
2530.000000	-0.000589
2529.000000	-0.000584
2528.000000	-0.000557
2527.000000	-0.000522
2526.000000	-0.000495
2525.000000	-0.000481
2524.000000	-0.000479
2523.000000	-0.000484
2522.000000	-0.000490
2521.000000	-0.000497
2520.000000	-0.000511
2519.000000	-0.000544
2518.000000	-0.000596
2517.000000	-0.000645
2516.000000	-0.000670
2515.000000	-0.000670
2514.000000	-0.000660
2513.000000	-0.000651
2512.000000	-0.000645
2511.000000	-0.000643
2510.000000	-0.000644
2509.000000	-0.000641
2508.000000	-0.000622
2507.000000	-0.000586
2506.000000	-0.000540
2505.000000	-0.000501
2504.000000	-0.000486
2503.000000	-0.000503
2502.000000	-0.000544
2501.000000	-0.000579
2500.000000	-0.000588
2499.000000	-0.000579
2498.000000	-0.000575
2497.000000	-0.000584
2496.000000	-0.000586
2495.000000	-0.000569
2494.000000	-0.000551
2493.000000	-0.000556
2492.000000	-0.000588
2491.000000	-0.000623
2490.000000	-0.000632
2489.000000	-0.000612
2488.000000	-0.000582
2487.000000	-0.000566
2486.000000	-0.000575
2485.000000	-0.000596
2484.000000	-0.000605
2483.000000	-0.000588
2482.000000	-0.000556
2481.000000	-0.000531
2480.000000	-0.000527
2479.000000	-0.000539
2478.000000	-0.000555
2477.000000	-0.000570
2476.000000	-0.000584
2475.000000	-0.000594
2474.000000	-0.000592
2473.000000	-0.000576
2472.000000	-0.000553
2471.000000	-0.000531
2470.000000	-0.000516
2469.000000	-0.000497
2468.000000	-0.000463
2467.000000	-0.000419
2466.000000	-0.000393
2465.000000	-0.000416
2464.000000	-0.000487
2463.000000	-0.000563
2462.000000	-0.000599
2461.000000	-0.000587
2460.000000	-0.000559
2459.000000	-0.000552
2458.000000	-0.000570
2457.000000	-0.000590
2456.000000	-0.000595
2455.000000	-0.000593
2454.000000	-0.000598
2453.000000	-0.000613
2452.000000	-0.000625
2451.000000	-0.000623
2450.000000	-0.000612
2449.000000	-0.000606
2448.000000	-0.000608
2447.000000	-0.000609
2446.000000	-0.000594
2445.000000	-0.000561
2444.000000	-0.000524
2443.000000	-0.000502
2442.000000	-0.000499
2441.000000	-0.000501
2440.000000	-0.000502
2439.000000	-0.000504
2438.000000	-0.000516
2437.000000	-0.000534
2436.000000	-0.000552
2435.000000	-0.000571
2434.000000	-0.000600
2433.000000	-0.000638
2432.000000	-0.000670
2431.000000	-0.000680
2430.000000	-0.000665
2429.000000	-0.000635
2428.000000	-0.000601
2427.000000	-0.000570
2426.000000	-0.000545
2425.000000	-0.000525
2424.000000	-0.000509
2423.000000	-0.000500
2422.000000	-0.000505
2421.000000	-0.000523
2420.000000	-0.000550
2419.000000	-0.000577
2418.000000	-0.000600
2417.000000	-0.000616
2416.000000	-0.000624
2415.000000	-0.000627
2414.000000	-0.000631
2413.000000	-0.000633
2412.000000	-0.000626
2411.000000	-0.000605
2410.000000	-0.000585
2409.000000	-0.000589
2408.000000	-0.000618
2407.000000	-0.000650
2406.000000	-0.000655
2405.000000	-0.000628
2404.000000	-0.000592
2403.000000	-0.000573
2402.000000	-0.000577
2401.000000	-0.000591
2400.000000	-0.000600
2399.000000	-0.000602
2398.000000	-0.000604
2397.000000	-0.000613
2396.000000	-0.000624
2395.000000	-0.000621
2394.000000	-0.000596
2393.000000	-0.000559
2392.000000	-0.000535
2391.000000	-0.000543
2390.000000	-0.000581
2389.000000	-0.000626
2388.000000	-0.000653
2387.000000	-0.000655
2386.000000	-0.000643
2385.000000	-0.000630
2384.000000	-0.000620
2383.000000	-0.000608
2382.000000	-0.000595
2381.000000	-0.000583
2380.000000	-0.000578
2379.000000	-0.000578
2378.000000	-0.000585
2377.000000	-0.000598
2376.000000	-0.000614
2375.000000	-0.000625
2374.000000	-0.000626
2373.000000	-0.000616
2372.000000	-0.000607
2371.000000	-0.000606
2370.000000	-0.000616
2369.000000	-0.000628
2368.000000	-0.000633
2367.000000	-0.000627
2366.000000	-0.000616
2365.000000	-0.000606
2364.000000	-0.000578
2363.000000	-0.000515
2362.000000	-0.000433
2361.000000	-0.000387
2360.000000	-0.000418
2359.000000	-0.000511
2358.000000	-0.000614
2357.000000	-0.000696
2356.000000	-0.000748
2355.000000	-0.000766
2354.000000	-0.000763
2353.000000	-0.000775
2352.000000	-0.000805
2351.000000	-0.000802
2350.000000	-0.000726
2349.000000	-0.000597
2348.000000	-0.000478
2347.000000	-0.000433
2346.000000	-0.000465
2345.000000	-0.000511
2344.000000	-0.000496
2343.000000	-0.000427
2342.000000	-0.000373
2341.000000	-0.000375
2340.000000	-0.000417
2339.000000	-0.000455
2338.000000	-0.000470
2337.000000	-0.000468
2336.000000	-0.000466
2335.000000	-0.000470
2334.000000	-0.000479
2333.000000	-0.000497
2332.000000	-0.000518
2331.000000	-0.000530
2330.000000	-0.000521
2329.000000	-0.000488
2328.000000	-0.000426
2327.000000	-0.000338
2326.000000	-0.000248
2325.000000	-0.000199
2324.000000	-0.000208
2323.000000	-0.000256
2322.000000	-0.000296
2321.000000	-0.000297
2320.000000	-0.000268
2319.000000	-0.000235
2318.000000	-0.000220
2317.000000	-0.000238
2316.000000	-0.000297
2315.000000	-0.000386
2314.000000	-0.000473
2313.000000	-0.000514
2312.000000	-0.000496
2311.000000	-0.000438
2310.000000	-0.000370
2309.000000	-0.000315
2308.000000	-0.000287
2307.000000	-0.000300
2306.000000	-0.000360
2305.000000	-0.000449
2304.000000	-0.000532
2303.000000	-0.000579
2302.000000	-0.000581
2301.000000	-0.000549
2300.000000	-0.000504
2299.000000	-0.000464
2298.000000	-0.000437
2297.000000	-0.000423
2296.000000	-0.000415
2295.000000	-0.000414
2294.000000	-0.000417
2293.000000	-0.000412
2292.000000	-0.000383
2291.000000	-0.000332
2290.000000	-0.000273
2289.000000	-0.000225
2288.000000	-0.000196
2287.000000	-0.000192
2286.000000	-0.000220
2285.000000	-0.000271
2284.000000	-0.000314
2283.000000	-0.000323
2282.000000	-0.000302
2281.000000	-0.000277
2280.000000	-0.000259
2279.000000	-0.000241
2278.000000	-0.000221
2277.000000	-0.000220
2276.000000	-0.000250
2275.000000	-0.000290
2274.000000	-0.000302
2273.000000	-0.000280
2272.000000	-0.000246
2271.000000	-0.000213
2270.000000	-0.000169
2269.000000	-0.000116
2268.000000	-0.000094
2267.000000	-0.000146
2266.000000	-0.000263
2265.000000	-0.000383
2264.000000	-0.000454
2263.000000	-0.000479
2262.000000	-0.000486
2261.000000	-0.000480
2260.000000	-0.000442
2259.000000	-0.000374
2258.000000	-0.000319
2257.000000	-0.000313
2256.000000	-0.000346
2255.000000	-0.000380
2254.000000	-0.000402
2253.000000	-0.000429
2252.000000	-0.000472
2251.000000	-0.000508
2250.000000	-0.000511
2249.000000	-0.000486
2248.000000	-0.000472
2247.000000	-0.000500
2246.000000	-0.000571
2245.000000	-0.000649
2244.000000	-0.000689
2243.000000	-0.000666
2242.000000	-0.000600
2241.000000	-0.000541
2240.000000	-0.000533
2239.000000	-0.000581
2238.000000	-0.000651
2237.000000	-0.000699
2236.000000	-0.000698
2235.000000	-0.000651
2234.000000	-0.000584
2233.000000	-0.000523
2232.000000	-0.000465
2231.000000	-0.000382
2230.000000	-0.000271
2229.000000	-0.000189
2228.000000	-0.000211
2227.000000	-0.000337
2226.000000	-0.000491
2225.000000	-0.000596
2224.000000	-0.000639
2223.000000	-0.000654
2222.000000	-0.000663
2221.000000	-0.000669
2220.000000	-0.000660
2219.000000	-0.000622
2218.000000	-0.000543
2217.000000	-0.000449
2216.000000	-0.000395
2215.000000	-0.000407
2214.000000	-0.000449
2213.000000	-0.000472
2212.000000	-0.000479
2211.000000	-0.000497
2210.000000	-0.000526
2209.000000	-0.000541
2208.000000	-0.000545
2207.000000	-0.000561
2206.000000	-0.000578
2205.000000	-0.000555
2204.000000	-0.000486
2203.000000	-0.000418
2202.000000	-0.000389
2201.000000	-0.000376
2200.000000	-0.000351
2199.000000	-0.000321
2198.000000	-0.000313
2197.000000	-0.000325
2196.000000	-0.000347
2195.000000	-0.000384
2194.000000	-0.000446
2193.000000	-0.000517
2192.000000	-0.000574
2191.000000	-0.000619
2190.000000	-0.000662
2189.000000	-0.000687
2188.000000	-0.000672
2187.000000	-0.000645
2186.000000	-0.000655
2185.000000	-0.000707
2184.000000	-0.000734
2183.000000	-0.000675
2182.000000	-0.000555
2181.000000	-0.000450
2180.000000	-0.000402
2179.000000	-0.000382
2178.000000	-0.000340
2177.000000	-0.000277
2176.000000	-0.000246
2175.000000	-0.000293
2174.000000	-0.000405
2173.000000	-0.000519
2172.000000	-0.000567
2171.000000	-0.000531
2170.000000	-0.000439
2169.000000	-0.000337
2168.000000	-0.000249
2167.000000	-0.000166
2166.000000	-0.000078
2165.000000	-0.000004
2164.000000	0.000014
2163.000000	-0.000031
2162.000000	-0.000110
2161.000000	-0.000229
2160.000000	-0.000481
2159.000000	-0.000933
2158.000000	-0.001454
2157.000000	-0.001790
2156.000000	-0.001824
2155.000000	-0.001672
2154.000000	-0.001495
2153.000000	-0.001356
2152.000000	-0.001249
2151.000000	-0.001185
2150.000000	-0.001187
2149.000000	-0.001218
2148.000000	-0.001192
2147.000000	-0.001066
2146.000000	-0.000904
2145.000000	-0.000810
2144.000000	-0.000836
2143.000000	-0.000953
2142.000000	-0.001106
2141.000000	-0.001253
2140.000000	-0.001362
2139.000000	-0.001388
2138.000000	-0.001289
2137.000000	-0.001075
2136.000000	-0.000836
2135.000000	-0.000691
2134.000000	-0.000696
2133.000000	-0.000804
2132.000000	-0.000910
2131.000000	-0.000941
2130.000000	-0.000887
2129.000000	-0.000794
2128.000000	-0.000719
2127.000000	-0.000694
2126.000000	-0.000706
2125.000000	-0.000711
2124.000000	-0.000683
2123.000000	-0.000637
2122.000000	-0.000615
2121.000000	-0.000642
2120.000000	-0.000700
2119.000000	-0.000744
2118.000000	-0.000738
2117.000000	-0.000683
2116.000000	-0.000623
2115.000000	-0.000605
2114.000000	-0.000631
2113.000000	-0.000662
2112.000000	-0.000664
2111.000000	-0.000650
2110.000000	-0.000653
2109.000000	-0.000676
2108.000000	-0.000679
2107.000000	-0.000638
2106.000000	-0.000568
2105.000000	-0.000511
2104.000000	-0.000499
2103.000000	-0.000540
2102.000000	-0.000611
2101.000000	-0.000663
2100.000000	-0.000650
2099.000000	-0.000571
2098.000000	-0.000469
2097.000000	-0.000392
2096.000000	-0.000362
2095.000000	-0.000383
2094.000000	-0.000457
2093.000000	-0.000555
2092.000000	-0.000615
2091.000000	-0.000596
2090.000000	-0.000525
2089.000000	-0.000469
2088.000000	-0.000457
2087.000000	-0.000464
2086.000000	-0.000472
2085.000000	-0.000503
2084.000000	-0.000580
2083.000000	-0.000675
2082.000000	-0.000726
2081.000000	-0.000705
2080.000000	-0.000637
2079.000000	-0.000559
2078.000000	-0.000490
2077.000000	-0.000434
2076.000000	-0.000396
2075.000000	-0.000386
2074.000000	-0.000414
2073.000000	-0.000480
2072.000000	-0.000565
2071.000000	-0.000628
2070.000000	-0.000632
2069.000000	-0.000576
2068.000000	-0.000499
2067.000000	-0.000454
2066.000000	-0.000465
2065.000000	-0.000516
2064.000000	-0.000545
2063.000000	-0.000495
2062.000000	-0.000375
2061.000000	-0.000274
2060.000000	-0.000281
2059.000000	-0.000379
2058.000000	-0.000462
2057.000000	-0.000456
2056.000000	-0.000389
2055.000000	-0.000320
2054.000000	-0.000254
2053.000000	-0.000163
2052.000000	-0.000068
2051.000000	-0.000034
2050.000000	-0.000088
2049.000000	-0.000188
2048.000000	-0.000278
2047.000000	-0.000353
2046.000000	-0.000440
2045.000000	-0.000547
2044.000000	-0.000660
2043.000000	-0.000774
2042.000000	-0.000900
2041.000000	-0.001039
2040.000000	-0.001150
2039.000000	-0.001154
2038.000000	-0.000988
2037.000000	-0.000693
2036.000000	-0.000419
2035.000000	-0.000299
2034.000000	-0.000318
2033.000000	-0.000360
2032.000000	-0.000372
2031.000000	-0.000411
2030.000000	-0.000524
2029.000000	-0.000662
2028.000000	-0.000742
2027.000000	-0.000729
2026.000000	-0.000635
2025.000000	-0.000495
2024.000000	-0.000390
2023.000000	-0.000423
2022.000000	-0.000615
2021.000000	-0.000867
2020.000000	-0.001050
2019.000000	-0.001119
2018.000000	-0.001093
2017.000000	-0.000966
2016.000000	-0.000728
2015.000000	-0.000435
2014.000000	-0.000210
2013.000000	-0.000151
2012.000000	-0.000267
2011.000000	-0.000482
2010.000000	-0.000698
2009.000000	-0.000844
2008.000000	-0.000912
2007.000000	-0.000940
2006.000000	-0.000938
2005.000000	-0.000856
2004.000000	-0.000667
2003.000000	-0.000431
2002.000000	-0.000269
2001.000000	-0.000258
2000.000000	-0.000382
1999.000000	-0.000567
1998.000000	-0.000733
1997.000000	-0.000830
1996.000000	-0.000856
1995.000000	-0.000855
1994.000000	-0.000872
1993.000000	-0.000889
1992.000000	-0.000841
1991.000000	-0.000701
1990.000000	-0.000527
1989.000000	-0.000401
1988.000000	-0.000367
1987.000000	-0.000424
1986.000000	-0.000542
1985.000000	-0.000671
1984.000000	-0.000744
1983.000000	-0.000725
1982.000000	-0.000642
1981.000000	-0.000564
1980.000000	-0.000545
1979.000000	-0.000589
1978.000000	-0.000667
1977.000000	-0.000756
1976.000000	-0.000852
1975.000000	-0.000947
1974.000000	-0.001015
1973.000000	-0.001023
1972.000000	-0.000966
1971.000000	-0.000880
1970.000000	-0.000814
1969.000000	-0.000801
1968.000000	-0.000855
1967.000000	-0.000977
1966.000000	-0.001131
1965.000000	-0.001238
1964.000000	-0.001233
1963.000000	-0.001129
1962.000000	-0.001001
1961.000000	-0.000913
1960.000000	-0.000875
1959.000000	-0.000879
1958.000000	-0.000926
1957.000000	-0.001007
1956.000000	-0.001078
1955.000000	-0.001096
1954.000000	-0.001069
1953.000000	-0.001046
1952.000000	-0.001045
1951.000000	-0.001027
1950.000000	-0.000959
1949.000000	-0.000864
1948.000000	-0.000789
1947.000000	-0.000742
1946.000000	-0.000689
1945.000000	-0.000618
1944.000000	-0.000568
1943.000000	-0.000589
1942.000000	-0.000677
1941.000000	-0.000769
1940.000000	-0.000812
1939.000000	-0.000796
1938.000000	-0.000738
1937.000000	-0.000663
1936.000000	-0.000605
1935.000000	-0.000595
1934.000000	-0.000644
1933.000000	-0.000724
1932.000000	-0.000785
1931.000000	-0.000800
1930.000000	-0.000782
1929.000000	-0.000757
1928.000000	-0.000724
1927.000000	-0.000663
1926.000000	-0.000570
1925.000000	-0.000485
1924.000000	-0.000457
1923.000000	-0.000489
1922.000000	-0.000535
1921.000000	-0.000558
1920.000000	-0.000566
1919.000000	-0.000589
1918.000000	-0.000633
1917.000000	-0.000674
1916.000000	-0.000691
1915.000000	-0.000678
1914.000000	-0.000643
1913.000000	-0.000600
1912.000000	-0.000573
1911.000000	-0.000585
1910.000000	-0.000638
1909.000000	-0.000716
1908.000000	-0.000789
1907.000000	-0.000838
1906.000000	-0.000857
1905.000000	-0.000855
1904.000000	-0.000851
1903.000000	-0.000855
1902.000000	-0.000857
1901.000000	-0.000848
1900.000000	-0.000833
1899.000000	-0.000821
1898.000000	-0.000806
1897.000000	-0.000775
1896.000000	-0.000741
1895.000000	-0.000730
1894.000000	-0.000746
1893.000000	-0.000760
1892.000000	-0.000743
1891.000000	-0.000701
1890.000000	-0.000666
1889.000000	-0.000656
1888.000000	-0.000656
1887.000000	-0.000646
1886.000000	-0.000618
1885.000000	-0.000587
1884.000000	-0.000570
1883.000000	-0.000581
1882.000000	-0.000618
1881.000000	-0.000665
1880.000000	-0.000703
1879.000000	-0.000720
1878.000000	-0.000719
1877.000000	-0.000713
1876.000000	-0.000715
1875.000000	-0.000730
1874.000000	-0.000753
1873.000000	-0.000776
1872.000000	-0.000796
1871.000000	-0.000813
1870.000000	-0.000820
1869.000000	-0.000799
1868.000000	-0.000754
1867.000000	-0.000722
1866.000000	-0.000736
1865.000000	-0.000788
1864.000000	-0.000842
1863.000000	-0.000859
1862.000000	-0.000835
1861.000000	-0.000789
1860.000000	-0.000749
1859.000000	-0.000731
1858.000000	-0.000737
1857.000000	-0.000755
1856.000000	-0.000767
1855.000000	-0.000762
1854.000000	-0.000743
1853.000000	-0.000727
1852.000000	-0.000724
1851.000000	-0.000725
1850.000000	-0.000725
1849.000000	-0.000737
1848.000000	-0.000773
1847.000000	-0.000821
1846.000000	-0.000850
1845.000000	-0.000843
1844.000000	-0.000829
1843.000000	-0.000846
1842.000000	-0.000890
1841.000000	-0.000927
1840.000000	-0.000929
1839.000000	-0.000891
1838.000000	-0.000825
1837.000000	-0.000754
1836.000000	-0.000705
1835.000000	-0.000692
1834.000000	-0.000712
1833.000000	-0.000743
1832.000000	-0.000770
1831.000000	-0.000788
1830.000000	-0.000795
1829.000000	-0.000793
1828.000000	-0.000794
1827.000000	-0.000807
1826.000000	-0.000818
1825.000000	-0.000809
1824.000000	-0.000786
1823.000000	-0.000782
1822.000000	-0.000814
1821.000000	-0.000861
1820.000000	-0.000893
1819.000000	-0.000907
1818.000000	-0.000918
1817.000000	-0.000929
1816.000000	-0.000922
1815.000000	-0.000887
1814.000000	-0.000843
1813.000000	-0.000819
1812.000000	-0.000825
1811.000000	-0.000842
1810.000000	-0.000845
1809.000000	-0.000837
1808.000000	-0.000840
1807.000000	-0.000863
1806.000000	-0.000891
1805.000000	-0.000910
1804.000000	-0.000920
1803.000000	-0.000934
1802.000000	-0.000950
1801.000000	-0.000956
1800.000000	-0.000937
1799.000000	-0.000892
1798.000000	-0.000827
1797.000000	-0.000754
1796.000000	-0.000696
1795.000000	-0.000670
1794.000000	-0.000679
1793.000000	-0.000701
1792.000000	-0.000717
1791.000000	-0.000732
1790.000000	-0.000757
1789.000000	-0.000789
1788.000000	-0.000813
1787.000000	-0.000827
1786.000000	-0.000836
1785.000000	-0.000842
1784.000000	-0.000841
1783.000000	-0.000827
1782.000000	-0.000804
1781.000000	-0.000778
1780.000000	-0.000753
1779.000000	-0.000734
1778.000000	-0.000720
1777.000000	-0.000711
1776.000000	-0.000709
1775.000000	-0.000722
1774.000000	-0.000752
1773.000000	-0.000781
1772.000000	-0.000783
1771.000000	-0.000757
1770.000000	-0.000732
1769.000000	-0.000721
1768.000000	-0.000719
1767.000000	-0.000717
1766.000000	-0.000710
1765.000000	-0.000705
1764.000000	-0.000705
1763.000000	-0.000716
1762.000000	-0.000733
1761.000000	-0.000747
1760.000000	-0.000750
1759.000000	-0.000743
1758.000000	-0.000720
1757.000000	-0.000681
1756.000000	-0.000641
1755.000000	-0.000623
1754.000000	-0.000633
1753.000000	-0.000653
1752.000000	-0.000654
1751.000000	-0.000627
1750.000000	-0.000591
1749.000000	-0.000568
1748.000000	-0.000566
1747.000000	-0.000571
1746.000000	-0.000574
1745.000000	-0.000571
1744.000000	-0.000563
1743.000000	-0.000555
1742.000000	-0.000554
1741.000000	-0.000560
1740.000000	-0.000568
1739.000000	-0.000575
1738.000000	-0.000585
1737.000000	-0.000607
1736.000000	-0.000638
1735.000000	-0.000664
1734.000000	-0.000673
1733.000000	-0.000670
1732.000000	-0.000682
1731.000000	-0.000709
1730.000000	-0.000730
1729.000000	-0.000734
1728.000000	-0.000732
1727.000000	-0.000733
1726.000000	-0.000728
1725.000000	-0.000713
1724.000000	-0.000697
1723.000000	-0.000700
1722.000000	-0.000719
1721.000000	-0.000737
1720.000000	-0.000739
1719.000000	-0.000720
1718.000000	-0.000686
1717.000000	-0.000643
1716.000000	-0.000609
1715.000000	-0.000597
1714.000000	-0.000608
1713.000000	-0.000628
1712.000000	-0.000646
1711.000000	-0.000657
1710.000000	-0.000656
1709.000000	-0.000640
1708.000000	-0.000607
1707.000000	-0.000566
1706.000000	-0.000522
1705.000000	-0.000478
1704.000000	-0.000440
1703.000000	-0.000418
1702.000000	-0.000413
1701.000000	-0.000419
1700.000000	-0.000422
1699.000000	-0.000410
1698.000000	-0.000402
1697.000000	-0.000407
1696.000000	-0.000412
1695.000000	-0.000413
1694.000000	-0.000411
1693.000000	-0.000405
1692.000000	-0.000381
1691.000000	-0.000336
1690.000000	-0.000283
1689.000000	-0.000242
1688.000000	-0.000217
1687.000000	-0.000201
1686.000000	-0.000186
1685.000000	-0.000170
1684.000000	-0.000156
1683.000000	-0.000147
1682.000000	-0.000156
1681.000000	-0.000179
1680.000000	-0.000192
1679.000000	-0.000183
1678.000000	-0.000154
1677.000000	-0.000111
1676.000000	-0.000060
1675.000000	-0.000012
1674.000000	0.000024
1673.000000	0.000050
1672.000000	0.000076
1671.000000	0.000109
1670.000000	0.000149
1669.000000	0.000194
1668.000000	0.000235
1667.000000	0.000263
1666.000000	0.000275
1665.000000	0.000281
1664.000000	0.000288
1663.000000	0.000303
1662.000000	0.000331
1661.000000	0.000370
1660.000000	0.000407
1659.000000	0.000432
1658.000000	0.000445
1657.000000	0.000457
1656.000000	0.000477
1655.000000	0.000507
1654.000000	0.000537
1653.000000	0.000557
1652.000000	0.000581
1651.000000	0.000595
1650.000000	0.000588
1649.000000	0.000591
1648.000000	0.000613
1647.000000	0.000642
1646.000000	0.000665
1645.000000	0.000680
1644.000000	0.000691
1643.000000	0.000704
1642.000000	0.000722
1641.000000	0.000743
1640.000000	0.000766
1639.000000	0.000786
1638.000000	0.000793
1637.000000	0.000780
1636.000000	0.000750
1635.000000	0.000722
1634.000000	0.000715
1633.000000	0.000723
1632.000000	0.000741
1631.000000	0.000766
1630.000000	0.000782
1629.000000	0.000783
1628.000000	0.000784
1627.000000	0.000804
1626.000000	0.000834
1625.000000	0.000854
1624.000000	0.000854
1623.000000	0.000840
1622.000000	0.000831
1621.000000	0.000831
1620.000000	0.000829
1619.000000	0.000811
1618.000000	0.000768
1617.000000	0.000715
1616.000000	0.000696
1615.000000	0.000721
1614.000000	0.000752
1613.000000	0.000763
1612.000000	0.000752
1611.000000	0.000730
1610.000000	0.000705
1609.000000	0.000684
1608.000000	0.000668
1607.000000	0.000654
1606.000000	0.000640
1605.000000	0.000620
1604.000000	0.000594
1603.000000	0.000571
1602.000000	0.000556
1601.000000	0.000544
1600.000000	0.000522
1599.000000	0.000488
1598.000000	0.000452
1597.000000	0.000427
1596.000000	0.000412
1595.000000	0.000400
1594.000000	0.000386
1593.000000	0.000375
1592.000000	0.000362
1591.000000	0.000344
1590.000000	0.000325
1589.000000	0.000316
1588.000000	0.000319
1587.000000	0.000323
1586.000000	0.000314
1585.000000	0.000296
1584.000000	0.000282
1583.000000	0.000281
1582.000000	0.000286
1581.000000	0.000291
1580.000000	0.000293
1579.000000	0.000295
1578.000000	0.000296
1577.000000	0.000291
1576.000000	0.000269
1575.000000	0.000233
1574.000000	0.000195
1573.000000	0.000159
1572.000000	0.000131
1571.000000	0.000116
1570.000000	0.000118
1569.000000	0.000142
1568.000000	0.000180
1567.000000	0.000215
1566.000000	0.000238
1565.000000	0.000245
1564.000000	0.000235
1563.000000	0.000218
1562.000000	0.000207
1561.000000	0.000208
1560.000000	0.000205
1559.000000	0.000171
1558.000000	0.000148
1557.000000	0.000161
1556.000000	0.000176
1555.000000	0.000189
1554.000000	0.000192
1553.000000	0.000178
1552.000000	0.000148
1551.000000	0.000109
1550.000000	0.000082
1549.000000	0.000082
1548.000000	0.000103
1547.000000	0.000125
1546.000000	0.000131
1545.000000	0.000122
1544.000000	0.000116
1543.000000	0.000125
1542.000000	0.000144
1541.000000	0.000158
1540.000000	0.000159
1539.000000	0.000157
1538.000000	0.000158
1537.000000	0.000155
1536.000000	0.000152
1535.000000	0.000152
1534.000000	0.000138
1533.000000	0.000110
1532.000000	0.000085
1531.000000	0.000074
1530.000000	0.000071
1529.000000	0.000069
1528.000000	0.000064
1527.000000	0.000056
1526.000000	0.000051
1525.000000	0.000050
1524.000000	0.000054
1523.000000	0.000060
1522.000000	0.000063
1521.000000	0.000051
1520.000000	0.000025
1519.000000	-0.000004
1518.000000	-0.000028
1517.000000	-0.000048
1516.000000	-0.000065
1515.000000	-0.000074
1514.000000	-0.000072
1513.000000	-0.000061
1512.000000	-0.000047
1511.000000	-0.000033
1510.000000	-0.000021
1509.000000	-0.000014
1508.000000	-0.000035
1507.000000	-0.000107
1506.000000	-0.000184
1505.000000	-0.000213
1504.000000	-0.000213
1503.000000	-0.000205
1502.000000	-0.000189
1501.000000	-0.000172
1500.000000	-0.000163
1499.000000	-0.000164
1498.000000	-0.000169
1497.000000	-0.000181
1496.000000	-0.000208
1495.000000	-0.000246
1494.000000	-0.000274
1493.000000	-0.000279
1492.000000	-0.000267
1491.000000	-0.000255
1490.000000	-0.000254
1489.000000	-0.000255
1488.000000	-0.000254
1487.000000	-0.000258
1486.000000	-0.000270
1485.000000	-0.000281
1484.000000	-0.000285
1483.000000	-0.000285
1482.000000	-0.000288
1481.000000	-0.000294
1480.000000	-0.000297
1479.000000	-0.000295
1478.000000	-0.000286
1477.000000	-0.000269
1476.000000	-0.000253
1475.000000	-0.000252
1474.000000	-0.000267
1473.000000	-0.000274
1472.000000	-0.000251
1471.000000	-0.000217
1470.000000	-0.000199
1469.000000	-0.000200
1468.000000	-0.000208
1467.000000	-0.000218
1466.000000	-0.000231
1465.000000	-0.000240
1464.000000	-0.000236
1463.000000	-0.000223
1462.000000	-0.000213
1461.000000	-0.000207
1460.000000	-0.000198
1459.000000	-0.000181
1458.000000	-0.000163
1457.000000	-0.000161
1456.000000	-0.000173
1455.000000	-0.000188
1454.000000	-0.000200
1453.000000	-0.000206
1452.000000	-0.000204
1451.000000	-0.000191
1450.000000	-0.000168
1449.000000	-0.000139
1448.000000	-0.000114
1447.000000	-0.000098
1446.000000	-0.000087
1445.000000	-0.000076
1444.000000	-0.000067
1443.000000	-0.000068
1442.000000	-0.000075
1441.000000	-0.000080
1440.000000	-0.000077
1439.000000	-0.000069
1438.000000	-0.000064
1437.000000	-0.000073
1436.000000	-0.000097
1435.000000	-0.000124
1434.000000	-0.000143
1433.000000	-0.000147
1432.000000	-0.000137
1431.000000	-0.000123
1430.000000	-0.000115
1429.000000	-0.000116
1428.000000	-0.000121
1427.000000	-0.000120
1426.000000	-0.000108
1425.000000	-0.000084
1424.000000	-0.000062
1423.000000	-0.000058
1422.000000	-0.000072
1421.000000	-0.000083
1420.000000	-0.000074
1419.000000	-0.000049
1418.000000	-0.000031
1417.000000	-0.000034
1416.000000	-0.000049
1415.000000	-0.000065
1414.000000	-0.000081
1413.000000	-0.000102
1412.000000	-0.000127
1411.000000	-0.000156
1410.000000	-0.000180
1409.000000	-0.000193
1408.000000	-0.000191
1407.000000	-0.000175
1406.000000	-0.000152
1405.000000	-0.000131
1404.000000	-0.000113
1403.000000	-0.000093
1402.000000	-0.000065
1401.000000	-0.000032
1400.000000	-0.000007
1399.000000	-0.000002
1398.000000	-0.000015
1397.000000	-0.000034
1396.000000	-0.000058
1395.000000	-0.000095
1394.000000	-0.000141
1393.000000	-0.000177
1392.000000	-0.000184
1391.000000	-0.000168
1390.000000	-0.000147
1389.000000	-0.000142
1388.000000	-0.000160
1387.000000	-0.000185
1386.000000	-0.000193
1385.000000	-0.000182
1384.000000	-0.000166
1383.000000	-0.000159
1382.000000	-0.000161
1381.000000	-0.000166
1380.000000	-0.000167
1379.000000	-0.000165
1378.000000	-0.000162
1377.000000	-0.000159
1376.000000	-0.000157
1375.000000	-0.000156
1374.000000	-0.000157
1373.000000	-0.000156
1372.000000	-0.000151
1371.000000	-0.000146
1370.000000	-0.000140
1369.000000	-0.000131
1368.000000	-0.000124
1367.000000	-0.000121
1366.000000	-0.000120
1365.000000	-0.000120
1364.000000	-0.000123
1363.000000	-0.000141
1362.000000	-0.000171
1361.000000	-0.000196
1360.000000	-0.000207
1359.000000	-0.000213
1358.000000	-0.000221
1357.000000	-0.000228
1356.000000	-0.000229
1355.000000	-0.000230
1354.000000	-0.000240
1353.000000	-0.000256
1352.000000	-0.000267
1351.000000	-0.000267
1350.000000	-0.000259
1349.000000	-0.000243
1348.000000	-0.000216
1347.000000	-0.000181
1346.000000	-0.000148
1345.000000	-0.000125
1344.000000	-0.000113
1343.000000	-0.000117
1342.000000	-0.000133
1341.000000	-0.000149
1340.000000	-0.000150
1339.000000	-0.000136
1338.000000	-0.000123
1337.000000	-0.000119
1336.000000	-0.000111
1335.000000	-0.000084
1334.000000	-0.000042
1333.000000	-0.000001
1332.000000	0.000030
1331.000000	0.000053
1330.000000	0.000079
1329.000000	0.000121
1328.000000	0.000181
1327.000000	0.000246
1326.000000	0.000297
1325.000000	0.000328
1324.000000	0.000350
1323.000000	0.000374
1322.000000	0.000402
1321.000000	0.000428
1320.000000	0.000447
1319.000000	0.000455
1318.000000	0.000447
1317.000000	0.000420
1316.000000	0.000379
1315.000000	0.000336
1314.000000	0.000293
1313.000000	0.000253
1312.000000	0.000212
1311.000000	0.000171
1310.000000	0.000129
1309.000000	0.000087
1308.000000	0.000049
1307.000000	0.000013
1306.000000	-0.000026
1305.000000	-0.000069
1304.000000	-0.000108
1303.000000	-0.000133
1302.000000	-0.000140
1301.000000	-0.000139
1300.000000	-0.000141
1299.000000	-0.000154
1298.000000	-0.000170
1297.000000	-0.000177
1296.000000	-0.000171
1295.000000	-0.000163
1294.000000	-0.000171
1293.000000	-0.000198
1292.000000	-0.000227
1291.000000	-0.000237
1290.000000	-0.000225
1289.000000	-0.000214
1288.000000	-0.000224
1287.000000	-0.000260
1286.000000	-0.000304
1285.000000	-0.000336
1284.000000	-0.000351
1283.000000	-0.000357
1282.000000	-0.000364
1281.000000	-0.000379
1280.000000	-0.000398
1279.000000	-0.000418
1278.000000	-0.000436
1277.000000	-0.000450
1276.000000	-0.000455
1275.000000	-0.000447
1274.000000	-0.000425
1273.000000	-0.000395
1272.000000	-0.000365
1271.000000	-0.000347
1270.000000	-0.000348
1269.000000	-0.000368
1268.000000	-0.000396
1267.000000	-0.000417
1266.000000	-0.000421
1265.000000	-0.000410
1264.000000	-0.000394
1263.000000	-0.000383
1262.000000	-0.000387
1261.000000	-0.000403
1260.000000	-0.000427
1259.000000	-0.000450
1258.000000	-0.000462
1257.000000	-0.000459
1256.000000	-0.000444
1255.000000	-0.000423
1254.000000	-0.000401
1253.000000	-0.000378
1252.000000	-0.000364
1251.000000	-0.000374
1250.000000	-0.000416
1249.000000	-0.000468
1248.000000	-0.000495
1247.000000	-0.000477
1246.000000	-0.000429
1245.000000	-0.000386
1244.000000	-0.000372
1243.000000	-0.000386
1242.000000	-0.000419
1241.000000	-0.000455
1240.000000	-0.000480
1239.000000	-0.000482
1238.000000	-0.000466
1237.000000	-0.000444
1236.000000	-0.000429
1235.000000	-0.000420
1234.000000	-0.000412
1233.000000	-0.000407
1232.000000	-0.000411
1231.000000	-0.000421
1230.000000	-0.000425
1229.000000	-0.000417
1228.000000	-0.000405
1227.000000	-0.000404
1226.000000	-0.000421
1225.000000	-0.000447
1224.000000	-0.000471
1223.000000	-0.000481
1222.000000	-0.000473
1221.000000	-0.000453
1220.000000	-0.000434
1219.000000	-0.000433
1218.000000	-0.000453
1217.000000	-0.000480
1216.000000	-0.000496
1215.000000	-0.000499
1214.000000	-0.000499
1213.000000	-0.000504
1212.000000	-0.000511
1211.000000	-0.000512
1210.000000	-0.000510
1209.000000	-0.000513
1208.000000	-0.000523
1207.000000	-0.000536
1206.000000	-0.000548
1205.000000	-0.000560
1204.000000	-0.000565
1203.000000	-0.000559
1202.000000	-0.000549
1201.000000	-0.000550
1200.000000	-0.000568
1199.000000	-0.000591
1198.000000	-0.000599
1197.000000	-0.000585
1196.000000	-0.000562
1195.000000	-0.000544
1194.000000	-0.000535
1193.000000	-0.000528
1192.000000	-0.000520
1191.000000	-0.000516
1190.000000	-0.000521
1189.000000	-0.000533
1188.000000	-0.000545
1187.000000	-0.000550
1186.000000	-0.000552
1185.000000	-0.000552
1184.000000	-0.000548
1183.000000	-0.000534
1182.000000	-0.000510
1181.000000	-0.000488
1180.000000	-0.000477
1179.000000	-0.000473
1178.000000	-0.000463
1177.000000	-0.000440
1176.000000	-0.000420
1175.000000	-0.000417
1174.000000	-0.000427
1173.000000	-0.000432
1172.000000	-0.000424
1171.000000	-0.000412
1170.000000	-0.000407
1169.000000	-0.000405
1168.000000	-0.000395
1167.000000	-0.000372
1166.000000	-0.000340
1165.000000	-0.000305
1164.000000	-0.000269
1163.000000	-0.000237
1162.000000	-0.000215
1161.000000	-0.000211
1160.000000	-0.000224
1159.000000	-0.000239
1158.000000	-0.000241
1157.000000	-0.000225
1156.000000	-0.000207
1155.000000	-0.000203
1154.000000	-0.000215
1153.000000	-0.000226
1152.000000	-0.000215
1151.000000	-0.000181
1150.000000	-0.000141
1149.000000	-0.000110
1148.000000	-0.000095
1147.000000	-0.000095
1146.000000	-0.000106
1145.000000	-0.000115
1144.000000	-0.000112
1143.000000	-0.000096
1142.000000	-0.000080
1141.000000	-0.000079
1140.000000	-0.000095
1139.000000	-0.000117
1138.000000	-0.000127
1137.000000	-0.000113
1136.000000	-0.000076
1135.000000	-0.000031
1134.000000	0.000002
1133.000000	0.000014
1132.000000	0.000006
1131.000000	-0.000014
1130.000000	-0.000036
1129.000000	-0.000046
1128.000000	-0.000040
1127.000000	-0.000026
1126.000000	-0.000020
1125.000000	-0.000026
1124.000000	-0.000029
1123.000000	-0.000018
1122.000000	0.000008
1121.000000	0.000039
1120.000000	0.000065
1119.000000	0.000085
1118.000000	0.000100
1117.000000	0.000112
1116.000000	0.000123
1115.000000	0.000132
1114.000000	0.000137
1113.000000	0.000140
1112.000000	0.000143
1111.000000	0.000147
1110.000000	0.000147
1109.000000	0.000140
1108.000000	0.000134
1107.000000	0.000139
1106.000000	0.000159
1105.000000	0.000181
1104.000000	0.000193
1103.000000	0.000189
1102.000000	0.000171
1101.000000	0.000149
1100.000000	0.000132
1099.000000	0.000126
1098.000000	0.000130
1097.000000	0.000140
1096.000000	0.000152
1095.000000	0.000154
1094.000000	0.000139
1093.000000	0.000110
1092.000000	0.000088
1091.000000	0.000095
1090.000000	0.000130
1089.000000	0.000167
1088.000000	0.000182
1087.000000	0.000176
1086.000000	0.000169
1085.000000	0.000176
1084.000000	0.000192
1083.000000	0.000206
1082.000000	0.000219
1081.000000	0.000236
1080.000000	0.000257
1079.000000	0.000274
1078.000000	0.000277
1077.000000	0.000273
1076.000000	0.000276
1075.000000	0.000295
1074.000000	0.000317
1073.000000	0.000319
1072.000000	0.000300
1071.000000	0.000286
1070.000000	0.000299
1069.000000	0.000328
1068.000000	0.000336
1067.000000	0.000306
1066.000000	0.000267
1065.000000	0.000260
1064.000000	0.000295
1063.000000	0.000341
1062.000000	0.000360
1061.000000	0.000346
1060.000000	0.000314
1059.000000	0.000285
1058.000000	0.000270
1057.000000	0.000265
1056.000000	0.000263
1055.000000	0.000261
1054.000000	0.000265
1053.000000	0.000284
1052.000000	0.000315
1051.000000	0.000346
1050.000000	0.000368
1049.000000	0.000384
1048.000000	0.000394
1047.000000	0.000395
1046.000000	0.000390
1045.000000	0.000386
1044.000000	0.000393
1043.000000	0.000410
1042.000000	0.000424
1041.000000	0.000429
1040.000000	0.000436
1039.000000	0.000455
1038.000000	0.000481
1037.000000	0.000488
1036.000000	0.000461
1035.000000	0.000418
1034.000000	0.000400
1033.000000	0.000422
1032.000000	0.000464
1031.000000	0.000498
1030.000000	0.000522
1029.000000	0.000553
1028.000000	0.000580
1027.000000	0.000575
1026.000000	0.000528
1025.000000	0.000467
1024.000000	0.000419
1023.000000	0.000389
1022.000000	0.000369
1021.000000	0.000357
1020.000000	0.000359
1019.000000	0.000367
1018.000000	0.000373
1017.000000	0.000377
1016.000000	0.000390
1015.000000	0.000416
1014.000000	0.000449
1013.000000	0.000477
1012.000000	0.000485
1011.000000	0.000463
1010.000000	0.000421
1009.000000	0.000381
1008.000000	0.000354
1007.000000	0.000335
1006.000000	0.000315
1005.000000	0.000301
1004.000000	0.000298
1003.000000	0.000294
1002.000000	0.000277
1001.000000	0.000250
1000.000000	0.000234
999.000000	0.000228
998.000000	0.000219
997.000000	0.000203
996.000000	0.000190
995.000000	0.000187
994.000000	0.000182
993.000000	0.000162
992.000000	0.000128
991.000000	0.000095
990.000000	0.000074
989.000000	0.000076
988.000000	0.000100
987.000000	0.000133
986.000000	0.000144
985.000000	0.000117
984.000000	0.000065
983.000000	0.000016
982.000000	-0.000015
981.000000	-0.000029
980.000000	-0.000031
979.000000	-0.000022
978.000000	-0.000005
977.000000	0.000013
976.000000	0.000025
975.000000	0.000025
974.000000	0.000014
973.000000	-0.000001
972.000000	-0.000012
971.000000	-0.000024
970.000000	-0.000051
969.000000	-0.000100
968.000000	-0.000161
967.000000	-0.000221
966.000000	-0.000273
965.000000	-0.000311
964.000000	-0.000322
963.000000	-0.000299
962.000000	-0.000261
961.000000	-0.000246
960.000000	-0.000275
959.000000	-0.000335
958.000000	-0.000393
957.000000	-0.000423
956.000000	-0.000416
955.000000	-0.000389
954.000000	-0.000370
953.000000	-0.000376
952.000000	-0.000407
951.000000	-0.000447
950.000000	-0.000486
949.000000	-0.000514
948.000000	-0.000526
947.000000	-0.000520
946.000000	-0.000504
945.000000	-0.000494
944.000000	-0.000493
943.000000	-0.000496
942.000000	-0.000501
941.000000	-0.000519
940.000000	-0.000558
939.000000	-0.000615
938.000000	-0.000668
937.000000	-0.000690
936.000000	-0.000672
935.000000	-0.000634
934.000000	-0.000607
933.000000	-0.000614
932.000000	-0.000646
931.000000	-0.000684
930.000000	-0.000711
929.000000	-0.000720
928.000000	-0.000705
927.000000	-0.000664
926.000000	-0.000617
925.000000	-0.000597
924.000000	-0.000613
923.000000	-0.000646
922.000000	-0.000667
921.000000	-0.000672
920.000000	-0.000677
919.000000	-0.000696
918.000000	-0.000720
917.000000	-0.000735
916.000000	-0.000733
915.000000	-0.000722
914.000000	-0.000713
913.000000	-0.000712
912.000000	-0.000712
911.000000	-0.000701
910.000000	-0.000679
909.000000	-0.000658
908.000000	-0.000657
907.000000	-0.000681
906.000000	-0.000715
905.000000	-0.000739
904.000000	-0.000744
903.000000	-0.000733
902.000000	-0.000715
901.000000	-0.000698
900.000000	-0.000694
899.000000	-0.000712
898.000000	-0.000754
897.000000	-0.000810
896.000000	-0.000860
895.000000	-0.000894
894.000000	-0.000908
893.000000	-0.000901
892.000000	-0.000878
891.000000	-0.000851
890.000000	-0.000843
889.000000	-0.000872
888.000000	-0.000928
887.000000	-0.000980
886.000000	-0.000997
885.000000	-0.000971
884.000000	-0.000918
883.000000	-0.000862
882.000000	-0.000823
881.000000	-0.000807
880.000000	-0.000802
879.000000	-0.000790
878.000000	-0.000771
877.000000	-0.000759
876.000000	-0.000770
875.000000	-0.000797
874.000000	-0.000829
873.000000	-0.000855
872.000000	-0.000877
871.000000	-0.000903
870.000000	-0.000941
869.000000	-0.000995
868.000000	-0.001061
867.000000	-0.001119
866.000000	-0.001148
865.000000	-0.001137
864.000000	-0.001092
863.000000	-0.001030
862.000000	-0.000968
861.000000	-0.000919
860.000000	-0.000896
859.000000	-0.000911
858.000000	-0.000958
857.000000	-0.001016
856.000000	-0.001057
855.000000	-0.001065
854.000000	-0.001046
853.000000	-0.001023
852.000000	-0.001005
851.000000	-0.000984
850.000000	-0.000961
849.000000	-0.000958
848.000000	-0.000999
847.000000	-0.001073
846.000000	-0.001131
845.000000	-0.001132
844.000000	-0.001080
843.000000	-0.001012
842.000000	-0.000965
841.000000	-0.000947
840.000000	-0.000950
839.000000	-0.000969
838.000000	-0.001007
837.000000	-0.001063
836.000000	-0.001116
835.000000	-0.001131
834.000000	-0.001089
833.000000	-0.001010
832.000000	-0.000943
831.000000	-0.000925
830.000000	-0.000955
829.000000	-0.001005
828.000000	-0.001054
827.000000	-0.001095
826.000000	-0.001119
825.000000	-0.001114
824.000000	-0.001076
823.000000	-0.001021
822.000000	-0.000979
821.000000	-0.000975
820.000000	-0.001018
819.000000	-0.001082
818.000000	-0.001118
817.000000	-0.001093
816.000000	-0.001025
815.000000	-0.000970
814.000000	-0.000960
813.000000	-0.000971
812.000000	-0.000958
811.000000	-0.000909
810.000000	-0.000860
809.000000	-0.000862
808.000000	-0.000926
807.000000	-0.001012
806.000000	-0.001051
805.000000	-0.001011
804.000000	-0.000933
803.000000	-0.000892
802.000000	-0.000919
801.000000	-0.000979
800.000000	-0.001026
799.000000	-0.001060
798.000000	-0.001107
797.000000	-0.001153
796.000000	-0.001156
795.000000	-0.001099
794.000000	-0.001016
793.000000	-0.000945
792.000000	-0.000896
791.000000	-0.000853
790.000000	-0.000811
789.000000	-0.000767
788.000000	-0.000722
787.000000	-0.000690
786.000000	-0.000696
785.000000	-0.000742
784.000000	-0.000784
783.000000	-0.000776
782.000000	-0.000723
781.000000	-0.000671
780.000000	-0.000658
779.000000	-0.000684
778.000000	-0.000732
777.000000	-0.000795
776.000000	-0.000864
775.000000	-0.000912
774.000000	-0.000911
773.000000	-0.000861
772.000000	-0.000801
771.000000	-0.000776
770.000000	-0.000804
769.000000	-0.000860
768.000000	-0.000907
767.000000	-0.000916
766.000000	-0.000883
765.000000	-0.000819
764.000000	-0.000750
763.000000	-0.000714
762.000000	-0.000739
761.000000	-0.000805
760.000000	-0.000862
759.000000	-0.000879
758.000000	-0.000866
757.000000	-0.000852
756.000000	-0.000844
755.000000	-0.000833
754.000000	-0.000817
753.000000	-0.000807
752.000000	-0.000810
751.000000	-0.000826
750.000000	-0.000862
749.000000	-0.000918
748.000000	-0.000966
747.000000	-0.000973
746.000000	-0.000946
745.000000	-0.000924
744.000000	-0.000927
743.000000	-0.000931
742.000000	-0.000914
741.000000	-0.000893
740.000000	-0.000896
739.000000	-0.000913
738.000000	-0.000912
737.000000	-0.000895
736.000000	-0.000896
735.000000	-0.000935
734.000000	-0.000980
733.000000	-0.000993
732.000000	-0.000976
731.000000	-0.000969
730.000000	-0.000995
729.000000	-0.001032
728.000000	-0.001042
727.000000	-0.001019
726.000000	-0.000990
725.000000	-0.000978
724.000000	-0.000973
723.000000	-0.000961
722.000000	-0.000952
721.000000	-0.000964
720.000000	-0.000984
719.000000	-0.000980
718.000000	-0.000948
717.000000	-0.000925
716.000000	-0.000942
715.000000	-0.000987
714.000000	-0.001030
713.000000	-0.001066
712.000000	-0.001104
711.000000	-0.001131
710.000000	-0.001118
709.000000	-0.001061
708.000000	-0.000993
707.000000	-0.000954
706.000000	-0.000947
705.000000	-0.000938
704.000000	-0.000895
703.000000	-0.000828
702.000000	-0.000780
701.000000	-0.000791
700.000000	-0.000860
699.000000	-0.000946
698.000000	-0.001008
697.000000	-0.001031
696.000000	-0.001023
695.000000	-0.001003
694.000000	-0.000983
693.000000	-0.000968
692.000000	-0.000950
691.000000	-0.000924
690.000000	-0.000901
689.000000	-0.000902
688.000000	-0.000930
687.000000	-0.000963
686.000000	-0.000987
685.000000	-0.001019
684.000000	-0.001067
683.000000	-0.001103
682.000000	-0.001098
681.000000	-0.001066
680.000000	-0.001047
679.000000	-0.001059
678.000000	-0.001085
677.000000	-0.001093
676.000000	-0.001058
675.000000	-0.000979
674.000000	-0.000877
673.000000	-0.000800
672.000000	-0.000787
671.000000	-0.000855
670.000000	-0.000990
669.000000	-0.001168
668.000000	-0.001267
667.000000	-0.001130
666.000000	-0.000884
665.000000	-0.000717
664.000000	-0.000671
663.000000	-0.000759
662.000000	-0.000918
661.000000	-0.001043
660.000000	-0.001067
659.000000	-0.001006
658.000000	-0.000921
657.000000	-0.000846
656.000000	-0.000788
655.000000	-0.000764
654.000000	-0.000784
653.000000	-0.000825
652.000000	-0.000840
651.000000	-0.000808
650.000000	-0.000740
649.000000	-0.000663
648.000000	-0.000616
647.000000	-0.000640
646.000000	-0.000749
645.000000	-0.000909
644.000000	-0.001052
643.000000	-0.001130
642.000000	-0.001148
641.000000	-0.001154
640.000000	-0.001185
639.000000	-0.001231
638.000000	-0.001248
637.000000	-0.001202
636.000000	-0.001095
635.000000	-0.000955
634.000000	-0.000822
633.000000	-0.000734
632.000000	-0.000709
631.000000	-0.000726
630.000000	-0.000744
629.000000	-0.000751
628.000000	-0.000788
627.000000	-0.000882
626.000000	-0.000982
625.000000	-0.001004
624.000000	-0.000924
623.000000	-0.000801
622.000000	-0.000708
621.000000	-0.000671
620.000000	-0.000686
619.000000	-0.000746
618.000000	-0.000837
617.000000	-0.000937
616.000000	-0.001011
615.000000	-0.001020
614.000000	-0.000937
613.000000	-0.000796
612.000000	-0.000698
611.000000	-0.000730
610.000000	-0.000865
609.000000	-0.000980
608.000000	-0.000987
607.000000	-0.000913
606.000000	-0.000828
605.000000	-0.000764
604.000000	-0.000730
603.000000	-0.000739
602.000000	-0.000783
601.000000	-0.000805
600.000000	-0.000750
599.000000	-0.000639
598.000000	-0.000547
597.000000	-0.000511
596.000000	-0.000510
595.000000	-0.000527
594.000000	-0.000578
593.000000	-0.000661
592.000000	-0.000742
591.000000	-0.000789
590.000000	-0.000820
589.000000	-0.000865
588.000000	-0.000910
587.000000	-0.000910
586.000000	-0.000854
585.000000	-0.000784
584.000000	-0.000752
583.000000	-0.000765
582.000000	-0.000787
581.000000	-0.000801
580.000000	-0.000836
579.000000	-0.000931
578.000000	-0.001060
577.000000	-0.001128
576.000000	-0.001046
575.000000	-0.000829
574.000000	-0.000611
573.000000	-0.000531
572.000000	-0.000622
571.000000	-0.000807
570.000000	-0.000975
569.000000	-0.001068
568.000000	-0.001099
567.000000	-0.001094
566.000000	-0.001051
565.000000	-0.000955
564.000000	-0.000818
563.000000	-0.000679
562.000000	-0.000579
561.000000	-0.000542
560.000000	-0.000576
559.000000	-0.000659
558.000000	-0.000741
557.000000	-0.000774
556.000000	-0.000751
555.000000	-0.000700
554.000000	-0.000645
553.000000	-0.000599
552.000000	-0.000582
551.000000	-0.000624
550.000000	-0.000735
549.000000	-0.000883
548.000000	-0.001024
547.000000	-0.001123
546.000000	-0.001159
545.000000	-0.001135
544.000000	-0.001103
543.000000	-0.001136
542.000000	-0.001240
541.000000	-0.001337
540.000000	-0.001354
539.000000	-0.001308
538.000000	-0.001264
537.000000	-0.001235
536.000000	-0.001164
535.000000	-0.001017
534.000000	-0.000836
533.000000	-0.000692
532.000000	-0.000611
531.000000	-0.000575
530.000000	-0.000562
529.000000	-0.000566
528.000000	-0.000579
527.000000	-0.000589
526.000000	-0.000585
525.000000	-0.000585
524.000000	-0.000628
523.000000	-0.000739
522.000000	-0.000885
521.000000	-0.000973
520.000000	-0.000927
519.000000	-0.000764
518.000000	-0.000592
517.000000	-0.000510
516.000000	-0.000527
515.000000	-0.000596
514.000000	-0.000685
513.000000	-0.000790
512.000000	-0.000910
511.000000	-0.001023
510.000000	-0.001095
509.000000	-0.001095
508.000000	-0.001007
507.000000	-0.000845
506.000000	-0.000654
505.000000	-0.000488
504.000000	-0.000378
503.000000	-0.000340
502.000000	-0.000383
501.000000	-0.000489
500.000000	-0.000601
499.000000	-0.000660
498.000000	-0.000651
497.000000	-0.000624
496.000000	-0.000642
495.000000	-0.000726
494.000000	-0.000842
493.000000	-0.000950
492.000000	-0.001024
491.000000	-0.001044
490.000000	-0.000996
489.000000	-0.000909
488.000000	-0.000854
487.000000	-0.000854
486.000000	-0.000831
485.000000	-0.000678
484.000000	-0.000405
483.000000	-0.000149
482.000000	-0.000031
481.000000	-0.000066
480.000000	-0.000220
479.000000	-0.000471
478.000000	-0.000762
477.000000	-0.000970
476.000000	-0.001026
475.000000	-0.001002
474.000000	-0.001032
473.000000	-0.001149
472.000000	-0.001262
471.000000	-0.001294
470.000000	-0.001250
469.000000	-0.001128
468.000000	-0.000916
467.000000	-0.000714
466.000000	-0.000718
465.000000	-0.000988
464.000000	-0.001348
463.000000	-0.001544
462.000000	-0.001473
461.000000	-0.001232
460.000000	-0.000986
459.000000	-0.000844
458.000000	-0.000869
457.000000	-0.000983
456.000000	-0.001002
455.000000	-0.000861
454.000000	-0.000758
453.000000	-0.000912
452.000000	-0.001337
451.000000	-0.001691
450.000000	-0.001791
