PE IR       SUBTECH     SPECTRUM    ASCII       PEDS        4.00        
   -1
P12-Noir035_1.ASC
23/06/09
15:33:35.00
23/06/09
15:45:29.00
uco
Sample 035 By uco Date Friday, June 09 2023
450.000000
#HDR
-1
-1
#GR
cm-1
A
1.0
0.0
4000.000000
-1.000000
3551
8
0.004454
-0.001010
#DATA
4000.000000	-0.000468
3999.000000	-0.000494
3998.000000	-0.000508
3997.000000	-0.000506
3996.000000	-0.000490
3995.000000	-0.000465
3994.000000	-0.000447
3993.000000	-0.000430
3992.000000	-0.000421
3991.000000	-0.000414
3990.000000	-0.000405
3989.000000	-0.000395
3988.000000	-0.000391
3987.000000	-0.000397
3986.000000	-0.000410
3985.000000	-0.000421
3984.000000	-0.000422
3983.000000	-0.000416
3982.000000	-0.000415
3981.000000	-0.000423
3980.000000	-0.000438
3979.000000	-0.000452
3978.000000	-0.000461
3977.000000	-0.000467
3976.000000	-0.000472
3975.000000	-0.000475
3974.000000	-0.000466
3973.000000	-0.000445
3972.000000	-0.000417
3971.000000	-0.000390
3970.000000	-0.000373
3969.000000	-0.000365
3968.000000	-0.000369
3967.000000	-0.000384
3966.000000	-0.000405
3965.000000	-0.000427
3964.000000	-0.000447
3963.000000	-0.000459
3962.000000	-0.000463
3961.000000	-0.000460
3960.000000	-0.000456
3959.000000	-0.000456
3958.000000	-0.000462
3957.000000	-0.000471
3956.000000	-0.000477
3955.000000	-0.000475
3954.000000	-0.000465
3953.000000	-0.000449
3952.000000	-0.000429
3951.000000	-0.000407
3950.000000	-0.000389
3949.000000	-0.000379
3948.000000	-0.000379
3947.000000	-0.000381
3946.000000	-0.000382
3945.000000	-0.000382
3944.000000	-0.000386
3943.000000	-0.000393
3942.000000	-0.000399
3941.000000	-0.000400
3940.000000	-0.000396
3939.000000	-0.000390
3938.000000	-0.000385
3937.000000	-0.000382
3936.000000	-0.000385
3935.000000	-0.000392
3934.000000	-0.000400
3933.000000	-0.000406
3932.000000	-0.000408
3931.000000	-0.000406
3930.000000	-0.000400
3929.000000	-0.000388
3928.000000	-0.000373
3927.000000	-0.000356
3926.000000	-0.000338
3925.000000	-0.000318
3924.000000	-0.000302
3923.000000	-0.000298
3922.000000	-0.000309
3921.000000	-0.000325
3920.000000	-0.000338
3919.000000	-0.000347
3918.000000	-0.000352
3917.000000	-0.000356
3916.000000	-0.000359
3915.000000	-0.000366
3914.000000	-0.000377
3913.000000	-0.000393
3912.000000	-0.000408
3911.000000	-0.000418
3910.000000	-0.000420
3909.000000	-0.000415
3908.000000	-0.000411
3907.000000	-0.000410
3906.000000	-0.000411
3905.000000	-0.000402
3904.000000	-0.000377
3903.000000	-0.000343
3902.000000	-0.000320
3901.000000	-0.000317
3900.000000	-0.000332
3899.000000	-0.000350
3898.000000	-0.000361
3897.000000	-0.000362
3896.000000	-0.000353
3895.000000	-0.000341
3894.000000	-0.000332
3893.000000	-0.000324
3892.000000	-0.000310
3891.000000	-0.000285
3890.000000	-0.000259
3889.000000	-0.000247
3888.000000	-0.000260
3887.000000	-0.000289
3886.000000	-0.000315
3885.000000	-0.000323
3884.000000	-0.000317
3883.000000	-0.000308
3882.000000	-0.000301
3881.000000	-0.000292
3880.000000	-0.000280
3879.000000	-0.000266
3878.000000	-0.000259
3877.000000	-0.000265
3876.000000	-0.000282
3875.000000	-0.000300
3874.000000	-0.000309
3873.000000	-0.000319
3872.000000	-0.000336
3871.000000	-0.000353
3870.000000	-0.000351
3869.000000	-0.000335
3868.000000	-0.000322
3867.000000	-0.000324
3866.000000	-0.000331
3865.000000	-0.000326
3864.000000	-0.000307
3863.000000	-0.000287
3862.000000	-0.000281
3861.000000	-0.000288
3860.000000	-0.000296
3859.000000	-0.000291
3858.000000	-0.000272
3857.000000	-0.000248
3856.000000	-0.000238
3855.000000	-0.000252
3854.000000	-0.000287
3853.000000	-0.000334
3852.000000	-0.000375
3851.000000	-0.000397
3850.000000	-0.000400
3849.000000	-0.000390
3848.000000	-0.000369
3847.000000	-0.000344
3846.000000	-0.000319
3845.000000	-0.000298
3844.000000	-0.000283
3843.000000	-0.000275
3842.000000	-0.000278
3841.000000	-0.000297
3840.000000	-0.000329
3839.000000	-0.000364
3838.000000	-0.000390
3837.000000	-0.000402
3836.000000	-0.000406
3835.000000	-0.000412
3834.000000	-0.000420
3833.000000	-0.000417
3832.000000	-0.000389
3831.000000	-0.000342
3830.000000	-0.000298
3829.000000	-0.000274
3828.000000	-0.000269
3827.000000	-0.000269
3826.000000	-0.000267
3825.000000	-0.000275
3824.000000	-0.000306
3823.000000	-0.000355
3822.000000	-0.000391
3821.000000	-0.000390
3820.000000	-0.000382
3819.000000	-0.000409
3818.000000	-0.000474
3817.000000	-0.000538
3816.000000	-0.000555
3815.000000	-0.000519
3814.000000	-0.000459
3813.000000	-0.000398
3812.000000	-0.000344
3811.000000	-0.000304
3810.000000	-0.000289
3809.000000	-0.000300
3808.000000	-0.000317
3807.000000	-0.000317
3806.000000	-0.000306
3805.000000	-0.000315
3804.000000	-0.000368
3803.000000	-0.000448
3802.000000	-0.000507
3801.000000	-0.000511
3800.000000	-0.000470
3799.000000	-0.000417
3798.000000	-0.000367
3797.000000	-0.000319
3796.000000	-0.000274
3795.000000	-0.000248
3794.000000	-0.000254
3793.000000	-0.000288
3792.000000	-0.000332
3791.000000	-0.000366
3790.000000	-0.000380
3789.000000	-0.000379
3788.000000	-0.000374
3787.000000	-0.000371
3786.000000	-0.000371
3785.000000	-0.000371
3784.000000	-0.000372
3783.000000	-0.000376
3782.000000	-0.000382
3781.000000	-0.000388
3780.000000	-0.000390
3779.000000	-0.000396
3778.000000	-0.000409
3777.000000	-0.000424
3776.000000	-0.000428
3775.000000	-0.000415
3774.000000	-0.000396
3773.000000	-0.000391
3772.000000	-0.000407
3771.000000	-0.000430
3770.000000	-0.000439
3769.000000	-0.000432
3768.000000	-0.000425
3767.000000	-0.000427
3766.000000	-0.000431
3765.000000	-0.000421
3764.000000	-0.000394
3763.000000	-0.000360
3762.000000	-0.000328
3761.000000	-0.000306
3760.000000	-0.000300
3759.000000	-0.000313
3758.000000	-0.000338
3757.000000	-0.000362
3756.000000	-0.000383
3755.000000	-0.000407
3754.000000	-0.000437
3753.000000	-0.000469
3752.000000	-0.000498
3751.000000	-0.000518
3750.000000	-0.000518
3749.000000	-0.000498
3748.000000	-0.000477
3747.000000	-0.000473
3746.000000	-0.000468
3745.000000	-0.000430
3744.000000	-0.000369
3743.000000	-0.000332
3742.000000	-0.000338
3741.000000	-0.000373
3740.000000	-0.000416
3739.000000	-0.000451
3738.000000	-0.000469
3737.000000	-0.000457
3736.000000	-0.000420
3735.000000	-0.000386
3734.000000	-0.000377
3733.000000	-0.000385
3732.000000	-0.000385
3731.000000	-0.000367
3730.000000	-0.000340
3729.000000	-0.000317
3728.000000	-0.000301
3727.000000	-0.000297
3726.000000	-0.000307
3725.000000	-0.000332
3724.000000	-0.000359
3723.000000	-0.000378
3722.000000	-0.000388
3721.000000	-0.000399
3720.000000	-0.000417
3719.000000	-0.000430
3718.000000	-0.000420
3717.000000	-0.000385
3716.000000	-0.000345
3715.000000	-0.000328
3714.000000	-0.000344
3713.000000	-0.000373
3712.000000	-0.000382
3711.000000	-0.000363
3710.000000	-0.000338
3709.000000	-0.000333
3708.000000	-0.000350
3707.000000	-0.000371
3706.000000	-0.000385
3705.000000	-0.000393
3704.000000	-0.000407
3703.000000	-0.000427
3702.000000	-0.000446
3701.000000	-0.000451
3700.000000	-0.000441
3699.000000	-0.000421
3698.000000	-0.000395
3697.000000	-0.000364
3696.000000	-0.000334
3695.000000	-0.000313
3694.000000	-0.000306
3693.000000	-0.000315
3692.000000	-0.000343
3691.000000	-0.000388
3690.000000	-0.000438
3689.000000	-0.000472
3688.000000	-0.000480
3687.000000	-0.000470
3686.000000	-0.000455
3685.000000	-0.000443
3684.000000	-0.000428
3683.000000	-0.000405
3682.000000	-0.000377
3681.000000	-0.000348
3680.000000	-0.000321
3679.000000	-0.000303
3678.000000	-0.000306
3677.000000	-0.000327
3676.000000	-0.000339
3675.000000	-0.000328
3674.000000	-0.000305
3673.000000	-0.000291
3672.000000	-0.000294
3671.000000	-0.000311
3670.000000	-0.000335
3669.000000	-0.000359
3668.000000	-0.000378
3667.000000	-0.000387
3666.000000	-0.000388
3665.000000	-0.000382
3664.000000	-0.000368
3663.000000	-0.000344
3662.000000	-0.000311
3661.000000	-0.000270
3660.000000	-0.000231
3659.000000	-0.000206
3658.000000	-0.000207
3657.000000	-0.000232
3656.000000	-0.000264
3655.000000	-0.000284
3654.000000	-0.000282
3653.000000	-0.000263
3652.000000	-0.000241
3651.000000	-0.000227
3650.000000	-0.000231
3649.000000	-0.000251
3648.000000	-0.000275
3647.000000	-0.000289
3646.000000	-0.000291
3645.000000	-0.000284
3644.000000	-0.000273
3643.000000	-0.000267
3642.000000	-0.000273
3641.000000	-0.000290
3640.000000	-0.000303
3639.000000	-0.000298
3638.000000	-0.000274
3637.000000	-0.000246
3636.000000	-0.000228
3635.000000	-0.000218
3634.000000	-0.000209
3633.000000	-0.000199
3632.000000	-0.000200
3631.000000	-0.000214
3630.000000	-0.000233
3629.000000	-0.000237
3628.000000	-0.000225
3627.000000	-0.000206
3626.000000	-0.000185
3625.000000	-0.000160
3624.000000	-0.000134
3623.000000	-0.000118
3622.000000	-0.000125
3621.000000	-0.000152
3620.000000	-0.000167
3619.000000	-0.000141
3618.000000	-0.000085
3617.000000	-0.000041
3616.000000	-0.000035
3615.000000	-0.000056
3614.000000	-0.000071
3613.000000	-0.000055
3612.000000	-0.000012
3611.000000	0.000033
3610.000000	0.000066
3609.000000	0.000084
3608.000000	0.000089
3607.000000	0.000085
3606.000000	0.000081
3605.000000	0.000085
3604.000000	0.000096
3603.000000	0.000098
3602.000000	0.000080
3601.000000	0.000049
3600.000000	0.000024
3599.000000	0.000021
3598.000000	0.000033
3597.000000	0.000044
3596.000000	0.000046
3595.000000	0.000048
3594.000000	0.000067
3593.000000	0.000102
3592.000000	0.000140
3591.000000	0.000168
3590.000000	0.000181
3589.000000	0.000182
3588.000000	0.000186
3587.000000	0.000200
3586.000000	0.000220
3585.000000	0.000231
3584.000000	0.000225
3583.000000	0.000205
3582.000000	0.000187
3581.000000	0.000187
3580.000000	0.000212
3579.000000	0.000250
3578.000000	0.000284
3577.000000	0.000301
3576.000000	0.000297
3575.000000	0.000284
3574.000000	0.000276
3573.000000	0.000286
3572.000000	0.000314
3571.000000	0.000353
3570.000000	0.000386
3569.000000	0.000400
3568.000000	0.000390
3567.000000	0.000362
3566.000000	0.000337
3565.000000	0.000331
3564.000000	0.000345
3563.000000	0.000366
3562.000000	0.000384
3561.000000	0.000398
3560.000000	0.000415
3559.000000	0.000437
3558.000000	0.000461
3557.000000	0.000484
3556.000000	0.000502
3555.000000	0.000511
3554.000000	0.000509
3553.000000	0.000497
3552.000000	0.000483
3551.000000	0.000481
3550.000000	0.000499
3549.000000	0.000539
3548.000000	0.000588
3547.000000	0.000627
3546.000000	0.000638
3545.000000	0.000618
3544.000000	0.000585
3543.000000	0.000561
3542.000000	0.000551
3541.000000	0.000550
3540.000000	0.000548
3539.000000	0.000547
3538.000000	0.000554
3537.000000	0.000575
3536.000000	0.000603
3535.000000	0.000629
3534.000000	0.000648
3533.000000	0.000669
3532.000000	0.000697
3531.000000	0.000726
3530.000000	0.000742
3529.000000	0.000743
3528.000000	0.000737
3527.000000	0.000736
3526.000000	0.000737
3525.000000	0.000728
3524.000000	0.000702
3523.000000	0.000667
3522.000000	0.000638
3521.000000	0.000627
3520.000000	0.000637
3519.000000	0.000664
3518.000000	0.000695
3517.000000	0.000717
3516.000000	0.000725
3515.000000	0.000720
3514.000000	0.000714
3513.000000	0.000714
3512.000000	0.000726
3511.000000	0.000749
3510.000000	0.000779
3509.000000	0.000810
3508.000000	0.000833
3507.000000	0.000843
3506.000000	0.000840
3505.000000	0.000834
3504.000000	0.000832
3503.000000	0.000840
3502.000000	0.000850
3501.000000	0.000853
3500.000000	0.000847
3499.000000	0.000837
3498.000000	0.000829
3497.000000	0.000824
3496.000000	0.000819
3495.000000	0.000811
3494.000000	0.000805
3493.000000	0.000805
3492.000000	0.000815
3491.000000	0.000833
3490.000000	0.000855
3489.000000	0.000873
3488.000000	0.000887
3487.000000	0.000897
3486.000000	0.000909
3485.000000	0.000926
3484.000000	0.000948
3483.000000	0.000971
3482.000000	0.000988
3481.000000	0.000996
3480.000000	0.000995
3479.000000	0.000985
3478.000000	0.000965
3477.000000	0.000938
3476.000000	0.000916
3475.000000	0.000915
3474.000000	0.000940
3473.000000	0.000979
3472.000000	0.001010
3471.000000	0.001018
3470.000000	0.001004
3469.000000	0.000977
3468.000000	0.000950
3467.000000	0.000932
3466.000000	0.000928
3465.000000	0.000942
3464.000000	0.000970
3463.000000	0.001007
3462.000000	0.001046
3461.000000	0.001075
3460.000000	0.001084
3459.000000	0.001067
3458.000000	0.001027
3457.000000	0.000975
3456.000000	0.000924
3455.000000	0.000886
3454.000000	0.000872
3453.000000	0.000883
3452.000000	0.000917
3451.000000	0.000962
3450.000000	0.001004
3449.000000	0.001032
3448.000000	0.001041
3447.000000	0.001034
3446.000000	0.001021
3445.000000	0.001013
3444.000000	0.001013
3443.000000	0.001020
3442.000000	0.001028
3441.000000	0.001035
3440.000000	0.001041
3439.000000	0.001054
3438.000000	0.001075
3437.000000	0.001099
3436.000000	0.001113
3435.000000	0.001108
3434.000000	0.001089
3433.000000	0.001068
3432.000000	0.001061
3431.000000	0.001077
3430.000000	0.001111
3429.000000	0.001147
3428.000000	0.001163
3427.000000	0.001152
3426.000000	0.001125
3425.000000	0.001099
3424.000000	0.001086
3423.000000	0.001089
3422.000000	0.001103
3421.000000	0.001122
3420.000000	0.001140
3419.000000	0.001153
3418.000000	0.001164
3417.000000	0.001179
3416.000000	0.001202
3415.000000	0.001228
3414.000000	0.001251
3413.000000	0.001269
3412.000000	0.001283
3411.000000	0.001295
3410.000000	0.001304
3409.000000	0.001305
3408.000000	0.001294
3407.000000	0.001272
3406.000000	0.001250
3405.000000	0.001238
3404.000000	0.001239
3403.000000	0.001248
3402.000000	0.001256
3401.000000	0.001261
3400.000000	0.001261
3399.000000	0.001258
3398.000000	0.001258
3397.000000	0.001265
3396.000000	0.001283
3395.000000	0.001308
3394.000000	0.001334
3393.000000	0.001355
3392.000000	0.001365
3391.000000	0.001359
3390.000000	0.001339
3389.000000	0.001311
3388.000000	0.001287
3387.000000	0.001274
3386.000000	0.001267
3385.000000	0.001261
3384.000000	0.001249
3383.000000	0.001236
3382.000000	0.001225
3381.000000	0.001223
3380.000000	0.001230
3379.000000	0.001243
3378.000000	0.001256
3377.000000	0.001264
3376.000000	0.001265
3375.000000	0.001260
3374.000000	0.001253
3373.000000	0.001251
3372.000000	0.001252
3371.000000	0.001256
3370.000000	0.001262
3369.000000	0.001270
3368.000000	0.001280
3367.000000	0.001287
3366.000000	0.001291
3365.000000	0.001297
3364.000000	0.001308
3363.000000	0.001319
3362.000000	0.001324
3361.000000	0.001317
3360.000000	0.001303
3359.000000	0.001290
3358.000000	0.001287
3357.000000	0.001302
3356.000000	0.001335
3355.000000	0.001375
3354.000000	0.001408
3353.000000	0.001426
3352.000000	0.001427
3351.000000	0.001418
3350.000000	0.001403
3349.000000	0.001387
3348.000000	0.001379
3347.000000	0.001382
3346.000000	0.001397
3345.000000	0.001420
3344.000000	0.001440
3343.000000	0.001450
3342.000000	0.001447
3341.000000	0.001438
3340.000000	0.001432
3339.000000	0.001429
3338.000000	0.001424
3337.000000	0.001410
3336.000000	0.001390
3335.000000	0.001377
3334.000000	0.001379
3333.000000	0.001399
3332.000000	0.001428
3331.000000	0.001455
3330.000000	0.001469
3329.000000	0.001466
3328.000000	0.001451
3327.000000	0.001435
3326.000000	0.001424
3325.000000	0.001419
3324.000000	0.001417
3323.000000	0.001417
3322.000000	0.001419
3321.000000	0.001418
3320.000000	0.001405
3319.000000	0.001381
3318.000000	0.001358
3317.000000	0.001349
3316.000000	0.001357
3315.000000	0.001375
3314.000000	0.001397
3313.000000	0.001421
3312.000000	0.001445
3311.000000	0.001463
3310.000000	0.001473
3309.000000	0.001477
3308.000000	0.001475
3307.000000	0.001464
3306.000000	0.001445
3305.000000	0.001422
3304.000000	0.001408
3303.000000	0.001411
3302.000000	0.001430
3301.000000	0.001457
3300.000000	0.001480
3299.000000	0.001489
3298.000000	0.001485
3297.000000	0.001476
3296.000000	0.001472
3295.000000	0.001479
3294.000000	0.001488
3293.000000	0.001495
3292.000000	0.001499
3291.000000	0.001507
3290.000000	0.001516
3289.000000	0.001515
3288.000000	0.001498
3287.000000	0.001471
3286.000000	0.001454
3285.000000	0.001456
3284.000000	0.001471
3283.000000	0.001485
3282.000000	0.001490
3281.000000	0.001488
3280.000000	0.001482
3279.000000	0.001472
3278.000000	0.001456
3277.000000	0.001443
3276.000000	0.001440
3275.000000	0.001447
3274.000000	0.001453
3273.000000	0.001450
3272.000000	0.001437
3271.000000	0.001422
3270.000000	0.001410
3269.000000	0.001407
3268.000000	0.001418
3267.000000	0.001444
3266.000000	0.001481
3265.000000	0.001518
3264.000000	0.001540
3263.000000	0.001537
3262.000000	0.001511
3261.000000	0.001477
3260.000000	0.001457
3259.000000	0.001460
3258.000000	0.001478
3257.000000	0.001492
3256.000000	0.001491
3255.000000	0.001477
3254.000000	0.001459
3253.000000	0.001445
3252.000000	0.001437
3251.000000	0.001434
3250.000000	0.001435
3249.000000	0.001437
3248.000000	0.001440
3247.000000	0.001444
3246.000000	0.001449
3245.000000	0.001455
3244.000000	0.001461
3243.000000	0.001466
3242.000000	0.001470
3241.000000	0.001471
3240.000000	0.001468
3239.000000	0.001466
3238.000000	0.001468
3237.000000	0.001475
3236.000000	0.001478
3235.000000	0.001470
3234.000000	0.001452
3233.000000	0.001433
3232.000000	0.001427
3231.000000	0.001435
3230.000000	0.001445
3229.000000	0.001443
3228.000000	0.001425
3227.000000	0.001400
3226.000000	0.001378
3225.000000	0.001360
3224.000000	0.001341
3223.000000	0.001319
3222.000000	0.001301
3221.000000	0.001299
3220.000000	0.001312
3219.000000	0.001334
3218.000000	0.001355
3217.000000	0.001371
3216.000000	0.001380
3215.000000	0.001384
3214.000000	0.001383
3213.000000	0.001376
3212.000000	0.001363
3211.000000	0.001347
3210.000000	0.001332
3209.000000	0.001324
3208.000000	0.001327
3207.000000	0.001343
3206.000000	0.001370
3205.000000	0.001395
3204.000000	0.001405
3203.000000	0.001389
3202.000000	0.001354
3201.000000	0.001317
3200.000000	0.001290
3199.000000	0.001280
3198.000000	0.001285
3197.000000	0.001300
3196.000000	0.001317
3195.000000	0.001331
3194.000000	0.001341
3193.000000	0.001348
3192.000000	0.001346
3191.000000	0.001331
3190.000000	0.001305
3189.000000	0.001279
3188.000000	0.001265
3187.000000	0.001263
3186.000000	0.001267
3185.000000	0.001274
3184.000000	0.001285
3183.000000	0.001302
3182.000000	0.001321
3181.000000	0.001342
3180.000000	0.001366
3179.000000	0.001393
3178.000000	0.001410
3177.000000	0.001401
3176.000000	0.001358
3175.000000	0.001296
3174.000000	0.001241
3173.000000	0.001213
3172.000000	0.001210
3171.000000	0.001220
3170.000000	0.001233
3169.000000	0.001246
3168.000000	0.001257
3167.000000	0.001260
3166.000000	0.001254
3165.000000	0.001236
3164.000000	0.001213
3163.000000	0.001194
3162.000000	0.001188
3161.000000	0.001196
3160.000000	0.001211
3159.000000	0.001221
3158.000000	0.001225
3157.000000	0.001225
3156.000000	0.001219
3155.000000	0.001201
3154.000000	0.001171
3153.000000	0.001146
3152.000000	0.001141
3151.000000	0.001153
3150.000000	0.001166
3149.000000	0.001163
3148.000000	0.001147
3147.000000	0.001133
3146.000000	0.001134
3145.000000	0.001149
3144.000000	0.001166
3143.000000	0.001171
3142.000000	0.001163
3141.000000	0.001148
3140.000000	0.001137
3139.000000	0.001134
3138.000000	0.001136
3137.000000	0.001138
3136.000000	0.001135
3135.000000	0.001121
3134.000000	0.001100
3133.000000	0.001078
3132.000000	0.001064
3131.000000	0.001058
3130.000000	0.001060
3129.000000	0.001071
3128.000000	0.001089
3127.000000	0.001109
3126.000000	0.001123
3125.000000	0.001129
3124.000000	0.001128
3123.000000	0.001124
3122.000000	0.001113
3121.000000	0.001097
3120.000000	0.001080
3119.000000	0.001065
3118.000000	0.001055
3117.000000	0.001048
3116.000000	0.001045
3115.000000	0.001046
3114.000000	0.001051
3113.000000	0.001061
3112.000000	0.001073
3111.000000	0.001082
3110.000000	0.001082
3109.000000	0.001075
3108.000000	0.001068
3107.000000	0.001066
3106.000000	0.001072
3105.000000	0.001080
3104.000000	0.001084
3103.000000	0.001080
3102.000000	0.001065
3101.000000	0.001044
3100.000000	0.001021
3099.000000	0.000997
3098.000000	0.000972
3097.000000	0.000951
3096.000000	0.000943
3095.000000	0.000954
3094.000000	0.000976
3093.000000	0.000998
3092.000000	0.001009
3091.000000	0.001008
3090.000000	0.001000
3089.000000	0.000989
3088.000000	0.000984
3087.000000	0.000985
3086.000000	0.000993
3085.000000	0.001000
3084.000000	0.001007
3083.000000	0.001017
3082.000000	0.001031
3081.000000	0.001039
3080.000000	0.001033
3079.000000	0.001012
3078.000000	0.000986
3077.000000	0.000968
3076.000000	0.000960
3075.000000	0.000957
3074.000000	0.000955
3073.000000	0.000953
3072.000000	0.000956
3071.000000	0.000966
3070.000000	0.000984
3069.000000	0.001004
3068.000000	0.001023
3067.000000	0.001038
3066.000000	0.001047
3065.000000	0.001045
3064.000000	0.001030
3063.000000	0.001007
3062.000000	0.000985
3061.000000	0.000972
3060.000000	0.000965
3059.000000	0.000960
3058.000000	0.000954
3057.000000	0.000952
3056.000000	0.000954
3055.000000	0.000953
3054.000000	0.000944
3053.000000	0.000929
3052.000000	0.000914
3051.000000	0.000905
3050.000000	0.000903
3049.000000	0.000904
3048.000000	0.000908
3047.000000	0.000913
3046.000000	0.000918
3045.000000	0.000918
3044.000000	0.000913
3043.000000	0.000907
3042.000000	0.000907
3041.000000	0.000914
3040.000000	0.000921
3039.000000	0.000915
3038.000000	0.000895
3037.000000	0.000871
3036.000000	0.000856
3035.000000	0.000853
3034.000000	0.000856
3033.000000	0.000858
3032.000000	0.000853
3031.000000	0.000839
3030.000000	0.000817
3029.000000	0.000793
3028.000000	0.000774
3027.000000	0.000765
3026.000000	0.000766
3025.000000	0.000771
3024.000000	0.000777
3023.000000	0.000789
3022.000000	0.000807
3021.000000	0.000827
3020.000000	0.000838
3019.000000	0.000837
3018.000000	0.000825
3017.000000	0.000810
3016.000000	0.000799
3015.000000	0.000797
3014.000000	0.000806
3013.000000	0.000818
3012.000000	0.000823
3011.000000	0.000815
3010.000000	0.000798
3009.000000	0.000783
3008.000000	0.000774
3007.000000	0.000769
3006.000000	0.000763
3005.000000	0.000755
3004.000000	0.000751
3003.000000	0.000751
3002.000000	0.000758
3001.000000	0.000771
3000.000000	0.000789
2999.000000	0.000808
2998.000000	0.000824
2997.000000	0.000836
2996.000000	0.000847
2995.000000	0.000860
2994.000000	0.000872
2993.000000	0.000880
2992.000000	0.000883
2991.000000	0.000884
2990.000000	0.000889
2989.000000	0.000900
2988.000000	0.000913
2987.000000	0.000919
2986.000000	0.000918
2985.000000	0.000919
2984.000000	0.000932
2983.000000	0.000958
2982.000000	0.000989
2981.000000	0.001015
2980.000000	0.001030
2979.000000	0.001033
2978.000000	0.001026
2977.000000	0.001015
2976.000000	0.001009
2975.000000	0.001018
2974.000000	0.001040
2973.000000	0.001070
2972.000000	0.001100
2971.000000	0.001131
2970.000000	0.001168
2969.000000	0.001213
2968.000000	0.001259
2967.000000	0.001297
2966.000000	0.001321
2965.000000	0.001333
2964.000000	0.001344
2963.000000	0.001364
2962.000000	0.001392
2961.000000	0.001423
2960.000000	0.001445
2959.000000	0.001458
2958.000000	0.001465
2957.000000	0.001468
2956.000000	0.001468
2955.000000	0.001462
2954.000000	0.001453
2953.000000	0.001444
2952.000000	0.001435
2951.000000	0.001424
2950.000000	0.001416
2949.000000	0.001417
2948.000000	0.001430
2947.000000	0.001445
2946.000000	0.001446
2945.000000	0.001434
2944.000000	0.001422
2943.000000	0.001425
2942.000000	0.001446
2941.000000	0.001477
2940.000000	0.001512
2939.000000	0.001545
2938.000000	0.001578
2937.000000	0.001609
2936.000000	0.001636
2935.000000	0.001658
2934.000000	0.001680
2933.000000	0.001707
2932.000000	0.001739
2931.000000	0.001765
2930.000000	0.001775
2929.000000	0.001770
2928.000000	0.001754
2927.000000	0.001735
2926.000000	0.001715
2925.000000	0.001695
2924.000000	0.001677
2923.000000	0.001660
2922.000000	0.001645
2921.000000	0.001627
2920.000000	0.001603
2919.000000	0.001569
2918.000000	0.001527
2917.000000	0.001483
2916.000000	0.001442
2915.000000	0.001409
2914.000000	0.001388
2913.000000	0.001376
2912.000000	0.001370
2911.000000	0.001359
2910.000000	0.001340
2909.000000	0.001320
2908.000000	0.001309
2907.000000	0.001307
2906.000000	0.001306
2905.000000	0.001301
2904.000000	0.001296
2903.000000	0.001297
2902.000000	0.001301
2901.000000	0.001298
2900.000000	0.001287
2899.000000	0.001270
2898.000000	0.001251
2897.000000	0.001233
2896.000000	0.001217
2895.000000	0.001201
2894.000000	0.001184
2893.000000	0.001164
2892.000000	0.001141
2891.000000	0.001121
2890.000000	0.001109
2889.000000	0.001103
2888.000000	0.001098
2887.000000	0.001092
2886.000000	0.001090
2885.000000	0.001097
2884.000000	0.001111
2883.000000	0.001126
2882.000000	0.001133
2881.000000	0.001130
2880.000000	0.001122
2879.000000	0.001116
2878.000000	0.001114
2877.000000	0.001116
2876.000000	0.001123
2875.000000	0.001138
2874.000000	0.001156
2873.000000	0.001168
2872.000000	0.001167
2871.000000	0.001157
2870.000000	0.001151
2869.000000	0.001158
2868.000000	0.001177
2867.000000	0.001195
2866.000000	0.001199
2865.000000	0.001189
2864.000000	0.001178
2863.000000	0.001181
2862.000000	0.001204
2861.000000	0.001239
2860.000000	0.001272
2859.000000	0.001293
2858.000000	0.001300
2857.000000	0.001293
2856.000000	0.001275
2855.000000	0.001251
2854.000000	0.001229
2853.000000	0.001213
2852.000000	0.001199
2851.000000	0.001181
2850.000000	0.001153
2849.000000	0.001111
2848.000000	0.001064
2847.000000	0.001022
2846.000000	0.000995
2845.000000	0.000981
2844.000000	0.000971
2843.000000	0.000955
2842.000000	0.000933
2841.000000	0.000913
2840.000000	0.000903
2839.000000	0.000905
2838.000000	0.000913
2837.000000	0.000919
2836.000000	0.000911
2835.000000	0.000885
2834.000000	0.000849
2833.000000	0.000815
2832.000000	0.000791
2831.000000	0.000777
2830.000000	0.000771
2829.000000	0.000768
2828.000000	0.000768
2827.000000	0.000772
2826.000000	0.000784
2825.000000	0.000802
2824.000000	0.000821
2823.000000	0.000835
2822.000000	0.000841
2821.000000	0.000836
2820.000000	0.000818
2819.000000	0.000787
2818.000000	0.000754
2817.000000	0.000734
2816.000000	0.000732
2815.000000	0.000740
2814.000000	0.000747
2813.000000	0.000748
2812.000000	0.000742
2811.000000	0.000735
2810.000000	0.000726
2809.000000	0.000721
2808.000000	0.000721
2807.000000	0.000724
2806.000000	0.000723
2805.000000	0.000716
2804.000000	0.000705
2803.000000	0.000698
2802.000000	0.000700
2801.000000	0.000712
2800.000000	0.000734
2799.000000	0.000755
2798.000000	0.000765
2797.000000	0.000761
2796.000000	0.000745
2795.000000	0.000727
2794.000000	0.000711
2793.000000	0.000702
2792.000000	0.000699
2791.000000	0.000703
2790.000000	0.000711
2789.000000	0.000722
2788.000000	0.000733
2787.000000	0.000743
2786.000000	0.000751
2785.000000	0.000754
2784.000000	0.000751
2783.000000	0.000739
2782.000000	0.000718
2781.000000	0.000690
2780.000000	0.000662
2779.000000	0.000646
2778.000000	0.000649
2777.000000	0.000669
2776.000000	0.000691
2775.000000	0.000704
2774.000000	0.000705
2773.000000	0.000702
2772.000000	0.000704
2771.000000	0.000711
2770.000000	0.000716
2769.000000	0.000713
2768.000000	0.000704
2767.000000	0.000697
2766.000000	0.000696
2765.000000	0.000701
2764.000000	0.000708
2763.000000	0.000711
2762.000000	0.000707
2761.000000	0.000696
2760.000000	0.000687
2759.000000	0.000692
2758.000000	0.000712
2757.000000	0.000735
2756.000000	0.000748
2755.000000	0.000746
2754.000000	0.000735
2753.000000	0.000725
2752.000000	0.000716
2751.000000	0.000708
2750.000000	0.000697
2749.000000	0.000685
2748.000000	0.000675
2747.000000	0.000670
2746.000000	0.000675
2745.000000	0.000686
2744.000000	0.000696
2743.000000	0.000699
2742.000000	0.000692
2741.000000	0.000680
2740.000000	0.000665
2739.000000	0.000655
2738.000000	0.000654
2737.000000	0.000665
2736.000000	0.000681
2735.000000	0.000695
2734.000000	0.000699
2733.000000	0.000696
2732.000000	0.000689
2731.000000	0.000684
2730.000000	0.000685
2729.000000	0.000690
2728.000000	0.000696
2727.000000	0.000697
2726.000000	0.000689
2725.000000	0.000677
2724.000000	0.000669
2723.000000	0.000666
2722.000000	0.000669
2721.000000	0.000675
2720.000000	0.000684
2719.000000	0.000691
2718.000000	0.000690
2717.000000	0.000674
2716.000000	0.000651
2715.000000	0.000630
2714.000000	0.000619
2713.000000	0.000614
2712.000000	0.000607
2711.000000	0.000597
2710.000000	0.000590
2709.000000	0.000595
2708.000000	0.000610
2707.000000	0.000625
2706.000000	0.000633
2705.000000	0.000633
2704.000000	0.000632
2703.000000	0.000632
2702.000000	0.000637
2701.000000	0.000646
2700.000000	0.000657
2699.000000	0.000664
2698.000000	0.000662
2697.000000	0.000648
2696.000000	0.000629
2695.000000	0.000617
2694.000000	0.000612
2693.000000	0.000611
2692.000000	0.000609
2691.000000	0.000609
2690.000000	0.000616
2689.000000	0.000631
2688.000000	0.000649
2687.000000	0.000666
2686.000000	0.000679
2685.000000	0.000688
2684.000000	0.000692
2683.000000	0.000688
2682.000000	0.000678
2681.000000	0.000666
2680.000000	0.000657
2679.000000	0.000652
2678.000000	0.000648
2677.000000	0.000642
2676.000000	0.000633
2675.000000	0.000623
2674.000000	0.000612
2673.000000	0.000603
2672.000000	0.000596
2671.000000	0.000589
2670.000000	0.000584
2669.000000	0.000580
2668.000000	0.000580
2667.000000	0.000581
2666.000000	0.000588
2665.000000	0.000602
2664.000000	0.000625
2663.000000	0.000653
2662.000000	0.000674
2661.000000	0.000682
2660.000000	0.000679
2659.000000	0.000676
2658.000000	0.000680
2657.000000	0.000684
2656.000000	0.000680
2655.000000	0.000668
2654.000000	0.000659
2653.000000	0.000662
2652.000000	0.000674
2651.000000	0.000683
2650.000000	0.000683
2649.000000	0.000677
2648.000000	0.000674
2647.000000	0.000676
2646.000000	0.000684
2645.000000	0.000692
2644.000000	0.000693
2643.000000	0.000681
2642.000000	0.000657
2641.000000	0.000626
2640.000000	0.000600
2639.000000	0.000587
2638.000000	0.000596
2637.000000	0.000624
2636.000000	0.000654
2635.000000	0.000668
2634.000000	0.000662
2633.000000	0.000644
2632.000000	0.000626
2631.000000	0.000608
2630.000000	0.000590
2629.000000	0.000579
2628.000000	0.000580
2627.000000	0.000588
2626.000000	0.000594
2625.000000	0.000593
2624.000000	0.000583
2623.000000	0.000564
2622.000000	0.000537
2621.000000	0.000514
2620.000000	0.000505
2619.000000	0.000512
2618.000000	0.000525
2617.000000	0.000533
2616.000000	0.000537
2615.000000	0.000541
2614.000000	0.000548
2613.000000	0.000554
2612.000000	0.000553
2611.000000	0.000539
2610.000000	0.000512
2609.000000	0.000476
2608.000000	0.000442
2607.000000	0.000414
2606.000000	0.000394
2605.000000	0.000388
2604.000000	0.000407
2603.000000	0.000448
2602.000000	0.000489
2601.000000	0.000505
2600.000000	0.000484
2599.000000	0.000445
2598.000000	0.000412
2597.000000	0.000400
2596.000000	0.000405
2595.000000	0.000416
2594.000000	0.000423
2593.000000	0.000422
2592.000000	0.000414
2591.000000	0.000403
2590.000000	0.000396
2589.000000	0.000395
2588.000000	0.000402
2587.000000	0.000414
2586.000000	0.000424
2585.000000	0.000425
2584.000000	0.000419
2583.000000	0.000409
2582.000000	0.000401
2581.000000	0.000399
2580.000000	0.000405
2579.000000	0.000417
2578.000000	0.000425
2577.000000	0.000423
2576.000000	0.000407
2575.000000	0.000382
2574.000000	0.000355
2573.000000	0.000336
2572.000000	0.000333
2571.000000	0.000353
2570.000000	0.000384
2569.000000	0.000406
2568.000000	0.000404
2567.000000	0.000383
2566.000000	0.000361
2565.000000	0.000352
2564.000000	0.000352
2563.000000	0.000354
2562.000000	0.000354
2561.000000	0.000353
2560.000000	0.000356
2559.000000	0.000362
2558.000000	0.000366
2557.000000	0.000363
2556.000000	0.000352
2555.000000	0.000337
2554.000000	0.000325
2553.000000	0.000316
2552.000000	0.000304
2551.000000	0.000282
2550.000000	0.000252
2549.000000	0.000224
2548.000000	0.000208
2547.000000	0.000210
2546.000000	0.000228
2545.000000	0.000259
2544.000000	0.000293
2543.000000	0.000326
2542.000000	0.000359
2541.000000	0.000390
2540.000000	0.000419
2539.000000	0.000441
2538.000000	0.000453
2537.000000	0.000453
2536.000000	0.000440
2535.000000	0.000420
2534.000000	0.000399
2533.000000	0.000381
2532.000000	0.000358
2531.000000	0.000319
2530.000000	0.000270
2529.000000	0.000234
2528.000000	0.000238
2527.000000	0.000287
2526.000000	0.000356
2525.000000	0.000406
2524.000000	0.000410
2523.000000	0.000371
2522.000000	0.000315
2521.000000	0.000272
2520.000000	0.000255
2519.000000	0.000266
2518.000000	0.000296
2517.000000	0.000333
2516.000000	0.000360
2515.000000	0.000362
2514.000000	0.000341
2513.000000	0.000312
2512.000000	0.000293
2511.000000	0.000291
2510.000000	0.000301
2509.000000	0.000312
2508.000000	0.000319
2507.000000	0.000324
2506.000000	0.000331
2505.000000	0.000335
2504.000000	0.000326
2503.000000	0.000305
2502.000000	0.000288
2501.000000	0.000284
2500.000000	0.000290
2499.000000	0.000292
2498.000000	0.000286
2497.000000	0.000283
2496.000000	0.000297
2495.000000	0.000330
2494.000000	0.000368
2493.000000	0.000386
2492.000000	0.000368
2491.000000	0.000320
2490.000000	0.000269
2489.000000	0.000242
2488.000000	0.000247
2487.000000	0.000272
2486.000000	0.000300
2485.000000	0.000322
2484.000000	0.000335
2483.000000	0.000338
2482.000000	0.000326
2481.000000	0.000299
2480.000000	0.000262
2479.000000	0.000229
2478.000000	0.000217
2477.000000	0.000228
2476.000000	0.000252
2475.000000	0.000279
2474.000000	0.000306
2473.000000	0.000334
2472.000000	0.000354
2471.000000	0.000355
2470.000000	0.000340
2469.000000	0.000333
2468.000000	0.000347
2467.000000	0.000370
2466.000000	0.000381
2465.000000	0.000366
2464.000000	0.000335
2463.000000	0.000304
2462.000000	0.000292
2461.000000	0.000311
2460.000000	0.000351
2459.000000	0.000386
2458.000000	0.000392
2457.000000	0.000363
2456.000000	0.000312
2455.000000	0.000258
2454.000000	0.000217
2453.000000	0.000204
2452.000000	0.000224
2451.000000	0.000260
2450.000000	0.000289
2449.000000	0.000294
2448.000000	0.000281
2447.000000	0.000264
2446.000000	0.000258
2445.000000	0.000263
2444.000000	0.000273
2443.000000	0.000278
2442.000000	0.000276
2441.000000	0.000276
2440.000000	0.000285
2439.000000	0.000300
2438.000000	0.000310
2437.000000	0.000314
2436.000000	0.000317
2435.000000	0.000319
2434.000000	0.000311
2433.000000	0.000289
2432.000000	0.000262
2431.000000	0.000245
2430.000000	0.000244
2429.000000	0.000253
2428.000000	0.000265
2427.000000	0.000273
2426.000000	0.000275
2425.000000	0.000276
2424.000000	0.000282
2423.000000	0.000294
2422.000000	0.000298
2421.000000	0.000284
2420.000000	0.000253
2419.000000	0.000221
2418.000000	0.000204
2417.000000	0.000205
2416.000000	0.000219
2415.000000	0.000229
2414.000000	0.000229
2413.000000	0.000222
2412.000000	0.000228
2411.000000	0.000258
2410.000000	0.000300
2409.000000	0.000324
2408.000000	0.000316
2407.000000	0.000287
2406.000000	0.000264
2405.000000	0.000259
2404.000000	0.000262
2403.000000	0.000255
2402.000000	0.000229
2401.000000	0.000189
2400.000000	0.000158
2399.000000	0.000155
2398.000000	0.000182
2397.000000	0.000217
2396.000000	0.000241
2395.000000	0.000258
2394.000000	0.000285
2393.000000	0.000322
2392.000000	0.000354
2391.000000	0.000370
2390.000000	0.000377
2389.000000	0.000379
2388.000000	0.000368
2387.000000	0.000333
2386.000000	0.000282
2385.000000	0.000237
2384.000000	0.000212
2383.000000	0.000207
2382.000000	0.000213
2381.000000	0.000215
2380.000000	0.000204
2379.000000	0.000185
2378.000000	0.000177
2377.000000	0.000197
2376.000000	0.000234
2375.000000	0.000260
2374.000000	0.000262
2373.000000	0.000249
2372.000000	0.000236
2371.000000	0.000226
2370.000000	0.000216
2369.000000	0.000211
2368.000000	0.000226
2367.000000	0.000273
2366.000000	0.000340
2365.000000	0.000395
2364.000000	0.000426
2363.000000	0.000452
2362.000000	0.000482
2361.000000	0.000485
2360.000000	0.000424
2359.000000	0.000318
2358.000000	0.000219
2357.000000	0.000156
2356.000000	0.000137
2355.000000	0.000159
2354.000000	0.000182
2353.000000	0.000152
2352.000000	0.000090
2351.000000	0.000081
2350.000000	0.000167
2349.000000	0.000304
2348.000000	0.000413
2347.000000	0.000432
2346.000000	0.000371
2345.000000	0.000321
2344.000000	0.000348
2343.000000	0.000416
2342.000000	0.000459
2341.000000	0.000448
2340.000000	0.000404
2339.000000	0.000365
2338.000000	0.000345
2337.000000	0.000337
2336.000000	0.000333
2335.000000	0.000330
2334.000000	0.000321
2333.000000	0.000299
2332.000000	0.000284
2331.000000	0.000308
2330.000000	0.000374
2329.000000	0.000463
2328.000000	0.000557
2327.000000	0.000646
2326.000000	0.000714
2325.000000	0.000739
2324.000000	0.000716
2323.000000	0.000662
2322.000000	0.000614
2321.000000	0.000606
2320.000000	0.000644
2319.000000	0.000704
2318.000000	0.000750
2317.000000	0.000755
2316.000000	0.000709
2315.000000	0.000626
2314.000000	0.000540
2313.000000	0.000488
2312.000000	0.000482
2311.000000	0.000494
2310.000000	0.000490
2309.000000	0.000470
2308.000000	0.000449
2307.000000	0.000421
2306.000000	0.000370
2305.000000	0.000301
2304.000000	0.000249
2303.000000	0.000244
2302.000000	0.000283
2301.000000	0.000342
2300.000000	0.000402
2299.000000	0.000449
2298.000000	0.000478
2297.000000	0.000499
2296.000000	0.000524
2295.000000	0.000555
2294.000000	0.000573
2293.000000	0.000566
2292.000000	0.000543
2291.000000	0.000529
2290.000000	0.000544
2289.000000	0.000586
2288.000000	0.000632
2287.000000	0.000650
2286.000000	0.000633
2285.000000	0.000609
2284.000000	0.000610
2283.000000	0.000635
2282.000000	0.000647
2281.000000	0.000622
2280.000000	0.000581
2279.000000	0.000552
2278.000000	0.000534
2277.000000	0.000517
2276.000000	0.000503
2275.000000	0.000504
2274.000000	0.000509
2273.000000	0.000492
2272.000000	0.000446
2271.000000	0.000401
2270.000000	0.000399
2269.000000	0.000458
2268.000000	0.000550
2267.000000	0.000620
2266.000000	0.000619
2265.000000	0.000552
2264.000000	0.000473
2263.000000	0.000429
2262.000000	0.000433
2261.000000	0.000464
2260.000000	0.000499
2259.000000	0.000520
2258.000000	0.000510
2257.000000	0.000470
2256.000000	0.000426
2255.000000	0.000395
2254.000000	0.000370
2253.000000	0.000336
2252.000000	0.000304
2251.000000	0.000286
2250.000000	0.000278
2249.000000	0.000264
2248.000000	0.000250
2247.000000	0.000247
2246.000000	0.000238
2245.000000	0.000202
2244.000000	0.000169
2243.000000	0.000196
2242.000000	0.000286
2241.000000	0.000369
2240.000000	0.000371
2239.000000	0.000291
2238.000000	0.000174
2237.000000	0.000059
2236.000000	-0.000026
2235.000000	-0.000055
2234.000000	-0.000018
2233.000000	0.000062
2232.000000	0.000149
2231.000000	0.000232
2230.000000	0.000305
2229.000000	0.000348
2228.000000	0.000346
2227.000000	0.000316
2226.000000	0.000295
2225.000000	0.000287
2224.000000	0.000273
2223.000000	0.000255
2222.000000	0.000256
2221.000000	0.000279
2220.000000	0.000302
2219.000000	0.000319
2218.000000	0.000331
2217.000000	0.000320
2216.000000	0.000244
2215.000000	0.000106
2214.000000	-0.000026
2213.000000	-0.000078
2212.000000	-0.000037
2211.000000	0.000072
2210.000000	0.000223
2209.000000	0.000381
2208.000000	0.000482
2207.000000	0.000475
2206.000000	0.000375
2205.000000	0.000264
2204.000000	0.000219
2203.000000	0.000260
2202.000000	0.000341
2201.000000	0.000389
2200.000000	0.000362
2199.000000	0.000296
2198.000000	0.000275
2197.000000	0.000352
2196.000000	0.000497
2195.000000	0.000636
2194.000000	0.000715
2193.000000	0.000716
2192.000000	0.000637
2191.000000	0.000502
2190.000000	0.000377
2189.000000	0.000324
2188.000000	0.000339
2187.000000	0.000362
2186.000000	0.000356
2185.000000	0.000340
2184.000000	0.000340
2183.000000	0.000339
2182.000000	0.000290
2181.000000	0.000162
2180.000000	-0.000027
2179.000000	-0.000230
2178.000000	-0.000397
2177.000000	-0.000509
2176.000000	-0.000567
2175.000000	-0.000563
2174.000000	-0.000457
2173.000000	-0.000237
2172.000000	0.000041
2171.000000	0.000284
2170.000000	0.000441
2169.000000	0.000521
2168.000000	0.000558
2167.000000	0.000591
2166.000000	0.000640
2165.000000	0.000689
2164.000000	0.000673
2163.000000	0.000546
2162.000000	0.000352
2161.000000	0.000172
2160.000000	0.000017
2159.000000	-0.000192
2158.000000	-0.000478
2157.000000	-0.000746
2156.000000	-0.000896
2155.000000	-0.000916
2154.000000	-0.000832
2153.000000	-0.000660
2152.000000	-0.000432
2151.000000	-0.000230
2150.000000	-0.000140
2149.000000	-0.000178
2148.000000	-0.000278
2147.000000	-0.000349
2146.000000	-0.000344
2145.000000	-0.000292
2144.000000	-0.000256
2143.000000	-0.000273
2142.000000	-0.000333
2141.000000	-0.000409
2140.000000	-0.000481
2139.000000	-0.000518
2138.000000	-0.000479
2137.000000	-0.000358
2136.000000	-0.000229
2135.000000	-0.000184
2134.000000	-0.000236
2133.000000	-0.000318
2132.000000	-0.000364
2131.000000	-0.000357
2130.000000	-0.000299
2129.000000	-0.000194
2128.000000	-0.000070
2127.000000	0.000012
2126.000000	0.000018
2125.000000	-0.000019
2124.000000	-0.000033
2123.000000	0.000001
2122.000000	0.000059
2121.000000	0.000103
2120.000000	0.000117
2119.000000	0.000117
2118.000000	0.000134
2117.000000	0.000184
2116.000000	0.000244
2115.000000	0.000265
2114.000000	0.000221
2113.000000	0.000139
2112.000000	0.000067
2111.000000	0.000031
2110.000000	0.000027
2109.000000	0.000048
2108.000000	0.000087
2107.000000	0.000125
2106.000000	0.000141
2105.000000	0.000135
2104.000000	0.000125
2103.000000	0.000127
2102.000000	0.000144
2101.000000	0.000174
2100.000000	0.000210
2099.000000	0.000233
2098.000000	0.000223
2097.000000	0.000183
2096.000000	0.000145
2095.000000	0.000134
2094.000000	0.000143
2093.000000	0.000153
2092.000000	0.000150
2091.000000	0.000133
2090.000000	0.000104
2089.000000	0.000069
2088.000000	0.000040
2087.000000	0.000034
2086.000000	0.000059
2085.000000	0.000101
2084.000000	0.000128
2083.000000	0.000111
2082.000000	0.000057
2081.000000	0.000002
2080.000000	-0.000020
2079.000000	-0.000002
2078.000000	0.000038
2077.000000	0.000082
2076.000000	0.000110
2075.000000	0.000098
2074.000000	0.000039
2073.000000	-0.000039
2072.000000	-0.000079
2071.000000	-0.000040
2070.000000	0.000067
2069.000000	0.000189
2068.000000	0.000270
2067.000000	0.000284
2066.000000	0.000233
2065.000000	0.000147
2064.000000	0.000074
2063.000000	0.000052
2062.000000	0.000083
2061.000000	0.000127
2060.000000	0.000141
2059.000000	0.000120
2058.000000	0.000091
2057.000000	0.000071
2056.000000	0.000044
2055.000000	-0.000002
2054.000000	-0.000046
2053.000000	-0.000048
2052.000000	0.000006
2051.000000	0.000092
2050.000000	0.000165
2049.000000	0.000182
2048.000000	0.000135
2047.000000	0.000064
2046.000000	0.000018
2045.000000	-0.000006
2044.000000	-0.000058
2043.000000	-0.000146
2042.000000	-0.000208
2041.000000	-0.000201
2040.000000	-0.000180
2039.000000	-0.000209
2038.000000	-0.000224
2037.000000	-0.000094
2036.000000	0.000180
2035.000000	0.000422
2034.000000	0.000471
2033.000000	0.000333
2032.000000	0.000113
2031.000000	-0.000114
2030.000000	-0.000306
2029.000000	-0.000414
2028.000000	-0.000417
2027.000000	-0.000372
2026.000000	-0.000339
2025.000000	-0.000307
2024.000000	-0.000241
2023.000000	-0.000153
2022.000000	-0.000081
2021.000000	-0.000042
2020.000000	-0.000030
2019.000000	-0.000046
2018.000000	-0.000077
2017.000000	-0.000085
2016.000000	-0.000062
2015.000000	-0.000067
2014.000000	-0.000156
2013.000000	-0.000317
2012.000000	-0.000492
2011.000000	-0.000630
2010.000000	-0.000686
2009.000000	-0.000621
2008.000000	-0.000459
2007.000000	-0.000298
2006.000000	-0.000211
2005.000000	-0.000175
2004.000000	-0.000142
2003.000000	-0.000137
2002.000000	-0.000208
2001.000000	-0.000324
2000.000000	-0.000392
1999.000000	-0.000376
1998.000000	-0.000341
1997.000000	-0.000367
1996.000000	-0.000466
1995.000000	-0.000583
1994.000000	-0.000651
1993.000000	-0.000614
1992.000000	-0.000462
1991.000000	-0.000245
1990.000000	-0.000044
1989.000000	0.000081
1988.000000	0.000106
1987.000000	0.000040
1986.000000	-0.000072
1985.000000	-0.000157
1984.000000	-0.000167
1983.000000	-0.000107
1982.000000	-0.000005
1981.000000	0.000131
1980.000000	0.000290
1979.000000	0.000411
1978.000000	0.000418
1977.000000	0.000301
1976.000000	0.000121
1975.000000	-0.000088
1974.000000	-0.000328
1973.000000	-0.000556
1972.000000	-0.000664
1971.000000	-0.000589
1970.000000	-0.000393
1969.000000	-0.000211
1968.000000	-0.000155
1967.000000	-0.000248
1966.000000	-0.000446
1965.000000	-0.000676
1964.000000	-0.000868
1963.000000	-0.000980
1962.000000	-0.001010
1961.000000	-0.000993
1960.000000	-0.000981
1959.000000	-0.000993
1958.000000	-0.001002
1957.000000	-0.000961
1956.000000	-0.000867
1955.000000	-0.000759
1954.000000	-0.000668
1953.000000	-0.000584
1952.000000	-0.000485
1951.000000	-0.000380
1950.000000	-0.000295
1949.000000	-0.000240
1948.000000	-0.000192
1947.000000	-0.000126
1946.000000	-0.000058
1945.000000	-0.000053
1944.000000	-0.000175
1943.000000	-0.000424
1942.000000	-0.000686
1941.000000	-0.000813
1940.000000	-0.000752
1939.000000	-0.000569
1938.000000	-0.000363
1937.000000	-0.000196
1936.000000	-0.000083
1935.000000	-0.000025
1934.000000	-0.000030
1933.000000	-0.000105
1932.000000	-0.000228
1931.000000	-0.000359
1930.000000	-0.000453
1929.000000	-0.000483
1928.000000	-0.000457
1927.000000	-0.000409
1926.000000	-0.000372
1925.000000	-0.000356
1924.000000	-0.000360
1923.000000	-0.000381
1922.000000	-0.000413
1921.000000	-0.000441
1920.000000	-0.000449
1919.000000	-0.000435
1918.000000	-0.000407
1917.000000	-0.000380
1916.000000	-0.000369
1915.000000	-0.000375
1914.000000	-0.000384
1913.000000	-0.000372
1912.000000	-0.000335
1911.000000	-0.000307
1910.000000	-0.000327
1909.000000	-0.000392
1908.000000	-0.000457
1907.000000	-0.000484
1906.000000	-0.000468
1905.000000	-0.000430
1904.000000	-0.000398
1903.000000	-0.000388
1902.000000	-0.000399
1901.000000	-0.000410
1900.000000	-0.000400
1899.000000	-0.000368
1898.000000	-0.000318
1897.000000	-0.000258
1896.000000	-0.000208
1895.000000	-0.000204
1894.000000	-0.000260
1893.000000	-0.000337
1892.000000	-0.000370
1891.000000	-0.000344
1890.000000	-0.000311
1889.000000	-0.000330
1888.000000	-0.000387
1887.000000	-0.000424
1886.000000	-0.000410
1885.000000	-0.000373
1884.000000	-0.000355
1883.000000	-0.000365
1882.000000	-0.000379
1881.000000	-0.000372
1880.000000	-0.000347
1879.000000	-0.000322
1878.000000	-0.000312
1877.000000	-0.000312
1876.000000	-0.000317
1875.000000	-0.000329
1874.000000	-0.000352
1873.000000	-0.000383
1872.000000	-0.000406
1871.000000	-0.000410
1870.000000	-0.000392
1869.000000	-0.000361
1868.000000	-0.000342
1867.000000	-0.000355
1866.000000	-0.000405
1865.000000	-0.000475
1864.000000	-0.000531
1863.000000	-0.000543
1862.000000	-0.000499
1861.000000	-0.000413
1860.000000	-0.000320
1859.000000	-0.000257
1858.000000	-0.000243
1857.000000	-0.000268
1856.000000	-0.000314
1855.000000	-0.000361
1854.000000	-0.000401
1853.000000	-0.000424
1852.000000	-0.000423
1851.000000	-0.000400
1850.000000	-0.000369
1849.000000	-0.000352
1848.000000	-0.000357
1847.000000	-0.000373
1846.000000	-0.000383
1845.000000	-0.000377
1844.000000	-0.000373
1843.000000	-0.000394
1842.000000	-0.000441
1841.000000	-0.000496
1840.000000	-0.000532
1839.000000	-0.000524
1838.000000	-0.000466
1837.000000	-0.000388
1836.000000	-0.000334
1835.000000	-0.000327
1834.000000	-0.000354
1833.000000	-0.000391
1832.000000	-0.000427
1831.000000	-0.000455
1830.000000	-0.000457
1829.000000	-0.000423
1828.000000	-0.000368
1827.000000	-0.000326
1826.000000	-0.000313
1825.000000	-0.000332
1824.000000	-0.000368
1823.000000	-0.000406
1822.000000	-0.000437
1821.000000	-0.000460
1820.000000	-0.000480
1819.000000	-0.000504
1818.000000	-0.000525
1817.000000	-0.000524
1816.000000	-0.000493
1815.000000	-0.000452
1814.000000	-0.000427
1813.000000	-0.000431
1812.000000	-0.000453
1811.000000	-0.000471
1810.000000	-0.000471
1809.000000	-0.000451
1808.000000	-0.000428
1807.000000	-0.000424
1806.000000	-0.000448
1805.000000	-0.000487
1804.000000	-0.000520
1803.000000	-0.000535
1802.000000	-0.000530
1801.000000	-0.000504
1800.000000	-0.000458
1799.000000	-0.000405
1798.000000	-0.000360
1797.000000	-0.000334
1796.000000	-0.000328
1795.000000	-0.000332
1794.000000	-0.000339
1793.000000	-0.000344
1792.000000	-0.000349
1791.000000	-0.000354
1790.000000	-0.000358
1789.000000	-0.000357
1788.000000	-0.000356
1787.000000	-0.000363
1786.000000	-0.000383
1785.000000	-0.000414
1784.000000	-0.000444
1783.000000	-0.000461
1782.000000	-0.000462
1781.000000	-0.000452
1780.000000	-0.000439
1779.000000	-0.000433
1778.000000	-0.000430
1777.000000	-0.000428
1776.000000	-0.000430
1775.000000	-0.000444
1774.000000	-0.000461
1773.000000	-0.000461
1772.000000	-0.000431
1771.000000	-0.000389
1770.000000	-0.000361
1769.000000	-0.000349
1768.000000	-0.000342
1767.000000	-0.000333
1766.000000	-0.000327
1765.000000	-0.000327
1764.000000	-0.000330
1763.000000	-0.000334
1762.000000	-0.000335
1761.000000	-0.000323
1760.000000	-0.000290
1759.000000	-0.000225
1758.000000	-0.000124
1757.000000	-0.000000
1756.000000	0.000110
1755.000000	0.000180
1754.000000	0.000223
1753.000000	0.000279
1752.000000	0.000383
1751.000000	0.000539
1750.000000	0.000708
1749.000000	0.000852
1748.000000	0.000954
1747.000000	0.001023
1746.000000	0.001083
1745.000000	0.001154
1744.000000	0.001235
1743.000000	0.001309
1742.000000	0.001365
1741.000000	0.001399
1740.000000	0.001400
1739.000000	0.001365
1738.000000	0.001317
1737.000000	0.001279
1736.000000	0.001244
1735.000000	0.001168
1734.000000	0.001028
1733.000000	0.000884
1732.000000	0.000796
1731.000000	0.000739
1730.000000	0.000681
1729.000000	0.000618
1728.000000	0.000557
1727.000000	0.000506
1726.000000	0.000467
1725.000000	0.000438
1724.000000	0.000408
1723.000000	0.000364
1722.000000	0.000300
1721.000000	0.000227
1720.000000	0.000154
1719.000000	0.000093
1718.000000	0.000071
1717.000000	0.000108
1716.000000	0.000168
1715.000000	0.000194
1714.000000	0.000172
1713.000000	0.000132
1712.000000	0.000104
1711.000000	0.000095
1710.000000	0.000100
1709.000000	0.000119
1708.000000	0.000151
1707.000000	0.000191
1706.000000	0.000230
1705.000000	0.000259
1704.000000	0.000284
1703.000000	0.000317
1702.000000	0.000369
1701.000000	0.000425
1700.000000	0.000443
1699.000000	0.000431
1698.000000	0.000437
1697.000000	0.000492
1696.000000	0.000584
1695.000000	0.000665
1694.000000	0.000719
1693.000000	0.000772
1692.000000	0.000842
1691.000000	0.000927
1690.000000	0.001014
1689.000000	0.001083
1688.000000	0.001122
1687.000000	0.001137
1686.000000	0.001159
1685.000000	0.001228
1684.000000	0.001332
1683.000000	0.001411
1682.000000	0.001466
1681.000000	0.001535
1680.000000	0.001623
1679.000000	0.001712
1678.000000	0.001788
1677.000000	0.001859
1676.000000	0.001929
1675.000000	0.001991
1674.000000	0.002048
1673.000000	0.002114
1672.000000	0.002197
1671.000000	0.002287
1670.000000	0.002381
1669.000000	0.002485
1668.000000	0.002592
1667.000000	0.002684
1666.000000	0.002755
1665.000000	0.002822
1664.000000	0.002896
1663.000000	0.002972
1662.000000	0.003038
1661.000000	0.003101
1660.000000	0.003163
1659.000000	0.003211
1658.000000	0.003235
1657.000000	0.003245
1656.000000	0.003256
1655.000000	0.003292
1654.000000	0.003373
1653.000000	0.003488
1652.000000	0.003588
1651.000000	0.003649
1650.000000	0.003692
1649.000000	0.003745
1648.000000	0.003825
1647.000000	0.003914
1646.000000	0.003977
1645.000000	0.004021
1644.000000	0.004067
1643.000000	0.004111
1642.000000	0.004148
1641.000000	0.004179
1640.000000	0.004206
1639.000000	0.004222
1638.000000	0.004227
1637.000000	0.004229
1636.000000	0.004232
1635.000000	0.004229
1634.000000	0.004224
1633.000000	0.004231
1632.000000	0.004253
1631.000000	0.004283
1630.000000	0.004309
1629.000000	0.004335
1628.000000	0.004363
1627.000000	0.004389
1626.000000	0.004409
1625.000000	0.004427
1624.000000	0.004447
1623.000000	0.004454
1622.000000	0.004435
1621.000000	0.004403
1620.000000	0.004377
1619.000000	0.004359
1618.000000	0.004338
1617.000000	0.004303
1616.000000	0.004260
1615.000000	0.004224
1614.000000	0.004197
1613.000000	0.004177
1612.000000	0.004158
1611.000000	0.004128
1610.000000	0.004078
1609.000000	0.004011
1608.000000	0.003940
1607.000000	0.003873
1606.000000	0.003813
1605.000000	0.003755
1604.000000	0.003690
1603.000000	0.003615
1602.000000	0.003537
1601.000000	0.003471
1600.000000	0.003418
1599.000000	0.003367
1598.000000	0.003302
1597.000000	0.003222
1596.000000	0.003133
1595.000000	0.003050
1594.000000	0.002980
1593.000000	0.002930
1592.000000	0.002897
1591.000000	0.002868
1590.000000	0.002831
1589.000000	0.002786
1588.000000	0.002738
1587.000000	0.002691
1586.000000	0.002644
1585.000000	0.002601
1584.000000	0.002564
1583.000000	0.002536
1582.000000	0.002514
1581.000000	0.002492
1580.000000	0.002468
1579.000000	0.002444
1578.000000	0.002427
1577.000000	0.002408
1576.000000	0.002370
1575.000000	0.002318
1574.000000	0.002277
1573.000000	0.002254
1572.000000	0.002242
1571.000000	0.002231
1570.000000	0.002218
1569.000000	0.002210
1568.000000	0.002218
1567.000000	0.002242
1566.000000	0.002268
1565.000000	0.002278
1564.000000	0.002250
1563.000000	0.002187
1562.000000	0.002112
1561.000000	0.002050
1560.000000	0.002027
1559.000000	0.002055
1558.000000	0.002101
1557.000000	0.002136
1556.000000	0.002159
1555.000000	0.002172
1554.000000	0.002181
1553.000000	0.002186
1552.000000	0.002194
1551.000000	0.002206
1550.000000	0.002218
1549.000000	0.002224
1548.000000	0.002223
1547.000000	0.002219
1546.000000	0.002219
1545.000000	0.002225
1544.000000	0.002231
1543.000000	0.002230
1542.000000	0.002227
1541.000000	0.002240
1540.000000	0.002259
1539.000000	0.002249
1538.000000	0.002213
1537.000000	0.002182
1536.000000	0.002165
1535.000000	0.002160
1534.000000	0.002153
1533.000000	0.002144
1532.000000	0.002144
1531.000000	0.002153
1530.000000	0.002154
1529.000000	0.002137
1528.000000	0.002107
1527.000000	0.002075
1526.000000	0.002048
1525.000000	0.002022
1524.000000	0.001998
1523.000000	0.001974
1522.000000	0.001945
1521.000000	0.001911
1520.000000	0.001883
1519.000000	0.001862
1518.000000	0.001843
1517.000000	0.001826
1516.000000	0.001822
1515.000000	0.001832
1514.000000	0.001842
1513.000000	0.001831
1512.000000	0.001792
1511.000000	0.001737
1510.000000	0.001693
1509.000000	0.001680
1508.000000	0.001693
1507.000000	0.001675
1506.000000	0.001606
1505.000000	0.001551
1504.000000	0.001540
1503.000000	0.001543
1502.000000	0.001546
1501.000000	0.001545
1500.000000	0.001547
1499.000000	0.001555
1498.000000	0.001563
1497.000000	0.001552
1496.000000	0.001514
1495.000000	0.001470
1494.000000	0.001443
1493.000000	0.001442
1492.000000	0.001456
1491.000000	0.001468
1490.000000	0.001470
1489.000000	0.001477
1488.000000	0.001506
1487.000000	0.001539
1486.000000	0.001559
1485.000000	0.001573
1484.000000	0.001594
1483.000000	0.001619
1482.000000	0.001639
1481.000000	0.001660
1480.000000	0.001694
1479.000000	0.001743
1478.000000	0.001792
1477.000000	0.001825
1476.000000	0.001836
1475.000000	0.001834
1474.000000	0.001838
1473.000000	0.001873
1472.000000	0.001957
1471.000000	0.002068
1470.000000	0.002175
1469.000000	0.002265
1468.000000	0.002343
1467.000000	0.002408
1466.000000	0.002458
1465.000000	0.002488
1464.000000	0.002504
1463.000000	0.002521
1462.000000	0.002544
1461.000000	0.002571
1460.000000	0.002600
1459.000000	0.002631
1458.000000	0.002654
1457.000000	0.002657
1456.000000	0.002656
1455.000000	0.002680
1454.000000	0.002722
1453.000000	0.002762
1452.000000	0.002795
1451.000000	0.002826
1450.000000	0.002857
1449.000000	0.002882
1448.000000	0.002895
1447.000000	0.002906
1446.000000	0.002931
1445.000000	0.002971
1444.000000	0.003014
1443.000000	0.003046
1442.000000	0.003063
1441.000000	0.003067
1440.000000	0.003067
1439.000000	0.003071
1438.000000	0.003080
1437.000000	0.003080
1436.000000	0.003065
1435.000000	0.003059
1434.000000	0.003083
1433.000000	0.003128
1432.000000	0.003176
1431.000000	0.003210
1430.000000	0.003224
1429.000000	0.003223
1428.000000	0.003218
1427.000000	0.003221
1426.000000	0.003237
1425.000000	0.003264
1424.000000	0.003290
1423.000000	0.003310
1422.000000	0.003329
1421.000000	0.003343
1420.000000	0.003337
1419.000000	0.003307
1418.000000	0.003281
1417.000000	0.003277
1416.000000	0.003281
1415.000000	0.003276
1414.000000	0.003266
1413.000000	0.003260
1412.000000	0.003256
1411.000000	0.003245
1410.000000	0.003228
1409.000000	0.003212
1408.000000	0.003200
1407.000000	0.003187
1406.000000	0.003168
1405.000000	0.003148
1404.000000	0.003132
1403.000000	0.003125
1402.000000	0.003129
1401.000000	0.003137
1400.000000	0.003134
1399.000000	0.003111
1398.000000	0.003074
1397.000000	0.003037
1396.000000	0.003008
1395.000000	0.002990
1394.000000	0.002986
1393.000000	0.002994
1392.000000	0.003002
1391.000000	0.003002
1390.000000	0.002995
1389.000000	0.002981
1388.000000	0.002953
1387.000000	0.002916
1386.000000	0.002888
1385.000000	0.002884
1384.000000	0.002895
1383.000000	0.002898
1382.000000	0.002882
1381.000000	0.002847
1380.000000	0.002805
1379.000000	0.002764
1378.000000	0.002734
1377.000000	0.002718
1376.000000	0.002708
1375.000000	0.002694
1374.000000	0.002680
1373.000000	0.002678
1372.000000	0.002685
1371.000000	0.002680
1370.000000	0.002654
1369.000000	0.002615
1368.000000	0.002580
1367.000000	0.002560
1366.000000	0.002548
1365.000000	0.002534
1364.000000	0.002508
1363.000000	0.002475
1362.000000	0.002451
1361.000000	0.002449
1360.000000	0.002460
1359.000000	0.002456
1358.000000	0.002427
1357.000000	0.002387
1356.000000	0.002356
1355.000000	0.002336
1354.000000	0.002314
1353.000000	0.002286
1352.000000	0.002264
1351.000000	0.002262
1350.000000	0.002275
1349.000000	0.002293
1348.000000	0.002306
1347.000000	0.002317
1346.000000	0.002328
1345.000000	0.002339
1344.000000	0.002347
1343.000000	0.002347
1342.000000	0.002338
1341.000000	0.002330
1340.000000	0.002341
1339.000000	0.002381
1338.000000	0.002443
1337.000000	0.002517
1336.000000	0.002600
1335.000000	0.002695
1334.000000	0.002801
1333.000000	0.002915
1332.000000	0.003027
1331.000000	0.003134
1330.000000	0.003237
1329.000000	0.003347
1328.000000	0.003472
1327.000000	0.003607
1326.000000	0.003738
1325.000000	0.003850
1324.000000	0.003936
1323.000000	0.003998
1322.000000	0.004036
1321.000000	0.004051
1320.000000	0.004039
1319.000000	0.003997
1318.000000	0.003919
1317.000000	0.003808
1316.000000	0.003677
1315.000000	0.003543
1314.000000	0.003412
1313.000000	0.003280
1312.000000	0.003144
1311.000000	0.003010
1310.000000	0.002887
1309.000000	0.002780
1308.000000	0.002687
1307.000000	0.002602
1306.000000	0.002519
1305.000000	0.002435
1304.000000	0.002351
1303.000000	0.002274
1302.000000	0.002206
1301.000000	0.002145
1300.000000	0.002086
1299.000000	0.002034
1298.000000	0.001991
1297.000000	0.001956
1296.000000	0.001924
1295.000000	0.001890
1294.000000	0.001853
1293.000000	0.001814
1292.000000	0.001776
1291.000000	0.001747
1290.000000	0.001729
1289.000000	0.001709
1288.000000	0.001672
1287.000000	0.001616
1286.000000	0.001556
1285.000000	0.001506
1284.000000	0.001474
1283.000000	0.001457
1282.000000	0.001453
1281.000000	0.001456
1280.000000	0.001457
1279.000000	0.001450
1278.000000	0.001428
1277.000000	0.001394
1276.000000	0.001359
1275.000000	0.001340
1274.000000	0.001343
1273.000000	0.001356
1272.000000	0.001367
1271.000000	0.001371
1270.000000	0.001378
1269.000000	0.001393
1268.000000	0.001411
1267.000000	0.001423
1266.000000	0.001429
1265.000000	0.001436
1264.000000	0.001448
1263.000000	0.001471
1262.000000	0.001505
1261.000000	0.001542
1260.000000	0.001569
1259.000000	0.001579
1258.000000	0.001579
1257.000000	0.001580
1256.000000	0.001593
1255.000000	0.001622
1254.000000	0.001662
1253.000000	0.001698
1252.000000	0.001712
1251.000000	0.001693
1250.000000	0.001654
1249.000000	0.001624
1248.000000	0.001622
1247.000000	0.001648
1246.000000	0.001681
1245.000000	0.001706
1244.000000	0.001715
1243.000000	0.001709
1242.000000	0.001692
1241.000000	0.001670
1240.000000	0.001654
1239.000000	0.001653
1238.000000	0.001667
1237.000000	0.001687
1236.000000	0.001697
1235.000000	0.001698
1234.000000	0.001692
1233.000000	0.001681
1232.000000	0.001661
1231.000000	0.001626
1230.000000	0.001584
1229.000000	0.001538
1228.000000	0.001488
1227.000000	0.001435
1226.000000	0.001386
1225.000000	0.001347
1224.000000	0.001318
1223.000000	0.001288
1222.000000	0.001256
1221.000000	0.001227
1220.000000	0.001201
1219.000000	0.001174
1218.000000	0.001139
1217.000000	0.001099
1216.000000	0.001063
1215.000000	0.001033
1214.000000	0.001006
1213.000000	0.000979
1212.000000	0.000954
1211.000000	0.000934
1210.000000	0.000919
1209.000000	0.000906
1208.000000	0.000894
1207.000000	0.000886
1206.000000	0.000887
1205.000000	0.000894
1204.000000	0.000900
1203.000000	0.000900
1202.000000	0.000899
1201.000000	0.000902
1200.000000	0.000910
1199.000000	0.000921
1198.000000	0.000936
1197.000000	0.000954
1196.000000	0.000972
1195.000000	0.000986
1194.000000	0.001003
1193.000000	0.001032
1192.000000	0.001071
1191.000000	0.001103
1190.000000	0.001108
1189.000000	0.001089
1188.000000	0.001065
1187.000000	0.001058
1186.000000	0.001078
1185.000000	0.001124
1184.000000	0.001186
1183.000000	0.001249
1182.000000	0.001305
1181.000000	0.001353
1180.000000	0.001400
1179.000000	0.001457
1178.000000	0.001537
1177.000000	0.001637
1176.000000	0.001742
1175.000000	0.001829
1174.000000	0.001892
1173.000000	0.001947
1172.000000	0.002013
1171.000000	0.002087
1170.000000	0.002152
1169.000000	0.002201
1168.000000	0.002246
1167.000000	0.002300
1166.000000	0.002357
1165.000000	0.002405
1164.000000	0.002445
1163.000000	0.002489
1162.000000	0.002547
1161.000000	0.002615
1160.000000	0.002685
1159.000000	0.002750
1158.000000	0.002802
1157.000000	0.002834
1156.000000	0.002839
1155.000000	0.002821
1154.000000	0.002802
1153.000000	0.002805
1152.000000	0.002838
1151.000000	0.002882
1150.000000	0.002901
1149.000000	0.002874
1148.000000	0.002812
1147.000000	0.002747
1146.000000	0.002709
1145.000000	0.002694
1144.000000	0.002682
1143.000000	0.002657
1142.000000	0.002621
1141.000000	0.002581
1140.000000	0.002540
1139.000000	0.002494
1138.000000	0.002450
1137.000000	0.002420
1136.000000	0.002403
1135.000000	0.002388
1134.000000	0.002371
1133.000000	0.002355
1132.000000	0.002346
1131.000000	0.002341
1130.000000	0.002338
1129.000000	0.002335
1128.000000	0.002338
1127.000000	0.002343
1126.000000	0.002349
1125.000000	0.002358
1124.000000	0.002371
1123.000000	0.002377
1122.000000	0.002370
1121.000000	0.002367
1120.000000	0.002398
1119.000000	0.002473
1118.000000	0.002571
1117.000000	0.002658
1116.000000	0.002719
1115.000000	0.002757
1114.000000	0.002781
1113.000000	0.002801
1112.000000	0.002828
1111.000000	0.002866
1110.000000	0.002905
1109.000000	0.002925
1108.000000	0.002919
1107.000000	0.002900
1106.000000	0.002884
1105.000000	0.002874
1104.000000	0.002865
1103.000000	0.002858
1102.000000	0.002862
1101.000000	0.002874
1100.000000	0.002888
1099.000000	0.002900
1098.000000	0.002910
1097.000000	0.002918
1096.000000	0.002915
1095.000000	0.002900
1094.000000	0.002877
1093.000000	0.002863
1092.000000	0.002870
1091.000000	0.002903
1090.000000	0.002948
1089.000000	0.002981
1088.000000	0.002982
1087.000000	0.002952
1086.000000	0.002909
1085.000000	0.002869
1084.000000	0.002835
1083.000000	0.002810
1082.000000	0.002800
1081.000000	0.002806
1080.000000	0.002815
1079.000000	0.002808
1078.000000	0.002779
1077.000000	0.002739
1076.000000	0.002705
1075.000000	0.002684
1074.000000	0.002672
1073.000000	0.002658
1072.000000	0.002636
1071.000000	0.002616
1070.000000	0.002607
1069.000000	0.002603
1068.000000	0.002583
1067.000000	0.002540
1066.000000	0.002497
1065.000000	0.002486
1064.000000	0.002517
1063.000000	0.002566
1062.000000	0.002601
1061.000000	0.002605
1060.000000	0.002586
1059.000000	0.002561
1058.000000	0.002540
1057.000000	0.002525
1056.000000	0.002506
1055.000000	0.002483
1054.000000	0.002471
1053.000000	0.002487
1052.000000	0.002529
1051.000000	0.002576
1050.000000	0.002611
1049.000000	0.002631
1048.000000	0.002641
1047.000000	0.002643
1046.000000	0.002634
1045.000000	0.002617
1044.000000	0.002602
1043.000000	0.002593
1042.000000	0.002589
1041.000000	0.002590
1040.000000	0.002600
1039.000000	0.002621
1038.000000	0.002647
1037.000000	0.002662
1036.000000	0.002650
1035.000000	0.002618
1034.000000	0.002598
1033.000000	0.002622
1032.000000	0.002691
1031.000000	0.002778
1030.000000	0.002849
1029.000000	0.002881
1028.000000	0.002871
1027.000000	0.002833
1026.000000	0.002793
1025.000000	0.002771
1024.000000	0.002769
1023.000000	0.002774
1022.000000	0.002780
1021.000000	0.002789
1020.000000	0.002805
1019.000000	0.002815
1018.000000	0.002800
1017.000000	0.002753
1016.000000	0.002688
1015.000000	0.002638
1014.000000	0.002631
1013.000000	0.002663
1012.000000	0.002693
1011.000000	0.002679
1010.000000	0.002617
1009.000000	0.002539
1008.000000	0.002477
1007.000000	0.002438
1006.000000	0.002417
1005.000000	0.002412
1004.000000	0.002415
1003.000000	0.002402
1002.000000	0.002358
1001.000000	0.002294
1000.000000	0.002234
999.000000	0.002185
998.000000	0.002137
997.000000	0.002082
996.000000	0.002028
995.000000	0.001980
994.000000	0.001940
993.000000	0.001909
992.000000	0.001893
991.000000	0.001885
990.000000	0.001873
989.000000	0.001854
988.000000	0.001842
987.000000	0.001842
986.000000	0.001835
985.000000	0.001799
984.000000	0.001735
983.000000	0.001668
982.000000	0.001619
981.000000	0.001589
980.000000	0.001566
979.000000	0.001543
978.000000	0.001523
977.000000	0.001505
976.000000	0.001492
975.000000	0.001483
974.000000	0.001475
973.000000	0.001458
972.000000	0.001428
971.000000	0.001388
970.000000	0.001340
969.000000	0.001280
968.000000	0.001210
967.000000	0.001145
966.000000	0.001104
965.000000	0.001090
964.000000	0.001085
963.000000	0.001068
962.000000	0.001030
961.000000	0.000975
960.000000	0.000912
959.000000	0.000858
958.000000	0.000824
957.000000	0.000813
956.000000	0.000807
955.000000	0.000790
954.000000	0.000763
953.000000	0.000732
952.000000	0.000696
951.000000	0.000653
950.000000	0.000607
949.000000	0.000578
948.000000	0.000570
947.000000	0.000568
946.000000	0.000557
945.000000	0.000540
944.000000	0.000531
943.000000	0.000523
942.000000	0.000493
941.000000	0.000434
940.000000	0.000361
939.000000	0.000297
938.000000	0.000252
937.000000	0.000224
936.000000	0.000210
935.000000	0.000214
934.000000	0.000230
933.000000	0.000240
932.000000	0.000231
931.000000	0.000206
930.000000	0.000179
929.000000	0.000167
928.000000	0.000176
927.000000	0.000199
926.000000	0.000211
925.000000	0.000193
924.000000	0.000143
923.000000	0.000082
922.000000	0.000035
921.000000	0.000008
920.000000	-0.000012
919.000000	-0.000042
918.000000	-0.000078
917.000000	-0.000098
916.000000	-0.000084
915.000000	-0.000043
914.000000	-0.000007
913.000000	-0.000005
912.000000	-0.000035
911.000000	-0.000066
910.000000	-0.000071
909.000000	-0.000059
908.000000	-0.000069
907.000000	-0.000124
906.000000	-0.000197
905.000000	-0.000242
904.000000	-0.000238
903.000000	-0.000212
902.000000	-0.000204
901.000000	-0.000222
900.000000	-0.000249
899.000000	-0.000274
898.000000	-0.000306
897.000000	-0.000354
896.000000	-0.000402
895.000000	-0.000432
894.000000	-0.000439
893.000000	-0.000442
892.000000	-0.000460
891.000000	-0.000501
890.000000	-0.000551
889.000000	-0.000581
888.000000	-0.000564
887.000000	-0.000490
886.000000	-0.000375
885.000000	-0.000246
884.000000	-0.000119
883.000000	0.000010
882.000000	0.000157
881.000000	0.000342
880.000000	0.000569
879.000000	0.000816
878.000000	0.001045
877.000000	0.001225
876.000000	0.001352
875.000000	0.001437
874.000000	0.001481
873.000000	0.001469
872.000000	0.001389
871.000000	0.001252
870.000000	0.001076
869.000000	0.000874
868.000000	0.000660
867.000000	0.000460
866.000000	0.000312
865.000000	0.000238
864.000000	0.000219
863.000000	0.000208
862.000000	0.000166
861.000000	0.000087
860.000000	-0.000002
859.000000	-0.000080
858.000000	-0.000136
857.000000	-0.000171
856.000000	-0.000194
855.000000	-0.000228
854.000000	-0.000299
853.000000	-0.000403
852.000000	-0.000485
851.000000	-0.000483
850.000000	-0.000398
849.000000	-0.000296
848.000000	-0.000246
847.000000	-0.000261
846.000000	-0.000302
845.000000	-0.000332
844.000000	-0.000345
843.000000	-0.000359
842.000000	-0.000388
841.000000	-0.000431
840.000000	-0.000474
839.000000	-0.000503
838.000000	-0.000509
837.000000	-0.000487
836.000000	-0.000438
835.000000	-0.000373
834.000000	-0.000311
833.000000	-0.000278
832.000000	-0.000288
831.000000	-0.000326
830.000000	-0.000366
829.000000	-0.000395
828.000000	-0.000427
827.000000	-0.000478
826.000000	-0.000539
825.000000	-0.000576
824.000000	-0.000563
823.000000	-0.000510
822.000000	-0.000454
821.000000	-0.000429
820.000000	-0.000440
819.000000	-0.000462
818.000000	-0.000472
817.000000	-0.000461
816.000000	-0.000443
815.000000	-0.000436
814.000000	-0.000448
813.000000	-0.000468
812.000000	-0.000477
811.000000	-0.000468
810.000000	-0.000459
809.000000	-0.000469
808.000000	-0.000500
807.000000	-0.000530
806.000000	-0.000527
805.000000	-0.000481
804.000000	-0.000418
803.000000	-0.000379
802.000000	-0.000382
801.000000	-0.000408
800.000000	-0.000428
799.000000	-0.000442
798.000000	-0.000468
797.000000	-0.000502
796.000000	-0.000502
795.000000	-0.000437
794.000000	-0.000323
793.000000	-0.000208
792.000000	-0.000123
791.000000	-0.000069
790.000000	-0.000040
789.000000	-0.000032
788.000000	-0.000040
787.000000	-0.000062
786.000000	-0.000093
785.000000	-0.000118
784.000000	-0.000111
783.000000	-0.000059
782.000000	0.000005
781.000000	0.000034
780.000000	0.000016
779.000000	-0.000018
778.000000	-0.000035
777.000000	-0.000032
776.000000	-0.000023
775.000000	-0.000014
774.000000	0.000000
773.000000	0.000017
772.000000	0.000022
771.000000	0.000003
770.000000	-0.000041
769.000000	-0.000101
768.000000	-0.000155
767.000000	-0.000176
766.000000	-0.000158
765.000000	-0.000109
764.000000	-0.000051
763.000000	-0.000005
762.000000	0.000005
761.000000	-0.000032
760.000000	-0.000095
759.000000	-0.000142
758.000000	-0.000152
757.000000	-0.000143
756.000000	-0.000142
755.000000	-0.000157
754.000000	-0.000168
753.000000	-0.000156
752.000000	-0.000118
751.000000	-0.000071
750.000000	-0.000046
749.000000	-0.000074
748.000000	-0.000155
747.000000	-0.000248
746.000000	-0.000306
745.000000	-0.000317
744.000000	-0.000301
743.000000	-0.000284
742.000000	-0.000276
741.000000	-0.000283
740.000000	-0.000309
739.000000	-0.000345
738.000000	-0.000373
737.000000	-0.000379
736.000000	-0.000366
735.000000	-0.000351
734.000000	-0.000344
733.000000	-0.000339
732.000000	-0.000321
731.000000	-0.000296
730.000000	-0.000290
729.000000	-0.000316
728.000000	-0.000359
727.000000	-0.000396
726.000000	-0.000419
725.000000	-0.000436
724.000000	-0.000447
723.000000	-0.000450
722.000000	-0.000450
721.000000	-0.000458
720.000000	-0.000468
719.000000	-0.000453
718.000000	-0.000392
717.000000	-0.000289
716.000000	-0.000158
715.000000	-0.000006
714.000000	0.000151
713.000000	0.000277
712.000000	0.000330
711.000000	0.000293
710.000000	0.000181
709.000000	0.000041
708.000000	-0.000068
707.000000	-0.000112
706.000000	-0.000099
705.000000	-0.000063
704.000000	-0.000038
703.000000	-0.000040
702.000000	-0.000076
701.000000	-0.000146
700.000000	-0.000219
699.000000	-0.000256
698.000000	-0.000247
697.000000	-0.000223
696.000000	-0.000222
695.000000	-0.000250
694.000000	-0.000287
693.000000	-0.000317
692.000000	-0.000332
691.000000	-0.000328
690.000000	-0.000316
689.000000	-0.000318
688.000000	-0.000347
687.000000	-0.000401
686.000000	-0.000477
685.000000	-0.000565
684.000000	-0.000623
683.000000	-0.000606
682.000000	-0.000523
681.000000	-0.000430
680.000000	-0.000356
679.000000	-0.000296
678.000000	-0.000268
677.000000	-0.000306
676.000000	-0.000380
675.000000	-0.000411
674.000000	-0.000353
673.000000	-0.000249
672.000000	-0.000185
671.000000	-0.000219
670.000000	-0.000363
669.000000	-0.000603
668.000000	-0.000750
667.000000	-0.000589
666.000000	-0.000376
665.000000	-0.000246
664.000000	-0.000161
663.000000	-0.000139
662.000000	-0.000168
661.000000	-0.000195
660.000000	-0.000176
659.000000	-0.000135
658.000000	-0.000124
657.000000	-0.000144
656.000000	-0.000167
655.000000	-0.000193
654.000000	-0.000216
653.000000	-0.000202
652.000000	-0.000137
651.000000	-0.000064
650.000000	-0.000022
649.000000	-0.000001
648.000000	0.000018
647.000000	0.000016
646.000000	-0.000032
645.000000	-0.000112
644.000000	-0.000199
643.000000	-0.000278
642.000000	-0.000337
641.000000	-0.000363
640.000000	-0.000363
639.000000	-0.000369
638.000000	-0.000398
637.000000	-0.000432
636.000000	-0.000446
635.000000	-0.000423
634.000000	-0.000351
633.000000	-0.000236
632.000000	-0.000113
631.000000	-0.000020
630.000000	0.000038
629.000000	0.000080
628.000000	0.000094
627.000000	0.000057
626.000000	-0.000004
625.000000	-0.000015
624.000000	0.000059
623.000000	0.000182
622.000000	0.000292
621.000000	0.000353
620.000000	0.000353
619.000000	0.000287
618.000000	0.000177
617.000000	0.000069
616.000000	0.000006
615.000000	0.000000
614.000000	0.000051
613.000000	0.000143
612.000000	0.000241
611.000000	0.000306
610.000000	0.000331
609.000000	0.000335
608.000000	0.000325
607.000000	0.000295
606.000000	0.000273
605.000000	0.000308
604.000000	0.000398
603.000000	0.000492
602.000000	0.000558
601.000000	0.000616
600.000000	0.000679
599.000000	0.000711
598.000000	0.000671
597.000000	0.000579
596.000000	0.000502
595.000000	0.000475
594.000000	0.000474
593.000000	0.000444
592.000000	0.000351
591.000000	0.000225
590.000000	0.000148
589.000000	0.000176
588.000000	0.000282
587.000000	0.000375
586.000000	0.000393
585.000000	0.000342
584.000000	0.000268
583.000000	0.000211
582.000000	0.000195
581.000000	0.000215
580.000000	0.000221
579.000000	0.000153
578.000000	0.000017
577.000000	-0.000098
576.000000	-0.000112
575.000000	-0.000038
574.000000	0.000038
573.000000	0.000046
572.000000	-0.000025
571.000000	-0.000141
570.000000	-0.000253
569.000000	-0.000320
568.000000	-0.000330
567.000000	-0.000289
566.000000	-0.000209
565.000000	-0.000107
564.000000	-0.000021
563.000000	0.000014
562.000000	0.000010
561.000000	0.000011
560.000000	0.000020
559.000000	-0.000026
558.000000	-0.000167
557.000000	-0.000353
556.000000	-0.000475
555.000000	-0.000458
554.000000	-0.000325
553.000000	-0.000170
552.000000	-0.000102
551.000000	-0.000178
550.000000	-0.000365
549.000000	-0.000561
548.000000	-0.000662
547.000000	-0.000631
546.000000	-0.000499
545.000000	-0.000336
544.000000	-0.000210
543.000000	-0.000164
542.000000	-0.000207
541.000000	-0.000327
540.000000	-0.000495
539.000000	-0.000651
538.000000	-0.000712
537.000000	-0.000647
536.000000	-0.000520
535.000000	-0.000429
534.000000	-0.000397
533.000000	-0.000370
532.000000	-0.000303
531.000000	-0.000209
530.000000	-0.000118
529.000000	-0.000028
528.000000	0.000089
527.000000	0.000255
526.000000	0.000451
525.000000	0.000588
524.000000	0.000547
523.000000	0.000290
522.000000	-0.000069
521.000000	-0.000342
520.000000	-0.000436
519.000000	-0.000400
518.000000	-0.000294
517.000000	-0.000108
516.000000	0.000159
515.000000	0.000407
514.000000	0.000530
513.000000	0.000534
512.000000	0.000488
511.000000	0.000411
510.000000	0.000278
509.000000	0.000115
508.000000	0.000023
507.000000	0.000081
506.000000	0.000232
505.000000	0.000320
504.000000	0.000235
503.000000	-0.000001
502.000000	-0.000256
501.000000	-0.000411
500.000000	-0.000439
499.000000	-0.000352
498.000000	-0.000144
497.000000	0.000148
496.000000	0.000385
495.000000	0.000433
494.000000	0.000325
493.000000	0.000222
492.000000	0.000220
491.000000	0.000252
490.000000	0.000228
489.000000	0.000157
488.000000	0.000116
487.000000	0.000160
486.000000	0.000313
485.000000	0.000544
484.000000	0.000730
483.000000	0.000731
482.000000	0.000560
481.000000	0.000382
480.000000	0.000291
479.000000	0.000211
478.000000	0.000062
477.000000	-0.000096
476.000000	-0.000178
475.000000	-0.000239
474.000000	-0.000381
473.000000	-0.000556
472.000000	-0.000623
471.000000	-0.000590
470.000000	-0.000593
469.000000	-0.000640
468.000000	-0.000585
467.000000	-0.000376
466.000000	-0.000164
465.000000	-0.000115
464.000000	-0.000222
463.000000	-0.000378
462.000000	-0.000516
461.000000	-0.000648
460.000000	-0.000775
459.000000	-0.000827
458.000000	-0.000707
457.000000	-0.000425
456.000000	-0.000138
455.000000	0.000004
454.000000	-0.000014
453.000000	-0.000118
452.000000	-0.000250
451.000000	-0.000413
450.000000	-0.000583
