PE IR       SUBTECH     SPECTRUM    ASCII       PEDS        4.00        
   -1
P12-Noir031_1.ASC
23/06/09
15:30:01.00
23/06/09
15:45:29.00
uco
Sample 031 By uco Date Friday, June 09 2023
450.000000
#HDR
-1
-1
#GR
cm-1
A
1.0
0.0
4000.000000
-1.000000
3551
8
0.002527
-0.002811
#DATA
4000.000000	-0.001103
3999.000000	-0.001121
3998.000000	-0.001129
3997.000000	-0.001122
3996.000000	-0.001102
3995.000000	-0.001074
3994.000000	-0.001049
3993.000000	-0.001032
3992.000000	-0.001026
3991.000000	-0.001029
3990.000000	-0.001039
3989.000000	-0.001049
3988.000000	-0.001058
3987.000000	-0.001065
3986.000000	-0.001073
3985.000000	-0.001078
3984.000000	-0.001078
3983.000000	-0.001073
3982.000000	-0.001064
3981.000000	-0.001056
3980.000000	-0.001052
3979.000000	-0.001056
3978.000000	-0.001069
3977.000000	-0.001087
3976.000000	-0.001106
3975.000000	-0.001117
3974.000000	-0.001119
3973.000000	-0.001111
3972.000000	-0.001096
3971.000000	-0.001075
3970.000000	-0.001053
3969.000000	-0.001034
3968.000000	-0.001026
3967.000000	-0.001031
3966.000000	-0.001044
3965.000000	-0.001059
3964.000000	-0.001068
3963.000000	-0.001070
3962.000000	-0.001067
3961.000000	-0.001060
3960.000000	-0.001053
3959.000000	-0.001050
3958.000000	-0.001053
3957.000000	-0.001061
3956.000000	-0.001071
3955.000000	-0.001079
3954.000000	-0.001083
3953.000000	-0.001076
3952.000000	-0.001060
3951.000000	-0.001038
3950.000000	-0.001022
3949.000000	-0.001020
3948.000000	-0.001031
3947.000000	-0.001045
3946.000000	-0.001050
3945.000000	-0.001047
3944.000000	-0.001041
3943.000000	-0.001036
3942.000000	-0.001032
3941.000000	-0.001025
3940.000000	-0.001013
3939.000000	-0.000998
3938.000000	-0.000984
3937.000000	-0.000973
3936.000000	-0.000973
3935.000000	-0.000988
3934.000000	-0.001013
3933.000000	-0.001040
3932.000000	-0.001058
3931.000000	-0.001061
3930.000000	-0.001050
3929.000000	-0.001029
3928.000000	-0.001003
3927.000000	-0.000979
3926.000000	-0.000963
3925.000000	-0.000958
3924.000000	-0.000964
3923.000000	-0.000976
3922.000000	-0.000988
3921.000000	-0.000989
3920.000000	-0.000975
3919.000000	-0.000952
3918.000000	-0.000934
3917.000000	-0.000934
3916.000000	-0.000943
3915.000000	-0.000948
3914.000000	-0.000944
3913.000000	-0.000938
3912.000000	-0.000942
3911.000000	-0.000956
3910.000000	-0.000977
3909.000000	-0.000998
3908.000000	-0.001017
3907.000000	-0.001035
3906.000000	-0.001052
3905.000000	-0.001065
3904.000000	-0.001071
3903.000000	-0.001065
3902.000000	-0.001053
3901.000000	-0.001040
3900.000000	-0.001029
3899.000000	-0.001017
3898.000000	-0.001002
3897.000000	-0.000984
3896.000000	-0.000969
3895.000000	-0.000956
3894.000000	-0.000943
3893.000000	-0.000930
3892.000000	-0.000921
3891.000000	-0.000916
3890.000000	-0.000905
3889.000000	-0.000886
3888.000000	-0.000875
3887.000000	-0.000892
3886.000000	-0.000941
3885.000000	-0.000995
3884.000000	-0.001022
3883.000000	-0.001015
3882.000000	-0.000994
3881.000000	-0.000982
3880.000000	-0.000979
3879.000000	-0.000972
3878.000000	-0.000953
3877.000000	-0.000931
3876.000000	-0.000921
3875.000000	-0.000919
3874.000000	-0.000909
3873.000000	-0.000884
3872.000000	-0.000862
3871.000000	-0.000874
3870.000000	-0.000930
3869.000000	-0.000994
3868.000000	-0.001029
3867.000000	-0.001030
3866.000000	-0.001010
3865.000000	-0.000982
3864.000000	-0.000954
3863.000000	-0.000935
3862.000000	-0.000934
3861.000000	-0.000950
3860.000000	-0.000972
3859.000000	-0.000991
3858.000000	-0.001002
3857.000000	-0.001009
3856.000000	-0.001016
3855.000000	-0.001026
3854.000000	-0.001046
3853.000000	-0.001069
3852.000000	-0.001073
3851.000000	-0.001055
3850.000000	-0.001034
3849.000000	-0.001018
3848.000000	-0.001005
3847.000000	-0.000988
3846.000000	-0.000960
3845.000000	-0.000925
3844.000000	-0.000895
3843.000000	-0.000885
3842.000000	-0.000898
3841.000000	-0.000928
3840.000000	-0.000966
3839.000000	-0.001004
3838.000000	-0.001037
3837.000000	-0.001059
3836.000000	-0.001063
3835.000000	-0.001052
3834.000000	-0.001037
3833.000000	-0.001022
3832.000000	-0.001008
3831.000000	-0.000987
3830.000000	-0.000957
3829.000000	-0.000925
3828.000000	-0.000908
3827.000000	-0.000919
3826.000000	-0.000950
3825.000000	-0.000986
3824.000000	-0.001013
3823.000000	-0.001031
3822.000000	-0.001045
3821.000000	-0.001061
3820.000000	-0.001072
3819.000000	-0.001075
3818.000000	-0.001078
3817.000000	-0.001089
3816.000000	-0.001100
3815.000000	-0.001090
3814.000000	-0.001050
3813.000000	-0.000994
3812.000000	-0.000943
3811.000000	-0.000907
3810.000000	-0.000883
3809.000000	-0.000868
3808.000000	-0.000868
3807.000000	-0.000892
3806.000000	-0.000936
3805.000000	-0.000983
3804.000000	-0.001024
3803.000000	-0.001061
3802.000000	-0.001096
3801.000000	-0.001115
3800.000000	-0.001096
3799.000000	-0.001043
3798.000000	-0.000976
3797.000000	-0.000911
3796.000000	-0.000858
3795.000000	-0.000819
3794.000000	-0.000802
3793.000000	-0.000810
3792.000000	-0.000835
3791.000000	-0.000863
3790.000000	-0.000879
3789.000000	-0.000883
3788.000000	-0.000883
3787.000000	-0.000883
3786.000000	-0.000891
3785.000000	-0.000907
3784.000000	-0.000931
3783.000000	-0.000957
3782.000000	-0.000981
3781.000000	-0.000998
3780.000000	-0.001003
3779.000000	-0.000993
3778.000000	-0.000971
3777.000000	-0.000946
3776.000000	-0.000928
3775.000000	-0.000918
3774.000000	-0.000912
3773.000000	-0.000906
3772.000000	-0.000907
3771.000000	-0.000923
3770.000000	-0.000952
3769.000000	-0.000977
3768.000000	-0.000985
3767.000000	-0.000979
3766.000000	-0.000969
3765.000000	-0.000962
3764.000000	-0.000958
3763.000000	-0.000955
3762.000000	-0.000954
3761.000000	-0.000954
3760.000000	-0.000956
3759.000000	-0.000966
3758.000000	-0.000987
3757.000000	-0.001015
3756.000000	-0.001046
3755.000000	-0.001079
3754.000000	-0.001111
3753.000000	-0.001132
3752.000000	-0.001135
3751.000000	-0.001128
3750.000000	-0.001124
3749.000000	-0.001120
3748.000000	-0.001106
3747.000000	-0.001082
3746.000000	-0.001055
3745.000000	-0.001042
3744.000000	-0.001040
3743.000000	-0.001033
3742.000000	-0.001019
3741.000000	-0.001011
3740.000000	-0.001013
3739.000000	-0.001020
3738.000000	-0.001023
3737.000000	-0.001017
3736.000000	-0.001000
3735.000000	-0.000978
3734.000000	-0.000959
3733.000000	-0.000947
3732.000000	-0.000940
3731.000000	-0.000928
3730.000000	-0.000908
3729.000000	-0.000880
3728.000000	-0.000853
3727.000000	-0.000831
3726.000000	-0.000816
3725.000000	-0.000805
3724.000000	-0.000796
3723.000000	-0.000790
3722.000000	-0.000794
3721.000000	-0.000812
3720.000000	-0.000843
3719.000000	-0.000881
3718.000000	-0.000915
3717.000000	-0.000932
3716.000000	-0.000932
3715.000000	-0.000927
3714.000000	-0.000933
3713.000000	-0.000961
3712.000000	-0.001004
3711.000000	-0.001038
3710.000000	-0.001040
3709.000000	-0.001014
3708.000000	-0.000985
3707.000000	-0.000970
3706.000000	-0.000969
3705.000000	-0.000974
3704.000000	-0.000980
3703.000000	-0.000984
3702.000000	-0.000985
3701.000000	-0.000975
3700.000000	-0.000946
3699.000000	-0.000904
3698.000000	-0.000868
3697.000000	-0.000852
3696.000000	-0.000861
3695.000000	-0.000891
3694.000000	-0.000930
3693.000000	-0.000971
3692.000000	-0.001000
3691.000000	-0.001008
3690.000000	-0.001003
3689.000000	-0.000999
3688.000000	-0.001002
3687.000000	-0.001001
3686.000000	-0.000994
3685.000000	-0.000985
3684.000000	-0.000980
3683.000000	-0.000981
3682.000000	-0.000990
3681.000000	-0.001008
3680.000000	-0.001032
3679.000000	-0.001051
3678.000000	-0.001060
3677.000000	-0.001067
3676.000000	-0.001091
3675.000000	-0.001134
3674.000000	-0.001165
3673.000000	-0.001166
3672.000000	-0.001140
3671.000000	-0.001097
3670.000000	-0.001054
3669.000000	-0.001022
3668.000000	-0.000997
3667.000000	-0.000968
3666.000000	-0.000937
3665.000000	-0.000908
3664.000000	-0.000892
3663.000000	-0.000892
3662.000000	-0.000901
3661.000000	-0.000905
3660.000000	-0.000895
3659.000000	-0.000871
3658.000000	-0.000842
3657.000000	-0.000825
3656.000000	-0.000832
3655.000000	-0.000856
3654.000000	-0.000887
3653.000000	-0.000914
3652.000000	-0.000934
3651.000000	-0.000943
3650.000000	-0.000949
3649.000000	-0.000964
3648.000000	-0.000979
3647.000000	-0.000975
3646.000000	-0.000950
3645.000000	-0.000912
3644.000000	-0.000877
3643.000000	-0.000854
3642.000000	-0.000847
3641.000000	-0.000849
3640.000000	-0.000850
3639.000000	-0.000846
3638.000000	-0.000840
3637.000000	-0.000833
3636.000000	-0.000824
3635.000000	-0.000809
3634.000000	-0.000793
3633.000000	-0.000779
3632.000000	-0.000770
3631.000000	-0.000764
3630.000000	-0.000760
3629.000000	-0.000764
3628.000000	-0.000769
3627.000000	-0.000763
3626.000000	-0.000746
3625.000000	-0.000727
3624.000000	-0.000713
3623.000000	-0.000707
3622.000000	-0.000715
3621.000000	-0.000741
3620.000000	-0.000774
3619.000000	-0.000793
3618.000000	-0.000777
3617.000000	-0.000735
3616.000000	-0.000695
3615.000000	-0.000678
3614.000000	-0.000682
3613.000000	-0.000688
3612.000000	-0.000682
3611.000000	-0.000666
3610.000000	-0.000655
3609.000000	-0.000658
3608.000000	-0.000672
3607.000000	-0.000680
3606.000000	-0.000666
3605.000000	-0.000625
3604.000000	-0.000565
3603.000000	-0.000504
3602.000000	-0.000466
3601.000000	-0.000464
3600.000000	-0.000488
3599.000000	-0.000514
3598.000000	-0.000525
3597.000000	-0.000525
3596.000000	-0.000524
3595.000000	-0.000523
3594.000000	-0.000515
3593.000000	-0.000498
3592.000000	-0.000478
3591.000000	-0.000464
3590.000000	-0.000458
3589.000000	-0.000459
3588.000000	-0.000465
3587.000000	-0.000473
3586.000000	-0.000478
3585.000000	-0.000478
3584.000000	-0.000474
3583.000000	-0.000465
3582.000000	-0.000447
3581.000000	-0.000422
3580.000000	-0.000396
3579.000000	-0.000379
3578.000000	-0.000375
3577.000000	-0.000382
3576.000000	-0.000392
3575.000000	-0.000401
3574.000000	-0.000410
3573.000000	-0.000419
3572.000000	-0.000425
3571.000000	-0.000420
3570.000000	-0.000401
3569.000000	-0.000372
3568.000000	-0.000345
3567.000000	-0.000332
3566.000000	-0.000327
3565.000000	-0.000317
3564.000000	-0.000298
3563.000000	-0.000276
3562.000000	-0.000256
3561.000000	-0.000243
3560.000000	-0.000238
3559.000000	-0.000241
3558.000000	-0.000245
3557.000000	-0.000244
3556.000000	-0.000233
3555.000000	-0.000215
3554.000000	-0.000196
3553.000000	-0.000182
3552.000000	-0.000172
3551.000000	-0.000158
3550.000000	-0.000133
3549.000000	-0.000102
3548.000000	-0.000076
3547.000000	-0.000068
3546.000000	-0.000086
3545.000000	-0.000118
3544.000000	-0.000146
3543.000000	-0.000159
3542.000000	-0.000156
3541.000000	-0.000150
3540.000000	-0.000151
3539.000000	-0.000158
3538.000000	-0.000155
3537.000000	-0.000130
3536.000000	-0.000087
3535.000000	-0.000047
3534.000000	-0.000023
3533.000000	-0.000017
3532.000000	-0.000022
3531.000000	-0.000033
3530.000000	-0.000047
3529.000000	-0.000060
3528.000000	-0.000063
3527.000000	-0.000053
3526.000000	-0.000037
3525.000000	-0.000028
3524.000000	-0.000036
3523.000000	-0.000057
3522.000000	-0.000078
3521.000000	-0.000088
3520.000000	-0.000083
3519.000000	-0.000063
3518.000000	-0.000032
3517.000000	0.000005
3516.000000	0.000039
3515.000000	0.000060
3514.000000	0.000063
3513.000000	0.000051
3512.000000	0.000036
3511.000000	0.000031
3510.000000	0.000045
3509.000000	0.000079
3508.000000	0.000116
3507.000000	0.000137
3506.000000	0.000134
3505.000000	0.000117
3504.000000	0.000104
3503.000000	0.000107
3502.000000	0.000117
3501.000000	0.000119
3500.000000	0.000109
3499.000000	0.000091
3498.000000	0.000071
3497.000000	0.000049
3496.000000	0.000027
3495.000000	0.000014
3494.000000	0.000023
3493.000000	0.000052
3492.000000	0.000093
3491.000000	0.000130
3490.000000	0.000155
3489.000000	0.000163
3488.000000	0.000161
3487.000000	0.000159
3486.000000	0.000168
3485.000000	0.000192
3484.000000	0.000224
3483.000000	0.000251
3482.000000	0.000264
3481.000000	0.000267
3480.000000	0.000269
3479.000000	0.000274
3478.000000	0.000272
3477.000000	0.000250
3476.000000	0.000209
3475.000000	0.000174
3474.000000	0.000168
3473.000000	0.000195
3472.000000	0.000234
3471.000000	0.000263
3470.000000	0.000269
3469.000000	0.000254
3468.000000	0.000231
3467.000000	0.000215
3466.000000	0.000217
3465.000000	0.000237
3464.000000	0.000263
3463.000000	0.000281
3462.000000	0.000281
3461.000000	0.000268
3460.000000	0.000251
3459.000000	0.000237
3458.000000	0.000231
3457.000000	0.000228
3456.000000	0.000225
3455.000000	0.000221
3454.000000	0.000219
3453.000000	0.000223
3452.000000	0.000233
3451.000000	0.000249
3450.000000	0.000269
3449.000000	0.000289
3448.000000	0.000303
3447.000000	0.000309
3446.000000	0.000309
3445.000000	0.000308
3444.000000	0.000309
3443.000000	0.000309
3442.000000	0.000306
3441.000000	0.000300
3440.000000	0.000293
3439.000000	0.000291
3438.000000	0.000298
3437.000000	0.000309
3436.000000	0.000316
3435.000000	0.000312
3434.000000	0.000300
3433.000000	0.000290
3432.000000	0.000292
3431.000000	0.000307
3430.000000	0.000329
3429.000000	0.000349
3428.000000	0.000354
3427.000000	0.000344
3426.000000	0.000329
3425.000000	0.000322
3424.000000	0.000331
3423.000000	0.000351
3422.000000	0.000375
3421.000000	0.000396
3420.000000	0.000412
3419.000000	0.000422
3418.000000	0.000426
3417.000000	0.000427
3416.000000	0.000429
3415.000000	0.000439
3414.000000	0.000461
3413.000000	0.000492
3412.000000	0.000520
3411.000000	0.000533
3410.000000	0.000529
3409.000000	0.000518
3408.000000	0.000508
3407.000000	0.000502
3406.000000	0.000502
3405.000000	0.000512
3404.000000	0.000530
3403.000000	0.000549
3402.000000	0.000560
3401.000000	0.000561
3400.000000	0.000558
3399.000000	0.000555
3398.000000	0.000555
3397.000000	0.000562
3396.000000	0.000576
3395.000000	0.000593
3394.000000	0.000609
3393.000000	0.000617
3392.000000	0.000615
3391.000000	0.000598
3390.000000	0.000569
3389.000000	0.000540
3388.000000	0.000525
3387.000000	0.000530
3386.000000	0.000543
3385.000000	0.000547
3384.000000	0.000540
3383.000000	0.000533
3382.000000	0.000536
3381.000000	0.000545
3380.000000	0.000548
3379.000000	0.000534
3378.000000	0.000512
3377.000000	0.000500
3376.000000	0.000507
3375.000000	0.000531
3374.000000	0.000554
3373.000000	0.000555
3372.000000	0.000532
3371.000000	0.000498
3370.000000	0.000477
3369.000000	0.000486
3368.000000	0.000517
3367.000000	0.000546
3366.000000	0.000557
3365.000000	0.000553
3364.000000	0.000553
3363.000000	0.000571
3362.000000	0.000597
3361.000000	0.000608
3360.000000	0.000593
3359.000000	0.000562
3358.000000	0.000542
3357.000000	0.000553
3356.000000	0.000594
3355.000000	0.000639
3354.000000	0.000667
3353.000000	0.000668
3352.000000	0.000650
3351.000000	0.000628
3350.000000	0.000610
3349.000000	0.000599
3348.000000	0.000599
3347.000000	0.000614
3346.000000	0.000642
3345.000000	0.000678
3344.000000	0.000710
3343.000000	0.000729
3342.000000	0.000733
3341.000000	0.000720
3340.000000	0.000695
3339.000000	0.000666
3338.000000	0.000640
3337.000000	0.000623
3336.000000	0.000617
3335.000000	0.000621
3334.000000	0.000632
3333.000000	0.000640
3332.000000	0.000635
3331.000000	0.000614
3330.000000	0.000587
3329.000000	0.000569
3328.000000	0.000568
3327.000000	0.000583
3326.000000	0.000605
3325.000000	0.000625
3324.000000	0.000639
3323.000000	0.000649
3322.000000	0.000657
3321.000000	0.000662
3320.000000	0.000653
3319.000000	0.000627
3318.000000	0.000592
3317.000000	0.000568
3316.000000	0.000567
3315.000000	0.000588
3314.000000	0.000618
3313.000000	0.000645
3312.000000	0.000665
3311.000000	0.000679
3310.000000	0.000685
3309.000000	0.000680
3308.000000	0.000661
3307.000000	0.000633
3306.000000	0.000609
3305.000000	0.000603
3304.000000	0.000621
3303.000000	0.000655
3302.000000	0.000690
3301.000000	0.000713
3300.000000	0.000718
3299.000000	0.000705
3298.000000	0.000686
3297.000000	0.000672
3296.000000	0.000668
3295.000000	0.000666
3294.000000	0.000658
3293.000000	0.000645
3292.000000	0.000637
3291.000000	0.000641
3290.000000	0.000658
3289.000000	0.000680
3288.000000	0.000698
3287.000000	0.000709
3286.000000	0.000712
3285.000000	0.000708
3284.000000	0.000695
3283.000000	0.000677
3282.000000	0.000664
3281.000000	0.000667
3280.000000	0.000687
3279.000000	0.000708
3278.000000	0.000709
3277.000000	0.000685
3276.000000	0.000650
3275.000000	0.000623
3274.000000	0.000614
3273.000000	0.000621
3272.000000	0.000628
3271.000000	0.000624
3270.000000	0.000609
3269.000000	0.000596
3268.000000	0.000600
3267.000000	0.000624
3266.000000	0.000657
3265.000000	0.000686
3264.000000	0.000701
3263.000000	0.000700
3262.000000	0.000686
3261.000000	0.000666
3260.000000	0.000647
3259.000000	0.000630
3258.000000	0.000615
3257.000000	0.000606
3256.000000	0.000609
3255.000000	0.000622
3254.000000	0.000636
3253.000000	0.000641
3252.000000	0.000633
3251.000000	0.000619
3250.000000	0.000611
3249.000000	0.000618
3248.000000	0.000637
3247.000000	0.000656
3246.000000	0.000669
3245.000000	0.000681
3244.000000	0.000699
3243.000000	0.000721
3242.000000	0.000734
3241.000000	0.000725
3240.000000	0.000698
3239.000000	0.000671
3238.000000	0.000661
3237.000000	0.000674
3236.000000	0.000698
3235.000000	0.000716
3234.000000	0.000714
3233.000000	0.000693
3232.000000	0.000668
3231.000000	0.000647
3230.000000	0.000630
3229.000000	0.000610
3228.000000	0.000589
3227.000000	0.000577
3226.000000	0.000581
3225.000000	0.000594
3224.000000	0.000604
3223.000000	0.000602
3222.000000	0.000591
3221.000000	0.000581
3220.000000	0.000577
3219.000000	0.000584
3218.000000	0.000597
3217.000000	0.000607
3216.000000	0.000606
3215.000000	0.000595
3214.000000	0.000580
3213.000000	0.000565
3212.000000	0.000549
3211.000000	0.000535
3210.000000	0.000531
3209.000000	0.000545
3208.000000	0.000574
3207.000000	0.000608
3206.000000	0.000633
3205.000000	0.000640
3204.000000	0.000627
3203.000000	0.000603
3202.000000	0.000578
3201.000000	0.000561
3200.000000	0.000550
3199.000000	0.000540
3198.000000	0.000537
3197.000000	0.000549
3196.000000	0.000571
3195.000000	0.000592
3194.000000	0.000602
3193.000000	0.000605
3192.000000	0.000608
3191.000000	0.000611
3190.000000	0.000608
3189.000000	0.000595
3188.000000	0.000578
3187.000000	0.000560
3186.000000	0.000538
3185.000000	0.000513
3184.000000	0.000494
3183.000000	0.000491
3182.000000	0.000509
3181.000000	0.000539
3180.000000	0.000567
3179.000000	0.000586
3178.000000	0.000590
3177.000000	0.000580
3176.000000	0.000558
3175.000000	0.000530
3174.000000	0.000503
3173.000000	0.000487
3172.000000	0.000485
3171.000000	0.000495
3170.000000	0.000510
3169.000000	0.000521
3168.000000	0.000523
3167.000000	0.000517
3166.000000	0.000509
3165.000000	0.000501
3164.000000	0.000493
3163.000000	0.000483
3162.000000	0.000479
3161.000000	0.000485
3160.000000	0.000503
3159.000000	0.000523
3158.000000	0.000538
3157.000000	0.000545
3156.000000	0.000539
3155.000000	0.000521
3154.000000	0.000494
3153.000000	0.000471
3152.000000	0.000460
3151.000000	0.000459
3150.000000	0.000457
3149.000000	0.000444
3148.000000	0.000426
3147.000000	0.000415
3146.000000	0.000419
3145.000000	0.000432
3144.000000	0.000439
3143.000000	0.000426
3142.000000	0.000395
3141.000000	0.000361
3140.000000	0.000341
3139.000000	0.000342
3138.000000	0.000362
3137.000000	0.000383
3136.000000	0.000391
3135.000000	0.000378
3134.000000	0.000354
3133.000000	0.000335
3132.000000	0.000332
3131.000000	0.000345
3130.000000	0.000366
3129.000000	0.000385
3128.000000	0.000398
3127.000000	0.000404
3126.000000	0.000406
3125.000000	0.000408
3124.000000	0.000409
3123.000000	0.000405
3122.000000	0.000388
3121.000000	0.000359
3120.000000	0.000326
3119.000000	0.000304
3118.000000	0.000297
3117.000000	0.000302
3116.000000	0.000311
3115.000000	0.000322
3114.000000	0.000333
3113.000000	0.000347
3112.000000	0.000364
3111.000000	0.000375
3110.000000	0.000375
3109.000000	0.000365
3108.000000	0.000352
3107.000000	0.000344
3106.000000	0.000340
3105.000000	0.000330
3104.000000	0.000309
3103.000000	0.000283
3102.000000	0.000264
3101.000000	0.000257
3100.000000	0.000259
3099.000000	0.000259
3098.000000	0.000256
3097.000000	0.000255
3096.000000	0.000264
3095.000000	0.000281
3094.000000	0.000301
3093.000000	0.000317
3092.000000	0.000324
3091.000000	0.000321
3090.000000	0.000307
3089.000000	0.000284
3088.000000	0.000258
3087.000000	0.000237
3086.000000	0.000232
3085.000000	0.000245
3084.000000	0.000268
3083.000000	0.000293
3082.000000	0.000311
3081.000000	0.000317
3080.000000	0.000306
3079.000000	0.000280
3078.000000	0.000255
3077.000000	0.000248
3076.000000	0.000261
3075.000000	0.000280
3074.000000	0.000288
3073.000000	0.000284
3072.000000	0.000283
3071.000000	0.000296
3070.000000	0.000319
3069.000000	0.000340
3068.000000	0.000348
3067.000000	0.000341
3066.000000	0.000324
3065.000000	0.000304
3064.000000	0.000285
3063.000000	0.000268
3062.000000	0.000254
3061.000000	0.000247
3060.000000	0.000243
3059.000000	0.000240
3058.000000	0.000236
3057.000000	0.000233
3056.000000	0.000236
3055.000000	0.000245
3054.000000	0.000255
3053.000000	0.000260
3052.000000	0.000254
3051.000000	0.000240
3050.000000	0.000225
3049.000000	0.000217
3048.000000	0.000218
3047.000000	0.000221
3046.000000	0.000222
3045.000000	0.000221
3044.000000	0.000222
3043.000000	0.000226
3042.000000	0.000233
3041.000000	0.000244
3040.000000	0.000257
3039.000000	0.000267
3038.000000	0.000265
3037.000000	0.000248
3036.000000	0.000220
3035.000000	0.000191
3034.000000	0.000167
3033.000000	0.000156
3032.000000	0.000159
3031.000000	0.000162
3030.000000	0.000149
3029.000000	0.000117
3028.000000	0.000082
3027.000000	0.000065
3026.000000	0.000071
3025.000000	0.000090
3024.000000	0.000113
3023.000000	0.000133
3022.000000	0.000144
3021.000000	0.000144
3020.000000	0.000137
3019.000000	0.000133
3018.000000	0.000138
3017.000000	0.000145
3016.000000	0.000145
3015.000000	0.000137
3014.000000	0.000129
3013.000000	0.000122
3012.000000	0.000111
3011.000000	0.000094
3010.000000	0.000078
3009.000000	0.000074
3008.000000	0.000084
3007.000000	0.000100
3006.000000	0.000112
3005.000000	0.000113
3004.000000	0.000109
3003.000000	0.000110
3002.000000	0.000121
3001.000000	0.000137
3000.000000	0.000146
2999.000000	0.000140
2998.000000	0.000125
2997.000000	0.000113
2996.000000	0.000116
2995.000000	0.000131
2994.000000	0.000145
2993.000000	0.000146
2992.000000	0.000134
2991.000000	0.000120
2990.000000	0.000117
2989.000000	0.000126
2988.000000	0.000139
2987.000000	0.000151
2986.000000	0.000161
2985.000000	0.000170
2984.000000	0.000182
2983.000000	0.000192
2982.000000	0.000195
2981.000000	0.000190
2980.000000	0.000180
2979.000000	0.000167
2978.000000	0.000157
2977.000000	0.000149
2976.000000	0.000147
2975.000000	0.000152
2974.000000	0.000162
2973.000000	0.000169
2972.000000	0.000165
2971.000000	0.000151
2970.000000	0.000138
2969.000000	0.000140
2968.000000	0.000160
2967.000000	0.000187
2966.000000	0.000210
2965.000000	0.000226
2964.000000	0.000237
2963.000000	0.000248
2962.000000	0.000258
2961.000000	0.000263
2960.000000	0.000263
2959.000000	0.000264
2958.000000	0.000270
2957.000000	0.000279
2956.000000	0.000283
2955.000000	0.000280
2954.000000	0.000275
2953.000000	0.000272
2952.000000	0.000266
2951.000000	0.000254
2950.000000	0.000244
2949.000000	0.000254
2948.000000	0.000290
2947.000000	0.000336
2946.000000	0.000367
2945.000000	0.000372
2944.000000	0.000357
2943.000000	0.000336
2942.000000	0.000323
2941.000000	0.000323
2940.000000	0.000338
2939.000000	0.000357
2938.000000	0.000371
2937.000000	0.000376
2936.000000	0.000371
2935.000000	0.000360
2934.000000	0.000350
2933.000000	0.000350
2932.000000	0.000365
2931.000000	0.000390
2930.000000	0.000406
2929.000000	0.000403
2928.000000	0.000383
2927.000000	0.000357
2926.000000	0.000334
2925.000000	0.000315
2924.000000	0.000299
2923.000000	0.000285
2922.000000	0.000274
2921.000000	0.000271
2920.000000	0.000274
2919.000000	0.000278
2918.000000	0.000277
2917.000000	0.000273
2916.000000	0.000268
2915.000000	0.000262
2914.000000	0.000252
2913.000000	0.000241
2912.000000	0.000236
2911.000000	0.000236
2910.000000	0.000232
2909.000000	0.000219
2908.000000	0.000205
2907.000000	0.000203
2906.000000	0.000210
2905.000000	0.000218
2904.000000	0.000220
2903.000000	0.000220
2902.000000	0.000224
2901.000000	0.000227
2900.000000	0.000226
2899.000000	0.000220
2898.000000	0.000219
2897.000000	0.000225
2896.000000	0.000238
2895.000000	0.000248
2894.000000	0.000249
2893.000000	0.000238
2892.000000	0.000221
2891.000000	0.000208
2890.000000	0.000206
2889.000000	0.000210
2888.000000	0.000211
2887.000000	0.000205
2886.000000	0.000199
2885.000000	0.000202
2884.000000	0.000214
2883.000000	0.000227
2882.000000	0.000236
2881.000000	0.000239
2880.000000	0.000236
2879.000000	0.000224
2878.000000	0.000201
2877.000000	0.000181
2876.000000	0.000179
2875.000000	0.000201
2874.000000	0.000231
2873.000000	0.000250
2872.000000	0.000245
2871.000000	0.000217
2870.000000	0.000181
2869.000000	0.000153
2868.000000	0.000147
2867.000000	0.000161
2866.000000	0.000182
2865.000000	0.000193
2864.000000	0.000190
2863.000000	0.000181
2862.000000	0.000175
2861.000000	0.000174
2860.000000	0.000175
2859.000000	0.000170
2858.000000	0.000158
2857.000000	0.000139
2856.000000	0.000123
2855.000000	0.000120
2854.000000	0.000131
2853.000000	0.000147
2852.000000	0.000161
2851.000000	0.000164
2850.000000	0.000154
2849.000000	0.000132
2848.000000	0.000111
2847.000000	0.000102
2846.000000	0.000110
2845.000000	0.000122
2844.000000	0.000129
2843.000000	0.000129
2842.000000	0.000128
2841.000000	0.000128
2840.000000	0.000125
2839.000000	0.000116
2838.000000	0.000104
2837.000000	0.000091
2836.000000	0.000080
2835.000000	0.000072
2834.000000	0.000072
2833.000000	0.000078
2832.000000	0.000086
2831.000000	0.000089
2830.000000	0.000088
2829.000000	0.000083
2828.000000	0.000077
2827.000000	0.000070
2826.000000	0.000062
2825.000000	0.000056
2824.000000	0.000055
2823.000000	0.000064
2822.000000	0.000080
2821.000000	0.000093
2820.000000	0.000090
2819.000000	0.000070
2818.000000	0.000045
2817.000000	0.000030
2816.000000	0.000029
2815.000000	0.000038
2814.000000	0.000051
2813.000000	0.000066
2812.000000	0.000078
2811.000000	0.000078
2810.000000	0.000069
2809.000000	0.000062
2808.000000	0.000066
2807.000000	0.000080
2806.000000	0.000090
2805.000000	0.000083
2804.000000	0.000063
2803.000000	0.000047
2802.000000	0.000050
2801.000000	0.000070
2800.000000	0.000093
2799.000000	0.000108
2798.000000	0.000110
2797.000000	0.000101
2796.000000	0.000083
2795.000000	0.000058
2794.000000	0.000034
2793.000000	0.000019
2792.000000	0.000018
2791.000000	0.000029
2790.000000	0.000046
2789.000000	0.000067
2788.000000	0.000083
2787.000000	0.000089
2786.000000	0.000084
2785.000000	0.000074
2784.000000	0.000068
2783.000000	0.000069
2782.000000	0.000067
2781.000000	0.000057
2780.000000	0.000037
2779.000000	0.000018
2778.000000	0.000011
2777.000000	0.000021
2776.000000	0.000041
2775.000000	0.000058
2774.000000	0.000067
2773.000000	0.000070
2772.000000	0.000074
2771.000000	0.000082
2770.000000	0.000089
2769.000000	0.000092
2768.000000	0.000093
2767.000000	0.000094
2766.000000	0.000097
2765.000000	0.000095
2764.000000	0.000086
2763.000000	0.000071
2762.000000	0.000056
2761.000000	0.000051
2760.000000	0.000063
2759.000000	0.000089
2758.000000	0.000115
2757.000000	0.000127
2756.000000	0.000118
2755.000000	0.000096
2754.000000	0.000077
2753.000000	0.000065
2752.000000	0.000061
2751.000000	0.000060
2750.000000	0.000062
2749.000000	0.000066
2748.000000	0.000070
2747.000000	0.000071
2746.000000	0.000067
2745.000000	0.000057
2744.000000	0.000041
2743.000000	0.000023
2742.000000	0.000009
2741.000000	0.000007
2740.000000	0.000017
2739.000000	0.000031
2738.000000	0.000042
2737.000000	0.000047
2736.000000	0.000047
2735.000000	0.000043
2734.000000	0.000034
2733.000000	0.000025
2732.000000	0.000021
2731.000000	0.000023
2730.000000	0.000028
2729.000000	0.000031
2728.000000	0.000031
2727.000000	0.000029
2726.000000	0.000027
2725.000000	0.000025
2724.000000	0.000020
2723.000000	0.000015
2722.000000	0.000009
2721.000000	0.000002
2720.000000	-0.000006
2719.000000	-0.000012
2718.000000	-0.000009
2717.000000	0.000005
2716.000000	0.000024
2715.000000	0.000038
2714.000000	0.000040
2713.000000	0.000032
2712.000000	0.000026
2711.000000	0.000030
2710.000000	0.000045
2709.000000	0.000064
2708.000000	0.000078
2707.000000	0.000081
2706.000000	0.000072
2705.000000	0.000054
2704.000000	0.000039
2703.000000	0.000033
2702.000000	0.000039
2701.000000	0.000050
2700.000000	0.000056
2699.000000	0.000053
2698.000000	0.000042
2697.000000	0.000030
2696.000000	0.000024
2695.000000	0.000027
2694.000000	0.000033
2693.000000	0.000039
2692.000000	0.000044
2691.000000	0.000048
2690.000000	0.000054
2689.000000	0.000055
2688.000000	0.000048
2687.000000	0.000040
2686.000000	0.000042
2685.000000	0.000057
2684.000000	0.000077
2683.000000	0.000084
2682.000000	0.000072
2681.000000	0.000049
2680.000000	0.000031
2679.000000	0.000023
2678.000000	0.000021
2677.000000	0.000018
2676.000000	0.000010
2675.000000	-0.000001
2674.000000	-0.000015
2673.000000	-0.000026
2672.000000	-0.000030
2671.000000	-0.000025
2670.000000	-0.000012
2669.000000	0.000005
2668.000000	0.000024
2667.000000	0.000043
2666.000000	0.000059
2665.000000	0.000066
2664.000000	0.000069
2663.000000	0.000074
2662.000000	0.000087
2661.000000	0.000101
2660.000000	0.000112
2659.000000	0.000118
2658.000000	0.000124
2657.000000	0.000131
2656.000000	0.000132
2655.000000	0.000128
2654.000000	0.000120
2653.000000	0.000117
2652.000000	0.000120
2651.000000	0.000126
2650.000000	0.000130
2649.000000	0.000127
2648.000000	0.000114
2647.000000	0.000096
2646.000000	0.000078
2645.000000	0.000062
2644.000000	0.000048
2643.000000	0.000036
2642.000000	0.000031
2641.000000	0.000028
2640.000000	0.000019
2639.000000	0.000002
2638.000000	-0.000006
2637.000000	0.000007
2636.000000	0.000034
2635.000000	0.000054
2634.000000	0.000058
2633.000000	0.000050
2632.000000	0.000036
2631.000000	0.000017
2630.000000	-0.000006
2629.000000	-0.000024
2628.000000	-0.000030
2627.000000	-0.000032
2626.000000	-0.000038
2625.000000	-0.000053
2624.000000	-0.000076
2623.000000	-0.000103
2622.000000	-0.000126
2621.000000	-0.000130
2620.000000	-0.000105
2619.000000	-0.000058
2618.000000	-0.000006
2617.000000	0.000033
2616.000000	0.000048
2615.000000	0.000041
2614.000000	0.000018
2613.000000	-0.000007
2612.000000	-0.000029
2611.000000	-0.000049
2610.000000	-0.000076
2609.000000	-0.000111
2608.000000	-0.000147
2607.000000	-0.000181
2606.000000	-0.000208
2605.000000	-0.000219
2604.000000	-0.000208
2603.000000	-0.000182
2602.000000	-0.000162
2601.000000	-0.000165
2600.000000	-0.000188
2599.000000	-0.000219
2598.000000	-0.000246
2597.000000	-0.000262
2596.000000	-0.000260
2595.000000	-0.000241
2594.000000	-0.000215
2593.000000	-0.000190
2592.000000	-0.000175
2591.000000	-0.000175
2590.000000	-0.000193
2589.000000	-0.000225
2588.000000	-0.000254
2587.000000	-0.000260
2586.000000	-0.000242
2585.000000	-0.000217
2584.000000	-0.000205
2583.000000	-0.000208
2582.000000	-0.000222
2581.000000	-0.000232
2580.000000	-0.000225
2579.000000	-0.000200
2578.000000	-0.000173
2577.000000	-0.000172
2576.000000	-0.000211
2575.000000	-0.000278
2574.000000	-0.000338
2573.000000	-0.000363
2572.000000	-0.000345
2571.000000	-0.000300
2570.000000	-0.000259
2569.000000	-0.000243
2568.000000	-0.000250
2567.000000	-0.000263
2566.000000	-0.000265
2565.000000	-0.000259
2564.000000	-0.000253
2563.000000	-0.000252
2562.000000	-0.000254
2561.000000	-0.000261
2560.000000	-0.000275
2559.000000	-0.000294
2558.000000	-0.000310
2557.000000	-0.000315
2556.000000	-0.000312
2555.000000	-0.000306
2554.000000	-0.000306
2553.000000	-0.000314
2552.000000	-0.000332
2551.000000	-0.000353
2550.000000	-0.000367
2549.000000	-0.000366
2548.000000	-0.000351
2547.000000	-0.000333
2546.000000	-0.000325
2545.000000	-0.000337
2544.000000	-0.000360
2543.000000	-0.000372
2542.000000	-0.000358
2541.000000	-0.000323
2540.000000	-0.000290
2539.000000	-0.000268
2538.000000	-0.000248
2537.000000	-0.000223
2536.000000	-0.000204
2535.000000	-0.000206
2534.000000	-0.000223
2533.000000	-0.000232
2532.000000	-0.000218
2531.000000	-0.000194
2530.000000	-0.000190
2529.000000	-0.000218
2528.000000	-0.000264
2527.000000	-0.000296
2526.000000	-0.000292
2525.000000	-0.000260
2524.000000	-0.000231
2523.000000	-0.000236
2522.000000	-0.000273
2521.000000	-0.000317
2520.000000	-0.000341
2519.000000	-0.000335
2518.000000	-0.000312
2517.000000	-0.000289
2516.000000	-0.000276
2515.000000	-0.000274
2514.000000	-0.000280
2513.000000	-0.000290
2512.000000	-0.000301
2511.000000	-0.000307
2510.000000	-0.000303
2509.000000	-0.000287
2508.000000	-0.000260
2507.000000	-0.000224
2506.000000	-0.000189
2505.000000	-0.000173
2504.000000	-0.000196
2503.000000	-0.000263
2502.000000	-0.000346
2501.000000	-0.000410
2500.000000	-0.000431
2499.000000	-0.000416
2498.000000	-0.000382
2497.000000	-0.000347
2496.000000	-0.000317
2495.000000	-0.000301
2494.000000	-0.000303
2493.000000	-0.000325
2492.000000	-0.000361
2491.000000	-0.000397
2490.000000	-0.000417
2489.000000	-0.000405
2488.000000	-0.000359
2487.000000	-0.000299
2486.000000	-0.000253
2485.000000	-0.000243
2484.000000	-0.000267
2483.000000	-0.000305
2482.000000	-0.000336
2481.000000	-0.000355
2480.000000	-0.000366
2479.000000	-0.000368
2478.000000	-0.000356
2477.000000	-0.000328
2476.000000	-0.000292
2475.000000	-0.000257
2474.000000	-0.000220
2473.000000	-0.000175
2472.000000	-0.000134
2471.000000	-0.000116
2470.000000	-0.000123
2469.000000	-0.000144
2468.000000	-0.000168
2467.000000	-0.000196
2466.000000	-0.000233
2465.000000	-0.000275
2464.000000	-0.000312
2463.000000	-0.000337
2462.000000	-0.000344
2461.000000	-0.000330
2460.000000	-0.000300
2459.000000	-0.000278
2458.000000	-0.000277
2457.000000	-0.000289
2456.000000	-0.000297
2455.000000	-0.000290
2454.000000	-0.000281
2453.000000	-0.000281
2452.000000	-0.000287
2451.000000	-0.000290
2450.000000	-0.000283
2449.000000	-0.000269
2448.000000	-0.000259
2447.000000	-0.000257
2446.000000	-0.000257
2445.000000	-0.000247
2444.000000	-0.000223
2443.000000	-0.000197
2442.000000	-0.000189
2441.000000	-0.000198
2440.000000	-0.000214
2439.000000	-0.000225
2438.000000	-0.000232
2437.000000	-0.000241
2436.000000	-0.000254
2435.000000	-0.000269
2434.000000	-0.000290
2433.000000	-0.000317
2432.000000	-0.000341
2431.000000	-0.000353
2430.000000	-0.000345
2429.000000	-0.000321
2428.000000	-0.000286
2427.000000	-0.000247
2426.000000	-0.000212
2425.000000	-0.000193
2424.000000	-0.000203
2423.000000	-0.000244
2422.000000	-0.000306
2421.000000	-0.000366
2420.000000	-0.000399
2419.000000	-0.000402
2418.000000	-0.000386
2417.000000	-0.000372
2416.000000	-0.000369
2415.000000	-0.000377
2414.000000	-0.000391
2413.000000	-0.000399
2412.000000	-0.000387
2411.000000	-0.000349
2410.000000	-0.000300
2409.000000	-0.000269
2408.000000	-0.000275
2407.000000	-0.000307
2406.000000	-0.000338
2405.000000	-0.000349
2404.000000	-0.000343
2403.000000	-0.000341
2402.000000	-0.000358
2401.000000	-0.000389
2400.000000	-0.000420
2399.000000	-0.000442
2398.000000	-0.000458
2397.000000	-0.000464
2396.000000	-0.000447
2395.000000	-0.000400
2394.000000	-0.000335
2393.000000	-0.000284
2392.000000	-0.000265
2391.000000	-0.000272
2390.000000	-0.000288
2389.000000	-0.000311
2388.000000	-0.000344
2387.000000	-0.000379
2386.000000	-0.000400
2385.000000	-0.000409
2384.000000	-0.000426
2383.000000	-0.000467
2382.000000	-0.000517
2381.000000	-0.000555
2380.000000	-0.000578
2379.000000	-0.000592
2378.000000	-0.000598
2377.000000	-0.000586
2376.000000	-0.000553
2375.000000	-0.000514
2374.000000	-0.000478
2373.000000	-0.000446
2372.000000	-0.000416
2371.000000	-0.000396
2370.000000	-0.000392
2369.000000	-0.000395
2368.000000	-0.000386
2367.000000	-0.000357
2366.000000	-0.000316
2365.000000	-0.000271
2364.000000	-0.000217
2363.000000	-0.000146
2362.000000	-0.000069
2361.000000	-0.000017
2360.000000	-0.000019
2359.000000	-0.000069
2358.000000	-0.000145
2357.000000	-0.000221
2356.000000	-0.000267
2355.000000	-0.000265
2354.000000	-0.000247
2353.000000	-0.000259
2352.000000	-0.000294
2351.000000	-0.000299
2350.000000	-0.000258
2349.000000	-0.000205
2348.000000	-0.000183
2347.000000	-0.000207
2346.000000	-0.000240
2345.000000	-0.000223
2344.000000	-0.000149
2343.000000	-0.000079
2342.000000	-0.000060
2341.000000	-0.000096
2340.000000	-0.000147
2339.000000	-0.000170
2338.000000	-0.000159
2337.000000	-0.000131
2336.000000	-0.000101
2335.000000	-0.000077
2334.000000	-0.000076
2333.000000	-0.000111
2332.000000	-0.000166
2331.000000	-0.000201
2330.000000	-0.000194
2329.000000	-0.000142
2328.000000	-0.000061
2327.000000	0.000036
2326.000000	0.000126
2325.000000	0.000189
2324.000000	0.000211
2323.000000	0.000193
2322.000000	0.000157
2321.000000	0.000133
2320.000000	0.000136
2319.000000	0.000163
2318.000000	0.000188
2317.000000	0.000194
2316.000000	0.000168
2315.000000	0.000107
2314.000000	0.000022
2313.000000	-0.000060
2312.000000	-0.000113
2311.000000	-0.000133
2310.000000	-0.000138
2309.000000	-0.000136
2308.000000	-0.000128
2307.000000	-0.000111
2306.000000	-0.000097
2305.000000	-0.000101
2304.000000	-0.000125
2303.000000	-0.000158
2302.000000	-0.000182
2301.000000	-0.000182
2300.000000	-0.000155
2299.000000	-0.000119
2298.000000	-0.000095
2297.000000	-0.000089
2296.000000	-0.000091
2295.000000	-0.000088
2294.000000	-0.000080
2293.000000	-0.000073
2292.000000	-0.000068
2291.000000	-0.000053
2290.000000	-0.000019
2289.000000	0.000029
2288.000000	0.000069
2287.000000	0.000071
2286.000000	0.000032
2285.000000	-0.000016
2284.000000	-0.000037
2283.000000	-0.000026
2282.000000	-0.000004
2281.000000	0.000014
2280.000000	0.000040
2279.000000	0.000081
2278.000000	0.000118
2277.000000	0.000129
2276.000000	0.000108
2275.000000	0.000070
2274.000000	0.000033
2273.000000	0.000013
2272.000000	0.000020
2271.000000	0.000043
2270.000000	0.000068
2269.000000	0.000090
2268.000000	0.000114
2267.000000	0.000124
2266.000000	0.000089
2265.000000	0.000011
2264.000000	-0.000061
2263.000000	-0.000077
2262.000000	-0.000044
2261.000000	-0.000010
2260.000000	-0.000012
2259.000000	-0.000059
2258.000000	-0.000147
2257.000000	-0.000264
2256.000000	-0.000372
2255.000000	-0.000433
2254.000000	-0.000439
2253.000000	-0.000406
2252.000000	-0.000349
2251.000000	-0.000274
2250.000000	-0.000209
2249.000000	-0.000191
2248.000000	-0.000223
2247.000000	-0.000280
2246.000000	-0.000341
2245.000000	-0.000401
2244.000000	-0.000442
2243.000000	-0.000431
2242.000000	-0.000368
2241.000000	-0.000296
2240.000000	-0.000256
2239.000000	-0.000251
2238.000000	-0.000273
2237.000000	-0.000321
2236.000000	-0.000380
2235.000000	-0.000394
2234.000000	-0.000327
2233.000000	-0.000207
2232.000000	-0.000103
2231.000000	-0.000056
2230.000000	-0.000066
2229.000000	-0.000127
2228.000000	-0.000226
2227.000000	-0.000321
2226.000000	-0.000371
2225.000000	-0.000390
2224.000000	-0.000434
2223.000000	-0.000514
2222.000000	-0.000577
2221.000000	-0.000571
2220.000000	-0.000505
2219.000000	-0.000425
2218.000000	-0.000366
2217.000000	-0.000342
2216.000000	-0.000350
2215.000000	-0.000366
2214.000000	-0.000355
2213.000000	-0.000309
2212.000000	-0.000256
2211.000000	-0.000210
2210.000000	-0.000140
2209.000000	-0.000027
2208.000000	0.000085
2207.000000	0.000119
2206.000000	0.000059
2205.000000	-0.000041
2204.000000	-0.000110
2203.000000	-0.000120
2202.000000	-0.000090
2201.000000	-0.000060
2200.000000	-0.000069
2199.000000	-0.000115
2198.000000	-0.000154
2197.000000	-0.000144
2196.000000	-0.000106
2195.000000	-0.000111
2194.000000	-0.000193
2193.000000	-0.000306
2192.000000	-0.000384
2191.000000	-0.000412
2190.000000	-0.000420
2189.000000	-0.000431
2188.000000	-0.000433
2187.000000	-0.000415
2186.000000	-0.000382
2185.000000	-0.000342
2184.000000	-0.000292
2183.000000	-0.000251
2182.000000	-0.000272
2181.000000	-0.000399
2180.000000	-0.000582
2179.000000	-0.000679
2178.000000	-0.000588
2177.000000	-0.000382
2176.000000	-0.000269
2175.000000	-0.000395
2174.000000	-0.000669
2173.000000	-0.000844
2172.000000	-0.000748
2171.000000	-0.000431
2170.000000	-0.000088
2169.000000	0.000106
2168.000000	0.000108
2167.000000	-0.000010
2166.000000	-0.000159
2165.000000	-0.000297
2164.000000	-0.000425
2163.000000	-0.000529
2162.000000	-0.000578
2161.000000	-0.000588
2160.000000	-0.000670
2159.000000	-0.000921
2158.000000	-0.001267
2157.000000	-0.001504
2156.000000	-0.001523
2155.000000	-0.001395
2154.000000	-0.001249
2153.000000	-0.001138
2152.000000	-0.001053
2151.000000	-0.000987
2150.000000	-0.000951
2149.000000	-0.000946
2148.000000	-0.000952
2147.000000	-0.000954
2146.000000	-0.000958
2145.000000	-0.000984
2144.000000	-0.001035
2143.000000	-0.001083
2142.000000	-0.001093
2141.000000	-0.001055
2140.000000	-0.000995
2139.000000	-0.000947
2138.000000	-0.000909
2137.000000	-0.000854
2136.000000	-0.000774
2135.000000	-0.000699
2134.000000	-0.000668
2133.000000	-0.000684
2132.000000	-0.000717
2131.000000	-0.000732
2130.000000	-0.000707
2129.000000	-0.000651
2128.000000	-0.000596
2127.000000	-0.000579
2126.000000	-0.000609
2125.000000	-0.000653
2124.000000	-0.000664
2123.000000	-0.000629
2122.000000	-0.000582
2121.000000	-0.000572
2120.000000	-0.000614
2119.000000	-0.000676
2118.000000	-0.000697
2117.000000	-0.000646
2116.000000	-0.000545
2115.000000	-0.000453
2114.000000	-0.000416
2113.000000	-0.000436
2112.000000	-0.000476
2111.000000	-0.000492
2110.000000	-0.000467
2109.000000	-0.000427
2108.000000	-0.000419
2107.000000	-0.000457
2106.000000	-0.000504
2105.000000	-0.000509
2104.000000	-0.000468
2103.000000	-0.000420
2102.000000	-0.000391
2101.000000	-0.000367
2100.000000	-0.000336
2099.000000	-0.000315
2098.000000	-0.000335
2097.000000	-0.000395
2096.000000	-0.000463
2095.000000	-0.000511
2094.000000	-0.000536
2093.000000	-0.000548
2092.000000	-0.000555
2091.000000	-0.000557
2090.000000	-0.000543
2089.000000	-0.000512
2088.000000	-0.000481
2087.000000	-0.000463
2086.000000	-0.000447
2085.000000	-0.000411
2084.000000	-0.000362
2083.000000	-0.000338
2082.000000	-0.000355
2081.000000	-0.000378
2080.000000	-0.000369
2079.000000	-0.000338
2078.000000	-0.000314
2077.000000	-0.000299
2076.000000	-0.000278
2075.000000	-0.000269
2074.000000	-0.000321
2073.000000	-0.000445
2072.000000	-0.000585
2071.000000	-0.000667
2070.000000	-0.000664
2069.000000	-0.000601
2068.000000	-0.000530
2067.000000	-0.000503
2066.000000	-0.000540
2065.000000	-0.000612
2064.000000	-0.000661
2063.000000	-0.000652
2062.000000	-0.000611
2061.000000	-0.000577
2060.000000	-0.000565
2059.000000	-0.000552
2058.000000	-0.000513
2057.000000	-0.000459
2056.000000	-0.000429
2055.000000	-0.000446
2054.000000	-0.000480
2053.000000	-0.000459
2052.000000	-0.000344
2051.000000	-0.000173
2050.000000	-0.000037
2049.000000	-0.000007
2048.000000	-0.000081
2047.000000	-0.000193
2046.000000	-0.000286
2045.000000	-0.000349
2044.000000	-0.000411
2043.000000	-0.000503
2042.000000	-0.000622
2041.000000	-0.000728
2040.000000	-0.000784
2039.000000	-0.000779
2038.000000	-0.000718
2037.000000	-0.000612
2036.000000	-0.000490
2035.000000	-0.000398
2034.000000	-0.000364
2033.000000	-0.000392
2032.000000	-0.000499
2031.000000	-0.000710
2030.000000	-0.000980
2029.000000	-0.001163
2028.000000	-0.001139
2027.000000	-0.000949
2026.000000	-0.000753
2025.000000	-0.000681
2024.000000	-0.000763
2023.000000	-0.000966
2022.000000	-0.001226
2021.000000	-0.001441
2020.000000	-0.001536
2019.000000	-0.001520
2018.000000	-0.001450
2017.000000	-0.001325
2016.000000	-0.001111
2015.000000	-0.000850
2014.000000	-0.000666
2013.000000	-0.000635
2012.000000	-0.000711
2011.000000	-0.000799
2010.000000	-0.000847
2009.000000	-0.000847
2008.000000	-0.000807
2007.000000	-0.000764
2006.000000	-0.000781
2005.000000	-0.000867
2004.000000	-0.000969
2003.000000	-0.001046
2002.000000	-0.001124
2001.000000	-0.001236
2000.000000	-0.001353
1999.000000	-0.001412
1998.000000	-0.001391
1997.000000	-0.001320
1996.000000	-0.001234
1995.000000	-0.001142
1994.000000	-0.001036
1993.000000	-0.000904
1992.000000	-0.000747
1991.000000	-0.000603
1990.000000	-0.000529
1989.000000	-0.000557
1988.000000	-0.000657
1987.000000	-0.000775
1986.000000	-0.000873
1985.000000	-0.000936
1984.000000	-0.000954
1983.000000	-0.000927
1982.000000	-0.000875
1981.000000	-0.000806
1980.000000	-0.000728
1979.000000	-0.000687
1978.000000	-0.000765
1977.000000	-0.000965
1976.000000	-0.001161
1975.000000	-0.001240
1974.000000	-0.001243
1973.000000	-0.001285
1972.000000	-0.001376
1971.000000	-0.001423
1970.000000	-0.001378
1969.000000	-0.001294
1968.000000	-0.001236
1967.000000	-0.001213
1966.000000	-0.001224
1965.000000	-0.001296
1964.000000	-0.001440
1963.000000	-0.001612
1962.000000	-0.001751
1961.000000	-0.001827
1960.000000	-0.001827
1959.000000	-0.001740
1958.000000	-0.001581
1957.000000	-0.001395
1956.000000	-0.001230
1955.000000	-0.001106
1954.000000	-0.001029
1953.000000	-0.001005
1952.000000	-0.001016
1951.000000	-0.001018
1950.000000	-0.000995
1949.000000	-0.000974
1948.000000	-0.000971
1947.000000	-0.000955
1946.000000	-0.000897
1945.000000	-0.000827
1944.000000	-0.000806
1943.000000	-0.000851
1942.000000	-0.000928
1941.000000	-0.001006
1940.000000	-0.001076
1939.000000	-0.001115
1938.000000	-0.001089
1937.000000	-0.001013
1936.000000	-0.000957
1935.000000	-0.000977
1934.000000	-0.001049
1933.000000	-0.001110
1932.000000	-0.001122
1931.000000	-0.001095
1930.000000	-0.001058
1929.000000	-0.001030
1928.000000	-0.001013
1927.000000	-0.000997
1926.000000	-0.000977
1925.000000	-0.000961
1924.000000	-0.000962
1923.000000	-0.000981
1922.000000	-0.001004
1921.000000	-0.001023
1920.000000	-0.001036
1919.000000	-0.001033
1918.000000	-0.001000
1917.000000	-0.000945
1916.000000	-0.000906
1915.000000	-0.000906
1914.000000	-0.000936
1913.000000	-0.000968
1912.000000	-0.000982
1911.000000	-0.000976
1910.000000	-0.000957
1909.000000	-0.000941
1908.000000	-0.000951
1907.000000	-0.000983
1906.000000	-0.001003
1905.000000	-0.000983
1904.000000	-0.000938
1903.000000	-0.000920
1902.000000	-0.000962
1901.000000	-0.001037
1900.000000	-0.001094
1899.000000	-0.001102
1898.000000	-0.001064
1897.000000	-0.001001
1896.000000	-0.000940
1895.000000	-0.000905
1894.000000	-0.000908
1893.000000	-0.000935
1892.000000	-0.000960
1891.000000	-0.000960
1890.000000	-0.000939
1889.000000	-0.000922
1888.000000	-0.000933
1887.000000	-0.000969
1886.000000	-0.001006
1885.000000	-0.001024
1884.000000	-0.001018
1883.000000	-0.001001
1882.000000	-0.000987
1881.000000	-0.000979
1880.000000	-0.000982
1879.000000	-0.001004
1878.000000	-0.001039
1877.000000	-0.001063
1876.000000	-0.001057
1875.000000	-0.001032
1874.000000	-0.001020
1873.000000	-0.001043
1872.000000	-0.001090
1871.000000	-0.001126
1870.000000	-0.001121
1869.000000	-0.001072
1868.000000	-0.001009
1867.000000	-0.000970
1866.000000	-0.000973
1865.000000	-0.001014
1864.000000	-0.001069
1863.000000	-0.001109
1862.000000	-0.001117
1861.000000	-0.001098
1860.000000	-0.001072
1859.000000	-0.001051
1858.000000	-0.001039
1857.000000	-0.001037
1856.000000	-0.001048
1855.000000	-0.001069
1854.000000	-0.001085
1853.000000	-0.001084
1852.000000	-0.001066
1851.000000	-0.001042
1850.000000	-0.001010
1849.000000	-0.000971
1848.000000	-0.000938
1847.000000	-0.000928
1846.000000	-0.000933
1845.000000	-0.000927
1844.000000	-0.000906
1843.000000	-0.000902
1842.000000	-0.000936
1841.000000	-0.000989
1840.000000	-0.001030
1839.000000	-0.001033
1838.000000	-0.001000
1837.000000	-0.000950
1836.000000	-0.000911
1835.000000	-0.000901
1834.000000	-0.000924
1833.000000	-0.000966
1832.000000	-0.001012
1831.000000	-0.001041
1830.000000	-0.001040
1829.000000	-0.001021
1828.000000	-0.001006
1827.000000	-0.001004
1826.000000	-0.001004
1825.000000	-0.001001
1824.000000	-0.001004
1823.000000	-0.001024
1822.000000	-0.001052
1821.000000	-0.001077
1820.000000	-0.001097
1819.000000	-0.001119
1818.000000	-0.001144
1817.000000	-0.001158
1816.000000	-0.001140
1815.000000	-0.001095
1814.000000	-0.001048
1813.000000	-0.001026
1812.000000	-0.001042
1811.000000	-0.001077
1810.000000	-0.001104
1809.000000	-0.001105
1808.000000	-0.001088
1807.000000	-0.001071
1806.000000	-0.001068
1805.000000	-0.001080
1804.000000	-0.001104
1803.000000	-0.001133
1802.000000	-0.001153
1801.000000	-0.001150
1800.000000	-0.001125
1799.000000	-0.001092
1798.000000	-0.001059
1797.000000	-0.001027
1796.000000	-0.001003
1795.000000	-0.001004
1794.000000	-0.001036
1793.000000	-0.001079
1792.000000	-0.001103
1791.000000	-0.001100
1790.000000	-0.001086
1789.000000	-0.001074
1788.000000	-0.001064
1787.000000	-0.001057
1786.000000	-0.001061
1785.000000	-0.001075
1784.000000	-0.001088
1783.000000	-0.001088
1782.000000	-0.001064
1781.000000	-0.001021
1780.000000	-0.000985
1779.000000	-0.000980
1778.000000	-0.000999
1777.000000	-0.001020
1776.000000	-0.001032
1775.000000	-0.001042
1774.000000	-0.001045
1773.000000	-0.001020
1772.000000	-0.000972
1771.000000	-0.000934
1770.000000	-0.000926
1769.000000	-0.000938
1768.000000	-0.000946
1767.000000	-0.000943
1766.000000	-0.000932
1765.000000	-0.000921
1764.000000	-0.000913
1763.000000	-0.000908
1762.000000	-0.000909
1761.000000	-0.000917
1760.000000	-0.000929
1759.000000	-0.000935
1758.000000	-0.000926
1757.000000	-0.000893
1756.000000	-0.000859
1755.000000	-0.000850
1754.000000	-0.000867
1753.000000	-0.000881
1752.000000	-0.000862
1751.000000	-0.000808
1750.000000	-0.000752
1749.000000	-0.000713
1748.000000	-0.000690
1747.000000	-0.000676
1746.000000	-0.000667
1745.000000	-0.000660
1744.000000	-0.000655
1743.000000	-0.000655
1742.000000	-0.000661
1741.000000	-0.000665
1740.000000	-0.000657
1739.000000	-0.000643
1738.000000	-0.000646
1737.000000	-0.000682
1736.000000	-0.000744
1735.000000	-0.000795
1734.000000	-0.000808
1733.000000	-0.000801
1732.000000	-0.000802
1731.000000	-0.000815
1730.000000	-0.000822
1729.000000	-0.000809
1728.000000	-0.000788
1727.000000	-0.000778
1726.000000	-0.000782
1725.000000	-0.000788
1724.000000	-0.000785
1723.000000	-0.000774
1722.000000	-0.000765
1721.000000	-0.000762
1720.000000	-0.000763
1719.000000	-0.000749
1718.000000	-0.000712
1717.000000	-0.000670
1716.000000	-0.000639
1715.000000	-0.000622
1714.000000	-0.000624
1713.000000	-0.000639
1712.000000	-0.000651
1711.000000	-0.000645
1710.000000	-0.000621
1709.000000	-0.000587
1708.000000	-0.000560
1707.000000	-0.000541
1706.000000	-0.000507
1705.000000	-0.000445
1704.000000	-0.000377
1703.000000	-0.000334
1702.000000	-0.000315
1701.000000	-0.000288
1700.000000	-0.000259
1699.000000	-0.000262
1698.000000	-0.000292
1697.000000	-0.000308
1696.000000	-0.000263
1695.000000	-0.000184
1694.000000	-0.000122
1693.000000	-0.000081
1692.000000	-0.000031
1691.000000	0.000049
1690.000000	0.000148
1689.000000	0.000235
1688.000000	0.000281
1687.000000	0.000290
1686.000000	0.000297
1685.000000	0.000363
1684.000000	0.000479
1683.000000	0.000550
1682.000000	0.000562
1681.000000	0.000564
1680.000000	0.000590
1679.000000	0.000631
1678.000000	0.000668
1677.000000	0.000703
1676.000000	0.000760
1675.000000	0.000839
1674.000000	0.000920
1673.000000	0.000985
1672.000000	0.001033
1671.000000	0.001071
1670.000000	0.001111
1669.000000	0.001166
1668.000000	0.001236
1667.000000	0.001299
1666.000000	0.001343
1665.000000	0.001371
1664.000000	0.001404
1663.000000	0.001453
1662.000000	0.001510
1661.000000	0.001564
1660.000000	0.001612
1659.000000	0.001652
1658.000000	0.001686
1657.000000	0.001713
1656.000000	0.001724
1655.000000	0.001728
1654.000000	0.001782
1653.000000	0.001894
1652.000000	0.001989
1651.000000	0.002037
1650.000000	0.002047
1649.000000	0.002045
1648.000000	0.002073
1647.000000	0.002149
1646.000000	0.002232
1645.000000	0.002279
1644.000000	0.002293
1643.000000	0.002293
1642.000000	0.002299
1641.000000	0.002327
1640.000000	0.002364
1639.000000	0.002382
1638.000000	0.002365
1637.000000	0.002336
1636.000000	0.002331
1635.000000	0.002352
1634.000000	0.002376
1633.000000	0.002395
1632.000000	0.002416
1631.000000	0.002434
1630.000000	0.002438
1629.000000	0.002432
1628.000000	0.002435
1627.000000	0.002455
1626.000000	0.002478
1625.000000	0.002492
1624.000000	0.002500
1623.000000	0.002508
1622.000000	0.002517
1621.000000	0.002526
1620.000000	0.002527
1619.000000	0.002509
1618.000000	0.002471
1617.000000	0.002429
1616.000000	0.002404
1615.000000	0.002397
1614.000000	0.002390
1613.000000	0.002379
1612.000000	0.002370
1611.000000	0.002363
1610.000000	0.002344
1609.000000	0.002303
1608.000000	0.002242
1607.000000	0.002171
1606.000000	0.002102
1605.000000	0.002043
1604.000000	0.001996
1603.000000	0.001962
1602.000000	0.001936
1601.000000	0.001907
1600.000000	0.001870
1599.000000	0.001832
1598.000000	0.001801
1597.000000	0.001772
1596.000000	0.001734
1595.000000	0.001684
1594.000000	0.001630
1593.000000	0.001587
1592.000000	0.001559
1591.000000	0.001540
1590.000000	0.001519
1589.000000	0.001490
1588.000000	0.001449
1587.000000	0.001402
1586.000000	0.001360
1585.000000	0.001338
1584.000000	0.001336
1583.000000	0.001339
1582.000000	0.001331
1581.000000	0.001308
1580.000000	0.001271
1579.000000	0.001230
1578.000000	0.001196
1577.000000	0.001179
1576.000000	0.001172
1575.000000	0.001165
1574.000000	0.001163
1573.000000	0.001162
1572.000000	0.001150
1571.000000	0.001128
1570.000000	0.001107
1569.000000	0.001103
1568.000000	0.001110
1567.000000	0.001116
1566.000000	0.001117
1565.000000	0.001117
1564.000000	0.001112
1563.000000	0.001103
1562.000000	0.001089
1561.000000	0.001075
1560.000000	0.001070
1559.000000	0.001068
1558.000000	0.001048
1557.000000	0.001037
1556.000000	0.001034
1555.000000	0.001033
1554.000000	0.001036
1553.000000	0.001032
1552.000000	0.001011
1551.000000	0.000985
1550.000000	0.000970
1549.000000	0.000971
1548.000000	0.000978
1547.000000	0.000982
1546.000000	0.000991
1545.000000	0.001017
1544.000000	0.001047
1543.000000	0.001061
1542.000000	0.001049
1541.000000	0.001031
1540.000000	0.001028
1539.000000	0.001030
1538.000000	0.001026
1537.000000	0.001012
1536.000000	0.000987
1535.000000	0.000956
1534.000000	0.000931
1533.000000	0.000915
1532.000000	0.000904
1531.000000	0.000895
1530.000000	0.000880
1529.000000	0.000851
1528.000000	0.000806
1527.000000	0.000757
1526.000000	0.000720
1525.000000	0.000703
1524.000000	0.000704
1523.000000	0.000719
1522.000000	0.000748
1521.000000	0.000763
1520.000000	0.000741
1519.000000	0.000694
1518.000000	0.000645
1517.000000	0.000611
1516.000000	0.000590
1515.000000	0.000575
1514.000000	0.000560
1513.000000	0.000544
1512.000000	0.000523
1511.000000	0.000499
1510.000000	0.000468
1509.000000	0.000430
1508.000000	0.000389
1507.000000	0.000353
1506.000000	0.000315
1505.000000	0.000288
1504.000000	0.000267
1503.000000	0.000244
1502.000000	0.000222
1501.000000	0.000210
1500.000000	0.000204
1499.000000	0.000196
1498.000000	0.000184
1497.000000	0.000167
1496.000000	0.000147
1495.000000	0.000124
1494.000000	0.000095
1493.000000	0.000059
1492.000000	0.000018
1491.000000	-0.000015
1490.000000	-0.000026
1489.000000	-0.000011
1488.000000	0.000018
1487.000000	0.000036
1486.000000	0.000032
1485.000000	0.000017
1484.000000	0.000008
1483.000000	0.000013
1482.000000	0.000031
1481.000000	0.000049
1480.000000	0.000059
1479.000000	0.000063
1478.000000	0.000075
1477.000000	0.000095
1476.000000	0.000107
1475.000000	0.000084
1474.000000	0.000040
1473.000000	0.000027
1472.000000	0.000072
1471.000000	0.000135
1470.000000	0.000174
1469.000000	0.000187
1468.000000	0.000192
1467.000000	0.000201
1466.000000	0.000216
1465.000000	0.000235
1464.000000	0.000248
1463.000000	0.000252
1462.000000	0.000249
1461.000000	0.000248
1460.000000	0.000252
1459.000000	0.000263
1458.000000	0.000278
1457.000000	0.000288
1456.000000	0.000294
1455.000000	0.000306
1454.000000	0.000324
1453.000000	0.000343
1452.000000	0.000364
1451.000000	0.000387
1450.000000	0.000406
1449.000000	0.000417
1448.000000	0.000420
1447.000000	0.000421
1446.000000	0.000427
1445.000000	0.000440
1444.000000	0.000448
1443.000000	0.000444
1442.000000	0.000433
1441.000000	0.000423
1440.000000	0.000421
1439.000000	0.000426
1438.000000	0.000435
1437.000000	0.000437
1436.000000	0.000421
1435.000000	0.000398
1434.000000	0.000387
1433.000000	0.000393
1432.000000	0.000415
1431.000000	0.000448
1430.000000	0.000479
1429.000000	0.000495
1428.000000	0.000495
1427.000000	0.000486
1426.000000	0.000481
1425.000000	0.000483
1424.000000	0.000484
1423.000000	0.000475
1422.000000	0.000460
1421.000000	0.000450
1420.000000	0.000447
1419.000000	0.000452
1418.000000	0.000458
1417.000000	0.000466
1416.000000	0.000475
1415.000000	0.000483
1414.000000	0.000491
1413.000000	0.000491
1412.000000	0.000477
1411.000000	0.000453
1410.000000	0.000435
1409.000000	0.000435
1408.000000	0.000447
1407.000000	0.000456
1406.000000	0.000454
1405.000000	0.000448
1404.000000	0.000444
1403.000000	0.000443
1402.000000	0.000442
1401.000000	0.000447
1400.000000	0.000463
1399.000000	0.000483
1398.000000	0.000486
1397.000000	0.000463
1396.000000	0.000427
1395.000000	0.000396
1394.000000	0.000384
1393.000000	0.000387
1392.000000	0.000392
1391.000000	0.000394
1390.000000	0.000390
1389.000000	0.000373
1388.000000	0.000347
1387.000000	0.000322
1386.000000	0.000314
1385.000000	0.000324
1384.000000	0.000341
1383.000000	0.000356
1382.000000	0.000367
1381.000000	0.000370
1380.000000	0.000360
1379.000000	0.000340
1378.000000	0.000320
1377.000000	0.000314
1376.000000	0.000327
1375.000000	0.000349
1374.000000	0.000374
1373.000000	0.000397
1372.000000	0.000418
1371.000000	0.000430
1370.000000	0.000429
1369.000000	0.000421
1368.000000	0.000412
1367.000000	0.000410
1366.000000	0.000415
1365.000000	0.000428
1364.000000	0.000441
1363.000000	0.000444
1362.000000	0.000429
1361.000000	0.000403
1360.000000	0.000377
1359.000000	0.000351
1358.000000	0.000324
1357.000000	0.000298
1356.000000	0.000279
1355.000000	0.000272
1354.000000	0.000276
1353.000000	0.000288
1352.000000	0.000305
1351.000000	0.000322
1350.000000	0.000340
1349.000000	0.000355
1348.000000	0.000363
1347.000000	0.000364
1346.000000	0.000361
1345.000000	0.000366
1344.000000	0.000382
1343.000000	0.000400
1342.000000	0.000413
1341.000000	0.000433
1340.000000	0.000470
1339.000000	0.000522
1338.000000	0.000572
1337.000000	0.000613
1336.000000	0.000653
1335.000000	0.000702
1334.000000	0.000760
1333.000000	0.000825
1332.000000	0.000895
1331.000000	0.000971
1330.000000	0.001053
1329.000000	0.001144
1328.000000	0.001242
1327.000000	0.001338
1326.000000	0.001421
1325.000000	0.001491
1324.000000	0.001551
1323.000000	0.001599
1322.000000	0.001631
1321.000000	0.001641
1320.000000	0.001630
1319.000000	0.001595
1318.000000	0.001531
1317.000000	0.001444
1316.000000	0.001347
1315.000000	0.001253
1314.000000	0.001165
1313.000000	0.001090
1312.000000	0.001028
1311.000000	0.000979
1310.000000	0.000931
1309.000000	0.000876
1308.000000	0.000811
1307.000000	0.000736
1306.000000	0.000655
1305.000000	0.000578
1304.000000	0.000520
1303.000000	0.000493
1302.000000	0.000484
1301.000000	0.000468
1300.000000	0.000431
1299.000000	0.000383
1298.000000	0.000346
1297.000000	0.000329
1296.000000	0.000323
1295.000000	0.000314
1294.000000	0.000292
1293.000000	0.000259
1292.000000	0.000228
1291.000000	0.000209
1290.000000	0.000194
1289.000000	0.000169
1288.000000	0.000128
1287.000000	0.000085
1286.000000	0.000061
1285.000000	0.000057
1284.000000	0.000066
1283.000000	0.000073
1282.000000	0.000071
1281.000000	0.000056
1280.000000	0.000031
1279.000000	0.000005
1278.000000	-0.000011
1277.000000	-0.000016
1276.000000	-0.000020
1275.000000	-0.000028
1274.000000	-0.000034
1273.000000	-0.000033
1272.000000	-0.000027
1271.000000	-0.000022
1270.000000	-0.000025
1269.000000	-0.000033
1268.000000	-0.000049
1267.000000	-0.000072
1266.000000	-0.000095
1265.000000	-0.000110
1264.000000	-0.000107
1263.000000	-0.000088
1262.000000	-0.000067
1261.000000	-0.000055
1260.000000	-0.000059
1259.000000	-0.000078
1258.000000	-0.000101
1257.000000	-0.000115
1256.000000	-0.000110
1255.000000	-0.000084
1254.000000	-0.000047
1253.000000	-0.000020
1252.000000	-0.000019
1251.000000	-0.000047
1250.000000	-0.000084
1249.000000	-0.000104
1248.000000	-0.000093
1247.000000	-0.000058
1246.000000	-0.000017
1245.000000	0.000014
1244.000000	0.000026
1243.000000	0.000019
1242.000000	-0.000006
1241.000000	-0.000042
1240.000000	-0.000072
1239.000000	-0.000084
1238.000000	-0.000078
1237.000000	-0.000072
1236.000000	-0.000081
1235.000000	-0.000098
1234.000000	-0.000108
1233.000000	-0.000110
1232.000000	-0.000116
1231.000000	-0.000136
1230.000000	-0.000162
1229.000000	-0.000180
1228.000000	-0.000183
1227.000000	-0.000180
1226.000000	-0.000183
1225.000000	-0.000191
1224.000000	-0.000201
1223.000000	-0.000209
1222.000000	-0.000213
1221.000000	-0.000213
1220.000000	-0.000215
1219.000000	-0.000225
1218.000000	-0.000246
1217.000000	-0.000274
1216.000000	-0.000299
1215.000000	-0.000312
1214.000000	-0.000310
1213.000000	-0.000301
1212.000000	-0.000290
1211.000000	-0.000286
1210.000000	-0.000291
1209.000000	-0.000304
1208.000000	-0.000320
1207.000000	-0.000335
1206.000000	-0.000349
1205.000000	-0.000366
1204.000000	-0.000382
1203.000000	-0.000390
1202.000000	-0.000395
1201.000000	-0.000409
1200.000000	-0.000435
1199.000000	-0.000460
1198.000000	-0.000464
1197.000000	-0.000446
1196.000000	-0.000423
1195.000000	-0.000412
1194.000000	-0.000417
1193.000000	-0.000424
1192.000000	-0.000424
1191.000000	-0.000419
1190.000000	-0.000419
1189.000000	-0.000428
1188.000000	-0.000441
1187.000000	-0.000446
1186.000000	-0.000438
1185.000000	-0.000421
1184.000000	-0.000403
1183.000000	-0.000391
1182.000000	-0.000383
1181.000000	-0.000377
1180.000000	-0.000371
1179.000000	-0.000360
1178.000000	-0.000337
1177.000000	-0.000300
1176.000000	-0.000257
1175.000000	-0.000219
1174.000000	-0.000191
1173.000000	-0.000162
1172.000000	-0.000124
1171.000000	-0.000080
1170.000000	-0.000044
1169.000000	-0.000023
1168.000000	-0.000007
1167.000000	0.000015
1166.000000	0.000047
1165.000000	0.000086
1164.000000	0.000131
1163.000000	0.000184
1162.000000	0.000238
1161.000000	0.000282
1160.000000	0.000315
1159.000000	0.000348
1158.000000	0.000389
1157.000000	0.000433
1156.000000	0.000467
1155.000000	0.000485
1154.000000	0.000496
1153.000000	0.000511
1152.000000	0.000535
1151.000000	0.000564
1150.000000	0.000589
1149.000000	0.000606
1148.000000	0.000620
1147.000000	0.000638
1146.000000	0.000660
1145.000000	0.000674
1144.000000	0.000675
1143.000000	0.000667
1142.000000	0.000662
1141.000000	0.000657
1140.000000	0.000643
1139.000000	0.000622
1138.000000	0.000611
1137.000000	0.000624
1136.000000	0.000655
1135.000000	0.000692
1134.000000	0.000727
1133.000000	0.000753
1132.000000	0.000762
1131.000000	0.000756
1130.000000	0.000754
1129.000000	0.000774
1128.000000	0.000814
1127.000000	0.000856
1126.000000	0.000886
1125.000000	0.000905
1124.000000	0.000920
1123.000000	0.000933
1122.000000	0.000945
1121.000000	0.000957
1120.000000	0.000971
1119.000000	0.000988
1118.000000	0.001009
1117.000000	0.001035
1116.000000	0.001062
1115.000000	0.001083
1114.000000	0.001089
1113.000000	0.001086
1112.000000	0.001090
1111.000000	0.001112
1110.000000	0.001145
1109.000000	0.001164
1108.000000	0.001157
1107.000000	0.001132
1106.000000	0.001107
1105.000000	0.001087
1104.000000	0.001068
1103.000000	0.001048
1102.000000	0.001036
1101.000000	0.001034
1100.000000	0.001030
1099.000000	0.001020
1098.000000	0.001009
1097.000000	0.001007
1096.000000	0.001011
1095.000000	0.001016
1094.000000	0.001016
1093.000000	0.001018
1092.000000	0.001032
1091.000000	0.001069
1090.000000	0.001126
1089.000000	0.001177
1088.000000	0.001197
1087.000000	0.001187
1086.000000	0.001173
1085.000000	0.001173
1084.000000	0.001178
1083.000000	0.001180
1082.000000	0.001197
1081.000000	0.001248
1080.000000	0.001312
1079.000000	0.001340
1078.000000	0.001310
1077.000000	0.001259
1076.000000	0.001242
1075.000000	0.001280
1074.000000	0.001342
1073.000000	0.001382
1072.000000	0.001380
1071.000000	0.001355
1070.000000	0.001343
1069.000000	0.001353
1068.000000	0.001361
1067.000000	0.001341
1066.000000	0.001306
1065.000000	0.001293
1064.000000	0.001321
1063.000000	0.001365
1062.000000	0.001388
1061.000000	0.001375
1060.000000	0.001346
1059.000000	0.001325
1058.000000	0.001321
1057.000000	0.001323
1056.000000	0.001317
1055.000000	0.001301
1054.000000	0.001295
1053.000000	0.001311
1052.000000	0.001341
1051.000000	0.001365
1050.000000	0.001374
1049.000000	0.001380
1048.000000	0.001394
1047.000000	0.001414
1046.000000	0.001434
1045.000000	0.001452
1044.000000	0.001464
1043.000000	0.001463
1042.000000	0.001452
1041.000000	0.001448
1040.000000	0.001471
1039.000000	0.001527
1038.000000	0.001600
1037.000000	0.001662
1036.000000	0.001691
1035.000000	0.001688
1034.000000	0.001678
1033.000000	0.001679
1032.000000	0.001688
1031.000000	0.001692
1030.000000	0.001691
1029.000000	0.001690
1028.000000	0.001681
1027.000000	0.001646
1026.000000	0.001591
1025.000000	0.001542
1024.000000	0.001522
1023.000000	0.001526
1022.000000	0.001537
1021.000000	0.001552
1020.000000	0.001575
1019.000000	0.001602
1018.000000	0.001620
1017.000000	0.001622
1016.000000	0.001611
1015.000000	0.001605
1014.000000	0.001618
1013.000000	0.001648
1012.000000	0.001674
1011.000000	0.001665
1010.000000	0.001611
1009.000000	0.001534
1008.000000	0.001464
1007.000000	0.001415
1006.000000	0.001382
1005.000000	0.001354
1004.000000	0.001324
1003.000000	0.001293
1002.000000	0.001274
1001.000000	0.001281
1000.000000	0.001311
999.000000	0.001333
998.000000	0.001314
997.000000	0.001252
996.000000	0.001175
995.000000	0.001110
994.000000	0.001067
993.000000	0.001039
992.000000	0.001012
991.000000	0.000979
990.000000	0.000943
989.000000	0.000926
988.000000	0.000945
987.000000	0.000989
986.000000	0.001021
985.000000	0.001008
984.000000	0.000948
983.000000	0.000867
982.000000	0.000797
981.000000	0.000756
980.000000	0.000748
979.000000	0.000763
978.000000	0.000779
977.000000	0.000775
976.000000	0.000739
975.000000	0.000674
974.000000	0.000599
973.000000	0.000538
972.000000	0.000510
971.000000	0.000510
970.000000	0.000504
969.000000	0.000459
968.000000	0.000371
967.000000	0.000272
966.000000	0.000201
965.000000	0.000174
964.000000	0.000180
963.000000	0.000199
962.000000	0.000207
961.000000	0.000193
960.000000	0.000155
959.000000	0.000111
958.000000	0.000076
957.000000	0.000049
956.000000	0.000019
955.000000	-0.000016
954.000000	-0.000051
953.000000	-0.000082
952.000000	-0.000115
951.000000	-0.000155
950.000000	-0.000193
949.000000	-0.000219
948.000000	-0.000233
947.000000	-0.000245
946.000000	-0.000258
945.000000	-0.000267
944.000000	-0.000268
943.000000	-0.000261
942.000000	-0.000254
941.000000	-0.000256
940.000000	-0.000271
939.000000	-0.000298
938.000000	-0.000329
937.000000	-0.000358
936.000000	-0.000384
935.000000	-0.000412
934.000000	-0.000437
933.000000	-0.000457
932.000000	-0.000476
931.000000	-0.000506
930.000000	-0.000541
929.000000	-0.000560
928.000000	-0.000546
927.000000	-0.000509
926.000000	-0.000481
925.000000	-0.000488
924.000000	-0.000531
923.000000	-0.000581
922.000000	-0.000605
921.000000	-0.000589
920.000000	-0.000556
919.000000	-0.000536
918.000000	-0.000541
917.000000	-0.000555
916.000000	-0.000556
915.000000	-0.000551
914.000000	-0.000561
913.000000	-0.000592
912.000000	-0.000619
911.000000	-0.000623
910.000000	-0.000612
909.000000	-0.000613
908.000000	-0.000642
907.000000	-0.000689
906.000000	-0.000730
905.000000	-0.000748
904.000000	-0.000743
903.000000	-0.000725
902.000000	-0.000709
901.000000	-0.000708
900.000000	-0.000720
899.000000	-0.000733
898.000000	-0.000732
897.000000	-0.000719
896.000000	-0.000712
895.000000	-0.000728
894.000000	-0.000764
893.000000	-0.000800
892.000000	-0.000824
891.000000	-0.000834
890.000000	-0.000841
889.000000	-0.000853
888.000000	-0.000877
887.000000	-0.000915
886.000000	-0.000959
885.000000	-0.000990
884.000000	-0.000993
883.000000	-0.000973
882.000000	-0.000946
881.000000	-0.000910
880.000000	-0.000853
879.000000	-0.000783
878.000000	-0.000738
877.000000	-0.000752
876.000000	-0.000811
875.000000	-0.000868
874.000000	-0.000889
873.000000	-0.000872
872.000000	-0.000838
871.000000	-0.000803
870.000000	-0.000786
869.000000	-0.000807
868.000000	-0.000871
867.000000	-0.000960
866.000000	-0.001037
865.000000	-0.001070
864.000000	-0.001055
863.000000	-0.001014
862.000000	-0.000985
861.000000	-0.000993
860.000000	-0.001028
859.000000	-0.001053
858.000000	-0.001041
857.000000	-0.001000
856.000000	-0.000961
855.000000	-0.000952
854.000000	-0.000985
853.000000	-0.001051
852.000000	-0.001125
851.000000	-0.001170
850.000000	-0.001166
849.000000	-0.001131
848.000000	-0.001103
847.000000	-0.001104
846.000000	-0.001120
845.000000	-0.001123
844.000000	-0.001104
843.000000	-0.001080
842.000000	-0.001060
841.000000	-0.001040
840.000000	-0.001010
839.000000	-0.000977
838.000000	-0.000969
837.000000	-0.001005
836.000000	-0.001069
835.000000	-0.001113
834.000000	-0.001095
833.000000	-0.001019
832.000000	-0.000932
831.000000	-0.000883
830.000000	-0.000883
829.000000	-0.000907
828.000000	-0.000928
827.000000	-0.000937
826.000000	-0.000933
825.000000	-0.000918
824.000000	-0.000897
823.000000	-0.000875
822.000000	-0.000859
821.000000	-0.000851
820.000000	-0.000864
819.000000	-0.000912
818.000000	-0.000994
817.000000	-0.001081
816.000000	-0.001141
815.000000	-0.001161
814.000000	-0.001160
813.000000	-0.001156
812.000000	-0.001144
811.000000	-0.001110
810.000000	-0.001058
809.000000	-0.001014
808.000000	-0.001001
807.000000	-0.001014
806.000000	-0.001020
805.000000	-0.000998
804.000000	-0.000964
803.000000	-0.000946
802.000000	-0.000949
801.000000	-0.000947
800.000000	-0.000927
799.000000	-0.000913
798.000000	-0.000936
797.000000	-0.000982
796.000000	-0.001000
795.000000	-0.000961
794.000000	-0.000892
793.000000	-0.000845
792.000000	-0.000840
791.000000	-0.000851
790.000000	-0.000835
789.000000	-0.000774
788.000000	-0.000691
787.000000	-0.000638
786.000000	-0.000648
785.000000	-0.000702
784.000000	-0.000742
783.000000	-0.000728
782.000000	-0.000676
781.000000	-0.000635
780.000000	-0.000638
779.000000	-0.000685
778.000000	-0.000757
777.000000	-0.000825
776.000000	-0.000856
775.000000	-0.000826
774.000000	-0.000750
773.000000	-0.000674
772.000000	-0.000641
771.000000	-0.000660
770.000000	-0.000715
769.000000	-0.000779
768.000000	-0.000824
767.000000	-0.000832
766.000000	-0.000805
765.000000	-0.000759
764.000000	-0.000713
763.000000	-0.000681
762.000000	-0.000673
761.000000	-0.000694
760.000000	-0.000727
759.000000	-0.000743
758.000000	-0.000735
757.000000	-0.000728
756.000000	-0.000738
755.000000	-0.000754
754.000000	-0.000754
753.000000	-0.000737
752.000000	-0.000722
751.000000	-0.000724
750.000000	-0.000749
749.000000	-0.000796
748.000000	-0.000858
747.000000	-0.000918
746.000000	-0.000961
745.000000	-0.000987
744.000000	-0.001004
743.000000	-0.001011
742.000000	-0.001004
741.000000	-0.000993
740.000000	-0.000993
739.000000	-0.001004
738.000000	-0.001007
737.000000	-0.000993
736.000000	-0.000974
735.000000	-0.000966
734.000000	-0.000966
733.000000	-0.000965
732.000000	-0.000961
731.000000	-0.000962
730.000000	-0.000980
729.000000	-0.001008
728.000000	-0.001024
727.000000	-0.001014
726.000000	-0.000983
725.000000	-0.000955
724.000000	-0.000952
723.000000	-0.000977
722.000000	-0.001016
721.000000	-0.001049
720.000000	-0.001065
719.000000	-0.001067
718.000000	-0.001068
717.000000	-0.001084
716.000000	-0.001115
715.000000	-0.001144
714.000000	-0.001156
713.000000	-0.001149
712.000000	-0.001126
711.000000	-0.001090
710.000000	-0.001049
709.000000	-0.001023
708.000000	-0.001024
707.000000	-0.001037
706.000000	-0.001024
705.000000	-0.000965
704.000000	-0.000882
703.000000	-0.000821
702.000000	-0.000806
701.000000	-0.000840
700.000000	-0.000915
699.000000	-0.001018
698.000000	-0.001122
697.000000	-0.001189
696.000000	-0.001195
695.000000	-0.001150
694.000000	-0.001090
693.000000	-0.001045
692.000000	-0.001014
691.000000	-0.000987
690.000000	-0.000973
689.000000	-0.000992
688.000000	-0.001044
687.000000	-0.001101
686.000000	-0.001147
685.000000	-0.001190
684.000000	-0.001218
683.000000	-0.001193
682.000000	-0.001099
681.000000	-0.000984
680.000000	-0.000923
679.000000	-0.000946
678.000000	-0.001021
677.000000	-0.001079
676.000000	-0.001069
675.000000	-0.000986
674.000000	-0.000865
673.000000	-0.000762
672.000000	-0.000734
671.000000	-0.000827
670.000000	-0.001034
669.000000	-0.001270
668.000000	-0.001300
667.000000	-0.001045
666.000000	-0.000803
665.000000	-0.000701
664.000000	-0.000684
663.000000	-0.000730
662.000000	-0.000805
661.000000	-0.000861
660.000000	-0.000859
659.000000	-0.000818
658.000000	-0.000785
657.000000	-0.000769
656.000000	-0.000754
655.000000	-0.000759
654.000000	-0.000811
653.000000	-0.000883
652.000000	-0.000923
651.000000	-0.000916
650.000000	-0.000887
649.000000	-0.000858
648.000000	-0.000837
647.000000	-0.000837
646.000000	-0.000870
645.000000	-0.000925
644.000000	-0.000971
643.000000	-0.000988
642.000000	-0.000987
641.000000	-0.001004
640.000000	-0.001059
639.000000	-0.001130
638.000000	-0.001169
637.000000	-0.001159
636.000000	-0.001130
635.000000	-0.001111
634.000000	-0.001091
633.000000	-0.001040
632.000000	-0.000970
631.000000	-0.000925
630.000000	-0.000933
629.000000	-0.000974
628.000000	-0.001014
627.000000	-0.001031
626.000000	-0.001007
625.000000	-0.000933
624.000000	-0.000819
623.000000	-0.000686
622.000000	-0.000562
621.000000	-0.000486
620.000000	-0.000506
619.000000	-0.000640
618.000000	-0.000830
617.000000	-0.000989
616.000000	-0.001060
615.000000	-0.001041
614.000000	-0.000951
613.000000	-0.000829
612.000000	-0.000747
611.000000	-0.000762
610.000000	-0.000849
609.000000	-0.000915
608.000000	-0.000896
607.000000	-0.000797
606.000000	-0.000652
605.000000	-0.000501
604.000000	-0.000399
603.000000	-0.000389
602.000000	-0.000440
601.000000	-0.000461
600.000000	-0.000405
599.000000	-0.000319
598.000000	-0.000261
597.000000	-0.000226
596.000000	-0.000183
595.000000	-0.000151
594.000000	-0.000183
593.000000	-0.000296
592.000000	-0.000446
591.000000	-0.000574
590.000000	-0.000647
589.000000	-0.000672
588.000000	-0.000681
587.000000	-0.000708
586.000000	-0.000753
585.000000	-0.000782
584.000000	-0.000772
583.000000	-0.000742
582.000000	-0.000728
581.000000	-0.000740
580.000000	-0.000770
579.000000	-0.000817
578.000000	-0.000856
577.000000	-0.000838
576.000000	-0.000736
575.000000	-0.000601
574.000000	-0.000517
573.000000	-0.000516
572.000000	-0.000556
571.000000	-0.000588
570.000000	-0.000600
569.000000	-0.000606
568.000000	-0.000622
567.000000	-0.000654
566.000000	-0.000692
565.000000	-0.000717
564.000000	-0.000710
563.000000	-0.000668
562.000000	-0.000601
561.000000	-0.000543
560.000000	-0.000546
559.000000	-0.000654
558.000000	-0.000837
557.000000	-0.000989
556.000000	-0.001015
555.000000	-0.000910
554.000000	-0.000754
553.000000	-0.000641
552.000000	-0.000632
551.000000	-0.000738
550.000000	-0.000911
549.000000	-0.001058
548.000000	-0.001109
547.000000	-0.001071
546.000000	-0.001006
545.000000	-0.000963
544.000000	-0.000952
543.000000	-0.000974
542.000000	-0.001034
541.000000	-0.001125
540.000000	-0.001224
539.000000	-0.001303
538.000000	-0.001335
537.000000	-0.001299
536.000000	-0.001200
535.000000	-0.001085
534.000000	-0.001013
533.000000	-0.001001
532.000000	-0.001004
531.000000	-0.000959
530.000000	-0.000839
529.000000	-0.000682
528.000000	-0.000552
527.000000	-0.000492
526.000000	-0.000494
525.000000	-0.000522
524.000000	-0.000574
523.000000	-0.000681
522.000000	-0.000843
521.000000	-0.001002
520.000000	-0.001103
519.000000	-0.001148
518.000000	-0.001173
517.000000	-0.001182
516.000000	-0.001153
515.000000	-0.001087
514.000000	-0.001015
513.000000	-0.000953
512.000000	-0.000909
511.000000	-0.000901
510.000000	-0.000954
509.000000	-0.001044
508.000000	-0.001088
507.000000	-0.001014
506.000000	-0.000850
505.000000	-0.000717
504.000000	-0.000728
503.000000	-0.000909
502.000000	-0.001187
501.000000	-0.001452
500.000000	-0.001618
499.000000	-0.001630
498.000000	-0.001453
497.000000	-0.001134
496.000000	-0.000835
495.000000	-0.000728
494.000000	-0.000838
493.000000	-0.001027
492.000000	-0.001131
491.000000	-0.001114
490.000000	-0.001056
489.000000	-0.001053
488.000000	-0.001137
487.000000	-0.001246
486.000000	-0.001263
485.000000	-0.001117
484.000000	-0.000905
483.000000	-0.000831
482.000000	-0.000996
481.000000	-0.001292
480.000000	-0.001549
479.000000	-0.001687
478.000000	-0.001724
477.000000	-0.001704
476.000000	-0.001689
475.000000	-0.001756
474.000000	-0.001922
473.000000	-0.002082
472.000000	-0.002105
471.000000	-0.002011
470.000000	-0.001936
469.000000	-0.001942
468.000000	-0.001982
467.000000	-0.001983
466.000000	-0.001898
465.000000	-0.001706
464.000000	-0.001434
463.000000	-0.001194
462.000000	-0.001115
461.000000	-0.001221
460.000000	-0.001446
459.000000	-0.001735
458.000000	-0.002030
457.000000	-0.002200
456.000000	-0.002154
455.000000	-0.001990
454.000000	-0.001914
453.000000	-0.002042
452.000000	-0.002338
451.000000	-0.002632
450.000000	-0.002811
