PE IR       SUBTECH     SPECTRUM    ASCII       PEDS        4.00        
   -1
P12-Noir010_1.ASC
23/06/09
11:46:13.00
23/06/09
11:56:02.00
uco
Sample 010 By uco Date Friday, June 09 2023
450.000000
#HDR
-1
-1
#GR
cm-1
A
1.0
0.0
4000.000000
-1.000000
3551
8
0.016152
0.000290
#DATA
4000.000000	0.001142
3999.000000	0.001143
3998.000000	0.001143
3997.000000	0.001146
3996.000000	0.001151
3995.000000	0.001153
3994.000000	0.001156
3993.000000	0.001161
3992.000000	0.001174
3991.000000	0.001191
3990.000000	0.001204
3989.000000	0.001207
3988.000000	0.001198
3987.000000	0.001187
3986.000000	0.001182
3985.000000	0.001191
3984.000000	0.001214
3983.000000	0.001243
3982.000000	0.001268
3981.000000	0.001276
3980.000000	0.001262
3979.000000	0.001232
3978.000000	0.001196
3977.000000	0.001162
3976.000000	0.001137
3975.000000	0.001128
3974.000000	0.001137
3973.000000	0.001163
3972.000000	0.001194
3971.000000	0.001217
3970.000000	0.001228
3969.000000	0.001227
3968.000000	0.001223
3967.000000	0.001223
3966.000000	0.001230
3965.000000	0.001242
3964.000000	0.001252
3963.000000	0.001251
3962.000000	0.001236
3961.000000	0.001214
3960.000000	0.001196
3959.000000	0.001191
3958.000000	0.001202
3957.000000	0.001223
3956.000000	0.001244
3955.000000	0.001259
3954.000000	0.001262
3953.000000	0.001257
3952.000000	0.001247
3951.000000	0.001234
3950.000000	0.001215
3949.000000	0.001194
3948.000000	0.001176
3947.000000	0.001168
3946.000000	0.001175
3945.000000	0.001191
3944.000000	0.001212
3943.000000	0.001230
3942.000000	0.001241
3941.000000	0.001244
3940.000000	0.001240
3939.000000	0.001233
3938.000000	0.001228
3937.000000	0.001228
3936.000000	0.001232
3935.000000	0.001235
3934.000000	0.001231
3933.000000	0.001221
3932.000000	0.001214
3931.000000	0.001218
3930.000000	0.001228
3929.000000	0.001234
3928.000000	0.001232
3927.000000	0.001229
3926.000000	0.001235
3925.000000	0.001257
3924.000000	0.001287
3923.000000	0.001308
3922.000000	0.001311
3921.000000	0.001295
3920.000000	0.001273
3919.000000	0.001254
3918.000000	0.001239
3917.000000	0.001224
3916.000000	0.001208
3915.000000	0.001197
3914.000000	0.001197
3913.000000	0.001208
3912.000000	0.001224
3911.000000	0.001242
3910.000000	0.001257
3909.000000	0.001269
3908.000000	0.001277
3907.000000	0.001278
3906.000000	0.001271
3905.000000	0.001258
3904.000000	0.001245
3903.000000	0.001242
3902.000000	0.001253
3901.000000	0.001270
3900.000000	0.001276
3899.000000	0.001260
3898.000000	0.001228
3897.000000	0.001192
3896.000000	0.001166
3895.000000	0.001157
3894.000000	0.001167
3893.000000	0.001190
3892.000000	0.001215
3891.000000	0.001229
3890.000000	0.001226
3889.000000	0.001220
3888.000000	0.001229
3887.000000	0.001248
3886.000000	0.001251
3885.000000	0.001222
3884.000000	0.001170
3883.000000	0.001126
3882.000000	0.001107
3881.000000	0.001112
3880.000000	0.001131
3879.000000	0.001154
3878.000000	0.001186
3877.000000	0.001230
3876.000000	0.001276
3875.000000	0.001298
3874.000000	0.001280
3873.000000	0.001235
3872.000000	0.001193
3871.000000	0.001172
3870.000000	0.001177
3869.000000	0.001197
3868.000000	0.001221
3867.000000	0.001243
3866.000000	0.001256
3865.000000	0.001253
3864.000000	0.001236
3863.000000	0.001217
3862.000000	0.001210
3861.000000	0.001223
3860.000000	0.001253
3859.000000	0.001287
3858.000000	0.001313
3857.000000	0.001334
3856.000000	0.001355
3855.000000	0.001361
3854.000000	0.001333
3853.000000	0.001294
3852.000000	0.001270
3851.000000	0.001258
3850.000000	0.001250
3849.000000	0.001240
3848.000000	0.001230
3847.000000	0.001226
3846.000000	0.001229
3845.000000	0.001238
3844.000000	0.001247
3843.000000	0.001250
3842.000000	0.001250
3841.000000	0.001249
3840.000000	0.001247
3839.000000	0.001244
3838.000000	0.001240
3837.000000	0.001237
3836.000000	0.001236
3835.000000	0.001236
3834.000000	0.001236
3833.000000	0.001235
3832.000000	0.001234
3831.000000	0.001236
3830.000000	0.001249
3829.000000	0.001271
3828.000000	0.001292
3827.000000	0.001298
3826.000000	0.001285
3825.000000	0.001268
3824.000000	0.001264
3823.000000	0.001274
3822.000000	0.001277
3821.000000	0.001265
3820.000000	0.001247
3819.000000	0.001234
3818.000000	0.001233
3817.000000	0.001236
3816.000000	0.001230
3815.000000	0.001214
3814.000000	0.001198
3813.000000	0.001187
3812.000000	0.001183
3811.000000	0.001186
3810.000000	0.001196
3809.000000	0.001206
3808.000000	0.001199
3807.000000	0.001172
3806.000000	0.001143
3805.000000	0.001137
3804.000000	0.001164
3803.000000	0.001209
3802.000000	0.001243
3801.000000	0.001253
3800.000000	0.001249
3799.000000	0.001253
3798.000000	0.001273
3797.000000	0.001298
3796.000000	0.001313
3795.000000	0.001309
3794.000000	0.001288
3793.000000	0.001260
3792.000000	0.001236
3791.000000	0.001221
3790.000000	0.001219
3789.000000	0.001230
3788.000000	0.001253
3787.000000	0.001277
3786.000000	0.001288
3785.000000	0.001281
3784.000000	0.001261
3783.000000	0.001243
3782.000000	0.001233
3781.000000	0.001228
3780.000000	0.001222
3779.000000	0.001219
3778.000000	0.001220
3777.000000	0.001221
3776.000000	0.001217
3775.000000	0.001207
3774.000000	0.001201
3773.000000	0.001209
3772.000000	0.001234
3771.000000	0.001264
3770.000000	0.001287
3769.000000	0.001295
3768.000000	0.001292
3767.000000	0.001284
3766.000000	0.001275
3765.000000	0.001267
3764.000000	0.001264
3763.000000	0.001265
3762.000000	0.001269
3761.000000	0.001272
3760.000000	0.001272
3759.000000	0.001270
3758.000000	0.001265
3757.000000	0.001254
3756.000000	0.001241
3755.000000	0.001228
3754.000000	0.001216
3753.000000	0.001204
3752.000000	0.001201
3751.000000	0.001230
3750.000000	0.001285
3749.000000	0.001330
3748.000000	0.001347
3747.000000	0.001352
3746.000000	0.001362
3745.000000	0.001365
3744.000000	0.001349
3743.000000	0.001311
3742.000000	0.001259
3741.000000	0.001203
3740.000000	0.001154
3739.000000	0.001127
3738.000000	0.001135
3737.000000	0.001172
3736.000000	0.001213
3735.000000	0.001221
3734.000000	0.001186
3733.000000	0.001133
3732.000000	0.001092
3731.000000	0.001076
3730.000000	0.001086
3729.000000	0.001120
3728.000000	0.001171
3727.000000	0.001225
3726.000000	0.001270
3725.000000	0.001296
3724.000000	0.001302
3723.000000	0.001292
3722.000000	0.001276
3721.000000	0.001263
3720.000000	0.001255
3719.000000	0.001246
3718.000000	0.001227
3717.000000	0.001199
3716.000000	0.001172
3715.000000	0.001157
3714.000000	0.001161
3713.000000	0.001187
3712.000000	0.001226
3711.000000	0.001266
3710.000000	0.001291
3709.000000	0.001296
3708.000000	0.001286
3707.000000	0.001266
3706.000000	0.001239
3705.000000	0.001206
3704.000000	0.001170
3703.000000	0.001140
3702.000000	0.001128
3701.000000	0.001137
3700.000000	0.001157
3699.000000	0.001177
3698.000000	0.001195
3697.000000	0.001213
3696.000000	0.001236
3695.000000	0.001267
3694.000000	0.001305
3693.000000	0.001342
3692.000000	0.001362
3691.000000	0.001348
3690.000000	0.001297
3689.000000	0.001228
3688.000000	0.001174
3687.000000	0.001149
3686.000000	0.001145
3685.000000	0.001151
3684.000000	0.001165
3683.000000	0.001194
3682.000000	0.001235
3681.000000	0.001272
3680.000000	0.001286
3679.000000	0.001277
3678.000000	0.001261
3677.000000	0.001250
3676.000000	0.001246
3675.000000	0.001246
3674.000000	0.001238
3673.000000	0.001221
3672.000000	0.001203
3671.000000	0.001188
3670.000000	0.001184
3669.000000	0.001202
3668.000000	0.001236
3667.000000	0.001274
3666.000000	0.001313
3665.000000	0.001352
3664.000000	0.001393
3663.000000	0.001432
3662.000000	0.001462
3661.000000	0.001478
3660.000000	0.001485
3659.000000	0.001490
3658.000000	0.001493
3657.000000	0.001484
3656.000000	0.001463
3655.000000	0.001442
3654.000000	0.001437
3653.000000	0.001454
3652.000000	0.001490
3651.000000	0.001533
3650.000000	0.001578
3649.000000	0.001627
3648.000000	0.001666
3647.000000	0.001680
3646.000000	0.001671
3645.000000	0.001660
3644.000000	0.001666
3643.000000	0.001693
3642.000000	0.001729
3641.000000	0.001754
3640.000000	0.001761
3639.000000	0.001759
3638.000000	0.001764
3637.000000	0.001782
3636.000000	0.001807
3635.000000	0.001833
3634.000000	0.001853
3633.000000	0.001872
3632.000000	0.001902
3631.000000	0.001952
3630.000000	0.002015
3629.000000	0.002065
3628.000000	0.002083
3627.000000	0.002075
3626.000000	0.002066
3625.000000	0.002070
3624.000000	0.002081
3623.000000	0.002083
3622.000000	0.002072
3621.000000	0.002056
3620.000000	0.002060
3619.000000	0.002104
3618.000000	0.002181
3617.000000	0.002259
3616.000000	0.002318
3615.000000	0.002356
3614.000000	0.002381
3613.000000	0.002407
3612.000000	0.002439
3611.000000	0.002484
3610.000000	0.002544
3609.000000	0.002615
3608.000000	0.002676
3607.000000	0.002707
3606.000000	0.002705
3605.000000	0.002685
3604.000000	0.002667
3603.000000	0.002663
3602.000000	0.002673
3601.000000	0.002689
3600.000000	0.002705
3599.000000	0.002719
3598.000000	0.002739
3597.000000	0.002769
3596.000000	0.002811
3595.000000	0.002857
3594.000000	0.002902
3593.000000	0.002938
3592.000000	0.002966
3591.000000	0.002987
3590.000000	0.003002
3589.000000	0.003012
3588.000000	0.003027
3587.000000	0.003057
3586.000000	0.003104
3585.000000	0.003158
3584.000000	0.003209
3583.000000	0.003256
3582.000000	0.003294
3581.000000	0.003320
3580.000000	0.003336
3579.000000	0.003350
3578.000000	0.003370
3577.000000	0.003395
3576.000000	0.003420
3575.000000	0.003439
3574.000000	0.003456
3573.000000	0.003475
3572.000000	0.003496
3571.000000	0.003522
3570.000000	0.003549
3569.000000	0.003574
3568.000000	0.003589
3567.000000	0.003599
3566.000000	0.003622
3565.000000	0.003668
3564.000000	0.003734
3563.000000	0.003805
3562.000000	0.003870
3561.000000	0.003922
3560.000000	0.003960
3559.000000	0.003985
3558.000000	0.003998
3557.000000	0.003999
3556.000000	0.003999
3555.000000	0.004010
3554.000000	0.004047
3553.000000	0.004112
3552.000000	0.004192
3551.000000	0.004263
3550.000000	0.004309
3549.000000	0.004326
3548.000000	0.004324
3547.000000	0.004316
3546.000000	0.004319
3545.000000	0.004340
3544.000000	0.004375
3543.000000	0.004415
3542.000000	0.004455
3541.000000	0.004491
3540.000000	0.004528
3539.000000	0.004568
3538.000000	0.004608
3537.000000	0.004641
3536.000000	0.004663
3535.000000	0.004671
3534.000000	0.004673
3533.000000	0.004675
3532.000000	0.004682
3531.000000	0.004692
3530.000000	0.004703
3529.000000	0.004712
3528.000000	0.004722
3527.000000	0.004737
3526.000000	0.004759
3525.000000	0.004788
3524.000000	0.004817
3523.000000	0.004843
3522.000000	0.004864
3521.000000	0.004886
3520.000000	0.004917
3519.000000	0.004959
3518.000000	0.005006
3517.000000	0.005050
3516.000000	0.005085
3515.000000	0.005108
3514.000000	0.005121
3513.000000	0.005128
3512.000000	0.005131
3511.000000	0.005139
3510.000000	0.005156
3509.000000	0.005178
3508.000000	0.005197
3507.000000	0.005203
3506.000000	0.005199
3505.000000	0.005189
3504.000000	0.005185
3503.000000	0.005195
3502.000000	0.005220
3501.000000	0.005252
3500.000000	0.005281
3499.000000	0.005304
3498.000000	0.005325
3497.000000	0.005349
3496.000000	0.005376
3495.000000	0.005401
3494.000000	0.005424
3493.000000	0.005446
3492.000000	0.005469
3491.000000	0.005488
3490.000000	0.005496
3489.000000	0.005497
3488.000000	0.005499
3487.000000	0.005511
3486.000000	0.005535
3485.000000	0.005562
3484.000000	0.005586
3483.000000	0.005604
3482.000000	0.005623
3481.000000	0.005645
3480.000000	0.005667
3479.000000	0.005689
3478.000000	0.005714
3477.000000	0.005746
3476.000000	0.005782
3475.000000	0.005808
3474.000000	0.005810
3473.000000	0.005787
3472.000000	0.005757
3471.000000	0.005747
3470.000000	0.005771
3469.000000	0.005821
3468.000000	0.005873
3467.000000	0.005905
3466.000000	0.005911
3465.000000	0.005901
3464.000000	0.005887
3463.000000	0.005878
3462.000000	0.005880
3461.000000	0.005897
3460.000000	0.005924
3459.000000	0.005951
3458.000000	0.005969
3457.000000	0.005973
3456.000000	0.005971
3455.000000	0.005974
3454.000000	0.005986
3453.000000	0.006003
3452.000000	0.006016
3451.000000	0.006026
3450.000000	0.006043
3449.000000	0.006075
3448.000000	0.006120
3447.000000	0.006166
3446.000000	0.006204
3445.000000	0.006231
3444.000000	0.006252
3443.000000	0.006271
3442.000000	0.006286
3441.000000	0.006296
3440.000000	0.006299
3439.000000	0.006296
3438.000000	0.006289
3437.000000	0.006284
3436.000000	0.006290
3435.000000	0.006311
3434.000000	0.006342
3433.000000	0.006374
3432.000000	0.006398
3431.000000	0.006410
3430.000000	0.006414
3429.000000	0.006418
3428.000000	0.006430
3427.000000	0.006451
3426.000000	0.006474
3425.000000	0.006493
3424.000000	0.006502
3423.000000	0.006505
3422.000000	0.006511
3421.000000	0.006524
3420.000000	0.006547
3419.000000	0.006578
3418.000000	0.006619
3417.000000	0.006665
3416.000000	0.006712
3415.000000	0.006750
3414.000000	0.006775
3413.000000	0.006791
3412.000000	0.006804
3411.000000	0.006822
3410.000000	0.006843
3409.000000	0.006868
3408.000000	0.006897
3407.000000	0.006930
3406.000000	0.006962
3405.000000	0.006985
3404.000000	0.006990
3403.000000	0.006975
3402.000000	0.006949
3401.000000	0.006926
3400.000000	0.006922
3399.000000	0.006945
3398.000000	0.006984
3397.000000	0.007024
3396.000000	0.007052
3395.000000	0.007072
3394.000000	0.007090
3393.000000	0.007105
3392.000000	0.007107
3391.000000	0.007091
3390.000000	0.007065
3389.000000	0.007048
3388.000000	0.007048
3387.000000	0.007059
3386.000000	0.007071
3385.000000	0.007079
3384.000000	0.007082
3383.000000	0.007084
3382.000000	0.007086
3381.000000	0.007092
3380.000000	0.007103
3379.000000	0.007117
3378.000000	0.007133
3377.000000	0.007147
3376.000000	0.007161
3375.000000	0.007175
3374.000000	0.007188
3373.000000	0.007198
3372.000000	0.007203
3371.000000	0.007200
3370.000000	0.007190
3369.000000	0.007176
3368.000000	0.007165
3367.000000	0.007164
3366.000000	0.007175
3365.000000	0.007193
3364.000000	0.007209
3363.000000	0.007218
3362.000000	0.007216
3361.000000	0.007206
3360.000000	0.007192
3359.000000	0.007180
3358.000000	0.007173
3357.000000	0.007174
3356.000000	0.007175
3355.000000	0.007172
3354.000000	0.007167
3353.000000	0.007171
3352.000000	0.007189
3351.000000	0.007213
3350.000000	0.007229
3349.000000	0.007235
3348.000000	0.007238
3347.000000	0.007250
3346.000000	0.007272
3345.000000	0.007299
3344.000000	0.007324
3343.000000	0.007343
3342.000000	0.007353
3341.000000	0.007354
3340.000000	0.007352
3339.000000	0.007358
3338.000000	0.007380
3337.000000	0.007414
3336.000000	0.007443
3335.000000	0.007455
3334.000000	0.007447
3333.000000	0.007430
3332.000000	0.007418
3331.000000	0.007418
3330.000000	0.007425
3329.000000	0.007435
3328.000000	0.007447
3327.000000	0.007462
3326.000000	0.007481
3325.000000	0.007499
3324.000000	0.007510
3323.000000	0.007513
3322.000000	0.007512
3321.000000	0.007509
3320.000000	0.007507
3319.000000	0.007502
3318.000000	0.007499
3317.000000	0.007502
3316.000000	0.007515
3315.000000	0.007532
3314.000000	0.007541
3313.000000	0.007537
3312.000000	0.007521
3311.000000	0.007501
3310.000000	0.007481
3309.000000	0.007458
3308.000000	0.007433
3307.000000	0.007412
3306.000000	0.007402
3305.000000	0.007404
3304.000000	0.007415
3303.000000	0.007431
3302.000000	0.007445
3301.000000	0.007451
3300.000000	0.007448
3299.000000	0.007442
3298.000000	0.007439
3297.000000	0.007442
3296.000000	0.007450
3295.000000	0.007463
3294.000000	0.007481
3293.000000	0.007499
3292.000000	0.007507
3291.000000	0.007500
3290.000000	0.007478
3289.000000	0.007451
3288.000000	0.007428
3287.000000	0.007420
3286.000000	0.007427
3285.000000	0.007446
3284.000000	0.007468
3283.000000	0.007490
3282.000000	0.007513
3281.000000	0.007537
3280.000000	0.007553
3279.000000	0.007552
3278.000000	0.007532
3277.000000	0.007499
3276.000000	0.007466
3275.000000	0.007441
3274.000000	0.007427
3273.000000	0.007413
3272.000000	0.007392
3271.000000	0.007372
3270.000000	0.007368
3269.000000	0.007387
3268.000000	0.007417
3267.000000	0.007437
3266.000000	0.007441
3265.000000	0.007438
3264.000000	0.007436
3263.000000	0.007436
3262.000000	0.007439
3261.000000	0.007448
3260.000000	0.007460
3259.000000	0.007466
3258.000000	0.007456
3257.000000	0.007435
3256.000000	0.007417
3255.000000	0.007415
3254.000000	0.007427
3253.000000	0.007444
3252.000000	0.007454
3251.000000	0.007449
3250.000000	0.007427
3249.000000	0.007391
3248.000000	0.007354
3247.000000	0.007325
3246.000000	0.007314
3245.000000	0.007318
3244.000000	0.007329
3243.000000	0.007339
3242.000000	0.007346
3241.000000	0.007349
3240.000000	0.007350
3239.000000	0.007344
3238.000000	0.007332
3237.000000	0.007321
3236.000000	0.007315
3235.000000	0.007310
3234.000000	0.007298
3233.000000	0.007276
3232.000000	0.007252
3231.000000	0.007235
3230.000000	0.007231
3229.000000	0.007239
3228.000000	0.007257
3227.000000	0.007276
3226.000000	0.007288
3225.000000	0.007290
3224.000000	0.007282
3223.000000	0.007266
3222.000000	0.007247
3221.000000	0.007232
3220.000000	0.007225
3219.000000	0.007223
3218.000000	0.007216
3217.000000	0.007191
3216.000000	0.007150
3215.000000	0.007109
3214.000000	0.007081
3213.000000	0.007072
3212.000000	0.007074
3211.000000	0.007077
3210.000000	0.007077
3209.000000	0.007077
3208.000000	0.007085
3207.000000	0.007101
3206.000000	0.007115
3205.000000	0.007111
3204.000000	0.007087
3203.000000	0.007055
3202.000000	0.007029
3201.000000	0.007012
3200.000000	0.007000
3199.000000	0.006986
3198.000000	0.006976
3197.000000	0.006976
3196.000000	0.006987
3195.000000	0.006997
3194.000000	0.006995
3193.000000	0.006980
3192.000000	0.006959
3191.000000	0.006946
3190.000000	0.006947
3189.000000	0.006960
3188.000000	0.006969
3187.000000	0.006963
3186.000000	0.006935
3185.000000	0.006891
3184.000000	0.006841
3183.000000	0.006798
3182.000000	0.006772
3181.000000	0.006760
3180.000000	0.006759
3179.000000	0.006763
3178.000000	0.006765
3177.000000	0.006755
3176.000000	0.006729
3175.000000	0.006695
3174.000000	0.006669
3173.000000	0.006663
3172.000000	0.006676
3171.000000	0.006698
3170.000000	0.006720
3169.000000	0.006738
3168.000000	0.006752
3167.000000	0.006757
3166.000000	0.006748
3165.000000	0.006725
3164.000000	0.006695
3163.000000	0.006666
3162.000000	0.006641
3161.000000	0.006614
3160.000000	0.006582
3159.000000	0.006547
3158.000000	0.006524
3157.000000	0.006525
3156.000000	0.006548
3155.000000	0.006575
3154.000000	0.006587
3153.000000	0.006576
3152.000000	0.006548
3151.000000	0.006518
3150.000000	0.006496
3149.000000	0.006480
3148.000000	0.006461
3147.000000	0.006439
3146.000000	0.006415
3145.000000	0.006390
3144.000000	0.006357
3143.000000	0.006310
3142.000000	0.006260
3141.000000	0.006227
3140.000000	0.006226
3139.000000	0.006250
3138.000000	0.006274
3137.000000	0.006277
3136.000000	0.006257
3135.000000	0.006229
3134.000000	0.006210
3133.000000	0.006204
3132.000000	0.006201
3131.000000	0.006192
3130.000000	0.006176
3129.000000	0.006161
3128.000000	0.006153
3127.000000	0.006147
3126.000000	0.006136
3125.000000	0.006112
3124.000000	0.006082
3123.000000	0.006053
3122.000000	0.006035
3121.000000	0.006031
3120.000000	0.006035
3119.000000	0.006042
3118.000000	0.006049
3117.000000	0.006052
3116.000000	0.006049
3115.000000	0.006037
3114.000000	0.006016
3113.000000	0.005992
3112.000000	0.005968
3111.000000	0.005946
3110.000000	0.005926
3109.000000	0.005907
3108.000000	0.005893
3107.000000	0.005882
3106.000000	0.005875
3105.000000	0.005870
3104.000000	0.005865
3103.000000	0.005855
3102.000000	0.005843
3101.000000	0.005834
3100.000000	0.005832
3099.000000	0.005833
3098.000000	0.005825
3097.000000	0.005800
3096.000000	0.005769
3095.000000	0.005754
3094.000000	0.005767
3093.000000	0.005802
3092.000000	0.005834
3091.000000	0.005843
3090.000000	0.005819
3089.000000	0.005773
3088.000000	0.005723
3087.000000	0.005689
3086.000000	0.005677
3085.000000	0.005682
3084.000000	0.005693
3083.000000	0.005703
3082.000000	0.005710
3081.000000	0.005707
3080.000000	0.005688
3079.000000	0.005654
3078.000000	0.005619
3077.000000	0.005598
3076.000000	0.005599
3075.000000	0.005618
3074.000000	0.005643
3073.000000	0.005660
3072.000000	0.005658
3071.000000	0.005635
3070.000000	0.005597
3069.000000	0.005558
3068.000000	0.005531
3067.000000	0.005523
3066.000000	0.005528
3065.000000	0.005532
3064.000000	0.005522
3063.000000	0.005499
3062.000000	0.005475
3061.000000	0.005461
3060.000000	0.005451
3059.000000	0.005434
3058.000000	0.005411
3057.000000	0.005392
3056.000000	0.005388
3055.000000	0.005391
3054.000000	0.005391
3053.000000	0.005381
3052.000000	0.005364
3051.000000	0.005345
3050.000000	0.005328
3049.000000	0.005315
3048.000000	0.005300
3047.000000	0.005274
3046.000000	0.005231
3045.000000	0.005175
3044.000000	0.005121
3043.000000	0.005084
3042.000000	0.005068
3041.000000	0.005068
3040.000000	0.005074
3039.000000	0.005083
3038.000000	0.005094
3037.000000	0.005110
3036.000000	0.005126
3035.000000	0.005132
3034.000000	0.005120
3033.000000	0.005095
3032.000000	0.005070
3031.000000	0.005053
3030.000000	0.005044
3029.000000	0.005038
3028.000000	0.005031
3027.000000	0.005023
3026.000000	0.005014
3025.000000	0.005004
3024.000000	0.004990
3023.000000	0.004969
3022.000000	0.004938
3021.000000	0.004903
3020.000000	0.004870
3019.000000	0.004846
3018.000000	0.004830
3017.000000	0.004821
3016.000000	0.004816
3015.000000	0.004812
3014.000000	0.004806
3013.000000	0.004799
3012.000000	0.004797
3011.000000	0.004801
3010.000000	0.004807
3009.000000	0.004813
3008.000000	0.004819
3007.000000	0.004826
3006.000000	0.004830
3005.000000	0.004827
3004.000000	0.004822
3003.000000	0.004822
3002.000000	0.004829
3001.000000	0.004836
3000.000000	0.004837
2999.000000	0.004832
2998.000000	0.004828
2997.000000	0.004829
2996.000000	0.004834
2995.000000	0.004839
2994.000000	0.004845
2993.000000	0.004853
2992.000000	0.004867
2991.000000	0.004886
2990.000000	0.004899
2989.000000	0.004900
2988.000000	0.004893
2987.000000	0.004890
2986.000000	0.004897
2985.000000	0.004911
2984.000000	0.004928
2983.000000	0.004948
2982.000000	0.004972
2981.000000	0.004997
2980.000000	0.005021
2979.000000	0.005043
2978.000000	0.005067
2977.000000	0.005096
2976.000000	0.005129
2975.000000	0.005164
2974.000000	0.005199
2973.000000	0.005235
2972.000000	0.005269
2971.000000	0.005301
2970.000000	0.005333
2969.000000	0.005369
2968.000000	0.005414
2967.000000	0.005469
2966.000000	0.005526
2965.000000	0.005573
2964.000000	0.005600
2963.000000	0.005605
2962.000000	0.005597
2961.000000	0.005595
2960.000000	0.005610
2959.000000	0.005641
2958.000000	0.005672
2957.000000	0.005688
2956.000000	0.005687
2955.000000	0.005678
2954.000000	0.005666
2953.000000	0.005650
2952.000000	0.005627
2951.000000	0.005606
2950.000000	0.005600
2949.000000	0.005616
2948.000000	0.005646
2947.000000	0.005673
2946.000000	0.005687
2945.000000	0.005696
2944.000000	0.005717
2943.000000	0.005758
2942.000000	0.005814
2941.000000	0.005875
2940.000000	0.005936
2939.000000	0.005998
2938.000000	0.006061
2937.000000	0.006113
2936.000000	0.006145
2935.000000	0.006161
2934.000000	0.006173
2933.000000	0.006190
2932.000000	0.006212
2931.000000	0.006233
2930.000000	0.006247
2929.000000	0.006259
2928.000000	0.006274
2927.000000	0.006291
2926.000000	0.006299
2925.000000	0.006291
2924.000000	0.006266
2923.000000	0.006236
2922.000000	0.006207
2921.000000	0.006181
2920.000000	0.006160
2919.000000	0.006143
2918.000000	0.006126
2917.000000	0.006100
2916.000000	0.006066
2915.000000	0.006032
2914.000000	0.006007
2913.000000	0.005982
2912.000000	0.005944
2911.000000	0.005892
2910.000000	0.005833
2909.000000	0.005781
2908.000000	0.005737
2907.000000	0.005701
2906.000000	0.005664
2905.000000	0.005617
2904.000000	0.005555
2903.000000	0.005484
2902.000000	0.005419
2901.000000	0.005371
2900.000000	0.005339
2899.000000	0.005314
2898.000000	0.005289
2897.000000	0.005265
2896.000000	0.005246
2895.000000	0.005233
2894.000000	0.005222
2893.000000	0.005204
2892.000000	0.005178
2891.000000	0.005149
2890.000000	0.005126
2889.000000	0.005105
2888.000000	0.005076
2887.000000	0.005035
2886.000000	0.004995
2885.000000	0.004969
2884.000000	0.004964
2883.000000	0.004975
2882.000000	0.004998
2881.000000	0.005036
2880.000000	0.005089
2879.000000	0.005143
2878.000000	0.005182
2877.000000	0.005197
2876.000000	0.005192
2875.000000	0.005179
2874.000000	0.005169
2873.000000	0.005166
2872.000000	0.005169
2871.000000	0.005173
2870.000000	0.005171
2869.000000	0.005161
2868.000000	0.005146
2867.000000	0.005133
2866.000000	0.005125
2865.000000	0.005119
2864.000000	0.005108
2863.000000	0.005095
2862.000000	0.005092
2861.000000	0.005107
2860.000000	0.005137
2859.000000	0.005169
2858.000000	0.005190
2857.000000	0.005194
2856.000000	0.005182
2855.000000	0.005164
2854.000000	0.005146
2853.000000	0.005127
2852.000000	0.005099
2851.000000	0.005059
2850.000000	0.005008
2849.000000	0.004952
2848.000000	0.004892
2847.000000	0.004834
2846.000000	0.004781
2845.000000	0.004730
2844.000000	0.004677
2843.000000	0.004617
2842.000000	0.004559
2841.000000	0.004512
2840.000000	0.004482
2839.000000	0.004468
2838.000000	0.004463
2837.000000	0.004456
2836.000000	0.004433
2835.000000	0.004393
2834.000000	0.004353
2833.000000	0.004335
2832.000000	0.004337
2831.000000	0.004340
2830.000000	0.004323
2829.000000	0.004291
2828.000000	0.004262
2827.000000	0.004248
2826.000000	0.004248
2825.000000	0.004255
2824.000000	0.004259
2823.000000	0.004256
2822.000000	0.004243
2821.000000	0.004222
2820.000000	0.004196
2819.000000	0.004170
2818.000000	0.004150
2817.000000	0.004140
2816.000000	0.004140
2815.000000	0.004145
2814.000000	0.004144
2813.000000	0.004131
2812.000000	0.004105
2811.000000	0.004075
2810.000000	0.004059
2809.000000	0.004066
2808.000000	0.004082
2807.000000	0.004083
2806.000000	0.004058
2805.000000	0.004024
2804.000000	0.004007
2803.000000	0.004019
2802.000000	0.004045
2801.000000	0.004063
2800.000000	0.004059
2799.000000	0.004037
2798.000000	0.004012
2797.000000	0.003996
2796.000000	0.003990
2795.000000	0.003983
2794.000000	0.003968
2793.000000	0.003948
2792.000000	0.003933
2791.000000	0.003930
2790.000000	0.003937
2789.000000	0.003949
2788.000000	0.003957
2787.000000	0.003956
2786.000000	0.003947
2785.000000	0.003935
2784.000000	0.003929
2783.000000	0.003929
2782.000000	0.003928
2781.000000	0.003919
2780.000000	0.003905
2779.000000	0.003898
2778.000000	0.003901
2777.000000	0.003912
2776.000000	0.003921
2775.000000	0.003915
2774.000000	0.003890
2773.000000	0.003850
2772.000000	0.003811
2771.000000	0.003785
2770.000000	0.003773
2769.000000	0.003769
2768.000000	0.003772
2767.000000	0.003786
2766.000000	0.003810
2765.000000	0.003834
2764.000000	0.003846
2763.000000	0.003848
2762.000000	0.003850
2761.000000	0.003858
2760.000000	0.003867
2759.000000	0.003865
2758.000000	0.003842
2757.000000	0.003804
2756.000000	0.003768
2755.000000	0.003749
2754.000000	0.003752
2753.000000	0.003764
2752.000000	0.003772
2751.000000	0.003771
2750.000000	0.003766
2749.000000	0.003759
2748.000000	0.003749
2747.000000	0.003733
2746.000000	0.003719
2745.000000	0.003715
2744.000000	0.003725
2743.000000	0.003742
2742.000000	0.003755
2741.000000	0.003759
2740.000000	0.003757
2739.000000	0.003759
2738.000000	0.003765
2737.000000	0.003770
2736.000000	0.003771
2735.000000	0.003764
2734.000000	0.003752
2733.000000	0.003738
2732.000000	0.003724
2731.000000	0.003716
2730.000000	0.003711
2729.000000	0.003705
2728.000000	0.003696
2727.000000	0.003687
2726.000000	0.003683
2725.000000	0.003682
2724.000000	0.003680
2723.000000	0.003674
2722.000000	0.003665
2721.000000	0.003656
2720.000000	0.003647
2719.000000	0.003636
2718.000000	0.003624
2717.000000	0.003613
2716.000000	0.003604
2715.000000	0.003596
2714.000000	0.003593
2713.000000	0.003599
2712.000000	0.003616
2711.000000	0.003639
2710.000000	0.003656
2709.000000	0.003663
2708.000000	0.003661
2707.000000	0.003652
2706.000000	0.003639
2705.000000	0.003628
2704.000000	0.003626
2703.000000	0.003640
2702.000000	0.003659
2701.000000	0.003664
2700.000000	0.003642
2699.000000	0.003605
2698.000000	0.003569
2697.000000	0.003545
2696.000000	0.003533
2695.000000	0.003529
2694.000000	0.003528
2693.000000	0.003525
2692.000000	0.003517
2691.000000	0.003512
2690.000000	0.003516
2689.000000	0.003529
2688.000000	0.003546
2687.000000	0.003560
2686.000000	0.003573
2685.000000	0.003582
2684.000000	0.003581
2683.000000	0.003569
2682.000000	0.003550
2681.000000	0.003530
2680.000000	0.003519
2679.000000	0.003520
2678.000000	0.003532
2677.000000	0.003550
2676.000000	0.003561
2675.000000	0.003559
2674.000000	0.003548
2673.000000	0.003532
2672.000000	0.003515
2671.000000	0.003503
2670.000000	0.003501
2669.000000	0.003510
2668.000000	0.003521
2667.000000	0.003524
2666.000000	0.003519
2665.000000	0.003509
2664.000000	0.003495
2663.000000	0.003478
2662.000000	0.003465
2661.000000	0.003466
2660.000000	0.003483
2659.000000	0.003504
2658.000000	0.003518
2657.000000	0.003525
2656.000000	0.003528
2655.000000	0.003531
2654.000000	0.003529
2653.000000	0.003518
2652.000000	0.003502
2651.000000	0.003486
2650.000000	0.003474
2649.000000	0.003464
2648.000000	0.003455
2647.000000	0.003446
2646.000000	0.003436
2645.000000	0.003422
2644.000000	0.003406
2643.000000	0.003394
2642.000000	0.003392
2641.000000	0.003391
2640.000000	0.003380
2639.000000	0.003359
2638.000000	0.003341
2637.000000	0.003334
2636.000000	0.003332
2635.000000	0.003325
2634.000000	0.003312
2633.000000	0.003304
2632.000000	0.003305
2631.000000	0.003305
2630.000000	0.003296
2629.000000	0.003281
2628.000000	0.003272
2627.000000	0.003272
2626.000000	0.003278
2625.000000	0.003280
2624.000000	0.003279
2623.000000	0.003281
2622.000000	0.003291
2621.000000	0.003299
2620.000000	0.003290
2619.000000	0.003258
2618.000000	0.003219
2617.000000	0.003194
2616.000000	0.003192
2615.000000	0.003200
2614.000000	0.003205
2613.000000	0.003201
2612.000000	0.003194
2611.000000	0.003192
2610.000000	0.003194
2609.000000	0.003189
2608.000000	0.003171
2607.000000	0.003143
2606.000000	0.003115
2605.000000	0.003095
2604.000000	0.003081
2603.000000	0.003067
2602.000000	0.003055
2601.000000	0.003052
2600.000000	0.003059
2599.000000	0.003074
2598.000000	0.003090
2597.000000	0.003102
2596.000000	0.003107
2595.000000	0.003099
2594.000000	0.003078
2593.000000	0.003048
2592.000000	0.003017
2591.000000	0.002987
2590.000000	0.002963
2589.000000	0.002952
2588.000000	0.002959
2587.000000	0.002983
2586.000000	0.003013
2585.000000	0.003035
2584.000000	0.003043
2583.000000	0.003036
2582.000000	0.003023
2581.000000	0.003015
2580.000000	0.003012
2579.000000	0.003011
2578.000000	0.003009
2577.000000	0.003011
2576.000000	0.003021
2575.000000	0.003031
2574.000000	0.003026
2573.000000	0.003006
2572.000000	0.002988
2571.000000	0.002988
2570.000000	0.003001
2569.000000	0.003014
2568.000000	0.003023
2567.000000	0.003032
2566.000000	0.003038
2565.000000	0.003034
2564.000000	0.003019
2563.000000	0.003002
2562.000000	0.002990
2561.000000	0.002981
2560.000000	0.002970
2559.000000	0.002958
2558.000000	0.002943
2557.000000	0.002920
2556.000000	0.002883
2555.000000	0.002837
2554.000000	0.002796
2553.000000	0.002772
2552.000000	0.002773
2551.000000	0.002799
2550.000000	0.002837
2549.000000	0.002869
2548.000000	0.002880
2547.000000	0.002874
2546.000000	0.002857
2545.000000	0.002833
2544.000000	0.002803
2543.000000	0.002781
2542.000000	0.002783
2541.000000	0.002805
2540.000000	0.002830
2539.000000	0.002849
2538.000000	0.002869
2537.000000	0.002905
2536.000000	0.002948
2535.000000	0.002972
2534.000000	0.002957
2533.000000	0.002915
2532.000000	0.002879
2531.000000	0.002874
2530.000000	0.002897
2529.000000	0.002925
2528.000000	0.002941
2527.000000	0.002949
2526.000000	0.002957
2525.000000	0.002963
2524.000000	0.002958
2523.000000	0.002939
2522.000000	0.002917
2521.000000	0.002904
2520.000000	0.002903
2519.000000	0.002913
2518.000000	0.002925
2517.000000	0.002925
2516.000000	0.002909
2515.000000	0.002886
2514.000000	0.002873
2513.000000	0.002873
2512.000000	0.002871
2511.000000	0.002853
2510.000000	0.002817
2509.000000	0.002770
2508.000000	0.002726
2507.000000	0.002703
2506.000000	0.002709
2505.000000	0.002733
2504.000000	0.002749
2503.000000	0.002745
2502.000000	0.002728
2501.000000	0.002716
2500.000000	0.002718
2499.000000	0.002727
2498.000000	0.002731
2497.000000	0.002721
2496.000000	0.002697
2495.000000	0.002665
2494.000000	0.002635
2493.000000	0.002615
2492.000000	0.002614
2491.000000	0.002642
2490.000000	0.002696
2489.000000	0.002751
2488.000000	0.002777
2487.000000	0.002764
2486.000000	0.002732
2485.000000	0.002709
2484.000000	0.002708
2483.000000	0.002725
2482.000000	0.002750
2481.000000	0.002769
2480.000000	0.002776
2479.000000	0.002775
2478.000000	0.002776
2477.000000	0.002772
2476.000000	0.002750
2475.000000	0.002706
2474.000000	0.002663
2473.000000	0.002641
2472.000000	0.002637
2471.000000	0.002634
2470.000000	0.002619
2469.000000	0.002597
2468.000000	0.002579
2467.000000	0.002576
2466.000000	0.002589
2465.000000	0.002613
2464.000000	0.002640
2463.000000	0.002665
2462.000000	0.002685
2461.000000	0.002699
2460.000000	0.002703
2459.000000	0.002703
2458.000000	0.002704
2457.000000	0.002705
2456.000000	0.002699
2455.000000	0.002687
2454.000000	0.002684
2453.000000	0.002696
2452.000000	0.002715
2451.000000	0.002729
2450.000000	0.002730
2449.000000	0.002715
2448.000000	0.002683
2447.000000	0.002647
2446.000000	0.002625
2445.000000	0.002625
2444.000000	0.002633
2443.000000	0.002634
2442.000000	0.002633
2441.000000	0.002641
2440.000000	0.002661
2439.000000	0.002686
2438.000000	0.002709
2437.000000	0.002720
2436.000000	0.002704
2435.000000	0.002658
2434.000000	0.002607
2433.000000	0.002586
2432.000000	0.002609
2431.000000	0.002653
2430.000000	0.002682
2429.000000	0.002673
2428.000000	0.002630
2427.000000	0.002577
2426.000000	0.002537
2425.000000	0.002519
2424.000000	0.002514
2423.000000	0.002511
2422.000000	0.002510
2421.000000	0.002518
2420.000000	0.002539
2419.000000	0.002575
2418.000000	0.002617
2417.000000	0.002648
2416.000000	0.002647
2415.000000	0.002617
2414.000000	0.002577
2413.000000	0.002548
2412.000000	0.002528
2411.000000	0.002513
2410.000000	0.002508
2409.000000	0.002524
2408.000000	0.002549
2407.000000	0.002563
2406.000000	0.002555
2405.000000	0.002534
2404.000000	0.002516
2403.000000	0.002511
2402.000000	0.002525
2401.000000	0.002555
2400.000000	0.002585
2399.000000	0.002597
2398.000000	0.002584
2397.000000	0.002556
2396.000000	0.002527
2395.000000	0.002508
2394.000000	0.002510
2393.000000	0.002533
2392.000000	0.002561
2391.000000	0.002570
2390.000000	0.002554
2389.000000	0.002529
2388.000000	0.002520
2387.000000	0.002540
2386.000000	0.002577
2385.000000	0.002603
2384.000000	0.002595
2383.000000	0.002554
2382.000000	0.002505
2381.000000	0.002473
2380.000000	0.002467
2379.000000	0.002486
2378.000000	0.002527
2377.000000	0.002586
2376.000000	0.002645
2375.000000	0.002686
2374.000000	0.002698
2373.000000	0.002677
2372.000000	0.002615
2371.000000	0.002528
2370.000000	0.002448
2369.000000	0.002402
2368.000000	0.002391
2367.000000	0.002410
2366.000000	0.002466
2365.000000	0.002556
2364.000000	0.002664
2363.000000	0.002774
2362.000000	0.002876
2361.000000	0.002938
2360.000000	0.002934
2359.000000	0.002876
2358.000000	0.002805
2357.000000	0.002753
2356.000000	0.002737
2355.000000	0.002764
2354.000000	0.002781
2353.000000	0.002724
2352.000000	0.002623
2351.000000	0.002574
2350.000000	0.002618
2349.000000	0.002715
2348.000000	0.002801
2347.000000	0.002825
2346.000000	0.002802
2345.000000	0.002807
2344.000000	0.002876
2343.000000	0.002956
2342.000000	0.002987
2341.000000	0.002962
2340.000000	0.002930
2339.000000	0.002940
2338.000000	0.002986
2337.000000	0.003021
2336.000000	0.003012
2335.000000	0.002967
2334.000000	0.002898
2333.000000	0.002813
2332.000000	0.002742
2331.000000	0.002730
2330.000000	0.002793
2329.000000	0.002902
2328.000000	0.003029
2327.000000	0.003158
2326.000000	0.003272
2325.000000	0.003345
2324.000000	0.003359
2323.000000	0.003325
2322.000000	0.003284
2321.000000	0.003276
2320.000000	0.003312
2319.000000	0.003361
2318.000000	0.003385
2317.000000	0.003369
2316.000000	0.003322
2315.000000	0.003261
2314.000000	0.003208
2313.000000	0.003174
2312.000000	0.003154
2311.000000	0.003126
2310.000000	0.003074
2309.000000	0.003009
2308.000000	0.002962
2307.000000	0.002947
2306.000000	0.002951
2305.000000	0.002953
2304.000000	0.002945
2303.000000	0.002927
2302.000000	0.002908
2301.000000	0.002891
2300.000000	0.002874
2299.000000	0.002853
2298.000000	0.002833
2297.000000	0.002821
2296.000000	0.002824
2295.000000	0.002837
2294.000000	0.002853
2293.000000	0.002873
2292.000000	0.002907
2291.000000	0.002955
2290.000000	0.003005
2289.000000	0.003040
2288.000000	0.003057
2287.000000	0.003061
2286.000000	0.003053
2285.000000	0.003010
2284.000000	0.002914
2283.000000	0.002793
2282.000000	0.002710
2281.000000	0.002701
2280.000000	0.002732
2279.000000	0.002737
2278.000000	0.002696
2277.000000	0.002644
2276.000000	0.002617
2275.000000	0.002609
2274.000000	0.002597
2273.000000	0.002566
2272.000000	0.002520
2271.000000	0.002470
2270.000000	0.002436
2269.000000	0.002440
2268.000000	0.002488
2267.000000	0.002562
2266.000000	0.002630
2265.000000	0.002670
2264.000000	0.002670
2263.000000	0.002636
2262.000000	0.002596
2261.000000	0.002581
2260.000000	0.002605
2259.000000	0.002648
2258.000000	0.002674
2257.000000	0.002660
2256.000000	0.002607
2255.000000	0.002545
2254.000000	0.002520
2253.000000	0.002547
2252.000000	0.002603
2251.000000	0.002649
2250.000000	0.002678
2249.000000	0.002695
2248.000000	0.002691
2247.000000	0.002653
2246.000000	0.002600
2245.000000	0.002564
2244.000000	0.002553
2243.000000	0.002550
2242.000000	0.002556
2241.000000	0.002593
2240.000000	0.002660
2239.000000	0.002736
2238.000000	0.002808
2237.000000	0.002882
2236.000000	0.002935
2235.000000	0.002931
2234.000000	0.002875
2233.000000	0.002815
2232.000000	0.002777
2231.000000	0.002734
2230.000000	0.002658
2229.000000	0.002568
2228.000000	0.002497
2227.000000	0.002451
2226.000000	0.002426
2225.000000	0.002439
2224.000000	0.002510
2223.000000	0.002624
2222.000000	0.002745
2221.000000	0.002832
2220.000000	0.002839
2219.000000	0.002742
2218.000000	0.002580
2217.000000	0.002442
2216.000000	0.002373
2215.000000	0.002326
2214.000000	0.002245
2213.000000	0.002153
2212.000000	0.002109
2211.000000	0.002117
2210.000000	0.002139
2209.000000	0.002165
2208.000000	0.002222
2207.000000	0.002306
2206.000000	0.002368
2205.000000	0.002364
2204.000000	0.002301
2203.000000	0.002215
2202.000000	0.002138
2201.000000	0.002088
2200.000000	0.002068
2199.000000	0.002063
2198.000000	0.002074
2197.000000	0.002118
2196.000000	0.002203
2195.000000	0.002301
2194.000000	0.002384
2193.000000	0.002453
2192.000000	0.002514
2191.000000	0.002539
2190.000000	0.002494
2189.000000	0.002396
2188.000000	0.002312
2187.000000	0.002282
2186.000000	0.002284
2185.000000	0.002276
2184.000000	0.002258
2183.000000	0.002253
2182.000000	0.002261
2181.000000	0.002262
2180.000000	0.002240
2179.000000	0.002199
2178.000000	0.002136
2177.000000	0.002026
2176.000000	0.001860
2175.000000	0.001685
2174.000000	0.001592
2173.000000	0.001632
2172.000000	0.001767
2171.000000	0.001928
2170.000000	0.002081
2169.000000	0.002211
2168.000000	0.002272
2167.000000	0.002234
2166.000000	0.002156
2165.000000	0.002152
2164.000000	0.002258
2163.000000	0.002379
2162.000000	0.002385
2161.000000	0.002204
2160.000000	0.001817
2159.000000	0.001262
2158.000000	0.000729
2157.000000	0.000495
2156.000000	0.000674
2155.000000	0.001107
2154.000000	0.001528
2153.000000	0.001757
2152.000000	0.001747
2151.000000	0.001541
2150.000000	0.001244
2149.000000	0.001010
2148.000000	0.000976
2147.000000	0.001161
2146.000000	0.001447
2145.000000	0.001661
2144.000000	0.001706
2143.000000	0.001633
2142.000000	0.001587
2141.000000	0.001674
2140.000000	0.001869
2139.000000	0.002053
2138.000000	0.002129
2137.000000	0.002079
2136.000000	0.001929
2135.000000	0.001720
2134.000000	0.001522
2133.000000	0.001413
2132.000000	0.001409
2131.000000	0.001449
2130.000000	0.001469
2129.000000	0.001477
2128.000000	0.001518
2127.000000	0.001603
2126.000000	0.001699
2125.000000	0.001776
2124.000000	0.001847
2123.000000	0.001945
2122.000000	0.002082
2121.000000	0.002232
2120.000000	0.002341
2119.000000	0.002360
2118.000000	0.002286
2117.000000	0.002169
2116.000000	0.002078
2115.000000	0.002056
2114.000000	0.002096
2113.000000	0.002159
2112.000000	0.002195
2111.000000	0.002175
2110.000000	0.002109
2109.000000	0.002047
2108.000000	0.002043
2107.000000	0.002106
2106.000000	0.002206
2105.000000	0.002307
2104.000000	0.002381
2103.000000	0.002415
2102.000000	0.002401
2101.000000	0.002349
2100.000000	0.002281
2099.000000	0.002207
2098.000000	0.002123
2097.000000	0.002029
2096.000000	0.001941
2095.000000	0.001880
2094.000000	0.001863
2093.000000	0.001907
2092.000000	0.002018
2091.000000	0.002167
2090.000000	0.002288
2089.000000	0.002330
2088.000000	0.002311
2087.000000	0.002297
2086.000000	0.002320
2085.000000	0.002346
2084.000000	0.002321
2083.000000	0.002239
2082.000000	0.002149
2081.000000	0.002106
2080.000000	0.002137
2079.000000	0.002237
2078.000000	0.002365
2077.000000	0.002450
2076.000000	0.002428
2075.000000	0.002299
2074.000000	0.002125
2073.000000	0.001977
2072.000000	0.001891
2071.000000	0.001871
2070.000000	0.001909
2069.000000	0.001976
2068.000000	0.002026
2067.000000	0.002042
2066.000000	0.002055
2065.000000	0.002109
2064.000000	0.002201
2063.000000	0.002286
2062.000000	0.002329
2061.000000	0.002326
2060.000000	0.002304
2059.000000	0.002293
2058.000000	0.002295
2057.000000	0.002267
2056.000000	0.002166
2055.000000	0.002022
2054.000000	0.001953
2053.000000	0.002047
2052.000000	0.002276
2051.000000	0.002536
2050.000000	0.002747
2049.000000	0.002853
2048.000000	0.002787
2047.000000	0.002508
2046.000000	0.002100
2045.000000	0.001746
2044.000000	0.001577
2043.000000	0.001584
2042.000000	0.001676
2041.000000	0.001776
2040.000000	0.001833
2039.000000	0.001819
2038.000000	0.001749
2037.000000	0.001693
2036.000000	0.001712
2035.000000	0.001794
2034.000000	0.001860
2033.000000	0.001822
2032.000000	0.001651
2031.000000	0.001410
2030.000000	0.001219
2029.000000	0.001162
2028.000000	0.001233
2027.000000	0.001362
2026.000000	0.001471
2025.000000	0.001492
2024.000000	0.001404
2023.000000	0.001290
2022.000000	0.001288
2021.000000	0.001414
2020.000000	0.001504
2019.000000	0.001395
2018.000000	0.001136
2017.000000	0.000928
2016.000000	0.000899
2015.000000	0.001024
2014.000000	0.001252
2013.000000	0.001547
2012.000000	0.001823
2011.000000	0.001960
2010.000000	0.001922
2009.000000	0.001780
2008.000000	0.001608
2007.000000	0.001426
2006.000000	0.001251
2005.000000	0.001124
2004.000000	0.001056
2003.000000	0.001032
2002.000000	0.001061
2001.000000	0.001166
2000.000000	0.001319
1999.000000	0.001445
1998.000000	0.001509
1997.000000	0.001530
1996.000000	0.001526
1995.000000	0.001498
1994.000000	0.001475
1993.000000	0.001499
1992.000000	0.001558
1991.000000	0.001602
1990.000000	0.001633
1989.000000	0.001717
1988.000000	0.001869
1987.000000	0.002005
1986.000000	0.002042
1985.000000	0.001980
1984.000000	0.001886
1983.000000	0.001820
1982.000000	0.001818
1981.000000	0.001865
1980.000000	0.001884
1979.000000	0.001792
1978.000000	0.001606
1977.000000	0.001434
1976.000000	0.001331
1975.000000	0.001249
1974.000000	0.001144
1973.000000	0.001059
1972.000000	0.001033
1971.000000	0.001041
1970.000000	0.001052
1969.000000	0.001089
1968.000000	0.001181
1967.000000	0.001306
1966.000000	0.001405
1965.000000	0.001438
1964.000000	0.001406
1963.000000	0.001352
1962.000000	0.001336
1961.000000	0.001370
1960.000000	0.001392
1959.000000	0.001346
1958.000000	0.001271
1957.000000	0.001242
1956.000000	0.001256
1955.000000	0.001240
1954.000000	0.001166
1953.000000	0.001091
1952.000000	0.001075
1951.000000	0.001133
1950.000000	0.001254
1949.000000	0.001419
1948.000000	0.001570
1947.000000	0.001634
1946.000000	0.001602
1945.000000	0.001547
1944.000000	0.001536
1943.000000	0.001555
1942.000000	0.001546
1941.000000	0.001497
1940.000000	0.001447
1939.000000	0.001433
1938.000000	0.001462
1937.000000	0.001512
1936.000000	0.001543
1935.000000	0.001541
1934.000000	0.001526
1933.000000	0.001520
1932.000000	0.001509
1931.000000	0.001475
1930.000000	0.001453
1929.000000	0.001509
1928.000000	0.001650
1927.000000	0.001804
1926.000000	0.001892
1925.000000	0.001894
1924.000000	0.001834
1923.000000	0.001748
1922.000000	0.001670
1921.000000	0.001626
1920.000000	0.001608
1919.000000	0.001587
1918.000000	0.001546
1917.000000	0.001495
1916.000000	0.001452
1915.000000	0.001432
1914.000000	0.001457
1913.000000	0.001538
1912.000000	0.001642
1911.000000	0.001706
1910.000000	0.001696
1909.000000	0.001633
1908.000000	0.001561
1907.000000	0.001507
1906.000000	0.001488
1905.000000	0.001516
1904.000000	0.001575
1903.000000	0.001630
1902.000000	0.001654
1901.000000	0.001655
1900.000000	0.001656
1899.000000	0.001668
1898.000000	0.001682
1897.000000	0.001680
1896.000000	0.001653
1895.000000	0.001613
1894.000000	0.001595
1893.000000	0.001611
1892.000000	0.001624
1891.000000	0.001592
1890.000000	0.001527
1889.000000	0.001497
1888.000000	0.001542
1887.000000	0.001628
1886.000000	0.001690
1885.000000	0.001683
1884.000000	0.001597
1883.000000	0.001479
1882.000000	0.001408
1881.000000	0.001432
1880.000000	0.001515
1879.000000	0.001578
1878.000000	0.001583
1877.000000	0.001556
1876.000000	0.001524
1875.000000	0.001486
1874.000000	0.001438
1873.000000	0.001391
1872.000000	0.001355
1871.000000	0.001328
1870.000000	0.001324
1869.000000	0.001363
1868.000000	0.001430
1867.000000	0.001477
1866.000000	0.001497
1865.000000	0.001520
1864.000000	0.001553
1863.000000	0.001571
1862.000000	0.001555
1861.000000	0.001522
1860.000000	0.001490
1859.000000	0.001452
1858.000000	0.001403
1857.000000	0.001367
1856.000000	0.001364
1855.000000	0.001384
1854.000000	0.001408
1853.000000	0.001427
1852.000000	0.001445
1851.000000	0.001452
1850.000000	0.001449
1849.000000	0.001446
1848.000000	0.001446
1847.000000	0.001436
1846.000000	0.001409
1845.000000	0.001388
1844.000000	0.001393
1843.000000	0.001411
1842.000000	0.001419
1841.000000	0.001411
1840.000000	0.001388
1839.000000	0.001350
1838.000000	0.001313
1837.000000	0.001298
1836.000000	0.001312
1835.000000	0.001334
1834.000000	0.001348
1833.000000	0.001355
1832.000000	0.001356
1831.000000	0.001342
1830.000000	0.001319
1829.000000	0.001308
1828.000000	0.001311
1827.000000	0.001296
1826.000000	0.001252
1825.000000	0.001209
1824.000000	0.001193
1823.000000	0.001192
1822.000000	0.001188
1821.000000	0.001185
1820.000000	0.001179
1819.000000	0.001152
1818.000000	0.001105
1817.000000	0.001077
1816.000000	0.001093
1815.000000	0.001132
1814.000000	0.001162
1813.000000	0.001184
1812.000000	0.001216
1811.000000	0.001260
1810.000000	0.001297
1809.000000	0.001321
1808.000000	0.001334
1807.000000	0.001327
1806.000000	0.001302
1805.000000	0.001277
1804.000000	0.001274
1803.000000	0.001288
1802.000000	0.001297
1801.000000	0.001296
1800.000000	0.001302
1799.000000	0.001323
1798.000000	0.001347
1797.000000	0.001359
1796.000000	0.001350
1795.000000	0.001323
1794.000000	0.001290
1793.000000	0.001280
1792.000000	0.001301
1791.000000	0.001329
1790.000000	0.001348
1789.000000	0.001363
1788.000000	0.001381
1787.000000	0.001387
1786.000000	0.001367
1785.000000	0.001328
1784.000000	0.001283
1783.000000	0.001235
1782.000000	0.001182
1781.000000	0.001146
1780.000000	0.001142
1779.000000	0.001151
1778.000000	0.001143
1777.000000	0.001115
1776.000000	0.001091
1775.000000	0.001088
1774.000000	0.001111
1773.000000	0.001164
1772.000000	0.001231
1771.000000	0.001268
1770.000000	0.001266
1769.000000	0.001252
1768.000000	0.001255
1767.000000	0.001279
1766.000000	0.001311
1765.000000	0.001343
1764.000000	0.001375
1763.000000	0.001410
1762.000000	0.001458
1761.000000	0.001525
1760.000000	0.001597
1759.000000	0.001647
1758.000000	0.001680
1757.000000	0.001737
1756.000000	0.001845
1755.000000	0.001978
1754.000000	0.002105
1753.000000	0.002243
1752.000000	0.002419
1751.000000	0.002623
1750.000000	0.002816
1749.000000	0.002982
1748.000000	0.003135
1747.000000	0.003266
1746.000000	0.003362
1745.000000	0.003441
1744.000000	0.003522
1743.000000	0.003593
1742.000000	0.003630
1741.000000	0.003642
1740.000000	0.003664
1739.000000	0.003699
1738.000000	0.003706
1737.000000	0.003659
1736.000000	0.003563
1735.000000	0.003456
1734.000000	0.003407
1733.000000	0.003406
1732.000000	0.003368
1731.000000	0.003264
1730.000000	0.003140
1729.000000	0.003041
1728.000000	0.002972
1727.000000	0.002903
1726.000000	0.002820
1725.000000	0.002738
1724.000000	0.002668
1723.000000	0.002605
1722.000000	0.002544
1721.000000	0.002494
1720.000000	0.002462
1719.000000	0.002445
1718.000000	0.002445
1717.000000	0.002473
1716.000000	0.002508
1715.000000	0.002519
1714.000000	0.002520
1713.000000	0.002544
1712.000000	0.002592
1711.000000	0.002641
1710.000000	0.002682
1709.000000	0.002727
1708.000000	0.002780
1707.000000	0.002841
1706.000000	0.002925
1705.000000	0.003048
1704.000000	0.003173
1703.000000	0.003238
1702.000000	0.003225
1701.000000	0.003237
1700.000000	0.003405
1699.000000	0.003653
1698.000000	0.003850
1697.000000	0.004011
1696.000000	0.004203
1695.000000	0.004426
1694.000000	0.004630
1693.000000	0.004813
1692.000000	0.005002
1691.000000	0.005199
1690.000000	0.005389
1689.000000	0.005581
1688.000000	0.005777
1687.000000	0.005963
1686.000000	0.006131
1685.000000	0.006344
1684.000000	0.006650
1683.000000	0.006950
1682.000000	0.007173
1681.000000	0.007371
1680.000000	0.007585
1679.000000	0.007797
1678.000000	0.007981
1677.000000	0.008153
1676.000000	0.008366
1675.000000	0.008630
1674.000000	0.008892
1673.000000	0.009112
1672.000000	0.009294
1671.000000	0.009459
1670.000000	0.009641
1669.000000	0.009874
1668.000000	0.010140
1667.000000	0.010383
1666.000000	0.010583
1665.000000	0.010763
1664.000000	0.010952
1663.000000	0.011152
1662.000000	0.011352
1661.000000	0.011562
1660.000000	0.011783
1659.000000	0.012004
1658.000000	0.012223
1657.000000	0.012460
1656.000000	0.012713
1655.000000	0.012929
1654.000000	0.013057
1653.000000	0.013185
1652.000000	0.013426
1651.000000	0.013683
1650.000000	0.013875
1649.000000	0.014045
1648.000000	0.014219
1647.000000	0.014390
1646.000000	0.014535
1645.000000	0.014664
1644.000000	0.014787
1643.000000	0.014900
1642.000000	0.014999
1641.000000	0.015092
1640.000000	0.015186
1639.000000	0.015274
1638.000000	0.015331
1637.000000	0.015330
1636.000000	0.015268
1635.000000	0.015210
1634.000000	0.015227
1633.000000	0.015313
1632.000000	0.015429
1631.000000	0.015535
1630.000000	0.015605
1629.000000	0.015643
1628.000000	0.015676
1627.000000	0.015725
1626.000000	0.015786
1625.000000	0.015842
1624.000000	0.015877
1623.000000	0.015890
1622.000000	0.015915
1621.000000	0.015983
1620.000000	0.016079
1619.000000	0.016152
1618.000000	0.016152
1617.000000	0.016088
1616.000000	0.016039
1615.000000	0.016034
1614.000000	0.016036
1613.000000	0.016017
1612.000000	0.015979
1611.000000	0.015920
1610.000000	0.015839
1609.000000	0.015739
1608.000000	0.015628
1607.000000	0.015510
1606.000000	0.015386
1605.000000	0.015259
1604.000000	0.015127
1603.000000	0.014971
1602.000000	0.014781
1601.000000	0.014570
1600.000000	0.014354
1599.000000	0.014141
1598.000000	0.013931
1597.000000	0.013729
1596.000000	0.013536
1595.000000	0.013348
1594.000000	0.013160
1593.000000	0.012977
1592.000000	0.012806
1591.000000	0.012647
1590.000000	0.012499
1589.000000	0.012364
1588.000000	0.012241
1587.000000	0.012126
1586.000000	0.012017
1585.000000	0.011916
1584.000000	0.011819
1583.000000	0.011713
1582.000000	0.011598
1581.000000	0.011496
1580.000000	0.011427
1579.000000	0.011373
1578.000000	0.011290
1577.000000	0.011134
1576.000000	0.010934
1575.000000	0.010777
1574.000000	0.010691
1573.000000	0.010639
1572.000000	0.010583
1571.000000	0.010492
1570.000000	0.010367
1569.000000	0.010253
1568.000000	0.010192
1567.000000	0.010157
1566.000000	0.010108
1565.000000	0.010044
1564.000000	0.009998
1563.000000	0.010001
1562.000000	0.010024
1561.000000	0.009998
1560.000000	0.009826
1559.000000	0.009505
1558.000000	0.009311
1557.000000	0.009336
1556.000000	0.009394
1555.000000	0.009418
1554.000000	0.009411
1553.000000	0.009408
1552.000000	0.009409
1551.000000	0.009392
1550.000000	0.009345
1549.000000	0.009294
1548.000000	0.009279
1547.000000	0.009305
1546.000000	0.009343
1545.000000	0.009360
1544.000000	0.009334
1543.000000	0.009268
1542.000000	0.009167
1541.000000	0.009020
1540.000000	0.008854
1539.000000	0.008760
1538.000000	0.008753
1537.000000	0.008763
1536.000000	0.008755
1535.000000	0.008709
1534.000000	0.008625
1533.000000	0.008538
1532.000000	0.008488
1531.000000	0.008466
1530.000000	0.008447
1529.000000	0.008417
1528.000000	0.008363
1527.000000	0.008276
1526.000000	0.008172
1525.000000	0.008084
1524.000000	0.008020
1523.000000	0.007945
1522.000000	0.007830
1521.000000	0.007722
1520.000000	0.007681
1519.000000	0.007679
1518.000000	0.007661
1517.000000	0.007601
1516.000000	0.007512
1515.000000	0.007429
1514.000000	0.007369
1513.000000	0.007330
1512.000000	0.007311
1511.000000	0.007309
1510.000000	0.007314
1509.000000	0.007295
1508.000000	0.007184
1507.000000	0.006932
1506.000000	0.006685
1505.000000	0.006593
1504.000000	0.006589
1503.000000	0.006588
1502.000000	0.006556
1501.000000	0.006488
1500.000000	0.006393
1499.000000	0.006287
1498.000000	0.006197
1497.000000	0.006150
1496.000000	0.006155
1495.000000	0.006174
1494.000000	0.006169
1493.000000	0.006149
1492.000000	0.006137
1491.000000	0.006145
1490.000000	0.006160
1489.000000	0.006165
1488.000000	0.006155
1487.000000	0.006140
1486.000000	0.006134
1485.000000	0.006152
1484.000000	0.006197
1483.000000	0.006262
1482.000000	0.006339
1481.000000	0.006419
1480.000000	0.006492
1479.000000	0.006560
1478.000000	0.006630
1477.000000	0.006707
1476.000000	0.006772
1475.000000	0.006815
1474.000000	0.006855
1473.000000	0.006940
1472.000000	0.007071
1471.000000	0.007194
1470.000000	0.007281
1469.000000	0.007346
1468.000000	0.007397
1467.000000	0.007427
1466.000000	0.007444
1465.000000	0.007483
1464.000000	0.007562
1463.000000	0.007654
1462.000000	0.007733
1461.000000	0.007799
1460.000000	0.007863
1459.000000	0.007924
1458.000000	0.007991
1457.000000	0.008100
1456.000000	0.008233
1455.000000	0.008318
1454.000000	0.008350
1453.000000	0.008377
1452.000000	0.008416
1451.000000	0.008451
1450.000000	0.008474
1449.000000	0.008498
1448.000000	0.008535
1447.000000	0.008575
1446.000000	0.008603
1445.000000	0.008630
1444.000000	0.008666
1443.000000	0.008711
1442.000000	0.008765
1441.000000	0.008832
1440.000000	0.008906
1439.000000	0.008970
1438.000000	0.009025
1437.000000	0.009097
1436.000000	0.009200
1435.000000	0.009299
1434.000000	0.009366
1433.000000	0.009416
1432.000000	0.009469
1431.000000	0.009534
1430.000000	0.009607
1429.000000	0.009683
1428.000000	0.009750
1427.000000	0.009799
1426.000000	0.009833
1425.000000	0.009865
1424.000000	0.009896
1423.000000	0.009915
1422.000000	0.009916
1421.000000	0.009917
1420.000000	0.009945
1419.000000	0.010005
1418.000000	0.010056
1417.000000	0.010069
1416.000000	0.010054
1415.000000	0.010035
1414.000000	0.010022
1413.000000	0.010012
1412.000000	0.009989
1411.000000	0.009947
1410.000000	0.009894
1409.000000	0.009841
1408.000000	0.009786
1407.000000	0.009724
1406.000000	0.009656
1405.000000	0.009593
1404.000000	0.009538
1403.000000	0.009484
1402.000000	0.009430
1401.000000	0.009384
1400.000000	0.009360
1399.000000	0.009354
1398.000000	0.009352
1397.000000	0.009340
1396.000000	0.009315
1395.000000	0.009283
1394.000000	0.009246
1393.000000	0.009209
1392.000000	0.009174
1391.000000	0.009141
1390.000000	0.009110
1389.000000	0.009073
1388.000000	0.009025
1387.000000	0.008965
1386.000000	0.008900
1385.000000	0.008832
1384.000000	0.008764
1383.000000	0.008706
1382.000000	0.008669
1381.000000	0.008655
1380.000000	0.008651
1379.000000	0.008641
1378.000000	0.008621
1377.000000	0.008598
1376.000000	0.008581
1375.000000	0.008575
1374.000000	0.008574
1373.000000	0.008563
1372.000000	0.008535
1371.000000	0.008498
1370.000000	0.008465
1369.000000	0.008435
1368.000000	0.008403
1367.000000	0.008374
1366.000000	0.008362
1365.000000	0.008370
1364.000000	0.008377
1363.000000	0.008346
1362.000000	0.008270
1361.000000	0.008175
1360.000000	0.008094
1359.000000	0.008040
1358.000000	0.008012
1357.000000	0.007998
1356.000000	0.007978
1355.000000	0.007936
1354.000000	0.007872
1353.000000	0.007803
1352.000000	0.007744
1351.000000	0.007703
1350.000000	0.007679
1349.000000	0.007663
1348.000000	0.007652
1347.000000	0.007650
1346.000000	0.007668
1345.000000	0.007714
1344.000000	0.007787
1343.000000	0.007883
1342.000000	0.008001
1341.000000	0.008135
1340.000000	0.008272
1339.000000	0.008403
1338.000000	0.008543
1337.000000	0.008713
1336.000000	0.008924
1335.000000	0.009172
1334.000000	0.009453
1333.000000	0.009772
1332.000000	0.010132
1331.000000	0.010524
1330.000000	0.010935
1329.000000	0.011351
1328.000000	0.011756
1327.000000	0.012146
1326.000000	0.012527
1325.000000	0.012904
1324.000000	0.013265
1323.000000	0.013579
1322.000000	0.013820
1321.000000	0.013973
1320.000000	0.014023
1319.000000	0.013954
1318.000000	0.013768
1317.000000	0.013486
1316.000000	0.013130
1315.000000	0.012713
1314.000000	0.012259
1313.000000	0.011805
1312.000000	0.011373
1311.000000	0.010966
1310.000000	0.010575
1309.000000	0.010199
1308.000000	0.009843
1307.000000	0.009508
1306.000000	0.009194
1305.000000	0.008903
1304.000000	0.008632
1303.000000	0.008377
1302.000000	0.008142
1301.000000	0.007932
1300.000000	0.007746
1299.000000	0.007578
1298.000000	0.007418
1297.000000	0.007264
1296.000000	0.007112
1295.000000	0.006958
1294.000000	0.006813
1293.000000	0.006687
1292.000000	0.006584
1291.000000	0.006492
1290.000000	0.006401
1289.000000	0.006310
1288.000000	0.006221
1287.000000	0.006133
1286.000000	0.006042
1285.000000	0.005953
1284.000000	0.005872
1283.000000	0.005792
1282.000000	0.005702
1281.000000	0.005605
1280.000000	0.005523
1279.000000	0.005470
1278.000000	0.005441
1277.000000	0.005415
1276.000000	0.005384
1275.000000	0.005350
1274.000000	0.005317
1273.000000	0.005289
1272.000000	0.005265
1271.000000	0.005253
1270.000000	0.005254
1269.000000	0.005264
1268.000000	0.005277
1267.000000	0.005290
1266.000000	0.005302
1265.000000	0.005311
1264.000000	0.005314
1263.000000	0.005313
1262.000000	0.005312
1261.000000	0.005319
1260.000000	0.005340
1259.000000	0.005374
1258.000000	0.005406
1257.000000	0.005423
1256.000000	0.005416
1255.000000	0.005393
1254.000000	0.005359
1253.000000	0.005321
1252.000000	0.005286
1251.000000	0.005263
1250.000000	0.005253
1249.000000	0.005243
1248.000000	0.005219
1247.000000	0.005186
1246.000000	0.005156
1245.000000	0.005132
1244.000000	0.005107
1243.000000	0.005075
1242.000000	0.005047
1241.000000	0.005035
1240.000000	0.005034
1239.000000	0.005025
1238.000000	0.004994
1237.000000	0.004938
1236.000000	0.004872
1235.000000	0.004811
1234.000000	0.004755
1233.000000	0.004698
1232.000000	0.004631
1231.000000	0.004561
1230.000000	0.004503
1229.000000	0.004460
1228.000000	0.004422
1227.000000	0.004371
1226.000000	0.004303
1225.000000	0.004217
1224.000000	0.004119
1223.000000	0.004012
1222.000000	0.003905
1221.000000	0.003808
1220.000000	0.003731
1219.000000	0.003681
1218.000000	0.003656
1217.000000	0.003643
1216.000000	0.003621
1215.000000	0.003578
1214.000000	0.003522
1213.000000	0.003466
1212.000000	0.003417
1211.000000	0.003369
1210.000000	0.003317
1209.000000	0.003267
1208.000000	0.003226
1207.000000	0.003193
1206.000000	0.003160
1205.000000	0.003116
1204.000000	0.003062
1203.000000	0.003014
1202.000000	0.002987
1201.000000	0.002985
1200.000000	0.002994
1199.000000	0.003001
1198.000000	0.002998
1197.000000	0.002987
1196.000000	0.002969
1195.000000	0.002948
1194.000000	0.002932
1193.000000	0.002924
1192.000000	0.002921
1191.000000	0.002918
1190.000000	0.002920
1189.000000	0.002939
1188.000000	0.002972
1187.000000	0.003009
1186.000000	0.003041
1185.000000	0.003070
1184.000000	0.003107
1183.000000	0.003157
1182.000000	0.003227
1181.000000	0.003321
1180.000000	0.003437
1179.000000	0.003563
1178.000000	0.003688
1177.000000	0.003815
1176.000000	0.003946
1175.000000	0.004077
1174.000000	0.004197
1173.000000	0.004314
1172.000000	0.004440
1171.000000	0.004581
1170.000000	0.004724
1169.000000	0.004860
1168.000000	0.004991
1167.000000	0.005130
1166.000000	0.005285
1165.000000	0.005447
1164.000000	0.005593
1163.000000	0.005703
1162.000000	0.005779
1161.000000	0.005841
1160.000000	0.005912
1159.000000	0.005994
1158.000000	0.006077
1157.000000	0.006153
1156.000000	0.006221
1155.000000	0.006283
1154.000000	0.006339
1153.000000	0.006393
1152.000000	0.006449
1151.000000	0.006506
1150.000000	0.006550
1149.000000	0.006565
1148.000000	0.006543
1147.000000	0.006500
1146.000000	0.006463
1145.000000	0.006450
1144.000000	0.006455
1143.000000	0.006455
1142.000000	0.006426
1141.000000	0.006371
1140.000000	0.006308
1139.000000	0.006256
1138.000000	0.006228
1137.000000	0.006220
1136.000000	0.006220
1135.000000	0.006214
1134.000000	0.006201
1133.000000	0.006192
1132.000000	0.006200
1131.000000	0.006229
1130.000000	0.006267
1129.000000	0.006302
1128.000000	0.006332
1127.000000	0.006363
1126.000000	0.006409
1125.000000	0.006483
1124.000000	0.006586
1123.000000	0.006700
1122.000000	0.006802
1121.000000	0.006884
1120.000000	0.006954
1119.000000	0.007037
1118.000000	0.007145
1117.000000	0.007272
1116.000000	0.007392
1115.000000	0.007489
1114.000000	0.007564
1113.000000	0.007629
1112.000000	0.007691
1111.000000	0.007740
1110.000000	0.007765
1109.000000	0.007768
1108.000000	0.007761
1107.000000	0.007758
1106.000000	0.007762
1105.000000	0.007767
1104.000000	0.007765
1103.000000	0.007751
1102.000000	0.007731
1101.000000	0.007713
1100.000000	0.007702
1099.000000	0.007696
1098.000000	0.007702
1097.000000	0.007725
1096.000000	0.007768
1095.000000	0.007824
1094.000000	0.007884
1093.000000	0.007934
1092.000000	0.007963
1091.000000	0.007972
1090.000000	0.007970
1089.000000	0.007970
1088.000000	0.007984
1087.000000	0.008007
1086.000000	0.008023
1085.000000	0.008009
1084.000000	0.007955
1083.000000	0.007886
1082.000000	0.007847
1081.000000	0.007859
1080.000000	0.007907
1079.000000	0.007958
1078.000000	0.007995
1077.000000	0.008017
1076.000000	0.008020
1075.000000	0.008011
1074.000000	0.008003
1073.000000	0.008003
1072.000000	0.007997
1071.000000	0.007978
1070.000000	0.007969
1069.000000	0.007994
1068.000000	0.008038
1067.000000	0.008056
1066.000000	0.008026
1065.000000	0.007978
1064.000000	0.007955
1063.000000	0.007965
1062.000000	0.007983
1061.000000	0.007984
1060.000000	0.007962
1059.000000	0.007925
1058.000000	0.007894
1057.000000	0.007889
1056.000000	0.007916
1055.000000	0.007960
1054.000000	0.008000
1053.000000	0.008021
1052.000000	0.008017
1051.000000	0.007998
1050.000000	0.007982
1049.000000	0.007989
1048.000000	0.008017
1047.000000	0.008053
1046.000000	0.008084
1045.000000	0.008116
1044.000000	0.008157
1043.000000	0.008211
1042.000000	0.008272
1041.000000	0.008338
1040.000000	0.008409
1039.000000	0.008487
1038.000000	0.008567
1037.000000	0.008629
1036.000000	0.008647
1035.000000	0.008622
1034.000000	0.008594
1033.000000	0.008605
1032.000000	0.008653
1031.000000	0.008704
1030.000000	0.008748
1029.000000	0.008798
1028.000000	0.008862
1027.000000	0.008915
1026.000000	0.008938
1025.000000	0.008938
1024.000000	0.008933
1023.000000	0.008923
1022.000000	0.008900
1021.000000	0.008867
1020.000000	0.008835
1019.000000	0.008809
1018.000000	0.008793
1017.000000	0.008790
1016.000000	0.008796
1015.000000	0.008793
1014.000000	0.008767
1013.000000	0.008718
1012.000000	0.008664
1011.000000	0.008622
1010.000000	0.008597
1009.000000	0.008575
1008.000000	0.008526
1007.000000	0.008429
1006.000000	0.008299
1005.000000	0.008182
1004.000000	0.008110
1003.000000	0.008076
1002.000000	0.008054
1001.000000	0.008032
1000.000000	0.008009
999.000000	0.007975
998.000000	0.007917
997.000000	0.007835
996.000000	0.007746
995.000000	0.007664
994.000000	0.007589
993.000000	0.007520
992.000000	0.007457
991.000000	0.007400
990.000000	0.007336
989.000000	0.007260
988.000000	0.007179
987.000000	0.007110
986.000000	0.007056
985.000000	0.006999
984.000000	0.006915
983.000000	0.006808
982.000000	0.006716
981.000000	0.006665
980.000000	0.006638
979.000000	0.006590
978.000000	0.006498
977.000000	0.006381
976.000000	0.006272
975.000000	0.006180
974.000000	0.006103
973.000000	0.006039
972.000000	0.005980
971.000000	0.005904
970.000000	0.005797
969.000000	0.005669
968.000000	0.005543
967.000000	0.005428
966.000000	0.005317
965.000000	0.005207
964.000000	0.005112
963.000000	0.005041
962.000000	0.004994
961.000000	0.004958
960.000000	0.004913
959.000000	0.004844
958.000000	0.004747
957.000000	0.004639
956.000000	0.004536
955.000000	0.004442
954.000000	0.004347
953.000000	0.004242
952.000000	0.004125
951.000000	0.003995
950.000000	0.003860
949.000000	0.003740
948.000000	0.003663
947.000000	0.003632
946.000000	0.003608
945.000000	0.003540
944.000000	0.003408
943.000000	0.003241
942.000000	0.003091
941.000000	0.002990
940.000000	0.002939
939.000000	0.002924
938.000000	0.002931
937.000000	0.002939
936.000000	0.002920
935.000000	0.002860
934.000000	0.002770
933.000000	0.002675
932.000000	0.002594
931.000000	0.002530
930.000000	0.002485
929.000000	0.002460
928.000000	0.002444
927.000000	0.002419
926.000000	0.002379
925.000000	0.002339
924.000000	0.002313
923.000000	0.002293
922.000000	0.002263
921.000000	0.002218
920.000000	0.002173
919.000000	0.002146
918.000000	0.002140
917.000000	0.002146
916.000000	0.002151
915.000000	0.002146
914.000000	0.002132
913.000000	0.002114
912.000000	0.002095
911.000000	0.002069
910.000000	0.002035
909.000000	0.001997
908.000000	0.001958
907.000000	0.001917
906.000000	0.001880
905.000000	0.001851
904.000000	0.001829
903.000000	0.001802
902.000000	0.001765
901.000000	0.001719
900.000000	0.001662
899.000000	0.001588
898.000000	0.001503
897.000000	0.001427
896.000000	0.001379
895.000000	0.001350
894.000000	0.001319
893.000000	0.001276
892.000000	0.001231
891.000000	0.001194
890.000000	0.001177
889.000000	0.001189
888.000000	0.001242
887.000000	0.001342
886.000000	0.001487
885.000000	0.001671
884.000000	0.001879
883.000000	0.002089
882.000000	0.002294
881.000000	0.002516
880.000000	0.002777
879.000000	0.003071
878.000000	0.003360
877.000000	0.003607
876.000000	0.003801
875.000000	0.003943
874.000000	0.004029
873.000000	0.004047
872.000000	0.003982
871.000000	0.003816
870.000000	0.003546
869.000000	0.003194
868.000000	0.002810
867.000000	0.002448
866.000000	0.002147
865.000000	0.001916
864.000000	0.001750
863.000000	0.001629
862.000000	0.001532
861.000000	0.001444
860.000000	0.001364
859.000000	0.001301
858.000000	0.001261
857.000000	0.001242
856.000000	0.001231
855.000000	0.001210
854.000000	0.001172
853.000000	0.001122
852.000000	0.001077
851.000000	0.001064
850.000000	0.001097
849.000000	0.001163
848.000000	0.001217
847.000000	0.001224
846.000000	0.001183
845.000000	0.001127
844.000000	0.001084
843.000000	0.001061
842.000000	0.001063
841.000000	0.001095
840.000000	0.001153
839.000000	0.001205
838.000000	0.001221
837.000000	0.001197
836.000000	0.001150
835.000000	0.001100
834.000000	0.001065
833.000000	0.001067
832.000000	0.001113
831.000000	0.001174
830.000000	0.001211
829.000000	0.001210
828.000000	0.001189
827.000000	0.001174
826.000000	0.001172
825.000000	0.001184
824.000000	0.001207
823.000000	0.001237
822.000000	0.001257
821.000000	0.001255
820.000000	0.001225
819.000000	0.001175
818.000000	0.001124
817.000000	0.001092
816.000000	0.001083
815.000000	0.001092
814.000000	0.001117
813.000000	0.001150
812.000000	0.001169
811.000000	0.001149
810.000000	0.001104
809.000000	0.001093
808.000000	0.001152
807.000000	0.001244
806.000000	0.001307
805.000000	0.001325
804.000000	0.001345
803.000000	0.001411
802.000000	0.001525
801.000000	0.001659
800.000000	0.001791
799.000000	0.001900
798.000000	0.001976
797.000000	0.002032
796.000000	0.002094
795.000000	0.002177
794.000000	0.002271
793.000000	0.002362
792.000000	0.002449
791.000000	0.002540
790.000000	0.002635
789.000000	0.002729
788.000000	0.002809
787.000000	0.002858
786.000000	0.002881
785.000000	0.002912
784.000000	0.002982
783.000000	0.003077
782.000000	0.003150
781.000000	0.003171
780.000000	0.003155
779.000000	0.003138
778.000000	0.003145
777.000000	0.003177
776.000000	0.003208
775.000000	0.003199
774.000000	0.003128
773.000000	0.003029
772.000000	0.002976
771.000000	0.002998
770.000000	0.003055
769.000000	0.003086
768.000000	0.003071
767.000000	0.003017
766.000000	0.002926
765.000000	0.002802
764.000000	0.002686
763.000000	0.002639
762.000000	0.002673
761.000000	0.002734
760.000000	0.002748
759.000000	0.002689
758.000000	0.002589
757.000000	0.002499
756.000000	0.002444
755.000000	0.002411
754.000000	0.002379
753.000000	0.002344
752.000000	0.002315
751.000000	0.002286
750.000000	0.002241
749.000000	0.002182
748.000000	0.002131
747.000000	0.002101
746.000000	0.002079
745.000000	0.002050
744.000000	0.002013
743.000000	0.001968
742.000000	0.001908
741.000000	0.001840
740.000000	0.001802
739.000000	0.001807
738.000000	0.001817
737.000000	0.001788
736.000000	0.001741
735.000000	0.001732
734.000000	0.001776
733.000000	0.001828
732.000000	0.001839
731.000000	0.001801
730.000000	0.001720
729.000000	0.001609
728.000000	0.001501
727.000000	0.001438
726.000000	0.001439
725.000000	0.001482
724.000000	0.001526
723.000000	0.001533
722.000000	0.001491
721.000000	0.001423
720.000000	0.001386
719.000000	0.001426
718.000000	0.001547
717.000000	0.001723
716.000000	0.001939
715.000000	0.002187
714.000000	0.002424
713.000000	0.002576
712.000000	0.002599
711.000000	0.002511
710.000000	0.002358
709.000000	0.002177
708.000000	0.002002
707.000000	0.001865
706.000000	0.001781
705.000000	0.001744
704.000000	0.001733
703.000000	0.001733
702.000000	0.001736
701.000000	0.001733
700.000000	0.001727
699.000000	0.001719
698.000000	0.001702
697.000000	0.001671
696.000000	0.001634
695.000000	0.001606
694.000000	0.001576
693.000000	0.001505
692.000000	0.001392
691.000000	0.001278
690.000000	0.001209
689.000000	0.001197
688.000000	0.001221
687.000000	0.001253
686.000000	0.001250
685.000000	0.001176
684.000000	0.001068
683.000000	0.001007
682.000000	0.001018
681.000000	0.001055
680.000000	0.001088
679.000000	0.001150
678.000000	0.001260
677.000000	0.001413
676.000000	0.001595
675.000000	0.001792
674.000000	0.001958
673.000000	0.002028
672.000000	0.001981
671.000000	0.001827
670.000000	0.001561
669.000000	0.001175
668.000000	0.000943
667.000000	0.001138
666.000000	0.001393
665.000000	0.001593
664.000000	0.001782
663.000000	0.001872
662.000000	0.001815
661.000000	0.001666
660.000000	0.001513
659.000000	0.001381
658.000000	0.001246
657.000000	0.001132
656.000000	0.001075
655.000000	0.001072
654.000000	0.001108
653.000000	0.001188
652.000000	0.001273
651.000000	0.001298
650.000000	0.001257
649.000000	0.001225
648.000000	0.001249
647.000000	0.001299
646.000000	0.001355
645.000000	0.001427
644.000000	0.001495
643.000000	0.001534
642.000000	0.001575
641.000000	0.001679
640.000000	0.001827
639.000000	0.001910
638.000000	0.001883
637.000000	0.001827
636.000000	0.001829
635.000000	0.001885
634.000000	0.001952
633.000000	0.002018
632.000000	0.002079
631.000000	0.002112
630.000000	0.002115
629.000000	0.002117
628.000000	0.002136
627.000000	0.002153
626.000000	0.002174
625.000000	0.002230
624.000000	0.002308
623.000000	0.002344
622.000000	0.002318
621.000000	0.002282
620.000000	0.002293
619.000000	0.002360
618.000000	0.002475
617.000000	0.002630
616.000000	0.002786
615.000000	0.002865
614.000000	0.002843
613.000000	0.002780
612.000000	0.002748
611.000000	0.002762
610.000000	0.002804
609.000000	0.002870
608.000000	0.002956
607.000000	0.003041
606.000000	0.003122
605.000000	0.003213
604.000000	0.003304
603.000000	0.003348
602.000000	0.003335
601.000000	0.003305
600.000000	0.003301
599.000000	0.003331
598.000000	0.003386
597.000000	0.003454
596.000000	0.003499
595.000000	0.003473
594.000000	0.003381
593.000000	0.003279
592.000000	0.003191
591.000000	0.003073
590.000000	0.002903
589.000000	0.002753
588.000000	0.002718
587.000000	0.002808
586.000000	0.002936
585.000000	0.002988
584.000000	0.002892
583.000000	0.002653
582.000000	0.002362
581.000000	0.002149
580.000000	0.002096
579.000000	0.002172
578.000000	0.002280
577.000000	0.002337
576.000000	0.002314
575.000000	0.002237
574.000000	0.002162
573.000000	0.002130
572.000000	0.002128
571.000000	0.002114
570.000000	0.002060
569.000000	0.001962
568.000000	0.001826
567.000000	0.001688
566.000000	0.001615
565.000000	0.001628
564.000000	0.001637
563.000000	0.001528
562.000000	0.001316
561.000000	0.001137
560.000000	0.001083
559.000000	0.001129
558.000000	0.001227
557.000000	0.001375
556.000000	0.001547
555.000000	0.001634
554.000000	0.001551
553.000000	0.001353
552.000000	0.001169
551.000000	0.001070
550.000000	0.001052
549.000000	0.001093
548.000000	0.001179
547.000000	0.001264
546.000000	0.001310
545.000000	0.001335
544.000000	0.001397
543.000000	0.001512
542.000000	0.001624
541.000000	0.001647
540.000000	0.001534
539.000000	0.001315
538.000000	0.001087
537.000000	0.000942
536.000000	0.000890
535.000000	0.000903
534.000000	0.000999
533.000000	0.001225
532.000000	0.001569
531.000000	0.001926
530.000000	0.002190
529.000000	0.002323
528.000000	0.002330
527.000000	0.002256
526.000000	0.002216
525.000000	0.002312
524.000000	0.002489
523.000000	0.002591
522.000000	0.002576
521.000000	0.002554
520.000000	0.002609
519.000000	0.002687
518.000000	0.002725
517.000000	0.002791
516.000000	0.002947
515.000000	0.003093
514.000000	0.003080
513.000000	0.002914
512.000000	0.002734
511.000000	0.002638
510.000000	0.002609
509.000000	0.002600
508.000000	0.002601
507.000000	0.002639
506.000000	0.002760
505.000000	0.002978
504.000000	0.003199
503.000000	0.003252
502.000000	0.003066
501.000000	0.002784
500.000000	0.002592
499.000000	0.002525
498.000000	0.002522
497.000000	0.002558
496.000000	0.002622
495.000000	0.002663
494.000000	0.002650
493.000000	0.002637
492.000000	0.002676
491.000000	0.002710
490.000000	0.002658
489.000000	0.002555
488.000000	0.002493
487.000000	0.002484
486.000000	0.002466
485.000000	0.002414
484.000000	0.002353
483.000000	0.002290
482.000000	0.002231
481.000000	0.002222
480.000000	0.002301
479.000000	0.002425
478.000000	0.002533
477.000000	0.002622
476.000000	0.002670
475.000000	0.002543
474.000000	0.002124
473.000000	0.001553
472.000000	0.001189
471.000000	0.001201
470.000000	0.001393
469.000000	0.001521
468.000000	0.001548
467.000000	0.001564
466.000000	0.001629
465.000000	0.001743
464.000000	0.001867
463.000000	0.001913
462.000000	0.001794
461.000000	0.001506
460.000000	0.001108
459.000000	0.000673
458.000000	0.000335
457.000000	0.000290
456.000000	0.000571
455.000000	0.000987
454.000000	0.001360
453.000000	0.001652
452.000000	0.001868
451.000000	0.001941
450.000000	0.001832
