PE IR       SUBTECH     SPECTRUM    ASCII       PEDS        4.00        
   -1
3S-N10-C002_1.ASC
22/02/18
11:35:06.00
22/02/18
11:50:45.00
uco
Sample 002 By uco Date Friday, February 18 2022
450.000000
#HDR
-1
-1
#GR
cm-1
A
1.0
0.0
4000.000000
-1.000000
3551
8
0.064018
-0.013415
#DATA
4000.000000	0.004523
3999.000000	0.004525
3998.000000	0.004516
3997.000000	0.004503
3996.000000	0.004496
3995.000000	0.004504
3994.000000	0.004525
3993.000000	0.004545
3992.000000	0.004554
3991.000000	0.004551
3990.000000	0.004544
3989.000000	0.004542
3988.000000	0.004550
3987.000000	0.004562
3986.000000	0.004573
3985.000000	0.004582
3984.000000	0.004591
3983.000000	0.004599
3982.000000	0.004604
3981.000000	0.004601
3980.000000	0.004593
3979.000000	0.004587
3978.000000	0.004587
3977.000000	0.004597
3976.000000	0.004614
3975.000000	0.004633
3974.000000	0.004645
3973.000000	0.004646
3972.000000	0.004636
3971.000000	0.004620
3970.000000	0.004604
3969.000000	0.004592
3968.000000	0.004583
3967.000000	0.004574
3966.000000	0.004570
3965.000000	0.004573
3964.000000	0.004584
3963.000000	0.004599
3962.000000	0.004608
3961.000000	0.004608
3960.000000	0.004601
3959.000000	0.004598
3958.000000	0.004605
3957.000000	0.004624
3956.000000	0.004647
3955.000000	0.004667
3954.000000	0.004685
3953.000000	0.004706
3952.000000	0.004732
3951.000000	0.004753
3950.000000	0.004761
3949.000000	0.004752
3948.000000	0.004737
3947.000000	0.004727
3946.000000	0.004727
3945.000000	0.004734
3944.000000	0.004734
3943.000000	0.004722
3942.000000	0.004701
3941.000000	0.004679
3940.000000	0.004664
3939.000000	0.004655
3938.000000	0.004655
3937.000000	0.004663
3936.000000	0.004681
3935.000000	0.004704
3934.000000	0.004722
3933.000000	0.004727
3932.000000	0.004719
3931.000000	0.004705
3930.000000	0.004694
3929.000000	0.004687
3928.000000	0.004681
3927.000000	0.004672
3926.000000	0.004658
3925.000000	0.004642
3924.000000	0.004638
3923.000000	0.004655
3922.000000	0.004690
3921.000000	0.004729
3920.000000	0.004755
3919.000000	0.004765
3918.000000	0.004763
3917.000000	0.004755
3916.000000	0.004745
3915.000000	0.004735
3914.000000	0.004726
3913.000000	0.004716
3912.000000	0.004703
3911.000000	0.004687
3910.000000	0.004671
3909.000000	0.004660
3908.000000	0.004658
3907.000000	0.004671
3906.000000	0.004697
3905.000000	0.004730
3904.000000	0.004760
3903.000000	0.004778
3902.000000	0.004783
3901.000000	0.004775
3900.000000	0.004759
3899.000000	0.004742
3898.000000	0.004734
3897.000000	0.004742
3896.000000	0.004759
3895.000000	0.004773
3894.000000	0.004773
3893.000000	0.004755
3892.000000	0.004728
3891.000000	0.004709
3890.000000	0.004709
3889.000000	0.004722
3888.000000	0.004739
3887.000000	0.004744
3886.000000	0.004728
3885.000000	0.004701
3884.000000	0.004684
3883.000000	0.004680
3882.000000	0.004676
3881.000000	0.004658
3880.000000	0.004637
3879.000000	0.004632
3878.000000	0.004652
3877.000000	0.004693
3876.000000	0.004739
3875.000000	0.004764
3874.000000	0.004755
3873.000000	0.004727
3872.000000	0.004697
3871.000000	0.004666
3870.000000	0.004634
3869.000000	0.004609
3868.000000	0.004605
3867.000000	0.004620
3866.000000	0.004634
3865.000000	0.004632
3864.000000	0.004622
3863.000000	0.004627
3862.000000	0.004651
3861.000000	0.004686
3860.000000	0.004718
3859.000000	0.004731
3858.000000	0.004712
3857.000000	0.004661
3856.000000	0.004600
3855.000000	0.004555
3854.000000	0.004538
3853.000000	0.004560
3852.000000	0.004619
3851.000000	0.004684
3850.000000	0.004732
3849.000000	0.004756
3848.000000	0.004762
3847.000000	0.004763
3846.000000	0.004758
3845.000000	0.004742
3844.000000	0.004716
3843.000000	0.004687
3842.000000	0.004664
3841.000000	0.004651
3840.000000	0.004645
3839.000000	0.004642
3838.000000	0.004643
3837.000000	0.004647
3836.000000	0.004650
3835.000000	0.004652
3834.000000	0.004652
3833.000000	0.004655
3832.000000	0.004660
3831.000000	0.004670
3830.000000	0.004686
3829.000000	0.004705
3828.000000	0.004721
3827.000000	0.004725
3826.000000	0.004718
3825.000000	0.004708
3824.000000	0.004706
3823.000000	0.004701
3822.000000	0.004672
3821.000000	0.004627
3820.000000	0.004600
3819.000000	0.004601
3818.000000	0.004609
3817.000000	0.004605
3816.000000	0.004590
3815.000000	0.004592
3814.000000	0.004629
3813.000000	0.004684
3812.000000	0.004729
3811.000000	0.004744
3810.000000	0.004732
3809.000000	0.004699
3808.000000	0.004648
3807.000000	0.004585
3806.000000	0.004538
3805.000000	0.004529
3804.000000	0.004556
3803.000000	0.004595
3802.000000	0.004615
3801.000000	0.004615
3800.000000	0.004622
3799.000000	0.004647
3798.000000	0.004677
3797.000000	0.004693
3796.000000	0.004687
3795.000000	0.004668
3794.000000	0.004651
3793.000000	0.004642
3792.000000	0.004637
3791.000000	0.004627
3790.000000	0.004607
3789.000000	0.004579
3788.000000	0.004553
3787.000000	0.004542
3786.000000	0.004549
3785.000000	0.004568
3784.000000	0.004589
3783.000000	0.004607
3782.000000	0.004617
3781.000000	0.004618
3780.000000	0.004611
3779.000000	0.004605
3778.000000	0.004605
3777.000000	0.004606
3776.000000	0.004600
3775.000000	0.004589
3774.000000	0.004584
3773.000000	0.004600
3772.000000	0.004633
3771.000000	0.004660
3770.000000	0.004664
3769.000000	0.004653
3768.000000	0.004651
3767.000000	0.004659
3766.000000	0.004663
3765.000000	0.004646
3764.000000	0.004615
3763.000000	0.004590
3762.000000	0.004581
3761.000000	0.004581
3760.000000	0.004582
3759.000000	0.004587
3758.000000	0.004602
3757.000000	0.004615
3756.000000	0.004614
3755.000000	0.004600
3754.000000	0.004583
3753.000000	0.004571
3752.000000	0.004561
3751.000000	0.004553
3750.000000	0.004546
3749.000000	0.004531
3748.000000	0.004514
3747.000000	0.004524
3746.000000	0.004581
3745.000000	0.004658
3744.000000	0.004705
3743.000000	0.004710
3742.000000	0.004696
3741.000000	0.004677
3740.000000	0.004653
3739.000000	0.004638
3738.000000	0.004641
3737.000000	0.004648
3736.000000	0.004637
3735.000000	0.004610
3734.000000	0.004596
3733.000000	0.004600
3732.000000	0.004602
3731.000000	0.004585
3730.000000	0.004555
3729.000000	0.004527
3728.000000	0.004518
3727.000000	0.004532
3726.000000	0.004563
3725.000000	0.004603
3724.000000	0.004633
3723.000000	0.004639
3722.000000	0.004621
3721.000000	0.004590
3720.000000	0.004558
3719.000000	0.004530
3718.000000	0.004510
3717.000000	0.004497
3716.000000	0.004492
3715.000000	0.004498
3714.000000	0.004511
3713.000000	0.004524
3712.000000	0.004528
3711.000000	0.004524
3710.000000	0.004518
3709.000000	0.004513
3708.000000	0.004512
3707.000000	0.004518
3706.000000	0.004531
3705.000000	0.004549
3704.000000	0.004563
3703.000000	0.004569
3702.000000	0.004569
3701.000000	0.004571
3700.000000	0.004576
3699.000000	0.004583
3698.000000	0.004588
3697.000000	0.004587
3696.000000	0.004579
3695.000000	0.004574
3694.000000	0.004576
3693.000000	0.004574
3692.000000	0.004550
3691.000000	0.004502
3690.000000	0.004453
3689.000000	0.004439
3688.000000	0.004468
3687.000000	0.004521
3686.000000	0.004574
3685.000000	0.004614
3684.000000	0.004632
3683.000000	0.004635
3682.000000	0.004635
3681.000000	0.004648
3680.000000	0.004679
3679.000000	0.004729
3678.000000	0.004805
3677.000000	0.004885
3676.000000	0.004917
3675.000000	0.004893
3674.000000	0.004856
3673.000000	0.004839
3672.000000	0.004853
3671.000000	0.004880
3670.000000	0.004902
3669.000000	0.004922
3668.000000	0.004947
3667.000000	0.004970
3666.000000	0.004989
3665.000000	0.005002
3664.000000	0.005009
3663.000000	0.005015
3662.000000	0.005028
3661.000000	0.005050
3660.000000	0.005076
3659.000000	0.005100
3658.000000	0.005121
3657.000000	0.005152
3656.000000	0.005209
3655.000000	0.005296
3654.000000	0.005400
3653.000000	0.005501
3652.000000	0.005574
3651.000000	0.005603
3650.000000	0.005596
3649.000000	0.005593
3648.000000	0.005613
3647.000000	0.005642
3646.000000	0.005668
3645.000000	0.005691
3644.000000	0.005718
3643.000000	0.005750
3642.000000	0.005787
3641.000000	0.005828
3640.000000	0.005871
3639.000000	0.005909
3638.000000	0.005944
3637.000000	0.005985
3636.000000	0.006037
3635.000000	0.006091
3634.000000	0.006132
3633.000000	0.006164
3632.000000	0.006208
3631.000000	0.006279
3630.000000	0.006360
3629.000000	0.006414
3628.000000	0.006439
3627.000000	0.006458
3626.000000	0.006486
3625.000000	0.006527
3624.000000	0.006580
3623.000000	0.006639
3622.000000	0.006695
3621.000000	0.006744
3620.000000	0.006786
3619.000000	0.006833
3618.000000	0.006893
3617.000000	0.006955
3616.000000	0.007003
3615.000000	0.007027
3614.000000	0.007037
3613.000000	0.007056
3612.000000	0.007103
3611.000000	0.007174
3610.000000	0.007252
3609.000000	0.007313
3608.000000	0.007355
3607.000000	0.007396
3606.000000	0.007452
3605.000000	0.007527
3604.000000	0.007616
3603.000000	0.007706
3602.000000	0.007792
3601.000000	0.007869
3600.000000	0.007939
3599.000000	0.008012
3598.000000	0.008093
3597.000000	0.008177
3596.000000	0.008251
3595.000000	0.008308
3594.000000	0.008355
3593.000000	0.008409
3592.000000	0.008471
3591.000000	0.008535
3590.000000	0.008592
3589.000000	0.008639
3588.000000	0.008684
3587.000000	0.008742
3586.000000	0.008816
3585.000000	0.008891
3584.000000	0.008955
3583.000000	0.009004
3582.000000	0.009049
3581.000000	0.009098
3580.000000	0.009160
3579.000000	0.009231
3578.000000	0.009306
3577.000000	0.009383
3576.000000	0.009470
3575.000000	0.009570
3574.000000	0.009674
3573.000000	0.009768
3572.000000	0.009845
3571.000000	0.009911
3570.000000	0.009977
3569.000000	0.010047
3568.000000	0.010115
3567.000000	0.010184
3566.000000	0.010264
3565.000000	0.010359
3564.000000	0.010458
3563.000000	0.010552
3562.000000	0.010639
3561.000000	0.010720
3560.000000	0.010797
3559.000000	0.010870
3558.000000	0.010945
3557.000000	0.011025
3556.000000	0.011113
3555.000000	0.011204
3554.000000	0.011295
3553.000000	0.011382
3552.000000	0.011463
3551.000000	0.011540
3550.000000	0.011614
3549.000000	0.011686
3548.000000	0.011762
3547.000000	0.011842
3546.000000	0.011925
3545.000000	0.012008
3544.000000	0.012088
3543.000000	0.012161
3542.000000	0.012227
3541.000000	0.012289
3540.000000	0.012355
3539.000000	0.012431
3538.000000	0.012519
3537.000000	0.012617
3536.000000	0.012714
3535.000000	0.012803
3534.000000	0.012884
3533.000000	0.012957
3532.000000	0.013023
3531.000000	0.013085
3530.000000	0.013146
3529.000000	0.013219
3528.000000	0.013310
3527.000000	0.013415
3526.000000	0.013522
3525.000000	0.013617
3524.000000	0.013692
3523.000000	0.013753
3522.000000	0.013815
3521.000000	0.013886
3520.000000	0.013964
3519.000000	0.014043
3518.000000	0.014121
3517.000000	0.014197
3516.000000	0.014270
3515.000000	0.014337
3514.000000	0.014399
3513.000000	0.014467
3512.000000	0.014551
3511.000000	0.014652
3510.000000	0.014762
3509.000000	0.014863
3508.000000	0.014943
3507.000000	0.015000
3506.000000	0.015047
3505.000000	0.015103
3504.000000	0.015176
3503.000000	0.015259
3502.000000	0.015338
3501.000000	0.015401
3500.000000	0.015450
3499.000000	0.015494
3498.000000	0.015546
3497.000000	0.015608
3496.000000	0.015677
3495.000000	0.015752
3494.000000	0.015832
3493.000000	0.015913
3492.000000	0.015986
3491.000000	0.016041
3490.000000	0.016080
3489.000000	0.016113
3488.000000	0.016153
3487.000000	0.016201
3486.000000	0.016258
3485.000000	0.016322
3484.000000	0.016389
3483.000000	0.016453
3482.000000	0.016512
3481.000000	0.016568
3480.000000	0.016628
3479.000000	0.016692
3478.000000	0.016761
3477.000000	0.016832
3476.000000	0.016911
3475.000000	0.016999
3474.000000	0.017093
3473.000000	0.017182
3472.000000	0.017258
3471.000000	0.017317
3470.000000	0.017371
3469.000000	0.017432
3468.000000	0.017504
3467.000000	0.017575
3466.000000	0.017631
3465.000000	0.017671
3464.000000	0.017704
3463.000000	0.017741
3462.000000	0.017787
3461.000000	0.017839
3460.000000	0.017899
3459.000000	0.017974
3458.000000	0.018061
3457.000000	0.018151
3456.000000	0.018228
3455.000000	0.018286
3454.000000	0.018336
3453.000000	0.018393
3452.000000	0.018462
3451.000000	0.018538
3450.000000	0.018615
3449.000000	0.018693
3448.000000	0.018778
3447.000000	0.018871
3446.000000	0.018964
3445.000000	0.019040
3444.000000	0.019086
3443.000000	0.019105
3442.000000	0.019121
3441.000000	0.019159
3440.000000	0.019227
3439.000000	0.019313
3438.000000	0.019398
3437.000000	0.019479
3436.000000	0.019558
3435.000000	0.019635
3434.000000	0.019710
3433.000000	0.019776
3432.000000	0.019832
3431.000000	0.019879
3430.000000	0.019922
3429.000000	0.019973
3428.000000	0.020042
3427.000000	0.020129
3426.000000	0.020218
3425.000000	0.020291
3424.000000	0.020341
3423.000000	0.020380
3422.000000	0.020428
3421.000000	0.020493
3420.000000	0.020567
3419.000000	0.020641
3418.000000	0.020713
3417.000000	0.020791
3416.000000	0.020877
3415.000000	0.020963
3414.000000	0.021039
3413.000000	0.021103
3412.000000	0.021159
3411.000000	0.021213
3410.000000	0.021269
3409.000000	0.021330
3408.000000	0.021398
3407.000000	0.021466
3406.000000	0.021528
3405.000000	0.021580
3404.000000	0.021621
3403.000000	0.021662
3402.000000	0.021716
3401.000000	0.021795
3400.000000	0.021895
3399.000000	0.021999
3398.000000	0.022085
3397.000000	0.022146
3396.000000	0.022190
3395.000000	0.022228
3394.000000	0.022269
3393.000000	0.022319
3392.000000	0.022377
3391.000000	0.022439
3390.000000	0.022501
3389.000000	0.022558
3388.000000	0.022610
3387.000000	0.022661
3386.000000	0.022719
3385.000000	0.022793
3384.000000	0.022887
3383.000000	0.022997
3382.000000	0.023107
3381.000000	0.023202
3380.000000	0.023274
3379.000000	0.023328
3378.000000	0.023375
3377.000000	0.023424
3376.000000	0.023481
3375.000000	0.023548
3374.000000	0.023632
3373.000000	0.023734
3372.000000	0.023849
3371.000000	0.023962
3370.000000	0.024058
3369.000000	0.024130
3368.000000	0.024189
3367.000000	0.024252
3366.000000	0.024336
3365.000000	0.024441
3364.000000	0.024559
3363.000000	0.024677
3362.000000	0.024795
3361.000000	0.024914
3360.000000	0.025033
3359.000000	0.025149
3358.000000	0.025254
3357.000000	0.025348
3356.000000	0.025438
3355.000000	0.025533
3354.000000	0.025638
3353.000000	0.025752
3352.000000	0.025868
3351.000000	0.025987
3350.000000	0.026109
3349.000000	0.026233
3348.000000	0.026353
3347.000000	0.026468
3346.000000	0.026580
3345.000000	0.026695
3344.000000	0.026811
3343.000000	0.026923
3342.000000	0.027026
3341.000000	0.027125
3340.000000	0.027226
3339.000000	0.027335
3338.000000	0.027452
3337.000000	0.027566
3336.000000	0.027663
3335.000000	0.027736
3334.000000	0.027797
3333.000000	0.027869
3332.000000	0.027966
3331.000000	0.028080
3330.000000	0.028194
3329.000000	0.028290
3328.000000	0.028362
3327.000000	0.028416
3326.000000	0.028473
3325.000000	0.028554
3324.000000	0.028663
3323.000000	0.028780
3322.000000	0.028886
3321.000000	0.028972
3320.000000	0.029047
3319.000000	0.029117
3318.000000	0.029182
3317.000000	0.029239
3316.000000	0.029292
3315.000000	0.029347
3314.000000	0.029407
3313.000000	0.029467
3312.000000	0.029523
3311.000000	0.029570
3310.000000	0.029609
3309.000000	0.029642
3308.000000	0.029676
3307.000000	0.029721
3306.000000	0.029784
3305.000000	0.029862
3304.000000	0.029947
3303.000000	0.030033
3302.000000	0.030117
3301.000000	0.030197
3300.000000	0.030265
3299.000000	0.030314
3298.000000	0.030346
3297.000000	0.030368
3296.000000	0.030388
3295.000000	0.030405
3294.000000	0.030415
3293.000000	0.030415
3292.000000	0.030416
3291.000000	0.030430
3290.000000	0.030467
3289.000000	0.030514
3288.000000	0.030552
3287.000000	0.030565
3286.000000	0.030562
3285.000000	0.030562
3284.000000	0.030578
3283.000000	0.030606
3282.000000	0.030630
3281.000000	0.030636
3280.000000	0.030619
3279.000000	0.030585
3278.000000	0.030541
3277.000000	0.030500
3276.000000	0.030469
3275.000000	0.030445
3274.000000	0.030421
3273.000000	0.030389
3272.000000	0.030348
3271.000000	0.030301
3270.000000	0.030249
3269.000000	0.030197
3268.000000	0.030146
3267.000000	0.030098
3266.000000	0.030052
3265.000000	0.030001
3264.000000	0.029944
3263.000000	0.029888
3262.000000	0.029842
3261.000000	0.029803
3260.000000	0.029760
3259.000000	0.029700
3258.000000	0.029620
3257.000000	0.029532
3256.000000	0.029453
3255.000000	0.029391
3254.000000	0.029342
3253.000000	0.029286
3252.000000	0.029208
3251.000000	0.029110
3250.000000	0.029009
3249.000000	0.028918
3248.000000	0.028842
3247.000000	0.028780
3246.000000	0.028731
3245.000000	0.028692
3244.000000	0.028654
3243.000000	0.028604
3242.000000	0.028535
3241.000000	0.028450
3240.000000	0.028362
3239.000000	0.028286
3238.000000	0.028226
3237.000000	0.028178
3236.000000	0.028128
3235.000000	0.028073
3234.000000	0.028020
3233.000000	0.027981
3232.000000	0.027958
3231.000000	0.027937
3230.000000	0.027904
3229.000000	0.027855
3228.000000	0.027799
3227.000000	0.027753
3226.000000	0.027725
3225.000000	0.027707
3224.000000	0.027683
3223.000000	0.027640
3222.000000	0.027584
3221.000000	0.027525
3220.000000	0.027468
3219.000000	0.027412
3218.000000	0.027355
3217.000000	0.027300
3216.000000	0.027249
3215.000000	0.027200
3214.000000	0.027148
3213.000000	0.027088
3212.000000	0.027019
3211.000000	0.026949
3210.000000	0.026882
3209.000000	0.026821
3208.000000	0.026761
3207.000000	0.026698
3206.000000	0.026634
3205.000000	0.026576
3204.000000	0.026529
3203.000000	0.026488
3202.000000	0.026438
3201.000000	0.026365
3200.000000	0.026269
3199.000000	0.026167
3198.000000	0.026079
3197.000000	0.026014
3196.000000	0.025959
3195.000000	0.025894
3194.000000	0.025809
3193.000000	0.025715
3192.000000	0.025632
3191.000000	0.025571
3190.000000	0.025531
3189.000000	0.025498
3188.000000	0.025453
3187.000000	0.025383
3186.000000	0.025293
3185.000000	0.025199
3184.000000	0.025114
3183.000000	0.025036
3182.000000	0.024957
3181.000000	0.024871
3180.000000	0.024786
3179.000000	0.024704
3178.000000	0.024619
3177.000000	0.024527
3176.000000	0.024429
3175.000000	0.024328
3174.000000	0.024228
3173.000000	0.024127
3172.000000	0.024024
3171.000000	0.023923
3170.000000	0.023830
3169.000000	0.023746
3168.000000	0.023671
3167.000000	0.023603
3166.000000	0.023541
3165.000000	0.023479
3164.000000	0.023412
3163.000000	0.023335
3162.000000	0.023250
3161.000000	0.023164
3160.000000	0.023088
3159.000000	0.023027
3158.000000	0.022970
3157.000000	0.022903
3156.000000	0.022815
3155.000000	0.022712
3154.000000	0.022609
3153.000000	0.022517
3152.000000	0.022440
3151.000000	0.022372
3150.000000	0.022307
3149.000000	0.022239
3148.000000	0.022169
3147.000000	0.022097
3146.000000	0.022018
3145.000000	0.021931
3144.000000	0.021844
3143.000000	0.021773
3142.000000	0.021724
3141.000000	0.021684
3140.000000	0.021637
3139.000000	0.021583
3138.000000	0.021533
3137.000000	0.021490
3136.000000	0.021447
3135.000000	0.021392
3134.000000	0.021330
3133.000000	0.021270
3132.000000	0.021220
3131.000000	0.021178
3130.000000	0.021136
3129.000000	0.021093
3128.000000	0.021052
3127.000000	0.021017
3126.000000	0.020990
3125.000000	0.020966
3124.000000	0.020938
3123.000000	0.020899
3122.000000	0.020852
3121.000000	0.020805
3120.000000	0.020767
3119.000000	0.020742
3118.000000	0.020731
3117.000000	0.020728
3116.000000	0.020728
3115.000000	0.020722
3114.000000	0.020706
3113.000000	0.020686
3112.000000	0.020669
3111.000000	0.020661
3110.000000	0.020655
3109.000000	0.020647
3108.000000	0.020644
3107.000000	0.020663
3106.000000	0.020707
3105.000000	0.020759
3104.000000	0.020791
3103.000000	0.020791
3102.000000	0.020773
3101.000000	0.020756
3100.000000	0.020752
3099.000000	0.020760
3098.000000	0.020774
3097.000000	0.020794
3096.000000	0.020823
3095.000000	0.020859
3094.000000	0.020894
3093.000000	0.020918
3092.000000	0.020927
3091.000000	0.020929
3090.000000	0.020934
3089.000000	0.020951
3088.000000	0.020976
3087.000000	0.021000
3086.000000	0.021014
3085.000000	0.021020
3084.000000	0.021027
3083.000000	0.021041
3082.000000	0.021058
3081.000000	0.021071
3080.000000	0.021077
3079.000000	0.021082
3078.000000	0.021093
3077.000000	0.021114
3076.000000	0.021143
3075.000000	0.021171
3074.000000	0.021187
3073.000000	0.021187
3072.000000	0.021167
3071.000000	0.021135
3070.000000	0.021095
3069.000000	0.021054
3068.000000	0.021015
3067.000000	0.020981
3066.000000	0.020958
3065.000000	0.020945
3064.000000	0.020935
3063.000000	0.020912
3062.000000	0.020865
3061.000000	0.020798
3060.000000	0.020720
3059.000000	0.020641
3058.000000	0.020561
3057.000000	0.020479
3056.000000	0.020398
3055.000000	0.020317
3054.000000	0.020233
3053.000000	0.020143
3052.000000	0.020048
3051.000000	0.019958
3050.000000	0.019878
3049.000000	0.019804
3048.000000	0.019730
3047.000000	0.019654
3046.000000	0.019580
3045.000000	0.019506
3044.000000	0.019426
3043.000000	0.019333
3042.000000	0.019232
3041.000000	0.019134
3040.000000	0.019044
3039.000000	0.018960
3038.000000	0.018872
3037.000000	0.018774
3036.000000	0.018667
3035.000000	0.018564
3034.000000	0.018477
3033.000000	0.018405
3032.000000	0.018338
3031.000000	0.018266
3030.000000	0.018186
3029.000000	0.018096
3028.000000	0.017997
3027.000000	0.017887
3026.000000	0.017769
3025.000000	0.017649
3024.000000	0.017537
3023.000000	0.017438
3022.000000	0.017348
3021.000000	0.017248
3020.000000	0.017119
3019.000000	0.016958
3018.000000	0.016787
3017.000000	0.016635
3016.000000	0.016511
3015.000000	0.016404
3014.000000	0.016298
3013.000000	0.016186
3012.000000	0.016073
3011.000000	0.015962
3010.000000	0.015850
3009.000000	0.015737
3008.000000	0.015631
3007.000000	0.015540
3006.000000	0.015473
3005.000000	0.015431
3004.000000	0.015413
3003.000000	0.015413
3002.000000	0.015426
3001.000000	0.015451
3000.000000	0.015492
2999.000000	0.015551
2998.000000	0.015622
2997.000000	0.015698
2996.000000	0.015768
2995.000000	0.015829
2994.000000	0.015881
2993.000000	0.015929
2992.000000	0.015973
2991.000000	0.016009
2990.000000	0.016035
2989.000000	0.016053
2988.000000	0.016074
2987.000000	0.016103
2986.000000	0.016140
2985.000000	0.016169
2984.000000	0.016177
2983.000000	0.016159
2982.000000	0.016126
2981.000000	0.016086
2980.000000	0.016039
2979.000000	0.015977
2978.000000	0.015894
2977.000000	0.015795
2976.000000	0.015688
2975.000000	0.015574
2974.000000	0.015445
2973.000000	0.015289
2972.000000	0.015103
2971.000000	0.014889
2970.000000	0.014653
2969.000000	0.014397
2968.000000	0.014121
2967.000000	0.013832
2966.000000	0.013542
2965.000000	0.013257
2964.000000	0.012972
2963.000000	0.012674
2962.000000	0.012366
2961.000000	0.012064
2960.000000	0.011787
2959.000000	0.011535
2958.000000	0.011303
2957.000000	0.011096
2956.000000	0.010923
2955.000000	0.010792
2954.000000	0.010699
2953.000000	0.010635
2952.000000	0.010585
2951.000000	0.010529
2950.000000	0.010442
2949.000000	0.010307
2948.000000	0.010117
2947.000000	0.009863
2946.000000	0.009533
2945.000000	0.009123
2944.000000	0.008646
2943.000000	0.008130
2942.000000	0.007589
2941.000000	0.007011
2940.000000	0.006374
2939.000000	0.005667
2938.000000	0.004892
2937.000000	0.004064
2936.000000	0.003195
2935.000000	0.002293
2934.000000	0.001364
2933.000000	0.000417
2932.000000	-0.000533
2931.000000	-0.001465
2930.000000	-0.002354
2929.000000	-0.003172
2928.000000	-0.003896
2927.000000	-0.004504
2926.000000	-0.004971
2925.000000	-0.005258
2924.000000	-0.005330
2923.000000	-0.005160
2922.000000	-0.004742
2921.000000	-0.004093
2920.000000	-0.003243
2919.000000	-0.002242
2918.000000	-0.001155
2917.000000	-0.000055
2916.000000	0.000987
2915.000000	0.001928
2914.000000	0.002761
2913.000000	0.003511
2912.000000	0.004202
2911.000000	0.004841
2910.000000	0.005421
2909.000000	0.005940
2908.000000	0.006408
2907.000000	0.006844
2906.000000	0.007256
2905.000000	0.007647
2904.000000	0.008016
2903.000000	0.008364
2902.000000	0.008690
2901.000000	0.008994
2900.000000	0.009279
2899.000000	0.009553
2898.000000	0.009819
2897.000000	0.010080
2896.000000	0.010344
2895.000000	0.010616
2894.000000	0.010893
2893.000000	0.011164
2892.000000	0.011417
2891.000000	0.011655
2890.000000	0.011885
2889.000000	0.012111
2888.000000	0.012330
2887.000000	0.012531
2886.000000	0.012707
2885.000000	0.012853
2884.000000	0.012973
2883.000000	0.013069
2882.000000	0.013136
2881.000000	0.013161
2880.000000	0.013128
2879.000000	0.013034
2878.000000	0.012882
2877.000000	0.012683
2876.000000	0.012450
2875.000000	0.012200
2874.000000	0.011950
2873.000000	0.011719
2872.000000	0.011515
2871.000000	0.011330
2870.000000	0.011144
2869.000000	0.010920
2868.000000	0.010621
2867.000000	0.010221
2866.000000	0.009710
2865.000000	0.009091
2864.000000	0.008363
2863.000000	0.007526
2862.000000	0.006586
2861.000000	0.005562
2860.000000	0.004496
2859.000000	0.003440
2858.000000	0.002448
2857.000000	0.001573
2856.000000	0.000872
2855.000000	0.000418
2854.000000	0.000285
2853.000000	0.000521
2852.000000	0.001115
2851.000000	0.002001
2850.000000	0.003075
2849.000000	0.004234
2848.000000	0.005401
2847.000000	0.006529
2846.000000	0.007588
2845.000000	0.008559
2844.000000	0.009425
2843.000000	0.010178
2842.000000	0.010824
2841.000000	0.011369
2840.000000	0.011822
2839.000000	0.012188
2838.000000	0.012477
2837.000000	0.012701
2836.000000	0.012878
2835.000000	0.013028
2834.000000	0.013168
2833.000000	0.013304
2832.000000	0.013433
2831.000000	0.013548
2830.000000	0.013646
2829.000000	0.013728
2828.000000	0.013799
2827.000000	0.013862
2826.000000	0.013915
2825.000000	0.013953
2824.000000	0.013967
2823.000000	0.013966
2822.000000	0.013963
2821.000000	0.013969
2820.000000	0.013985
2819.000000	0.014002
2818.000000	0.014017
2817.000000	0.014031
2816.000000	0.014046
2815.000000	0.014063
2814.000000	0.014078
2813.000000	0.014084
2812.000000	0.014079
2811.000000	0.014068
2810.000000	0.014061
2809.000000	0.014062
2808.000000	0.014062
2807.000000	0.014049
2806.000000	0.014022
2805.000000	0.013994
2804.000000	0.013980
2803.000000	0.013979
2802.000000	0.013983
2801.000000	0.013980
2800.000000	0.013967
2799.000000	0.013948
2798.000000	0.013929
2797.000000	0.013912
2796.000000	0.013898
2795.000000	0.013883
2794.000000	0.013865
2793.000000	0.013844
2792.000000	0.013819
2791.000000	0.013797
2790.000000	0.013783
2789.000000	0.013779
2788.000000	0.013780
2787.000000	0.013776
2786.000000	0.013757
2785.000000	0.013725
2784.000000	0.013687
2783.000000	0.013655
2782.000000	0.013630
2781.000000	0.013609
2780.000000	0.013586
2779.000000	0.013566
2778.000000	0.013556
2777.000000	0.013556
2776.000000	0.013553
2775.000000	0.013532
2774.000000	0.013498
2773.000000	0.013462
2772.000000	0.013431
2771.000000	0.013405
2770.000000	0.013379
2769.000000	0.013355
2768.000000	0.013334
2767.000000	0.013318
2766.000000	0.013309
2765.000000	0.013306
2764.000000	0.013306
2763.000000	0.013302
2762.000000	0.013286
2761.000000	0.013257
2760.000000	0.013216
2759.000000	0.013172
2758.000000	0.013140
2757.000000	0.013129
2756.000000	0.013133
2755.000000	0.013134
2754.000000	0.013114
2753.000000	0.013073
2752.000000	0.013021
2751.000000	0.012975
2750.000000	0.012948
2749.000000	0.012942
2748.000000	0.012948
2747.000000	0.012949
2746.000000	0.012935
2745.000000	0.012910
2744.000000	0.012881
2743.000000	0.012858
2742.000000	0.012839
2741.000000	0.012819
2740.000000	0.012797
2739.000000	0.012773
2738.000000	0.012749
2737.000000	0.012724
2736.000000	0.012693
2735.000000	0.012652
2734.000000	0.012606
2733.000000	0.012564
2732.000000	0.012539
2731.000000	0.012533
2730.000000	0.012534
2729.000000	0.012530
2728.000000	0.012515
2727.000000	0.012493
2726.000000	0.012473
2725.000000	0.012455
2724.000000	0.012437
2723.000000	0.012412
2722.000000	0.012383
2721.000000	0.012358
2720.000000	0.012335
2719.000000	0.012309
2718.000000	0.012278
2717.000000	0.012245
2716.000000	0.012220
2715.000000	0.012204
2714.000000	0.012190
2713.000000	0.012174
2712.000000	0.012158
2711.000000	0.012144
2710.000000	0.012131
2709.000000	0.012116
2708.000000	0.012096
2707.000000	0.012073
2706.000000	0.012051
2705.000000	0.012036
2704.000000	0.012029
2703.000000	0.012030
2702.000000	0.012030
2701.000000	0.012024
2700.000000	0.012005
2699.000000	0.011972
2698.000000	0.011934
2697.000000	0.011902
2696.000000	0.011885
2695.000000	0.011882
2694.000000	0.011883
2693.000000	0.011881
2692.000000	0.011873
2691.000000	0.011858
2690.000000	0.011840
2689.000000	0.011819
2688.000000	0.011798
2687.000000	0.011777
2686.000000	0.011754
2685.000000	0.011731
2684.000000	0.011710
2683.000000	0.011698
2682.000000	0.011697
2681.000000	0.011708
2680.000000	0.011725
2679.000000	0.011732
2678.000000	0.011719
2677.000000	0.011686
2676.000000	0.011649
2675.000000	0.011625
2674.000000	0.011616
2673.000000	0.011612
2672.000000	0.011604
2671.000000	0.011596
2670.000000	0.011595
2669.000000	0.011602
2668.000000	0.011609
2667.000000	0.011613
2666.000000	0.011615
2665.000000	0.011618
2664.000000	0.011619
2663.000000	0.011613
2662.000000	0.011604
2661.000000	0.011598
2660.000000	0.011598
2659.000000	0.011598
2658.000000	0.011592
2657.000000	0.011576
2656.000000	0.011556
2655.000000	0.011536
2654.000000	0.011516
2653.000000	0.011496
2652.000000	0.011475
2651.000000	0.011449
2650.000000	0.011417
2649.000000	0.011377
2648.000000	0.011333
2647.000000	0.011290
2646.000000	0.011256
2645.000000	0.011231
2644.000000	0.011208
2643.000000	0.011180
2642.000000	0.011147
2641.000000	0.011118
2640.000000	0.011094
2639.000000	0.011073
2638.000000	0.011046
2637.000000	0.011012
2636.000000	0.010977
2635.000000	0.010948
2634.000000	0.010929
2633.000000	0.010912
2632.000000	0.010896
2631.000000	0.010879
2630.000000	0.010865
2629.000000	0.010852
2628.000000	0.010837
2627.000000	0.010814
2626.000000	0.010782
2625.000000	0.010744
2624.000000	0.010712
2623.000000	0.010696
2622.000000	0.010704
2621.000000	0.010724
2620.000000	0.010737
2619.000000	0.010723
2618.000000	0.010683
2617.000000	0.010638
2616.000000	0.010607
2615.000000	0.010593
2614.000000	0.010580
2613.000000	0.010552
2612.000000	0.010513
2611.000000	0.010478
2610.000000	0.010463
2609.000000	0.010464
2608.000000	0.010473
2607.000000	0.010488
2606.000000	0.010507
2605.000000	0.010522
2604.000000	0.010514
2603.000000	0.010477
2602.000000	0.010428
2601.000000	0.010389
2600.000000	0.010368
2599.000000	0.010356
2598.000000	0.010340
2597.000000	0.010318
2596.000000	0.010293
2595.000000	0.010271
2594.000000	0.010251
2593.000000	0.010234
2592.000000	0.010223
2591.000000	0.010211
2590.000000	0.010194
2589.000000	0.010171
2588.000000	0.010154
2587.000000	0.010151
2586.000000	0.010155
2585.000000	0.010144
2584.000000	0.010108
2583.000000	0.010061
2582.000000	0.010026
2581.000000	0.010013
2580.000000	0.010006
2579.000000	0.009981
2578.000000	0.009931
2577.000000	0.009867
2576.000000	0.009806
2575.000000	0.009770
2574.000000	0.009776
2573.000000	0.009824
2572.000000	0.009893
2571.000000	0.009953
2570.000000	0.009981
2569.000000	0.009979
2568.000000	0.009966
2567.000000	0.009959
2566.000000	0.009955
2565.000000	0.009936
2564.000000	0.009898
2563.000000	0.009860
2562.000000	0.009849
2561.000000	0.009868
2560.000000	0.009882
2559.000000	0.009857
2558.000000	0.009790
2557.000000	0.009712
2556.000000	0.009663
2555.000000	0.009669
2554.000000	0.009727
2553.000000	0.009807
2552.000000	0.009866
2551.000000	0.009880
2550.000000	0.009857
2549.000000	0.009820
2548.000000	0.009778
2547.000000	0.009724
2546.000000	0.009662
2545.000000	0.009609
2544.000000	0.009587
2543.000000	0.009593
2542.000000	0.009610
2541.000000	0.009618
2540.000000	0.009614
2539.000000	0.009603
2538.000000	0.009598
2537.000000	0.009601
2536.000000	0.009607
2535.000000	0.009609
2534.000000	0.009602
2533.000000	0.009587
2532.000000	0.009570
2531.000000	0.009566
2530.000000	0.009581
2529.000000	0.009606
2528.000000	0.009620
2527.000000	0.009616
2526.000000	0.009603
2525.000000	0.009595
2524.000000	0.009599
2523.000000	0.009614
2522.000000	0.009629
2521.000000	0.009631
2520.000000	0.009605
2519.000000	0.009553
2518.000000	0.009502
2517.000000	0.009479
2516.000000	0.009488
2515.000000	0.009513
2514.000000	0.009542
2513.000000	0.009575
2512.000000	0.009610
2511.000000	0.009629
2510.000000	0.009616
2509.000000	0.009573
2508.000000	0.009524
2507.000000	0.009491
2506.000000	0.009486
2505.000000	0.009505
2504.000000	0.009526
2503.000000	0.009525
2502.000000	0.009491
2501.000000	0.009435
2500.000000	0.009388
2499.000000	0.009378
2498.000000	0.009407
2497.000000	0.009450
2496.000000	0.009472
2495.000000	0.009455
2494.000000	0.009410
2493.000000	0.009364
2492.000000	0.009338
2491.000000	0.009342
2490.000000	0.009374
2489.000000	0.009415
2488.000000	0.009439
2487.000000	0.009433
2486.000000	0.009406
2485.000000	0.009380
2484.000000	0.009364
2483.000000	0.009352
2482.000000	0.009338
2481.000000	0.009323
2480.000000	0.009305
2479.000000	0.009281
2478.000000	0.009258
2477.000000	0.009248
2476.000000	0.009255
2475.000000	0.009263
2474.000000	0.009252
2473.000000	0.009221
2472.000000	0.009189
2471.000000	0.009173
2470.000000	0.009179
2469.000000	0.009195
2468.000000	0.009202
2467.000000	0.009189
2466.000000	0.009159
2465.000000	0.009126
2464.000000	0.009104
2463.000000	0.009102
2462.000000	0.009121
2461.000000	0.009154
2460.000000	0.009182
2459.000000	0.009185
2458.000000	0.009163
2457.000000	0.009132
2456.000000	0.009115
2455.000000	0.009118
2454.000000	0.009132
2453.000000	0.009145
2452.000000	0.009152
2451.000000	0.009151
2450.000000	0.009150
2449.000000	0.009158
2448.000000	0.009177
2447.000000	0.009198
2446.000000	0.009201
2445.000000	0.009173
2444.000000	0.009114
2443.000000	0.009038
2442.000000	0.008974
2441.000000	0.008949
2440.000000	0.008970
2439.000000	0.009014
2438.000000	0.009048
2437.000000	0.009051
2436.000000	0.009026
2435.000000	0.008986
2434.000000	0.008945
2433.000000	0.008912
2432.000000	0.008892
2431.000000	0.008888
2430.000000	0.008901
2429.000000	0.008931
2428.000000	0.008974
2427.000000	0.009012
2426.000000	0.009024
2425.000000	0.009002
2424.000000	0.008960
2423.000000	0.008919
2422.000000	0.008890
2421.000000	0.008875
2420.000000	0.008869
2419.000000	0.008873
2418.000000	0.008886
2417.000000	0.008904
2416.000000	0.008918
2415.000000	0.008919
2414.000000	0.008897
2413.000000	0.008855
2412.000000	0.008810
2411.000000	0.008786
2410.000000	0.008786
2409.000000	0.008802
2408.000000	0.008819
2407.000000	0.008838
2406.000000	0.008862
2405.000000	0.008884
2404.000000	0.008892
2403.000000	0.008882
2402.000000	0.008856
2401.000000	0.008820
2400.000000	0.008779
2399.000000	0.008745
2398.000000	0.008730
2397.000000	0.008739
2396.000000	0.008766
2395.000000	0.008800
2394.000000	0.008835
2393.000000	0.008870
2392.000000	0.008904
2391.000000	0.008938
2390.000000	0.008966
2389.000000	0.008977
2388.000000	0.008963
2387.000000	0.008935
2386.000000	0.008914
2385.000000	0.008914
2384.000000	0.008924
2383.000000	0.008927
2382.000000	0.008919
2381.000000	0.008910
2380.000000	0.008910
2379.000000	0.008922
2378.000000	0.008944
2377.000000	0.008967
2376.000000	0.008974
2375.000000	0.008957
2374.000000	0.008927
2373.000000	0.008899
2372.000000	0.008878
2371.000000	0.008863
2370.000000	0.008867
2369.000000	0.008907
2368.000000	0.008974
2367.000000	0.009036
2366.000000	0.009078
2365.000000	0.009109
2364.000000	0.009134
2363.000000	0.009134
2362.000000	0.009091
2361.000000	0.009023
2360.000000	0.008969
2359.000000	0.008953
2358.000000	0.008964
2357.000000	0.008987
2356.000000	0.009026
2355.000000	0.009083
2354.000000	0.009124
2353.000000	0.009114
2352.000000	0.009075
2351.000000	0.009058
2350.000000	0.009074
2349.000000	0.009105
2348.000000	0.009124
2347.000000	0.009125
2346.000000	0.009126
2345.000000	0.009149
2344.000000	0.009186
2343.000000	0.009203
2342.000000	0.009182
2341.000000	0.009134
2340.000000	0.009098
2339.000000	0.009095
2338.000000	0.009114
2337.000000	0.009135
2336.000000	0.009155
2335.000000	0.009184
2334.000000	0.009208
2333.000000	0.009201
2332.000000	0.009165
2331.000000	0.009135
2330.000000	0.009136
2329.000000	0.009163
2328.000000	0.009200
2327.000000	0.009246
2326.000000	0.009299
2325.000000	0.009338
2324.000000	0.009339
2323.000000	0.009299
2322.000000	0.009244
2321.000000	0.009204
2320.000000	0.009181
2319.000000	0.009157
2318.000000	0.009113
2317.000000	0.009056
2316.000000	0.009007
2315.000000	0.008986
2314.000000	0.008993
2313.000000	0.009011
2312.000000	0.009026
2311.000000	0.009035
2310.000000	0.009036
2309.000000	0.009019
2308.000000	0.008976
2307.000000	0.008920
2306.000000	0.008874
2305.000000	0.008848
2304.000000	0.008829
2303.000000	0.008802
2302.000000	0.008772
2301.000000	0.008755
2300.000000	0.008757
2299.000000	0.008768
2298.000000	0.008771
2297.000000	0.008758
2296.000000	0.008736
2295.000000	0.008722
2294.000000	0.008728
2293.000000	0.008749
2292.000000	0.008766
2291.000000	0.008776
2290.000000	0.008793
2289.000000	0.008834
2288.000000	0.008894
2287.000000	0.008949
2286.000000	0.008975
2285.000000	0.008955
2284.000000	0.008895
2283.000000	0.008816
2282.000000	0.008754
2281.000000	0.008729
2280.000000	0.008740
2279.000000	0.008771
2278.000000	0.008807
2277.000000	0.008835
2276.000000	0.008837
2275.000000	0.008803
2274.000000	0.008749
2273.000000	0.008694
2272.000000	0.008645
2271.000000	0.008596
2270.000000	0.008549
2269.000000	0.008515
2268.000000	0.008502
2267.000000	0.008510
2266.000000	0.008533
2265.000000	0.008551
2264.000000	0.008537
2263.000000	0.008479
2262.000000	0.008388
2261.000000	0.008297
2260.000000	0.008233
2259.000000	0.008211
2258.000000	0.008237
2257.000000	0.008301
2256.000000	0.008369
2255.000000	0.008394
2254.000000	0.008354
2253.000000	0.008271
2252.000000	0.008201
2251.000000	0.008204
2250.000000	0.008294
2249.000000	0.008425
2248.000000	0.008517
2247.000000	0.008531
2246.000000	0.008500
2245.000000	0.008477
2244.000000	0.008465
2243.000000	0.008427
2242.000000	0.008350
2241.000000	0.008279
2240.000000	0.008282
2239.000000	0.008388
2238.000000	0.008559
2237.000000	0.008720
2236.000000	0.008803
2235.000000	0.008792
2234.000000	0.008729
2233.000000	0.008675
2232.000000	0.008658
2231.000000	0.008659
2230.000000	0.008636
2229.000000	0.008566
2228.000000	0.008465
2227.000000	0.008375
2226.000000	0.008333
2225.000000	0.008331
2224.000000	0.008330
2223.000000	0.008307
2222.000000	0.008277
2221.000000	0.008265
2220.000000	0.008276
2219.000000	0.008305
2218.000000	0.008351
2217.000000	0.008405
2216.000000	0.008432
2215.000000	0.008391
2214.000000	0.008293
2213.000000	0.008191
2212.000000	0.008125
2211.000000	0.008087
2210.000000	0.008050
2209.000000	0.008006
2208.000000	0.007974
2207.000000	0.007968
2206.000000	0.007983
2205.000000	0.008009
2204.000000	0.008049
2203.000000	0.008108
2202.000000	0.008160
2201.000000	0.008145
2200.000000	0.008035
2199.000000	0.007891
2198.000000	0.007821
2197.000000	0.007873
2196.000000	0.007986
2195.000000	0.008071
2194.000000	0.008093
2193.000000	0.008065
2192.000000	0.007992
2191.000000	0.007860
2190.000000	0.007676
2189.000000	0.007493
2188.000000	0.007381
2187.000000	0.007386
2186.000000	0.007497
2185.000000	0.007641
2184.000000	0.007734
2183.000000	0.007763
2182.000000	0.007794
2181.000000	0.007887
2180.000000	0.008016
2179.000000	0.008110
2178.000000	0.008137
2177.000000	0.008113
2176.000000	0.008061
2175.000000	0.007987
2174.000000	0.007898
2173.000000	0.007811
2172.000000	0.007744
2171.000000	0.007702
2170.000000	0.007669
2169.000000	0.007621
2168.000000	0.007566
2167.000000	0.007561
2166.000000	0.007660
2165.000000	0.007826
2164.000000	0.007965
2163.000000	0.008038
2162.000000	0.008064
2161.000000	0.008002
2160.000000	0.007727
2159.000000	0.007209
2158.000000	0.006654
2157.000000	0.006314
2156.000000	0.006245
2155.000000	0.006360
2154.000000	0.006593
2153.000000	0.006905
2152.000000	0.007208
2151.000000	0.007396
2150.000000	0.007426
2149.000000	0.007353
2148.000000	0.007279
2147.000000	0.007298
2146.000000	0.007444
2145.000000	0.007649
2144.000000	0.007778
2143.000000	0.007762
2142.000000	0.007660
2141.000000	0.007585
2140.000000	0.007578
2139.000000	0.007594
2138.000000	0.007581
2137.000000	0.007532
2136.000000	0.007467
2135.000000	0.007408
2134.000000	0.007373
2133.000000	0.007364
2132.000000	0.007374
2131.000000	0.007397
2130.000000	0.007436
2129.000000	0.007487
2128.000000	0.007531
2127.000000	0.007559
2126.000000	0.007580
2125.000000	0.007609
2124.000000	0.007643
2123.000000	0.007676
2122.000000	0.007713
2121.000000	0.007755
2120.000000	0.007797
2119.000000	0.007845
2118.000000	0.007922
2117.000000	0.008034
2116.000000	0.008133
2115.000000	0.008162
2114.000000	0.008119
2113.000000	0.008060
2112.000000	0.008033
2111.000000	0.008042
2110.000000	0.008063
2109.000000	0.008065
2108.000000	0.008028
2107.000000	0.007962
2106.000000	0.007916
2105.000000	0.007928
2104.000000	0.007979
2103.000000	0.008000
2102.000000	0.007959
2101.000000	0.007890
2100.000000	0.007850
2099.000000	0.007853
2098.000000	0.007860
2097.000000	0.007836
2096.000000	0.007778
2095.000000	0.007705
2094.000000	0.007635
2093.000000	0.007574
2092.000000	0.007538
2091.000000	0.007551
2090.000000	0.007625
2089.000000	0.007735
2088.000000	0.007834
2087.000000	0.007893
2086.000000	0.007915
2085.000000	0.007902
2084.000000	0.007844
2083.000000	0.007745
2082.000000	0.007643
2081.000000	0.007594
2080.000000	0.007622
2079.000000	0.007707
2078.000000	0.007789
2077.000000	0.007803
2076.000000	0.007721
2075.000000	0.007575
2074.000000	0.007434
2073.000000	0.007329
2072.000000	0.007243
2071.000000	0.007165
2070.000000	0.007129
2069.000000	0.007162
2068.000000	0.007244
2067.000000	0.007322
2066.000000	0.007378
2065.000000	0.007417
2064.000000	0.007435
2063.000000	0.007406
2062.000000	0.007314
2061.000000	0.007184
2060.000000	0.007079
2059.000000	0.007074
2058.000000	0.007193
2057.000000	0.007357
2056.000000	0.007438
2055.000000	0.007382
2054.000000	0.007260
2053.000000	0.007185
2052.000000	0.007200
2051.000000	0.007278
2050.000000	0.007367
2049.000000	0.007405
2048.000000	0.007347
2047.000000	0.007219
2046.000000	0.007103
2045.000000	0.007044
2044.000000	0.007005
2043.000000	0.006973
2042.000000	0.007008
2041.000000	0.007131
2040.000000	0.007227
2039.000000	0.007178
2038.000000	0.007031
2037.000000	0.006928
2036.000000	0.006889
2035.000000	0.006775
2034.000000	0.006480
2033.000000	0.006082
2032.000000	0.005769
2031.000000	0.005687
2030.000000	0.005848
2029.000000	0.006122
2028.000000	0.006327
2027.000000	0.006383
2026.000000	0.006378
2025.000000	0.006426
2024.000000	0.006529
2023.000000	0.006615
2022.000000	0.006657
2021.000000	0.006663
2020.000000	0.006618
2019.000000	0.006502
2018.000000	0.006351
2017.000000	0.006216
2016.000000	0.006111
2015.000000	0.006045
2014.000000	0.006048
2013.000000	0.006087
2012.000000	0.006017
2011.000000	0.005742
2010.000000	0.005386
2009.000000	0.005203
2008.000000	0.005317
2007.000000	0.005627
2006.000000	0.005962
2005.000000	0.006213
2004.000000	0.006336
2003.000000	0.006345
2002.000000	0.006316
2001.000000	0.006346
2000.000000	0.006455
1999.000000	0.006584
1998.000000	0.006666
1997.000000	0.006671
1996.000000	0.006599
1995.000000	0.006481
1994.000000	0.006379
1993.000000	0.006333
1992.000000	0.006328
1991.000000	0.006321
1990.000000	0.006297
1989.000000	0.006262
1988.000000	0.006225
1987.000000	0.006208
1986.000000	0.006250
1985.000000	0.006349
1984.000000	0.006457
1983.000000	0.006560
1982.000000	0.006694
1981.000000	0.006834
1980.000000	0.006852
1979.000000	0.006667
1978.000000	0.006386
1977.000000	0.006184
1976.000000	0.006081
1975.000000	0.005981
1974.000000	0.005885
1973.000000	0.005892
1972.000000	0.006039
1971.000000	0.006280
1970.000000	0.006568
1969.000000	0.006848
1968.000000	0.007008
1967.000000	0.006953
1966.000000	0.006728
1965.000000	0.006477
1964.000000	0.006298
1963.000000	0.006197
1962.000000	0.006162
1961.000000	0.006190
1960.000000	0.006256
1959.000000	0.006330
1958.000000	0.006418
1957.000000	0.006529
1956.000000	0.006635
1955.000000	0.006698
1954.000000	0.006711
1953.000000	0.006678
1952.000000	0.006595
1951.000000	0.006486
1950.000000	0.006432
1949.000000	0.006485
1948.000000	0.006585
1947.000000	0.006635
1946.000000	0.006632
1945.000000	0.006637
1944.000000	0.006650
1943.000000	0.006592
1942.000000	0.006442
1941.000000	0.006302
1940.000000	0.006283
1939.000000	0.006390
1938.000000	0.006537
1937.000000	0.006628
1936.000000	0.006626
1935.000000	0.006572
1934.000000	0.006543
1933.000000	0.006572
1932.000000	0.006624
1931.000000	0.006642
1930.000000	0.006622
1929.000000	0.006600
1928.000000	0.006589
1927.000000	0.006576
1926.000000	0.006546
1925.000000	0.006514
1924.000000	0.006493
1923.000000	0.006480
1922.000000	0.006487
1921.000000	0.006531
1920.000000	0.006603
1919.000000	0.006665
1918.000000	0.006685
1917.000000	0.006670
1916.000000	0.006647
1915.000000	0.006637
1914.000000	0.006646
1913.000000	0.006672
1912.000000	0.006703
1911.000000	0.006732
1910.000000	0.006762
1909.000000	0.006792
1908.000000	0.006801
1907.000000	0.006778
1906.000000	0.006731
1905.000000	0.006684
1904.000000	0.006639
1903.000000	0.006593
1902.000000	0.006567
1901.000000	0.006592
1900.000000	0.006652
1899.000000	0.006703
1898.000000	0.006721
1897.000000	0.006725
1896.000000	0.006733
1895.000000	0.006728
1894.000000	0.006690
1893.000000	0.006624
1892.000000	0.006555
1891.000000	0.006506
1890.000000	0.006481
1889.000000	0.006473
1888.000000	0.006479
1887.000000	0.006510
1886.000000	0.006565
1885.000000	0.006627
1884.000000	0.006663
1883.000000	0.006652
1882.000000	0.006609
1881.000000	0.006558
1880.000000	0.006518
1879.000000	0.006509
1878.000000	0.006525
1877.000000	0.006531
1876.000000	0.006488
1875.000000	0.006394
1874.000000	0.006289
1873.000000	0.006221
1872.000000	0.006219
1871.000000	0.006288
1870.000000	0.006398
1869.000000	0.006476
1868.000000	0.006463
1867.000000	0.006395
1866.000000	0.006351
1865.000000	0.006352
1864.000000	0.006364
1863.000000	0.006365
1862.000000	0.006380
1861.000000	0.006432
1860.000000	0.006492
1859.000000	0.006511
1858.000000	0.006465
1857.000000	0.006374
1856.000000	0.006289
1855.000000	0.006269
1854.000000	0.006337
1853.000000	0.006446
1852.000000	0.006502
1851.000000	0.006479
1850.000000	0.006416
1849.000000	0.006337
1848.000000	0.006238
1847.000000	0.006146
1846.000000	0.006128
1845.000000	0.006197
1844.000000	0.006255
1843.000000	0.006236
1842.000000	0.006205
1841.000000	0.006237
1840.000000	0.006314
1839.000000	0.006372
1838.000000	0.006382
1837.000000	0.006384
1836.000000	0.006395
1835.000000	0.006380
1834.000000	0.006322
1833.000000	0.006250
1832.000000	0.006194
1831.000000	0.006158
1830.000000	0.006089
1829.000000	0.005972
1828.000000	0.005882
1827.000000	0.005898
1826.000000	0.006016
1825.000000	0.006143
1824.000000	0.006201
1823.000000	0.006208
1822.000000	0.006226
1821.000000	0.006261
1820.000000	0.006277
1819.000000	0.006258
1818.000000	0.006221
1817.000000	0.006183
1816.000000	0.006134
1815.000000	0.006078
1814.000000	0.006052
1813.000000	0.006070
1812.000000	0.006110
1811.000000	0.006139
1810.000000	0.006158
1809.000000	0.006186
1808.000000	0.006218
1807.000000	0.006233
1806.000000	0.006227
1805.000000	0.006206
1804.000000	0.006163
1803.000000	0.006103
1802.000000	0.006052
1801.000000	0.006012
1800.000000	0.005985
1799.000000	0.005983
1798.000000	0.006009
1797.000000	0.006023
1796.000000	0.005974
1795.000000	0.005878
1794.000000	0.005815
1793.000000	0.005811
1792.000000	0.005808
1791.000000	0.005765
1790.000000	0.005740
1789.000000	0.005774
1788.000000	0.005841
1787.000000	0.005890
1786.000000	0.005900
1785.000000	0.005869
1784.000000	0.005798
1783.000000	0.005726
1782.000000	0.005719
1781.000000	0.005748
1780.000000	0.005749
1779.000000	0.005707
1778.000000	0.005673
1777.000000	0.005653
1776.000000	0.005595
1775.000000	0.005513
1774.000000	0.005473
1773.000000	0.005458
1772.000000	0.005351
1771.000000	0.005160
1770.000000	0.005033
1769.000000	0.005022
1768.000000	0.004991
1767.000000	0.004804
1766.000000	0.004495
1765.000000	0.004167
1764.000000	0.003820
1763.000000	0.003344
1762.000000	0.002669
1761.000000	0.001860
1760.000000	0.001053
1759.000000	0.000259
1758.000000	-0.000605
1757.000000	-0.001666
1756.000000	-0.002927
1755.000000	-0.004212
1754.000000	-0.005383
1753.000000	-0.006499
1752.000000	-0.007734
1751.000000	-0.009145
1750.000000	-0.010549
1749.000000	-0.011693
1748.000000	-0.012526
1747.000000	-0.013094
1746.000000	-0.013399
1745.000000	-0.013415
1744.000000	-0.013149
1743.000000	-0.012679
1742.000000	-0.012000
1741.000000	-0.010981
1740.000000	-0.009622
1739.000000	-0.008263
1738.000000	-0.007188
1737.000000	-0.006262
1736.000000	-0.005151
1735.000000	-0.003711
1734.000000	-0.002244
1733.000000	-0.001131
1732.000000	-0.000290
1731.000000	0.000485
1730.000000	0.001245
1729.000000	0.001947
1728.000000	0.002549
1727.000000	0.003063
1726.000000	0.003526
1725.000000	0.003973
1724.000000	0.004409
1723.000000	0.004734
1722.000000	0.004893
1721.000000	0.004989
1720.000000	0.005196
1719.000000	0.005582
1718.000000	0.006019
1717.000000	0.006355
1716.000000	0.006612
1715.000000	0.006864
1714.000000	0.007127
1713.000000	0.007417
1712.000000	0.007733
1711.000000	0.008037
1710.000000	0.008303
1709.000000	0.008543
1708.000000	0.008804
1707.000000	0.009152
1706.000000	0.009567
1705.000000	0.009924
1704.000000	0.010153
1703.000000	0.010381
1702.000000	0.010854
1701.000000	0.011722
1700.000000	0.012709
1699.000000	0.013468
1698.000000	0.014202
1697.000000	0.015227
1696.000000	0.016435
1695.000000	0.017417
1694.000000	0.018101
1693.000000	0.018757
1692.000000	0.019566
1691.000000	0.020464
1690.000000	0.021313
1689.000000	0.022039
1688.000000	0.022657
1687.000000	0.023280
1686.000000	0.024073
1685.000000	0.025192
1684.000000	0.026392
1683.000000	0.027324
1682.000000	0.028208
1681.000000	0.029277
1680.000000	0.030414
1679.000000	0.031389
1678.000000	0.032220
1677.000000	0.033173
1676.000000	0.034412
1675.000000	0.035721
1674.000000	0.036824
1673.000000	0.037776
1672.000000	0.038813
1671.000000	0.040031
1670.000000	0.041401
1669.000000	0.042812
1668.000000	0.044116
1667.000000	0.045215
1666.000000	0.046155
1665.000000	0.047111
1664.000000	0.048209
1663.000000	0.049361
1662.000000	0.050432
1661.000000	0.051429
1660.000000	0.052415
1659.000000	0.053326
1658.000000	0.054036
1657.000000	0.054535
1656.000000	0.054992
1655.000000	0.055627
1654.000000	0.056521
1653.000000	0.057435
1652.000000	0.058114
1651.000000	0.058574
1650.000000	0.058954
1649.000000	0.059452
1648.000000	0.060080
1647.000000	0.060632
1646.000000	0.060986
1645.000000	0.061332
1644.000000	0.061768
1643.000000	0.062219
1642.000000	0.062630
1641.000000	0.062965
1640.000000	0.063205
1639.000000	0.063377
1638.000000	0.063534
1637.000000	0.063714
1636.000000	0.063817
1635.000000	0.063775
1634.000000	0.063729
1633.000000	0.063810
1632.000000	0.063955
1631.000000	0.064018
1630.000000	0.063889
1629.000000	0.063566
1628.000000	0.063102
1627.000000	0.062548
1626.000000	0.061961
1625.000000	0.061341
1624.000000	0.060623
1623.000000	0.059728
1622.000000	0.058735
1621.000000	0.057805
1620.000000	0.056989
1619.000000	0.056208
1618.000000	0.055288
1617.000000	0.054079
1616.000000	0.052695
1615.000000	0.051431
1614.000000	0.050389
1613.000000	0.049471
1612.000000	0.048532
1611.000000	0.047501
1610.000000	0.046424
1609.000000	0.045371
1608.000000	0.044371
1607.000000	0.043428
1606.000000	0.042564
1605.000000	0.041764
1604.000000	0.041011
1603.000000	0.040313
1602.000000	0.039675
1601.000000	0.039091
1600.000000	0.038561
1599.000000	0.038103
1598.000000	0.037726
1597.000000	0.037407
1596.000000	0.037126
1595.000000	0.036881
1594.000000	0.036676
1593.000000	0.036496
1592.000000	0.036332
1591.000000	0.036186
1590.000000	0.036055
1589.000000	0.035923
1588.000000	0.035803
1587.000000	0.035733
1586.000000	0.035735
1585.000000	0.035789
1584.000000	0.035861
1583.000000	0.035988
1582.000000	0.036189
1581.000000	0.036404
1580.000000	0.036585
1579.000000	0.036819
1578.000000	0.037220
1577.000000	0.037789
1576.000000	0.038355
1575.000000	0.038767
1574.000000	0.039078
1573.000000	0.039395
1572.000000	0.039788
1571.000000	0.040294
1570.000000	0.040907
1569.000000	0.041553
1568.000000	0.042185
1567.000000	0.042863
1566.000000	0.043620
1565.000000	0.044388
1564.000000	0.045011
1563.000000	0.045454
1562.000000	0.045808
1561.000000	0.046223
1560.000000	0.046876
1559.000000	0.047661
1558.000000	0.048216
1557.000000	0.048818
1556.000000	0.049589
1555.000000	0.050415
1554.000000	0.051157
1553.000000	0.051738
1552.000000	0.052240
1551.000000	0.052744
1550.000000	0.053193
1549.000000	0.053524
1548.000000	0.053763
1547.000000	0.053998
1546.000000	0.054243
1545.000000	0.054432
1544.000000	0.054502
1543.000000	0.054511
1542.000000	0.054570
1541.000000	0.054729
1540.000000	0.054855
1539.000000	0.054873
1538.000000	0.054863
1537.000000	0.054845
1536.000000	0.054821
1535.000000	0.054776
1534.000000	0.054631
1533.000000	0.054348
1532.000000	0.054085
1531.000000	0.053939
1530.000000	0.053819
1529.000000	0.053626
1528.000000	0.053332
1527.000000	0.052946
1526.000000	0.052483
1525.000000	0.051982
1524.000000	0.051532
1523.000000	0.051171
1522.000000	0.050798
1521.000000	0.050311
1520.000000	0.049832
1519.000000	0.049527
1518.000000	0.049380
1517.000000	0.049224
1516.000000	0.048929
1515.000000	0.048539
1514.000000	0.048133
1513.000000	0.047662
1512.000000	0.047052
1511.000000	0.046310
1510.000000	0.045557
1509.000000	0.044915
1508.000000	0.044382
1507.000000	0.043741
1506.000000	0.042948
1505.000000	0.042320
1504.000000	0.041860
1503.000000	0.041400
1502.000000	0.040828
1501.000000	0.040075
1500.000000	0.039153
1499.000000	0.038160
1498.000000	0.037174
1497.000000	0.036211
1496.000000	0.035291
1495.000000	0.034441
1494.000000	0.033684
1493.000000	0.033025
1492.000000	0.032442
1491.000000	0.031877
1490.000000	0.031291
1489.000000	0.030755
1488.000000	0.030373
1487.000000	0.030124
1486.000000	0.029931
1485.000000	0.029778
1484.000000	0.029668
1483.000000	0.029627
1482.000000	0.029641
1481.000000	0.029697
1480.000000	0.029784
1479.000000	0.029894
1478.000000	0.030001
1477.000000	0.030068
1476.000000	0.030072
1475.000000	0.030020
1474.000000	0.029934
1473.000000	0.029740
1472.000000	0.029366
1471.000000	0.028892
1470.000000	0.028457
1469.000000	0.028119
1468.000000	0.027899
1467.000000	0.027821
1466.000000	0.027946
1465.000000	0.028274
1464.000000	0.028708
1463.000000	0.029133
1462.000000	0.029481
1461.000000	0.029766
1460.000000	0.030042
1459.000000	0.030426
1458.000000	0.031037
1457.000000	0.031858
1456.000000	0.032679
1455.000000	0.033391
1454.000000	0.034060
1453.000000	0.034737
1452.000000	0.035351
1451.000000	0.035797
1450.000000	0.036087
1449.000000	0.036300
1448.000000	0.036450
1447.000000	0.036512
1446.000000	0.036549
1445.000000	0.036595
1444.000000	0.036634
1443.000000	0.036624
1442.000000	0.036539
1441.000000	0.036385
1440.000000	0.036184
1439.000000	0.035970
1438.000000	0.035767
1437.000000	0.035584
1436.000000	0.035404
1435.000000	0.035251
1434.000000	0.035156
1433.000000	0.035097
1432.000000	0.035018
1431.000000	0.034889
1430.000000	0.034741
1429.000000	0.034632
1428.000000	0.034567
1427.000000	0.034517
1426.000000	0.034500
1425.000000	0.034502
1424.000000	0.034461
1423.000000	0.034328
1422.000000	0.034147
1421.000000	0.034000
1420.000000	0.033917
1419.000000	0.033879
1418.000000	0.033886
1417.000000	0.033991
1416.000000	0.034186
1415.000000	0.034411
1414.000000	0.034632
1413.000000	0.034872
1412.000000	0.035147
1411.000000	0.035429
1410.000000	0.035674
1409.000000	0.035882
1408.000000	0.036064
1407.000000	0.036214
1406.000000	0.036345
1405.000000	0.036463
1404.000000	0.036542
1403.000000	0.036563
1402.000000	0.036548
1401.000000	0.036533
1400.000000	0.036498
1399.000000	0.036389
1398.000000	0.036213
1397.000000	0.036045
1396.000000	0.035892
1395.000000	0.035697
1394.000000	0.035463
1393.000000	0.035255
1392.000000	0.035088
1391.000000	0.034908
1390.000000	0.034678
1389.000000	0.034397
1388.000000	0.034067
1387.000000	0.033673
1386.000000	0.033242
1385.000000	0.032813
1384.000000	0.032379
1383.000000	0.031903
1382.000000	0.031383
1381.000000	0.030862
1380.000000	0.030378
1379.000000	0.029936
1378.000000	0.029544
1377.000000	0.029228
1376.000000	0.028991
1375.000000	0.028796
1374.000000	0.028600
1373.000000	0.028396
1372.000000	0.028205
1371.000000	0.028022
1370.000000	0.027837
1369.000000	0.027637
1368.000000	0.027416
1367.000000	0.027167
1366.000000	0.026895
1365.000000	0.026616
1364.000000	0.026340
1363.000000	0.026064
1362.000000	0.025778
1361.000000	0.025501
1360.000000	0.025258
1359.000000	0.025048
1358.000000	0.024862
1357.000000	0.024694
1356.000000	0.024545
1355.000000	0.024423
1354.000000	0.024339
1353.000000	0.024309
1352.000000	0.024342
1351.000000	0.024433
1350.000000	0.024569
1349.000000	0.024733
1348.000000	0.024914
1347.000000	0.025105
1346.000000	0.025305
1345.000000	0.025517
1344.000000	0.025742
1343.000000	0.025977
1342.000000	0.026220
1341.000000	0.026471
1340.000000	0.026717
1339.000000	0.026930
1338.000000	0.027089
1337.000000	0.027188
1336.000000	0.027226
1335.000000	0.027200
1334.000000	0.027111
1333.000000	0.026964
1332.000000	0.026762
1331.000000	0.026511
1330.000000	0.026231
1329.000000	0.025951
1328.000000	0.025690
1327.000000	0.025456
1326.000000	0.025256
1325.000000	0.025098
1324.000000	0.024987
1323.000000	0.024917
1322.000000	0.024879
1321.000000	0.024872
1320.000000	0.024888
1319.000000	0.024911
1318.000000	0.024932
1317.000000	0.024960
1316.000000	0.025003
1315.000000	0.025042
1314.000000	0.025045
1313.000000	0.024987
1312.000000	0.024865
1311.000000	0.024693
1310.000000	0.024497
1309.000000	0.024301
1308.000000	0.024112
1307.000000	0.023914
1306.000000	0.023694
1305.000000	0.023454
1304.000000	0.023216
1303.000000	0.022993
1302.000000	0.022786
1301.000000	0.022599
1300.000000	0.022440
1299.000000	0.022313
1298.000000	0.022215
1297.000000	0.022144
1296.000000	0.022113
1295.000000	0.022136
1294.000000	0.022218
1293.000000	0.022350
1292.000000	0.022516
1291.000000	0.022709
1290.000000	0.022924
1289.000000	0.023148
1288.000000	0.023358
1287.000000	0.023537
1286.000000	0.023693
1285.000000	0.023860
1284.000000	0.024058
1283.000000	0.024278
1282.000000	0.024493
1281.000000	0.024684
1280.000000	0.024842
1279.000000	0.024959
1278.000000	0.025030
1277.000000	0.025062
1276.000000	0.025069
1275.000000	0.025063
1274.000000	0.025045
1273.000000	0.025022
1272.000000	0.025000
1271.000000	0.024981
1270.000000	0.024970
1269.000000	0.024968
1268.000000	0.024969
1267.000000	0.024961
1266.000000	0.024939
1265.000000	0.024915
1264.000000	0.024917
1263.000000	0.024967
1262.000000	0.025065
1261.000000	0.025200
1260.000000	0.025367
1259.000000	0.025581
1258.000000	0.025866
1257.000000	0.026217
1256.000000	0.026594
1255.000000	0.026948
1254.000000	0.027262
1253.000000	0.027553
1252.000000	0.027838
1251.000000	0.028130
1250.000000	0.028437
1249.000000	0.028765
1248.000000	0.029097
1247.000000	0.029414
1246.000000	0.029723
1245.000000	0.030055
1244.000000	0.030426
1243.000000	0.030823
1242.000000	0.031231
1241.000000	0.031645
1240.000000	0.032051
1239.000000	0.032414
1238.000000	0.032715
1237.000000	0.032962
1236.000000	0.033158
1235.000000	0.033285
1234.000000	0.033326
1233.000000	0.033285
1232.000000	0.033165
1231.000000	0.032952
1230.000000	0.032631
1229.000000	0.032205
1228.000000	0.031692
1227.000000	0.031105
1226.000000	0.030448
1225.000000	0.029729
1224.000000	0.028957
1223.000000	0.028149
1222.000000	0.027336
1221.000000	0.026551
1220.000000	0.025813
1219.000000	0.025131
1218.000000	0.024522
1217.000000	0.024005
1216.000000	0.023593
1215.000000	0.023273
1214.000000	0.023025
1213.000000	0.022830
1212.000000	0.022669
1211.000000	0.022530
1210.000000	0.022413
1209.000000	0.022322
1208.000000	0.022247
1207.000000	0.022167
1206.000000	0.022065
1205.000000	0.021941
1204.000000	0.021783
1203.000000	0.021566
1202.000000	0.021274
1201.000000	0.020914
1200.000000	0.020504
1199.000000	0.020045
1198.000000	0.019525
1197.000000	0.018947
1196.000000	0.018330
1195.000000	0.017709
1194.000000	0.017105
1193.000000	0.016525
1192.000000	0.015966
1191.000000	0.015432
1190.000000	0.014935
1189.000000	0.014483
1188.000000	0.014073
1187.000000	0.013698
1186.000000	0.013368
1185.000000	0.013108
1184.000000	0.012928
1183.000000	0.012808
1182.000000	0.012709
1181.000000	0.012607
1180.000000	0.012504
1179.000000	0.012406
1178.000000	0.012309
1177.000000	0.012201
1176.000000	0.012071
1175.000000	0.011908
1174.000000	0.011716
1173.000000	0.011520
1172.000000	0.011352
1171.000000	0.011217
1170.000000	0.011099
1169.000000	0.010987
1168.000000	0.010886
1167.000000	0.010807
1166.000000	0.010747
1165.000000	0.010701
1164.000000	0.010664
1163.000000	0.010631
1162.000000	0.010591
1161.000000	0.010542
1160.000000	0.010492
1159.000000	0.010444
1158.000000	0.010394
1157.000000	0.010334
1156.000000	0.010258
1155.000000	0.010160
1154.000000	0.010033
1153.000000	0.009882
1152.000000	0.009733
1151.000000	0.009604
1150.000000	0.009491
1149.000000	0.009377
1148.000000	0.009255
1147.000000	0.009128
1146.000000	0.009005
1145.000000	0.008900
1144.000000	0.008833
1143.000000	0.008821
1142.000000	0.008864
1141.000000	0.008949
1140.000000	0.009070
1139.000000	0.009226
1138.000000	0.009425
1137.000000	0.009670
1136.000000	0.009951
1135.000000	0.010243
1134.000000	0.010515
1133.000000	0.010753
1132.000000	0.010964
1131.000000	0.011147
1130.000000	0.011283
1129.000000	0.011364
1128.000000	0.011397
1127.000000	0.011402
1126.000000	0.011382
1125.000000	0.011324
1124.000000	0.011220
1123.000000	0.011080
1122.000000	0.010938
1121.000000	0.010827
1120.000000	0.010764
1119.000000	0.010740
1118.000000	0.010751
1117.000000	0.010810
1116.000000	0.010934
1115.000000	0.011115
1114.000000	0.011319
1113.000000	0.011524
1112.000000	0.011736
1111.000000	0.011960
1110.000000	0.012179
1109.000000	0.012370
1108.000000	0.012530
1107.000000	0.012674
1106.000000	0.012811
1105.000000	0.012933
1104.000000	0.013033
1103.000000	0.013116
1102.000000	0.013202
1101.000000	0.013306
1100.000000	0.013423
1099.000000	0.013535
1098.000000	0.013636
1097.000000	0.013743
1096.000000	0.013879
1095.000000	0.014056
1094.000000	0.014275
1093.000000	0.014547
1092.000000	0.014887
1091.000000	0.015284
1090.000000	0.015712
1089.000000	0.016154
1088.000000	0.016627
1087.000000	0.017154
1086.000000	0.017732
1085.000000	0.018327
1084.000000	0.018889
1083.000000	0.019368
1082.000000	0.019717
1081.000000	0.019901
1080.000000	0.019906
1079.000000	0.019750
1078.000000	0.019485
1077.000000	0.019167
1076.000000	0.018835
1075.000000	0.018501
1074.000000	0.018176
1073.000000	0.017891
1072.000000	0.017679
1071.000000	0.017553
1070.000000	0.017492
1069.000000	0.017470
1068.000000	0.017473
1067.000000	0.017496
1066.000000	0.017539
1065.000000	0.017605
1064.000000	0.017703
1063.000000	0.017829
1062.000000	0.017968
1061.000000	0.018103
1060.000000	0.018228
1059.000000	0.018347
1058.000000	0.018459
1057.000000	0.018560
1056.000000	0.018650
1055.000000	0.018735
1054.000000	0.018817
1053.000000	0.018888
1052.000000	0.018935
1051.000000	0.018951
1050.000000	0.018951
1049.000000	0.018963
1048.000000	0.018999
1047.000000	0.019048
1046.000000	0.019086
1045.000000	0.019095
1044.000000	0.019071
1043.000000	0.019030
1042.000000	0.018999
1041.000000	0.019009
1040.000000	0.019077
1039.000000	0.019204
1038.000000	0.019389
1037.000000	0.019637
1036.000000	0.019936
1035.000000	0.020250
1034.000000	0.020528
1033.000000	0.020743
1032.000000	0.020898
1031.000000	0.021011
1030.000000	0.021097
1029.000000	0.021159
1028.000000	0.021195
1027.000000	0.021200
1026.000000	0.021172
1025.000000	0.021115
1024.000000	0.021039
1023.000000	0.020960
1022.000000	0.020906
1021.000000	0.020904
1020.000000	0.020969
1019.000000	0.021088
1018.000000	0.021222
1017.000000	0.021315
1016.000000	0.021318
1015.000000	0.021201
1014.000000	0.020961
1013.000000	0.020610
1012.000000	0.020168
1011.000000	0.019663
1010.000000	0.019130
1009.000000	0.018597
1008.000000	0.018076
1007.000000	0.017571
1006.000000	0.017099
1005.000000	0.016679
1004.000000	0.016310
1003.000000	0.015967
1002.000000	0.015621
1001.000000	0.015261
1000.000000	0.014903
999.000000	0.014574
998.000000	0.014287
997.000000	0.014026
996.000000	0.013765
995.000000	0.013492
994.000000	0.013216
993.000000	0.012950
992.000000	0.012687
991.000000	0.012413
990.000000	0.012124
989.000000	0.011839
988.000000	0.011583
987.000000	0.011367
986.000000	0.011185
985.000000	0.011021
984.000000	0.010865
983.000000	0.010721
982.000000	0.010593
981.000000	0.010481
980.000000	0.010368
979.000000	0.010246
978.000000	0.010121
977.000000	0.010007
976.000000	0.009903
975.000000	0.009797
974.000000	0.009675
973.000000	0.009525
972.000000	0.009342
971.000000	0.009130
970.000000	0.008912
969.000000	0.008713
968.000000	0.008538
967.000000	0.008382
966.000000	0.008246
965.000000	0.008146
964.000000	0.008082
963.000000	0.008031
962.000000	0.007969
961.000000	0.007896
960.000000	0.007840
959.000000	0.007823
958.000000	0.007846
957.000000	0.007888
956.000000	0.007918
955.000000	0.007915
954.000000	0.007877
953.000000	0.007821
952.000000	0.007766
951.000000	0.007715
950.000000	0.007658
949.000000	0.007584
948.000000	0.007487
947.000000	0.007374
946.000000	0.007270
945.000000	0.007194
944.000000	0.007147
943.000000	0.007116
942.000000	0.007104
941.000000	0.007132
940.000000	0.007207
939.000000	0.007298
938.000000	0.007354
937.000000	0.007350
936.000000	0.007298
935.000000	0.007224
934.000000	0.007148
933.000000	0.007089
932.000000	0.007055
931.000000	0.007042
930.000000	0.007034
929.000000	0.007017
928.000000	0.006980
927.000000	0.006915
926.000000	0.006817
925.000000	0.006689
924.000000	0.006546
923.000000	0.006394
922.000000	0.006236
921.000000	0.006076
920.000000	0.005929
919.000000	0.005811
918.000000	0.005723
917.000000	0.005652
916.000000	0.005573
915.000000	0.005469
914.000000	0.005334
913.000000	0.005181
912.000000	0.005034
911.000000	0.004916
910.000000	0.004844
909.000000	0.004815
908.000000	0.004809
907.000000	0.004803
906.000000	0.004785
905.000000	0.004769
904.000000	0.004766
903.000000	0.004767
902.000000	0.004755
901.000000	0.004723
900.000000	0.004684
899.000000	0.004650
898.000000	0.004622
897.000000	0.004597
896.000000	0.004571
895.000000	0.004535
894.000000	0.004483
893.000000	0.004424
892.000000	0.004381
891.000000	0.004372
890.000000	0.004397
889.000000	0.004440
888.000000	0.004485
887.000000	0.004523
886.000000	0.004555
885.000000	0.004591
884.000000	0.004659
883.000000	0.004798
882.000000	0.005045
881.000000	0.005420
880.000000	0.005910
879.000000	0.006466
878.000000	0.007023
877.000000	0.007510
876.000000	0.007866
875.000000	0.008042
874.000000	0.008005
873.000000	0.007755
872.000000	0.007330
871.000000	0.006799
870.000000	0.006247
869.000000	0.005748
868.000000	0.005342
867.000000	0.005043
866.000000	0.004851
865.000000	0.004761
864.000000	0.004749
863.000000	0.004771
862.000000	0.004796
861.000000	0.004818
860.000000	0.004859
859.000000	0.004938
858.000000	0.005051
857.000000	0.005166
856.000000	0.005247
855.000000	0.005283
854.000000	0.005298
853.000000	0.005329
852.000000	0.005390
851.000000	0.005457
850.000000	0.005508
849.000000	0.005541
848.000000	0.005566
847.000000	0.005587
846.000000	0.005609
845.000000	0.005648
844.000000	0.005718
843.000000	0.005820
842.000000	0.005954
841.000000	0.006128
840.000000	0.006347
839.000000	0.006580
838.000000	0.006774
837.000000	0.006888
836.000000	0.006922
835.000000	0.006909
834.000000	0.006878
833.000000	0.006841
832.000000	0.006788
831.000000	0.006708
830.000000	0.006603
829.000000	0.006490
828.000000	0.006385
827.000000	0.006278
826.000000	0.006147
825.000000	0.005983
824.000000	0.005808
823.000000	0.005654
822.000000	0.005534
821.000000	0.005441
820.000000	0.005361
819.000000	0.005295
818.000000	0.005245
817.000000	0.005198
816.000000	0.005126
815.000000	0.005023
814.000000	0.004920
813.000000	0.004850
812.000000	0.004810
811.000000	0.004769
810.000000	0.004703
809.000000	0.004613
808.000000	0.004518
807.000000	0.004442
806.000000	0.004404
805.000000	0.004406
804.000000	0.004426
803.000000	0.004446
802.000000	0.004468
801.000000	0.004498
800.000000	0.004521
799.000000	0.004521
798.000000	0.004514
797.000000	0.004539
796.000000	0.004610
795.000000	0.004713
794.000000	0.004826
793.000000	0.004939
792.000000	0.005031
791.000000	0.005083
790.000000	0.005110
789.000000	0.005149
788.000000	0.005208
787.000000	0.005266
786.000000	0.005313
785.000000	0.005365
784.000000	0.005421
783.000000	0.005452
782.000000	0.005448
781.000000	0.005444
780.000000	0.005475
779.000000	0.005530
778.000000	0.005581
777.000000	0.005635
776.000000	0.005720
775.000000	0.005823
774.000000	0.005897
773.000000	0.005916
772.000000	0.005903
771.000000	0.005894
770.000000	0.005900
769.000000	0.005909
768.000000	0.005908
767.000000	0.005901
766.000000	0.005904
765.000000	0.005924
764.000000	0.005949
763.000000	0.005971
762.000000	0.006012
761.000000	0.006103
760.000000	0.006235
759.000000	0.006361
758.000000	0.006460
757.000000	0.006560
756.000000	0.006687
755.000000	0.006819
754.000000	0.006920
753.000000	0.006988
752.000000	0.007056
751.000000	0.007138
750.000000	0.007229
749.000000	0.007313
748.000000	0.007367
747.000000	0.007366
746.000000	0.007305
745.000000	0.007213
744.000000	0.007109
743.000000	0.006981
742.000000	0.006824
741.000000	0.006692
740.000000	0.006661
739.000000	0.006738
738.000000	0.006845
737.000000	0.006900
736.000000	0.006886
735.000000	0.006840
734.000000	0.006804
733.000000	0.006798
732.000000	0.006826
731.000000	0.006887
730.000000	0.006968
729.000000	0.007041
728.000000	0.007074
727.000000	0.007052
726.000000	0.006996
725.000000	0.006953
724.000000	0.006959
723.000000	0.007020
722.000000	0.007136
721.000000	0.007308
720.000000	0.007532
719.000000	0.007791
718.000000	0.008076
717.000000	0.008393
716.000000	0.008744
715.000000	0.009106
714.000000	0.009446
713.000000	0.009741
712.000000	0.009969
711.000000	0.010122
710.000000	0.010230
709.000000	0.010360
708.000000	0.010560
707.000000	0.010811
706.000000	0.011053
705.000000	0.011240
704.000000	0.011358
703.000000	0.011422
702.000000	0.011474
701.000000	0.011560
700.000000	0.011687
699.000000	0.011806
698.000000	0.011849
697.000000	0.011800
696.000000	0.011710
695.000000	0.011652
694.000000	0.011670
693.000000	0.011755
692.000000	0.011872
691.000000	0.011994
690.000000	0.012116
689.000000	0.012238
688.000000	0.012333
687.000000	0.012378
686.000000	0.012394
685.000000	0.012432
684.000000	0.012512
683.000000	0.012612
682.000000	0.012716
681.000000	0.012847
680.000000	0.013027
679.000000	0.013232
678.000000	0.013411
677.000000	0.013545
676.000000	0.013659
675.000000	0.013779
674.000000	0.013912
673.000000	0.014040
672.000000	0.014114
671.000000	0.014086
670.000000	0.013959
669.000000	0.013834
668.000000	0.013906
667.000000	0.014247
666.000000	0.014566
665.000000	0.014721
664.000000	0.014767
663.000000	0.014768
662.000000	0.014792
661.000000	0.014894
660.000000	0.015075
659.000000	0.015275
658.000000	0.015432
657.000000	0.015526
656.000000	0.015562
655.000000	0.015551
654.000000	0.015533
653.000000	0.015555
652.000000	0.015601
651.000000	0.015621
650.000000	0.015612
649.000000	0.015622
648.000000	0.015649
647.000000	0.015645
646.000000	0.015602
645.000000	0.015579
644.000000	0.015598
643.000000	0.015618
642.000000	0.015616
641.000000	0.015613
640.000000	0.015602
639.000000	0.015535
638.000000	0.015409
637.000000	0.015298
636.000000	0.015240
635.000000	0.015191
634.000000	0.015126
633.000000	0.015098
632.000000	0.015150
631.000000	0.015233
630.000000	0.015291
629.000000	0.015347
628.000000	0.015452
627.000000	0.015575
626.000000	0.015649
625.000000	0.015653
624.000000	0.015615
623.000000	0.015546
622.000000	0.015461
621.000000	0.015411
620.000000	0.015450
619.000000	0.015564
618.000000	0.015688
617.000000	0.015758
616.000000	0.015741
615.000000	0.015639
614.000000	0.015514
613.000000	0.015452
612.000000	0.015483
611.000000	0.015547
610.000000	0.015585
609.000000	0.015612
608.000000	0.015656
607.000000	0.015701
606.000000	0.015727
605.000000	0.015759
604.000000	0.015825
603.000000	0.015902
602.000000	0.015953
601.000000	0.015980
600.000000	0.015993
599.000000	0.015988
598.000000	0.015976
597.000000	0.015992
596.000000	0.016032
595.000000	0.016030
594.000000	0.015963
593.000000	0.015897
592.000000	0.015890
591.000000	0.015904
590.000000	0.015883
589.000000	0.015842
588.000000	0.015819
587.000000	0.015787
586.000000	0.015720
585.000000	0.015659
584.000000	0.015641
583.000000	0.015622
582.000000	0.015557
581.000000	0.015527
580.000000	0.015657
579.000000	0.015942
578.000000	0.016235
577.000000	0.016406
576.000000	0.016431
575.000000	0.016372
574.000000	0.016334
573.000000	0.016420
572.000000	0.016651
571.000000	0.016921
570.000000	0.017099
569.000000	0.017185
568.000000	0.017289
567.000000	0.017477
566.000000	0.017707
565.000000	0.017900
564.000000	0.018010
563.000000	0.018050
562.000000	0.018095
561.000000	0.018231
560.000000	0.018458
559.000000	0.018679
558.000000	0.018819
557.000000	0.018902
556.000000	0.018952
555.000000	0.018916
554.000000	0.018747
553.000000	0.018498
552.000000	0.018255
551.000000	0.018023
550.000000	0.017750
549.000000	0.017427
548.000000	0.017103
547.000000	0.016836
546.000000	0.016683
545.000000	0.016671
544.000000	0.016733
543.000000	0.016746
542.000000	0.016660
541.000000	0.016525
540.000000	0.016372
539.000000	0.016185
538.000000	0.016021
537.000000	0.016041
536.000000	0.016298
535.000000	0.016602
534.000000	0.016726
533.000000	0.016670
532.000000	0.016621
531.000000	0.016687
530.000000	0.016804
529.000000	0.016867
528.000000	0.016837
527.000000	0.016727
526.000000	0.016570
525.000000	0.016395
524.000000	0.016200
523.000000	0.015955
522.000000	0.015674
521.000000	0.015420
520.000000	0.015204
519.000000	0.014957
518.000000	0.014642
517.000000	0.014309
516.000000	0.014010
515.000000	0.013738
514.000000	0.013504
513.000000	0.013338
512.000000	0.013182
511.000000	0.012890
510.000000	0.012440
509.000000	0.012026
508.000000	0.011856
507.000000	0.011917
506.000000	0.012006
505.000000	0.011969
504.000000	0.011799
503.000000	0.011565
502.000000	0.011356
501.000000	0.011235
500.000000	0.011176
499.000000	0.011078
498.000000	0.010895
497.000000	0.010691
496.000000	0.010522
495.000000	0.010345
494.000000	0.010087
493.000000	0.009759
492.000000	0.009456
491.000000	0.009281
490.000000	0.009282
489.000000	0.009396
488.000000	0.009470
487.000000	0.009411
486.000000	0.009299
485.000000	0.009255
484.000000	0.009198
483.000000	0.008915
482.000000	0.008434
481.000000	0.008068
480.000000	0.008005
479.000000	0.008082
478.000000	0.008075
477.000000	0.007980
476.000000	0.007861
475.000000	0.007643
474.000000	0.007283
473.000000	0.006987
472.000000	0.006987
471.000000	0.007178
470.000000	0.007281
469.000000	0.007221
468.000000	0.007095
467.000000	0.006951
466.000000	0.006814
465.000000	0.006751
464.000000	0.006718
463.000000	0.006480
462.000000	0.005912
461.000000	0.005269
460.000000	0.004895
459.000000	0.004827
458.000000	0.004901
457.000000	0.005072
456.000000	0.005351
455.000000	0.005892
454.000000	0.005590
453.000000	0.005116
452.000000	0.004720
451.000000	0.004531
450.000000	0.004409
