PE IR       SUBTECH     SPECTRUM    ASCII       PEDS        4.00        
   -1
3S-N10-C025_1.ASC
22/02/18
14:38:26.00
22/02/18
14:55:43.00
uco
Sample 025 By uco Date Friday, February 18 2022
450.000000
#HDR
-1
-1
#GR
cm-1
A
1.0
0.0
4000.000000
-1.000000
3551
8
0.055248
0.005578
#DATA
4000.000000	0.006099
3999.000000	0.006113
3998.000000	0.006129
3997.000000	0.006144
3996.000000	0.006157
3995.000000	0.006166
3994.000000	0.006173
3993.000000	0.006181
3992.000000	0.006193
3991.000000	0.006211
3990.000000	0.006232
3989.000000	0.006250
3988.000000	0.006259
3987.000000	0.006257
3986.000000	0.006243
3985.000000	0.006221
3984.000000	0.006193
3983.000000	0.006169
3982.000000	0.006155
3981.000000	0.006155
3980.000000	0.006166
3979.000000	0.006185
3978.000000	0.006207
3977.000000	0.006232
3976.000000	0.006258
3975.000000	0.006282
3974.000000	0.006298
3973.000000	0.006301
3972.000000	0.006292
3971.000000	0.006277
3970.000000	0.006263
3969.000000	0.006253
3968.000000	0.006245
3967.000000	0.006238
3966.000000	0.006234
3965.000000	0.006232
3964.000000	0.006230
3963.000000	0.006227
3962.000000	0.006227
3961.000000	0.006232
3960.000000	0.006241
3959.000000	0.006250
3958.000000	0.006256
3957.000000	0.006263
3956.000000	0.006273
3955.000000	0.006283
3954.000000	0.006289
3953.000000	0.006294
3952.000000	0.006300
3951.000000	0.006314
3950.000000	0.006337
3949.000000	0.006363
3948.000000	0.006386
3947.000000	0.006403
3946.000000	0.006413
3945.000000	0.006413
3944.000000	0.006398
3943.000000	0.006365
3942.000000	0.006326
3941.000000	0.006299
3940.000000	0.006293
3939.000000	0.006302
3938.000000	0.006312
3937.000000	0.006314
3936.000000	0.006311
3935.000000	0.006306
3934.000000	0.006303
3933.000000	0.006301
3932.000000	0.006302
3931.000000	0.006308
3930.000000	0.006322
3929.000000	0.006341
3928.000000	0.006360
3927.000000	0.006371
3926.000000	0.006369
3925.000000	0.006353
3924.000000	0.006338
3923.000000	0.006337
3922.000000	0.006351
3921.000000	0.006372
3920.000000	0.006388
3919.000000	0.006391
3918.000000	0.006381
3917.000000	0.006361
3916.000000	0.006334
3915.000000	0.006303
3914.000000	0.006272
3913.000000	0.006249
3912.000000	0.006241
3911.000000	0.006253
3910.000000	0.006279
3909.000000	0.006310
3908.000000	0.006339
3907.000000	0.006361
3906.000000	0.006364
3905.000000	0.006339
3904.000000	0.006296
3903.000000	0.006263
3902.000000	0.006266
3901.000000	0.006297
3900.000000	0.006329
3899.000000	0.006341
3898.000000	0.006331
3897.000000	0.006312
3896.000000	0.006290
3895.000000	0.006271
3894.000000	0.006261
3893.000000	0.006261
3892.000000	0.006266
3891.000000	0.006271
3890.000000	0.006272
3889.000000	0.006271
3888.000000	0.006276
3887.000000	0.006289
3886.000000	0.006305
3885.000000	0.006317
3884.000000	0.006323
3883.000000	0.006325
3882.000000	0.006325
3881.000000	0.006332
3880.000000	0.006349
3879.000000	0.006373
3878.000000	0.006388
3877.000000	0.006386
3876.000000	0.006370
3875.000000	0.006343
3874.000000	0.006312
3873.000000	0.006288
3872.000000	0.006274
3871.000000	0.006262
3870.000000	0.006245
3869.000000	0.006234
3868.000000	0.006242
3867.000000	0.006273
3866.000000	0.006321
3865.000000	0.006368
3864.000000	0.006394
3863.000000	0.006394
3862.000000	0.006380
3861.000000	0.006369
3860.000000	0.006369
3859.000000	0.006378
3858.000000	0.006384
3857.000000	0.006384
3856.000000	0.006388
3855.000000	0.006393
3854.000000	0.006377
3853.000000	0.006348
3852.000000	0.006336
3851.000000	0.006336
3850.000000	0.006339
3849.000000	0.006342
3848.000000	0.006340
3847.000000	0.006330
3846.000000	0.006316
3845.000000	0.006307
3844.000000	0.006309
3843.000000	0.006317
3842.000000	0.006319
3841.000000	0.006302
3840.000000	0.006266
3839.000000	0.006228
3838.000000	0.006211
3837.000000	0.006222
3836.000000	0.006246
3835.000000	0.006264
3834.000000	0.006270
3833.000000	0.006268
3832.000000	0.006265
3831.000000	0.006263
3830.000000	0.006269
3829.000000	0.006285
3828.000000	0.006310
3827.000000	0.006336
3826.000000	0.006349
3825.000000	0.006342
3824.000000	0.006322
3823.000000	0.006308
3822.000000	0.006304
3821.000000	0.006306
3820.000000	0.006314
3819.000000	0.006322
3818.000000	0.006331
3817.000000	0.006342
3816.000000	0.006357
3815.000000	0.006375
3814.000000	0.006386
3813.000000	0.006384
3812.000000	0.006370
3811.000000	0.006352
3810.000000	0.006341
3809.000000	0.006344
3808.000000	0.006353
3807.000000	0.006350
3806.000000	0.006328
3805.000000	0.006299
3804.000000	0.006286
3803.000000	0.006301
3802.000000	0.006338
3801.000000	0.006377
3800.000000	0.006400
3799.000000	0.006398
3798.000000	0.006377
3797.000000	0.006350
3796.000000	0.006329
3795.000000	0.006316
3794.000000	0.006308
3793.000000	0.006301
3792.000000	0.006297
3791.000000	0.006299
3790.000000	0.006307
3789.000000	0.006316
3788.000000	0.006325
3787.000000	0.006331
3786.000000	0.006334
3785.000000	0.006337
3784.000000	0.006345
3783.000000	0.006360
3782.000000	0.006378
3781.000000	0.006387
3780.000000	0.006376
3779.000000	0.006347
3778.000000	0.006314
3777.000000	0.006286
3776.000000	0.006266
3775.000000	0.006255
3774.000000	0.006252
3773.000000	0.006257
3772.000000	0.006266
3771.000000	0.006273
3770.000000	0.006275
3769.000000	0.006275
3768.000000	0.006274
3767.000000	0.006270
3766.000000	0.006264
3765.000000	0.006263
3764.000000	0.006272
3763.000000	0.006290
3762.000000	0.006313
3761.000000	0.006338
3760.000000	0.006356
3759.000000	0.006358
3758.000000	0.006339
3757.000000	0.006297
3756.000000	0.006240
3755.000000	0.006175
3754.000000	0.006108
3753.000000	0.006046
3752.000000	0.006007
3751.000000	0.006015
3750.000000	0.006076
3749.000000	0.006148
3748.000000	0.006193
3747.000000	0.006212
3746.000000	0.006223
3745.000000	0.006235
3744.000000	0.006249
3743.000000	0.006252
3742.000000	0.006232
3741.000000	0.006196
3740.000000	0.006167
3739.000000	0.006163
3738.000000	0.006182
3737.000000	0.006196
3736.000000	0.006172
3735.000000	0.006115
3734.000000	0.006068
3733.000000	0.006066
3732.000000	0.006107
3731.000000	0.006157
3730.000000	0.006191
3729.000000	0.006202
3728.000000	0.006198
3727.000000	0.006186
3726.000000	0.006171
3725.000000	0.006161
3724.000000	0.006163
3723.000000	0.006180
3722.000000	0.006204
3721.000000	0.006219
3720.000000	0.006218
3719.000000	0.006201
3718.000000	0.006176
3717.000000	0.006146
3716.000000	0.006113
3715.000000	0.006088
3714.000000	0.006087
3713.000000	0.006115
3712.000000	0.006156
3711.000000	0.006187
3710.000000	0.006199
3709.000000	0.006200
3708.000000	0.006193
3707.000000	0.006179
3706.000000	0.006156
3705.000000	0.006133
3704.000000	0.006122
3703.000000	0.006128
3702.000000	0.006148
3701.000000	0.006170
3700.000000	0.006184
3699.000000	0.006185
3698.000000	0.006175
3697.000000	0.006160
3696.000000	0.006143
3695.000000	0.006126
3694.000000	0.006112
3693.000000	0.006106
3692.000000	0.006113
3691.000000	0.006128
3690.000000	0.006145
3689.000000	0.006159
3688.000000	0.006169
3687.000000	0.006173
3686.000000	0.006176
3685.000000	0.006186
3684.000000	0.006200
3683.000000	0.006204
3682.000000	0.006187
3681.000000	0.006148
3680.000000	0.006099
3679.000000	0.006060
3678.000000	0.006047
3677.000000	0.006064
3676.000000	0.006096
3675.000000	0.006135
3674.000000	0.006170
3673.000000	0.006192
3672.000000	0.006208
3671.000000	0.006233
3670.000000	0.006271
3669.000000	0.006315
3668.000000	0.006351
3667.000000	0.006368
3666.000000	0.006372
3665.000000	0.006378
3664.000000	0.006395
3663.000000	0.006419
3662.000000	0.006440
3661.000000	0.006447
3660.000000	0.006446
3659.000000	0.006454
3658.000000	0.006484
3657.000000	0.006523
3656.000000	0.006549
3655.000000	0.006547
3654.000000	0.006525
3653.000000	0.006510
3652.000000	0.006521
3651.000000	0.006556
3650.000000	0.006589
3649.000000	0.006607
3648.000000	0.006620
3647.000000	0.006645
3646.000000	0.006683
3645.000000	0.006732
3644.000000	0.006780
3643.000000	0.006820
3642.000000	0.006853
3641.000000	0.006885
3640.000000	0.006918
3639.000000	0.006944
3638.000000	0.006955
3637.000000	0.006959
3636.000000	0.006967
3635.000000	0.006984
3634.000000	0.006996
3633.000000	0.006995
3632.000000	0.006997
3631.000000	0.007029
3630.000000	0.007097
3629.000000	0.007183
3628.000000	0.007265
3627.000000	0.007331
3626.000000	0.007374
3625.000000	0.007396
3624.000000	0.007406
3623.000000	0.007409
3622.000000	0.007412
3621.000000	0.007425
3620.000000	0.007458
3619.000000	0.007517
3618.000000	0.007596
3617.000000	0.007674
3616.000000	0.007735
3615.000000	0.007775
3614.000000	0.007795
3613.000000	0.007799
3612.000000	0.007802
3611.000000	0.007819
3610.000000	0.007864
3609.000000	0.007934
3608.000000	0.008008
3607.000000	0.008069
3606.000000	0.008113
3605.000000	0.008146
3604.000000	0.008177
3603.000000	0.008208
3602.000000	0.008242
3601.000000	0.008280
3600.000000	0.008325
3599.000000	0.008372
3598.000000	0.008417
3597.000000	0.008455
3596.000000	0.008489
3595.000000	0.008529
3594.000000	0.008581
3593.000000	0.008642
3592.000000	0.008702
3591.000000	0.008760
3590.000000	0.008818
3589.000000	0.008877
3588.000000	0.008931
3587.000000	0.008984
3586.000000	0.009043
3585.000000	0.009107
3584.000000	0.009168
3583.000000	0.009225
3582.000000	0.009283
3581.000000	0.009345
3580.000000	0.009408
3579.000000	0.009467
3578.000000	0.009520
3577.000000	0.009569
3576.000000	0.009615
3575.000000	0.009661
3574.000000	0.009713
3573.000000	0.009768
3572.000000	0.009821
3571.000000	0.009867
3570.000000	0.009913
3569.000000	0.009969
3568.000000	0.010041
3567.000000	0.010125
3566.000000	0.010219
3565.000000	0.010312
3564.000000	0.010392
3563.000000	0.010452
3562.000000	0.010494
3561.000000	0.010528
3560.000000	0.010560
3559.000000	0.010598
3558.000000	0.010646
3557.000000	0.010712
3556.000000	0.010789
3555.000000	0.010865
3554.000000	0.010927
3553.000000	0.010983
3552.000000	0.011048
3551.000000	0.011130
3550.000000	0.011220
3549.000000	0.011303
3548.000000	0.011368
3547.000000	0.011417
3546.000000	0.011465
3545.000000	0.011525
3544.000000	0.011598
3543.000000	0.011673
3542.000000	0.011741
3541.000000	0.011800
3540.000000	0.011854
3539.000000	0.011908
3538.000000	0.011959
3537.000000	0.012003
3536.000000	0.012042
3535.000000	0.012081
3534.000000	0.012129
3533.000000	0.012192
3532.000000	0.012272
3531.000000	0.012366
3530.000000	0.012466
3529.000000	0.012560
3528.000000	0.012636
3527.000000	0.012694
3526.000000	0.012740
3525.000000	0.012780
3524.000000	0.012814
3523.000000	0.012844
3522.000000	0.012882
3521.000000	0.012938
3520.000000	0.013016
3519.000000	0.013106
3518.000000	0.013193
3517.000000	0.013265
3516.000000	0.013320
3515.000000	0.013364
3514.000000	0.013409
3513.000000	0.013459
3512.000000	0.013512
3511.000000	0.013562
3510.000000	0.013607
3509.000000	0.013651
3508.000000	0.013699
3507.000000	0.013754
3506.000000	0.013815
3505.000000	0.013880
3504.000000	0.013942
3503.000000	0.013996
3502.000000	0.014040
3501.000000	0.014076
3500.000000	0.014110
3499.000000	0.014151
3498.000000	0.014207
3497.000000	0.014284
3496.000000	0.014373
3495.000000	0.014455
3494.000000	0.014514
3493.000000	0.014549
3492.000000	0.014575
3491.000000	0.014605
3490.000000	0.014647
3489.000000	0.014695
3488.000000	0.014740
3487.000000	0.014773
3486.000000	0.014795
3485.000000	0.014818
3484.000000	0.014855
3483.000000	0.014912
3482.000000	0.014980
3481.000000	0.015050
3480.000000	0.015114
3479.000000	0.015171
3478.000000	0.015223
3477.000000	0.015275
3476.000000	0.015327
3475.000000	0.015375
3474.000000	0.015414
3473.000000	0.015444
3472.000000	0.015473
3471.000000	0.015513
3470.000000	0.015567
3469.000000	0.015628
3468.000000	0.015682
3467.000000	0.015721
3466.000000	0.015753
3465.000000	0.015790
3464.000000	0.015837
3463.000000	0.015891
3462.000000	0.015939
3461.000000	0.015973
3460.000000	0.015992
3459.000000	0.016004
3458.000000	0.016021
3457.000000	0.016051
3456.000000	0.016100
3455.000000	0.016162
3454.000000	0.016228
3453.000000	0.016286
3452.000000	0.016332
3451.000000	0.016372
3450.000000	0.016412
3449.000000	0.016452
3448.000000	0.016487
3447.000000	0.016516
3446.000000	0.016546
3445.000000	0.016583
3444.000000	0.016626
3443.000000	0.016670
3442.000000	0.016716
3441.000000	0.016766
3440.000000	0.016824
3439.000000	0.016887
3438.000000	0.016951
3437.000000	0.017007
3436.000000	0.017045
3435.000000	0.017068
3434.000000	0.017090
3433.000000	0.017128
3432.000000	0.017185
3431.000000	0.017249
3430.000000	0.017304
3429.000000	0.017346
3428.000000	0.017376
3427.000000	0.017402
3426.000000	0.017429
3425.000000	0.017462
3424.000000	0.017502
3423.000000	0.017546
3422.000000	0.017594
3421.000000	0.017645
3420.000000	0.017696
3419.000000	0.017743
3418.000000	0.017788
3417.000000	0.017834
3416.000000	0.017886
3415.000000	0.017942
3414.000000	0.017999
3413.000000	0.018057
3412.000000	0.018114
3411.000000	0.018170
3410.000000	0.018223
3409.000000	0.018271
3408.000000	0.018314
3407.000000	0.018353
3406.000000	0.018394
3405.000000	0.018440
3404.000000	0.018491
3403.000000	0.018544
3402.000000	0.018596
3401.000000	0.018640
3400.000000	0.018668
3399.000000	0.018676
3398.000000	0.018673
3397.000000	0.018677
3396.000000	0.018704
3395.000000	0.018754
3394.000000	0.018813
3393.000000	0.018865
3392.000000	0.018905
3391.000000	0.018937
3390.000000	0.018972
3389.000000	0.019018
3388.000000	0.019068
3387.000000	0.019109
3386.000000	0.019141
3385.000000	0.019174
3384.000000	0.019226
3383.000000	0.019299
3382.000000	0.019383
3381.000000	0.019456
3380.000000	0.019507
3379.000000	0.019537
3378.000000	0.019560
3377.000000	0.019587
3376.000000	0.019626
3375.000000	0.019680
3374.000000	0.019742
3373.000000	0.019803
3372.000000	0.019858
3371.000000	0.019909
3370.000000	0.019970
3369.000000	0.020051
3368.000000	0.020153
3367.000000	0.020264
3366.000000	0.020370
3365.000000	0.020462
3364.000000	0.020533
3363.000000	0.020586
3362.000000	0.020633
3361.000000	0.020691
3360.000000	0.020770
3359.000000	0.020868
3358.000000	0.020971
3357.000000	0.021071
3356.000000	0.021165
3355.000000	0.021252
3354.000000	0.021331
3353.000000	0.021404
3352.000000	0.021473
3351.000000	0.021545
3350.000000	0.021620
3349.000000	0.021695
3348.000000	0.021771
3347.000000	0.021851
3346.000000	0.021942
3345.000000	0.022044
3344.000000	0.022150
3343.000000	0.022248
3342.000000	0.022330
3341.000000	0.022391
3340.000000	0.022442
3339.000000	0.022501
3338.000000	0.022580
3337.000000	0.022681
3336.000000	0.022796
3335.000000	0.022916
3334.000000	0.023032
3333.000000	0.023131
3332.000000	0.023211
3331.000000	0.023284
3330.000000	0.023367
3329.000000	0.023460
3328.000000	0.023545
3327.000000	0.023606
3326.000000	0.023647
3325.000000	0.023685
3324.000000	0.023734
3323.000000	0.023794
3322.000000	0.023860
3321.000000	0.023929
3320.000000	0.023997
3319.000000	0.024067
3318.000000	0.024138
3317.000000	0.024202
3316.000000	0.024247
3315.000000	0.024269
3314.000000	0.024278
3313.000000	0.024290
3312.000000	0.024308
3311.000000	0.024327
3310.000000	0.024347
3309.000000	0.024373
3308.000000	0.024413
3307.000000	0.024468
3306.000000	0.024537
3305.000000	0.024616
3304.000000	0.024693
3303.000000	0.024756
3302.000000	0.024803
3301.000000	0.024836
3300.000000	0.024858
3299.000000	0.024866
3298.000000	0.024866
3297.000000	0.024871
3296.000000	0.024888
3295.000000	0.024910
3294.000000	0.024927
3293.000000	0.024939
3292.000000	0.024952
3291.000000	0.024968
3290.000000	0.024982
3289.000000	0.024995
3288.000000	0.025006
3287.000000	0.025017
3286.000000	0.025026
3285.000000	0.025032
3284.000000	0.025038
3283.000000	0.025045
3282.000000	0.025053
3281.000000	0.025059
3280.000000	0.025059
3279.000000	0.025046
3278.000000	0.025020
3277.000000	0.024986
3276.000000	0.024950
3275.000000	0.024911
3274.000000	0.024869
3273.000000	0.024827
3272.000000	0.024799
3271.000000	0.024793
3270.000000	0.024801
3269.000000	0.024807
3268.000000	0.024793
3267.000000	0.024752
3266.000000	0.024690
3265.000000	0.024622
3264.000000	0.024564
3263.000000	0.024521
3262.000000	0.024481
3261.000000	0.024429
3260.000000	0.024362
3259.000000	0.024287
3258.000000	0.024217
3257.000000	0.024162
3256.000000	0.024128
3255.000000	0.024112
3254.000000	0.024105
3253.000000	0.024091
3252.000000	0.024060
3251.000000	0.024013
3250.000000	0.023957
3249.000000	0.023903
3248.000000	0.023856
3247.000000	0.023819
3246.000000	0.023789
3245.000000	0.023763
3244.000000	0.023742
3243.000000	0.023721
3242.000000	0.023695
3241.000000	0.023653
3240.000000	0.023591
3239.000000	0.023515
3238.000000	0.023439
3237.000000	0.023372
3236.000000	0.023317
3235.000000	0.023272
3234.000000	0.023234
3233.000000	0.023203
3232.000000	0.023175
3231.000000	0.023148
3230.000000	0.023121
3229.000000	0.023097
3228.000000	0.023078
3227.000000	0.023062
3226.000000	0.023042
3225.000000	0.023012
3224.000000	0.022974
3223.000000	0.022939
3222.000000	0.022910
3221.000000	0.022880
3220.000000	0.022836
3219.000000	0.022781
3218.000000	0.022731
3217.000000	0.022698
3216.000000	0.022677
3215.000000	0.022650
3214.000000	0.022612
3213.000000	0.022573
3212.000000	0.022541
3211.000000	0.022513
3210.000000	0.022476
3209.000000	0.022426
3208.000000	0.022372
3207.000000	0.022324
3206.000000	0.022282
3205.000000	0.022233
3204.000000	0.022167
3203.000000	0.022089
3202.000000	0.022016
3201.000000	0.021964
3200.000000	0.021940
3199.000000	0.021929
3198.000000	0.021912
3197.000000	0.021878
3196.000000	0.021832
3195.000000	0.021790
3194.000000	0.021757
3193.000000	0.021720
3192.000000	0.021666
3191.000000	0.021596
3190.000000	0.021526
3189.000000	0.021472
3188.000000	0.021432
3187.000000	0.021397
3186.000000	0.021356
3185.000000	0.021299
3184.000000	0.021225
3183.000000	0.021140
3182.000000	0.021059
3181.000000	0.020995
3180.000000	0.020947
3179.000000	0.020906
3178.000000	0.020860
3177.000000	0.020800
3176.000000	0.020724
3175.000000	0.020643
3174.000000	0.020569
3173.000000	0.020509
3172.000000	0.020457
3171.000000	0.020403
3170.000000	0.020346
3169.000000	0.020290
3168.000000	0.020233
3167.000000	0.020171
3166.000000	0.020106
3165.000000	0.020042
3164.000000	0.019981
3163.000000	0.019920
3162.000000	0.019859
3161.000000	0.019801
3160.000000	0.019747
3159.000000	0.019696
3158.000000	0.019647
3157.000000	0.019601
3156.000000	0.019558
3155.000000	0.019506
3154.000000	0.019437
3153.000000	0.019354
3152.000000	0.019273
3151.000000	0.019208
3150.000000	0.019166
3149.000000	0.019141
3148.000000	0.019120
3147.000000	0.019088
3146.000000	0.019039
3145.000000	0.018980
3144.000000	0.018920
3143.000000	0.018863
3142.000000	0.018811
3141.000000	0.018763
3140.000000	0.018722
3139.000000	0.018683
3138.000000	0.018640
3137.000000	0.018591
3136.000000	0.018538
3135.000000	0.018487
3134.000000	0.018442
3133.000000	0.018408
3132.000000	0.018386
3131.000000	0.018370
3130.000000	0.018351
3129.000000	0.018326
3128.000000	0.018301
3127.000000	0.018280
3126.000000	0.018262
3125.000000	0.018244
3124.000000	0.018219
3123.000000	0.018187
3122.000000	0.018150
3121.000000	0.018115
3120.000000	0.018086
3119.000000	0.018065
3118.000000	0.018051
3117.000000	0.018042
3116.000000	0.018041
3115.000000	0.018045
3114.000000	0.018052
3113.000000	0.018056
3112.000000	0.018056
3111.000000	0.018056
3110.000000	0.018059
3109.000000	0.018065
3108.000000	0.018068
3107.000000	0.018069
3106.000000	0.018068
3105.000000	0.018073
3104.000000	0.018085
3103.000000	0.018104
3102.000000	0.018130
3101.000000	0.018164
3100.000000	0.018201
3099.000000	0.018235
3098.000000	0.018258
3097.000000	0.018275
3096.000000	0.018296
3095.000000	0.018325
3094.000000	0.018359
3093.000000	0.018388
3092.000000	0.018411
3091.000000	0.018429
3090.000000	0.018443
3089.000000	0.018455
3088.000000	0.018466
3087.000000	0.018473
3086.000000	0.018474
3085.000000	0.018471
3084.000000	0.018467
3083.000000	0.018472
3082.000000	0.018487
3081.000000	0.018509
3080.000000	0.018537
3079.000000	0.018572
3078.000000	0.018606
3077.000000	0.018626
3076.000000	0.018619
3075.000000	0.018590
3074.000000	0.018556
3073.000000	0.018536
3072.000000	0.018538
3071.000000	0.018555
3070.000000	0.018571
3069.000000	0.018569
3068.000000	0.018545
3067.000000	0.018513
3066.000000	0.018491
3065.000000	0.018484
3064.000000	0.018481
3063.000000	0.018467
3062.000000	0.018436
3061.000000	0.018389
3060.000000	0.018331
3059.000000	0.018270
3058.000000	0.018210
3057.000000	0.018158
3056.000000	0.018114
3055.000000	0.018074
3054.000000	0.018031
3053.000000	0.017973
3052.000000	0.017895
3051.000000	0.017809
3050.000000	0.017734
3049.000000	0.017682
3048.000000	0.017644
3047.000000	0.017600
3046.000000	0.017539
3045.000000	0.017468
3044.000000	0.017398
3043.000000	0.017333
3042.000000	0.017274
3041.000000	0.017219
3040.000000	0.017167
3039.000000	0.017115
3038.000000	0.017058
3037.000000	0.016990
3036.000000	0.016913
3035.000000	0.016834
3034.000000	0.016762
3033.000000	0.016703
3032.000000	0.016658
3031.000000	0.016625
3030.000000	0.016596
3029.000000	0.016565
3028.000000	0.016526
3027.000000	0.016475
3026.000000	0.016413
3025.000000	0.016344
3024.000000	0.016276
3023.000000	0.016218
3022.000000	0.016180
3021.000000	0.016162
3020.000000	0.016158
3019.000000	0.016159
3018.000000	0.016162
3017.000000	0.016166
3016.000000	0.016170
3015.000000	0.016176
3014.000000	0.016185
3013.000000	0.016196
3012.000000	0.016208
3011.000000	0.016222
3010.000000	0.016241
3009.000000	0.016268
3008.000000	0.016298
3007.000000	0.016323
3006.000000	0.016336
3005.000000	0.016335
3004.000000	0.016323
3003.000000	0.016304
3002.000000	0.016281
3001.000000	0.016253
3000.000000	0.016216
2999.000000	0.016174
2998.000000	0.016136
2997.000000	0.016119
2996.000000	0.016126
2995.000000	0.016147
2994.000000	0.016170
2993.000000	0.016189
2992.000000	0.016212
2991.000000	0.016244
2990.000000	0.016287
2989.000000	0.016335
2988.000000	0.016386
2987.000000	0.016447
2986.000000	0.016528
2985.000000	0.016632
2984.000000	0.016744
2983.000000	0.016842
2982.000000	0.016920
2981.000000	0.016986
2980.000000	0.017057
2979.000000	0.017138
2978.000000	0.017220
2977.000000	0.017298
2976.000000	0.017382
2975.000000	0.017482
2974.000000	0.017597
2973.000000	0.017717
2972.000000	0.017836
2971.000000	0.017970
2970.000000	0.018149
2969.000000	0.018386
2968.000000	0.018669
2967.000000	0.018966
2966.000000	0.019254
2965.000000	0.019523
2964.000000	0.019774
2963.000000	0.020013
2962.000000	0.020247
2961.000000	0.020484
2960.000000	0.020720
2959.000000	0.020945
2958.000000	0.021143
2957.000000	0.021310
2956.000000	0.021439
2955.000000	0.021528
2954.000000	0.021574
2953.000000	0.021587
2952.000000	0.021583
2951.000000	0.021577
2950.000000	0.021582
2949.000000	0.021611
2948.000000	0.021680
2947.000000	0.021802
2946.000000	0.021981
2945.000000	0.022215
2944.000000	0.022501
2943.000000	0.022837
2942.000000	0.023222
2941.000000	0.023654
2940.000000	0.024134
2939.000000	0.024657
2938.000000	0.025213
2937.000000	0.025795
2936.000000	0.026399
2935.000000	0.027029
2934.000000	0.027691
2933.000000	0.028377
2932.000000	0.029071
2931.000000	0.029752
2930.000000	0.030401
2929.000000	0.031014
2928.000000	0.031589
2927.000000	0.032122
2926.000000	0.032595
2925.000000	0.032978
2924.000000	0.033238
2923.000000	0.033352
2922.000000	0.033314
2921.000000	0.033136
2920.000000	0.032828
2919.000000	0.032396
2918.000000	0.031840
2917.000000	0.031177
2916.000000	0.030444
2915.000000	0.029684
2914.000000	0.028933
2913.000000	0.028206
2912.000000	0.027514
2911.000000	0.026870
2910.000000	0.026281
2909.000000	0.025746
2908.000000	0.025259
2907.000000	0.024821
2906.000000	0.024431
2905.000000	0.024083
2904.000000	0.023765
2903.000000	0.023468
2902.000000	0.023189
2901.000000	0.022930
2900.000000	0.022685
2899.000000	0.022440
2898.000000	0.022190
2897.000000	0.021945
2896.000000	0.021720
2895.000000	0.021521
2894.000000	0.021341
2893.000000	0.021163
2892.000000	0.020979
2891.000000	0.020790
2890.000000	0.020604
2889.000000	0.020429
2888.000000	0.020268
2887.000000	0.020123
2886.000000	0.019993
2885.000000	0.019880
2884.000000	0.019786
2883.000000	0.019715
2882.000000	0.019667
2881.000000	0.019640
2880.000000	0.019637
2879.000000	0.019663
2878.000000	0.019721
2877.000000	0.019799
2876.000000	0.019882
2875.000000	0.019958
2874.000000	0.020021
2873.000000	0.020071
2872.000000	0.020104
2871.000000	0.020118
2870.000000	0.020117
2869.000000	0.020121
2868.000000	0.020149
2867.000000	0.020215
2866.000000	0.020327
2865.000000	0.020497
2864.000000	0.020742
2863.000000	0.021075
2862.000000	0.021494
2861.000000	0.021986
2860.000000	0.022531
2859.000000	0.023112
2858.000000	0.023706
2857.000000	0.024287
2856.000000	0.024823
2855.000000	0.025276
2854.000000	0.025603
2853.000000	0.025763
2852.000000	0.025730
2851.000000	0.025495
2850.000000	0.025063
2849.000000	0.024460
2848.000000	0.023730
2847.000000	0.022932
2846.000000	0.022128
2845.000000	0.021361
2844.000000	0.020658
2843.000000	0.020033
2842.000000	0.019488
2841.000000	0.019020
2840.000000	0.018618
2839.000000	0.018275
2838.000000	0.017983
2837.000000	0.017731
2836.000000	0.017508
2835.000000	0.017305
2834.000000	0.017124
2833.000000	0.016971
2832.000000	0.016842
2831.000000	0.016734
2830.000000	0.016637
2829.000000	0.016545
2828.000000	0.016451
2827.000000	0.016348
2826.000000	0.016242
2825.000000	0.016141
2824.000000	0.016054
2823.000000	0.015976
2822.000000	0.015896
2821.000000	0.015810
2820.000000	0.015723
2819.000000	0.015645
2818.000000	0.015580
2817.000000	0.015525
2816.000000	0.015473
2815.000000	0.015420
2814.000000	0.015367
2813.000000	0.015321
2812.000000	0.015283
2811.000000	0.015251
2810.000000	0.015220
2809.000000	0.015181
2808.000000	0.015133
2807.000000	0.015082
2806.000000	0.015036
2805.000000	0.015000
2804.000000	0.014970
2803.000000	0.014944
2802.000000	0.014919
2801.000000	0.014891
2800.000000	0.014855
2799.000000	0.014809
2798.000000	0.014761
2797.000000	0.014722
2796.000000	0.014695
2795.000000	0.014673
2794.000000	0.014643
2793.000000	0.014599
2792.000000	0.014545
2791.000000	0.014494
2790.000000	0.014459
2789.000000	0.014443
2788.000000	0.014437
2787.000000	0.014424
2786.000000	0.014393
2785.000000	0.014348
2784.000000	0.014301
2783.000000	0.014262
2782.000000	0.014231
2781.000000	0.014201
2780.000000	0.014165
2779.000000	0.014126
2778.000000	0.014090
2777.000000	0.014062
2776.000000	0.014042
2775.000000	0.014026
2774.000000	0.014004
2773.000000	0.013970
2772.000000	0.013929
2771.000000	0.013890
2770.000000	0.013859
2769.000000	0.013837
2768.000000	0.013818
2767.000000	0.013800
2766.000000	0.013787
2765.000000	0.013780
2764.000000	0.013774
2763.000000	0.013764
2762.000000	0.013746
2761.000000	0.013721
2760.000000	0.013694
2759.000000	0.013672
2758.000000	0.013658
2757.000000	0.013648
2756.000000	0.013631
2755.000000	0.013601
2754.000000	0.013566
2753.000000	0.013536
2752.000000	0.013514
2751.000000	0.013497
2750.000000	0.013482
2749.000000	0.013466
2748.000000	0.013447
2747.000000	0.013425
2746.000000	0.013403
2745.000000	0.013383
2744.000000	0.013366
2743.000000	0.013348
2742.000000	0.013323
2741.000000	0.013295
2740.000000	0.013271
2739.000000	0.013257
2738.000000	0.013251
2737.000000	0.013244
2736.000000	0.013229
2735.000000	0.013206
2734.000000	0.013184
2733.000000	0.013170
2732.000000	0.013163
2731.000000	0.013152
2730.000000	0.013129
2729.000000	0.013104
2728.000000	0.013089
2727.000000	0.013090
2726.000000	0.013096
2725.000000	0.013093
2724.000000	0.013074
2723.000000	0.013047
2722.000000	0.013024
2721.000000	0.013009
2720.000000	0.012998
2719.000000	0.012985
2718.000000	0.012968
2717.000000	0.012945
2716.000000	0.012916
2715.000000	0.012882
2714.000000	0.012849
2713.000000	0.012827
2712.000000	0.012821
2711.000000	0.012830
2710.000000	0.012845
2709.000000	0.012853
2708.000000	0.012847
2707.000000	0.012826
2706.000000	0.012795
2705.000000	0.012764
2704.000000	0.012737
2703.000000	0.012717
2702.000000	0.012704
2701.000000	0.012701
2700.000000	0.012710
2699.000000	0.012725
2698.000000	0.012736
2697.000000	0.012736
2696.000000	0.012722
2695.000000	0.012701
2694.000000	0.012681
2693.000000	0.012670
2692.000000	0.012668
2691.000000	0.012674
2690.000000	0.012680
2689.000000	0.012676
2688.000000	0.012655
2687.000000	0.012622
2686.000000	0.012590
2685.000000	0.012568
2684.000000	0.012557
2683.000000	0.012550
2682.000000	0.012548
2681.000000	0.012554
2680.000000	0.012564
2679.000000	0.012571
2678.000000	0.012567
2677.000000	0.012551
2676.000000	0.012531
2675.000000	0.012513
2674.000000	0.012498
2673.000000	0.012490
2672.000000	0.012494
2671.000000	0.012505
2670.000000	0.012516
2669.000000	0.012515
2668.000000	0.012496
2667.000000	0.012468
2666.000000	0.012444
2665.000000	0.012431
2664.000000	0.012426
2663.000000	0.012418
2662.000000	0.012404
2661.000000	0.012388
2660.000000	0.012375
2659.000000	0.012367
2658.000000	0.012360
2657.000000	0.012354
2656.000000	0.012345
2655.000000	0.012329
2654.000000	0.012302
2653.000000	0.012266
2652.000000	0.012225
2651.000000	0.012186
2650.000000	0.012152
2649.000000	0.012127
2648.000000	0.012110
2647.000000	0.012094
2646.000000	0.012072
2645.000000	0.012038
2644.000000	0.011997
2643.000000	0.011959
2642.000000	0.011932
2641.000000	0.011916
2640.000000	0.011905
2639.000000	0.011895
2638.000000	0.011882
2637.000000	0.011861
2636.000000	0.011833
2635.000000	0.011804
2634.000000	0.011782
2633.000000	0.011771
2632.000000	0.011767
2631.000000	0.011757
2630.000000	0.011730
2629.000000	0.011680
2628.000000	0.011617
2627.000000	0.011555
2626.000000	0.011504
2625.000000	0.011467
2624.000000	0.011448
2623.000000	0.011451
2622.000000	0.011471
2621.000000	0.011485
2620.000000	0.011479
2619.000000	0.011459
2618.000000	0.011446
2617.000000	0.011440
2616.000000	0.011425
2615.000000	0.011384
2614.000000	0.011331
2613.000000	0.011292
2612.000000	0.011278
2611.000000	0.011282
2610.000000	0.011287
2609.000000	0.011283
2608.000000	0.011267
2607.000000	0.011242
2606.000000	0.011217
2605.000000	0.011204
2604.000000	0.011206
2603.000000	0.011211
2602.000000	0.011205
2601.000000	0.011184
2600.000000	0.011155
2599.000000	0.011133
2598.000000	0.011120
2597.000000	0.011102
2596.000000	0.011066
2595.000000	0.011020
2594.000000	0.010986
2593.000000	0.010977
2592.000000	0.010984
2591.000000	0.010985
2590.000000	0.010975
2589.000000	0.010959
2588.000000	0.010942
2587.000000	0.010919
2586.000000	0.010887
2585.000000	0.010851
2584.000000	0.010818
2583.000000	0.010798
2582.000000	0.010797
2581.000000	0.010812
2580.000000	0.010834
2579.000000	0.010855
2578.000000	0.010869
2577.000000	0.010868
2576.000000	0.010849
2575.000000	0.010821
2574.000000	0.010802
2573.000000	0.010806
2572.000000	0.010822
2571.000000	0.010821
2570.000000	0.010789
2569.000000	0.010736
2568.000000	0.010690
2567.000000	0.010681
2566.000000	0.010715
2565.000000	0.010770
2564.000000	0.010806
2563.000000	0.010798
2562.000000	0.010757
2561.000000	0.010706
2560.000000	0.010660
2559.000000	0.010620
2558.000000	0.010584
2557.000000	0.010555
2556.000000	0.010537
2555.000000	0.010532
2554.000000	0.010539
2553.000000	0.010558
2552.000000	0.010586
2551.000000	0.010616
2550.000000	0.010647
2549.000000	0.010678
2548.000000	0.010698
2547.000000	0.010696
2546.000000	0.010670
2545.000000	0.010626
2544.000000	0.010571
2543.000000	0.010516
2542.000000	0.010478
2541.000000	0.010470
2540.000000	0.010491
2539.000000	0.010525
2538.000000	0.010555
2537.000000	0.010572
2536.000000	0.010572
2535.000000	0.010559
2534.000000	0.010543
2533.000000	0.010534
2532.000000	0.010539
2531.000000	0.010550
2530.000000	0.010561
2529.000000	0.010566
2528.000000	0.010563
2527.000000	0.010551
2526.000000	0.010537
2525.000000	0.010526
2524.000000	0.010517
2523.000000	0.010507
2522.000000	0.010499
2521.000000	0.010497
2520.000000	0.010501
2519.000000	0.010502
2518.000000	0.010493
2517.000000	0.010477
2516.000000	0.010460
2515.000000	0.010443
2514.000000	0.010418
2513.000000	0.010370
2512.000000	0.010296
2511.000000	0.010224
2510.000000	0.010207
2509.000000	0.010273
2508.000000	0.010388
2507.000000	0.010482
2506.000000	0.010504
2505.000000	0.010457
2504.000000	0.010384
2503.000000	0.010327
2502.000000	0.010307
2501.000000	0.010314
2500.000000	0.010321
2499.000000	0.010305
2498.000000	0.010267
2497.000000	0.010226
2496.000000	0.010198
2495.000000	0.010187
2494.000000	0.010189
2493.000000	0.010197
2492.000000	0.010196
2491.000000	0.010181
2490.000000	0.010158
2489.000000	0.010146
2488.000000	0.010159
2487.000000	0.010192
2486.000000	0.010229
2485.000000	0.010251
2484.000000	0.010245
2483.000000	0.010213
2482.000000	0.010182
2481.000000	0.010179
2480.000000	0.010210
2479.000000	0.010247
2478.000000	0.010253
2477.000000	0.010212
2476.000000	0.010138
2475.000000	0.010067
2474.000000	0.010029
2473.000000	0.010028
2472.000000	0.010042
2471.000000	0.010053
2470.000000	0.010067
2469.000000	0.010095
2468.000000	0.010133
2467.000000	0.010162
2466.000000	0.010172
2465.000000	0.010171
2464.000000	0.010171
2463.000000	0.010173
2462.000000	0.010171
2461.000000	0.010160
2460.000000	0.010138
2459.000000	0.010107
2458.000000	0.010080
2457.000000	0.010065
2456.000000	0.010060
2455.000000	0.010060
2454.000000	0.010066
2453.000000	0.010074
2452.000000	0.010071
2451.000000	0.010050
2450.000000	0.010024
2449.000000	0.010019
2448.000000	0.010040
2447.000000	0.010065
2446.000000	0.010072
2445.000000	0.010059
2444.000000	0.010031
2443.000000	0.009984
2442.000000	0.009927
2441.000000	0.009883
2440.000000	0.009878
2439.000000	0.009914
2438.000000	0.009962
2437.000000	0.009982
2436.000000	0.009954
2435.000000	0.009885
2434.000000	0.009816
2433.000000	0.009788
2432.000000	0.009807
2431.000000	0.009846
2430.000000	0.009869
2429.000000	0.009869
2428.000000	0.009864
2427.000000	0.009869
2426.000000	0.009886
2425.000000	0.009908
2424.000000	0.009926
2423.000000	0.009929
2422.000000	0.009912
2421.000000	0.009878
2420.000000	0.009838
2419.000000	0.009808
2418.000000	0.009794
2417.000000	0.009798
2416.000000	0.009817
2415.000000	0.009848
2414.000000	0.009885
2413.000000	0.009918
2412.000000	0.009938
2411.000000	0.009946
2410.000000	0.009949
2409.000000	0.009953
2408.000000	0.009950
2407.000000	0.009928
2406.000000	0.009891
2405.000000	0.009853
2404.000000	0.009827
2403.000000	0.009815
2402.000000	0.009819
2401.000000	0.009835
2400.000000	0.009857
2399.000000	0.009878
2398.000000	0.009897
2397.000000	0.009917
2396.000000	0.009930
2395.000000	0.009921
2394.000000	0.009886
2393.000000	0.009837
2392.000000	0.009798
2391.000000	0.009785
2390.000000	0.009798
2389.000000	0.009830
2388.000000	0.009866
2387.000000	0.009892
2386.000000	0.009900
2385.000000	0.009894
2384.000000	0.009881
2383.000000	0.009860
2382.000000	0.009830
2381.000000	0.009790
2380.000000	0.009749
2379.000000	0.009723
2378.000000	0.009726
2377.000000	0.009755
2376.000000	0.009793
2375.000000	0.009824
2374.000000	0.009844
2373.000000	0.009849
2372.000000	0.009824
2371.000000	0.009762
2370.000000	0.009686
2369.000000	0.009633
2368.000000	0.009627
2367.000000	0.009663
2366.000000	0.009715
2365.000000	0.009759
2364.000000	0.009777
2363.000000	0.009777
2362.000000	0.009779
2361.000000	0.009790
2360.000000	0.009810
2359.000000	0.009821
2358.000000	0.009808
2357.000000	0.009777
2356.000000	0.009752
2355.000000	0.009764
2354.000000	0.009798
2353.000000	0.009812
2352.000000	0.009791
2351.000000	0.009765
2350.000000	0.009770
2349.000000	0.009808
2348.000000	0.009858
2347.000000	0.009883
2346.000000	0.009864
2345.000000	0.009827
2344.000000	0.009814
2343.000000	0.009848
2342.000000	0.009897
2341.000000	0.009914
2340.000000	0.009886
2339.000000	0.009847
2338.000000	0.009830
2337.000000	0.009843
2336.000000	0.009867
2335.000000	0.009885
2334.000000	0.009887
2333.000000	0.009871
2332.000000	0.009843
2331.000000	0.009814
2330.000000	0.009802
2329.000000	0.009819
2328.000000	0.009874
2327.000000	0.009962
2326.000000	0.010061
2325.000000	0.010137
2324.000000	0.010157
2323.000000	0.010125
2322.000000	0.010074
2321.000000	0.010044
2320.000000	0.010042
2319.000000	0.010046
2318.000000	0.010032
2317.000000	0.009986
2316.000000	0.009911
2315.000000	0.009829
2314.000000	0.009775
2313.000000	0.009768
2312.000000	0.009785
2311.000000	0.009790
2310.000000	0.009776
2309.000000	0.009761
2308.000000	0.009756
2307.000000	0.009749
2306.000000	0.009726
2305.000000	0.009701
2304.000000	0.009694
2303.000000	0.009706
2302.000000	0.009725
2301.000000	0.009742
2300.000000	0.009755
2299.000000	0.009756
2298.000000	0.009743
2297.000000	0.009722
2296.000000	0.009708
2295.000000	0.009706
2294.000000	0.009706
2293.000000	0.009698
2292.000000	0.009692
2291.000000	0.009706
2290.000000	0.009754
2289.000000	0.009816
2288.000000	0.009850
2287.000000	0.009831
2286.000000	0.009774
2285.000000	0.009725
2284.000000	0.009714
2283.000000	0.009730
2282.000000	0.009738
2281.000000	0.009706
2280.000000	0.009635
2279.000000	0.009548
2278.000000	0.009479
2277.000000	0.009444
2276.000000	0.009439
2275.000000	0.009455
2274.000000	0.009489
2273.000000	0.009540
2272.000000	0.009588
2271.000000	0.009610
2270.000000	0.009597
2269.000000	0.009559
2268.000000	0.009507
2267.000000	0.009452
2266.000000	0.009404
2265.000000	0.009373
2264.000000	0.009356
2263.000000	0.009355
2262.000000	0.009381
2261.000000	0.009439
2260.000000	0.009519
2259.000000	0.009599
2258.000000	0.009666
2257.000000	0.009704
2256.000000	0.009687
2255.000000	0.009608
2254.000000	0.009509
2253.000000	0.009446
2252.000000	0.009434
2251.000000	0.009434
2250.000000	0.009403
2249.000000	0.009329
2248.000000	0.009232
2247.000000	0.009144
2246.000000	0.009102
2245.000000	0.009115
2244.000000	0.009156
2243.000000	0.009197
2242.000000	0.009239
2241.000000	0.009287
2240.000000	0.009317
2239.000000	0.009293
2238.000000	0.009235
2237.000000	0.009212
2236.000000	0.009263
2235.000000	0.009354
2234.000000	0.009426
2233.000000	0.009453
2232.000000	0.009445
2231.000000	0.009414
2230.000000	0.009366
2229.000000	0.009312
2228.000000	0.009263
2227.000000	0.009221
2226.000000	0.009195
2225.000000	0.009201
2224.000000	0.009249
2223.000000	0.009318
2222.000000	0.009358
2221.000000	0.009328
2220.000000	0.009230
2219.000000	0.009121
2218.000000	0.009074
2217.000000	0.009101
2216.000000	0.009143
2215.000000	0.009136
2214.000000	0.009077
2213.000000	0.009013
2212.000000	0.008978
2211.000000	0.008987
2210.000000	0.009034
2209.000000	0.009087
2208.000000	0.009081
2207.000000	0.008984
2206.000000	0.008861
2205.000000	0.008813
2204.000000	0.008862
2203.000000	0.008921
2202.000000	0.008905
2201.000000	0.008826
2200.000000	0.008777
2199.000000	0.008824
2198.000000	0.008953
2197.000000	0.009084
2196.000000	0.009149
2195.000000	0.009157
2194.000000	0.009181
2193.000000	0.009258
2192.000000	0.009336
2191.000000	0.009339
2190.000000	0.009274
2189.000000	0.009219
2188.000000	0.009218
2187.000000	0.009247
2186.000000	0.009272
2185.000000	0.009292
2184.000000	0.009301
2183.000000	0.009255
2182.000000	0.009106
2181.000000	0.008864
2180.000000	0.008613
2179.000000	0.008450
2178.000000	0.008401
2177.000000	0.008399
2176.000000	0.008353
2175.000000	0.008242
2174.000000	0.008136
2173.000000	0.008106
2172.000000	0.008168
2171.000000	0.008311
2170.000000	0.008515
2169.000000	0.008712
2168.000000	0.008801
2167.000000	0.008737
2166.000000	0.008570
2165.000000	0.008357
2164.000000	0.008108
2163.000000	0.007870
2162.000000	0.007769
2161.000000	0.007848
2160.000000	0.007948
2159.000000	0.007892
2158.000000	0.007742
2157.000000	0.007676
2156.000000	0.007704
2155.000000	0.007717
2154.000000	0.007705
2153.000000	0.007747
2152.000000	0.007843
2151.000000	0.007910
2150.000000	0.007924
2149.000000	0.007961
2148.000000	0.008092
2147.000000	0.008311
2146.000000	0.008565
2145.000000	0.008778
2144.000000	0.008865
2143.000000	0.008800
2142.000000	0.008665
2141.000000	0.008576
2140.000000	0.008569
2139.000000	0.008598
2138.000000	0.008634
2137.000000	0.008690
2136.000000	0.008748
2135.000000	0.008754
2134.000000	0.008693
2133.000000	0.008617
2132.000000	0.008583
2131.000000	0.008604
2130.000000	0.008656
2129.000000	0.008704
2128.000000	0.008710
2127.000000	0.008671
2126.000000	0.008642
2125.000000	0.008682
2124.000000	0.008772
2123.000000	0.008839
2122.000000	0.008854
2121.000000	0.008862
2120.000000	0.008906
2119.000000	0.008967
2118.000000	0.008995
2117.000000	0.008970
2116.000000	0.008915
2115.000000	0.008874
2114.000000	0.008878
2113.000000	0.008926
2112.000000	0.008979
2111.000000	0.008997
2110.000000	0.008992
2109.000000	0.009007
2108.000000	0.009064
2107.000000	0.009130
2106.000000	0.009157
2105.000000	0.009122
2104.000000	0.009030
2103.000000	0.008904
2102.000000	0.008775
2101.000000	0.008667
2100.000000	0.008585
2099.000000	0.008541
2098.000000	0.008566
2097.000000	0.008671
2096.000000	0.008802
2095.000000	0.008875
2094.000000	0.008868
2093.000000	0.008827
2092.000000	0.008807
2091.000000	0.008826
2090.000000	0.008881
2089.000000	0.008952
2088.000000	0.008996
2087.000000	0.008978
2086.000000	0.008917
2085.000000	0.008875
2084.000000	0.008882
2083.000000	0.008902
2082.000000	0.008885
2081.000000	0.008824
2080.000000	0.008752
2079.000000	0.008710
2078.000000	0.008711
2077.000000	0.008725
2076.000000	0.008689
2075.000000	0.008571
2074.000000	0.008422
2073.000000	0.008335
2072.000000	0.008352
2071.000000	0.008431
2070.000000	0.008495
2069.000000	0.008486
2068.000000	0.008374
2067.000000	0.008171
2066.000000	0.007945
2065.000000	0.007786
2064.000000	0.007747
2063.000000	0.007836
2062.000000	0.008026
2061.000000	0.008252
2060.000000	0.008407
2059.000000	0.008438
2058.000000	0.008403
2057.000000	0.008401
2056.000000	0.008445
2055.000000	0.008472
2054.000000	0.008457
2053.000000	0.008443
2052.000000	0.008443
2051.000000	0.008403
2050.000000	0.008277
2049.000000	0.008096
2048.000000	0.007928
2047.000000	0.007808
2046.000000	0.007741
2045.000000	0.007707
2044.000000	0.007651
2043.000000	0.007527
2042.000000	0.007385
2041.000000	0.007333
2040.000000	0.007405
2039.000000	0.007537
2038.000000	0.007675
2037.000000	0.007813
2036.000000	0.007925
2035.000000	0.007944
2034.000000	0.007867
2033.000000	0.007768
2032.000000	0.007680
2031.000000	0.007550
2030.000000	0.007343
2029.000000	0.007111
2028.000000	0.006939
2027.000000	0.006891
2026.000000	0.007009
2025.000000	0.007279
2024.000000	0.007574
2023.000000	0.007738
2022.000000	0.007725
2021.000000	0.007605
2020.000000	0.007454
2019.000000	0.007345
2018.000000	0.007386
2017.000000	0.007619
2016.000000	0.007882
2015.000000	0.007923
2014.000000	0.007700
2013.000000	0.007433
2012.000000	0.007340
2011.000000	0.007420
2010.000000	0.007523
2009.000000	0.007534
2008.000000	0.007445
2007.000000	0.007327
2006.000000	0.007272
2005.000000	0.007318
2004.000000	0.007401
2003.000000	0.007441
2002.000000	0.007458
2001.000000	0.007534
2000.000000	0.007672
1999.000000	0.007789
1998.000000	0.007818
1997.000000	0.007770
1996.000000	0.007695
1995.000000	0.007657
1994.000000	0.007721
1993.000000	0.007893
1992.000000	0.008063
1991.000000	0.008096
1990.000000	0.008001
1989.000000	0.007918
1988.000000	0.007938
1987.000000	0.008033
1986.000000	0.008145
1985.000000	0.008238
1984.000000	0.008265
1983.000000	0.008180
1982.000000	0.008028
1981.000000	0.007915
1980.000000	0.007867
1979.000000	0.007811
1978.000000	0.007724
1977.000000	0.007692
1976.000000	0.007754
1975.000000	0.007790
1974.000000	0.007693
1973.000000	0.007519
1972.000000	0.007407
1971.000000	0.007403
1970.000000	0.007441
1969.000000	0.007441
1968.000000	0.007369
1967.000000	0.007251
1966.000000	0.007141
1965.000000	0.007074
1964.000000	0.007040
1963.000000	0.007018
1962.000000	0.007017
1961.000000	0.007055
1960.000000	0.007130
1959.000000	0.007238
1958.000000	0.007386
1957.000000	0.007543
1956.000000	0.007632
1955.000000	0.007635
1954.000000	0.007642
1953.000000	0.007737
1952.000000	0.007868
1951.000000	0.007905
1950.000000	0.007823
1949.000000	0.007710
1948.000000	0.007634
1947.000000	0.007573
1946.000000	0.007502
1945.000000	0.007442
1944.000000	0.007407
1943.000000	0.007380
1942.000000	0.007362
1941.000000	0.007370
1940.000000	0.007402
1939.000000	0.007448
1938.000000	0.007527
1937.000000	0.007652
1936.000000	0.007777
1935.000000	0.007821
1934.000000	0.007766
1933.000000	0.007680
1932.000000	0.007629
1931.000000	0.007605
1930.000000	0.007590
1929.000000	0.007597
1928.000000	0.007631
1927.000000	0.007661
1926.000000	0.007653
1925.000000	0.007618
1924.000000	0.007583
1923.000000	0.007557
1922.000000	0.007551
1921.000000	0.007590
1920.000000	0.007678
1919.000000	0.007770
1918.000000	0.007814
1917.000000	0.007803
1916.000000	0.007764
1915.000000	0.007728
1914.000000	0.007703
1913.000000	0.007679
1912.000000	0.007634
1911.000000	0.007561
1910.000000	0.007484
1909.000000	0.007441
1908.000000	0.007435
1907.000000	0.007444
1906.000000	0.007448
1905.000000	0.007452
1904.000000	0.007452
1903.000000	0.007446
1902.000000	0.007465
1901.000000	0.007524
1900.000000	0.007591
1899.000000	0.007614
1898.000000	0.007582
1897.000000	0.007533
1896.000000	0.007500
1895.000000	0.007480
1894.000000	0.007470
1893.000000	0.007474
1892.000000	0.007489
1891.000000	0.007502
1890.000000	0.007511
1889.000000	0.007522
1888.000000	0.007509
1887.000000	0.007449
1886.000000	0.007377
1885.000000	0.007343
1884.000000	0.007366
1883.000000	0.007419
1882.000000	0.007475
1881.000000	0.007514
1880.000000	0.007520
1879.000000	0.007509
1878.000000	0.007510
1877.000000	0.007526
1876.000000	0.007509
1875.000000	0.007413
1874.000000	0.007269
1873.000000	0.007168
1872.000000	0.007158
1871.000000	0.007198
1870.000000	0.007214
1869.000000	0.007188
1868.000000	0.007152
1867.000000	0.007134
1866.000000	0.007157
1865.000000	0.007237
1864.000000	0.007344
1863.000000	0.007429
1862.000000	0.007481
1861.000000	0.007511
1860.000000	0.007511
1859.000000	0.007470
1858.000000	0.007416
1857.000000	0.007386
1856.000000	0.007372
1855.000000	0.007341
1854.000000	0.007304
1853.000000	0.007299
1852.000000	0.007322
1851.000000	0.007346
1850.000000	0.007341
1849.000000	0.007290
1848.000000	0.007207
1847.000000	0.007140
1846.000000	0.007140
1845.000000	0.007190
1844.000000	0.007201
1843.000000	0.007131
1842.000000	0.007061
1841.000000	0.007085
1840.000000	0.007179
1839.000000	0.007241
1838.000000	0.007232
1837.000000	0.007217
1836.000000	0.007228
1835.000000	0.007214
1834.000000	0.007150
1833.000000	0.007079
1832.000000	0.007048
1831.000000	0.007040
1830.000000	0.007018
1829.000000	0.006996
1828.000000	0.007009
1827.000000	0.007068
1826.000000	0.007136
1825.000000	0.007155
1824.000000	0.007131
1823.000000	0.007115
1822.000000	0.007145
1821.000000	0.007202
1820.000000	0.007234
1819.000000	0.007221
1818.000000	0.007190
1817.000000	0.007185
1816.000000	0.007188
1815.000000	0.007153
1814.000000	0.007078
1813.000000	0.007003
1812.000000	0.006961
1811.000000	0.006936
1810.000000	0.006919
1809.000000	0.006938
1808.000000	0.007002
1807.000000	0.007073
1806.000000	0.007115
1805.000000	0.007124
1804.000000	0.007103
1803.000000	0.007047
1802.000000	0.006978
1801.000000	0.006932
1800.000000	0.006931
1799.000000	0.006942
1798.000000	0.006929
1797.000000	0.006904
1796.000000	0.006884
1795.000000	0.006885
1794.000000	0.006904
1793.000000	0.006907
1792.000000	0.006878
1791.000000	0.006826
1790.000000	0.006782
1789.000000	0.006787
1788.000000	0.006845
1787.000000	0.006911
1786.000000	0.006938
1785.000000	0.006910
1784.000000	0.006823
1783.000000	0.006707
1782.000000	0.006618
1781.000000	0.006567
1780.000000	0.006543
1779.000000	0.006520
1778.000000	0.006485
1777.000000	0.006426
1776.000000	0.006324
1775.000000	0.006223
1774.000000	0.006186
1773.000000	0.006201
1772.000000	0.006231
1771.000000	0.006275
1770.000000	0.006356
1769.000000	0.006497
1768.000000	0.006622
1767.000000	0.006624
1766.000000	0.006541
1765.000000	0.006528
1764.000000	0.006667
1763.000000	0.006894
1762.000000	0.007093
1761.000000	0.007242
1760.000000	0.007417
1759.000000	0.007714
1758.000000	0.008191
1757.000000	0.008787
1756.000000	0.009352
1755.000000	0.009827
1754.000000	0.010312
1753.000000	0.010921
1752.000000	0.011610
1751.000000	0.012218
1750.000000	0.012686
1749.000000	0.013116
1748.000000	0.013522
1747.000000	0.013806
1746.000000	0.013918
1745.000000	0.013882
1744.000000	0.013730
1743.000000	0.013472
1742.000000	0.013151
1741.000000	0.012794
1740.000000	0.012313
1739.000000	0.011633
1738.000000	0.010907
1737.000000	0.010374
1736.000000	0.010083
1735.000000	0.009763
1734.000000	0.009168
1733.000000	0.008490
1732.000000	0.008029
1731.000000	0.007825
1730.000000	0.007751
1729.000000	0.007686
1728.000000	0.007569
1727.000000	0.007409
1726.000000	0.007235
1725.000000	0.007067
1724.000000	0.006905
1723.000000	0.006702
1722.000000	0.006475
1721.000000	0.006307
1720.000000	0.006210
1719.000000	0.006049
1718.000000	0.005757
1717.000000	0.005578
1716.000000	0.005709
1715.000000	0.006041
1714.000000	0.006403
1713.000000	0.006725
1712.000000	0.007017
1711.000000	0.007296
1710.000000	0.007581
1709.000000	0.007890
1708.000000	0.008256
1707.000000	0.008697
1706.000000	0.009177
1705.000000	0.009630
1704.000000	0.010034
1703.000000	0.010551
1702.000000	0.011410
1701.000000	0.012457
1700.000000	0.013080
1699.000000	0.013107
1698.000000	0.013155
1697.000000	0.013792
1696.000000	0.014917
1695.000000	0.015908
1694.000000	0.016499
1693.000000	0.016995
1692.000000	0.017590
1691.000000	0.018221
1690.000000	0.018804
1689.000000	0.019299
1688.000000	0.019710
1687.000000	0.020141
1686.000000	0.020776
1685.000000	0.021705
1684.000000	0.022779
1683.000000	0.023673
1682.000000	0.024343
1681.000000	0.025066
1680.000000	0.025903
1679.000000	0.026751
1678.000000	0.027631
1677.000000	0.028686
1676.000000	0.029894
1675.000000	0.030949
1674.000000	0.031665
1673.000000	0.032264
1672.000000	0.033058
1671.000000	0.034103
1670.000000	0.035314
1669.000000	0.036553
1668.000000	0.037635
1667.000000	0.038504
1666.000000	0.039303
1665.000000	0.040214
1664.000000	0.041273
1663.000000	0.042328
1662.000000	0.043247
1661.000000	0.044040
1660.000000	0.044790
1659.000000	0.045497
1658.000000	0.046090
1657.000000	0.046544
1656.000000	0.046995
1655.000000	0.047599
1654.000000	0.048386
1653.000000	0.049237
1652.000000	0.049698
1651.000000	0.049786
1650.000000	0.050004
1649.000000	0.050426
1648.000000	0.050958
1647.000000	0.051562
1646.000000	0.052126
1645.000000	0.052533
1644.000000	0.052836
1643.000000	0.053130
1642.000000	0.053425
1641.000000	0.053681
1640.000000	0.053866
1639.000000	0.053985
1638.000000	0.054124
1637.000000	0.054386
1636.000000	0.054792
1635.000000	0.055152
1634.000000	0.055248
1633.000000	0.055210
1632.000000	0.055201
1631.000000	0.055182
1630.000000	0.055070
1629.000000	0.054824
1628.000000	0.054450
1627.000000	0.053983
1626.000000	0.053460
1625.000000	0.052876
1624.000000	0.052162
1623.000000	0.051281
1622.000000	0.050320
1621.000000	0.049386
1620.000000	0.048522
1619.000000	0.047686
1618.000000	0.046753
1617.000000	0.045638
1616.000000	0.044457
1615.000000	0.043413
1614.000000	0.042559
1613.000000	0.041788
1612.000000	0.040962
1611.000000	0.040040
1610.000000	0.039089
1609.000000	0.038168
1608.000000	0.037286
1607.000000	0.036465
1606.000000	0.035733
1605.000000	0.035050
1604.000000	0.034372
1603.000000	0.033719
1602.000000	0.033137
1601.000000	0.032630
1600.000000	0.032167
1599.000000	0.031749
1598.000000	0.031379
1597.000000	0.031035
1596.000000	0.030703
1595.000000	0.030418
1594.000000	0.030219
1593.000000	0.030084
1592.000000	0.029972
1591.000000	0.029888
1590.000000	0.029861
1589.000000	0.029880
1588.000000	0.029922
1587.000000	0.030003
1586.000000	0.030156
1585.000000	0.030363
1584.000000	0.030579
1583.000000	0.030825
1582.000000	0.031110
1581.000000	0.031362
1580.000000	0.031519
1579.000000	0.031647
1578.000000	0.031867
1577.000000	0.032246
1576.000000	0.032734
1575.000000	0.033211
1574.000000	0.033641
1573.000000	0.034083
1572.000000	0.034597
1571.000000	0.035194
1570.000000	0.035838
1569.000000	0.036433
1568.000000	0.036903
1567.000000	0.037360
1566.000000	0.037941
1565.000000	0.038586
1564.000000	0.039123
1563.000000	0.039537
1562.000000	0.039996
1561.000000	0.040694
1560.000000	0.041436
1559.000000	0.042219
1558.000000	0.043069
1557.000000	0.043578
1556.000000	0.043970
1555.000000	0.044506
1554.000000	0.045065
1553.000000	0.045508
1552.000000	0.045863
1551.000000	0.046239
1550.000000	0.046631
1549.000000	0.046979
1548.000000	0.047244
1547.000000	0.047471
1546.000000	0.047665
1545.000000	0.047770
1544.000000	0.047797
1543.000000	0.047801
1542.000000	0.047775
1541.000000	0.047738
1540.000000	0.047834
1539.000000	0.047965
1538.000000	0.047901
1537.000000	0.047792
1536.000000	0.047772
1535.000000	0.047749
1534.000000	0.047578
1533.000000	0.047256
1532.000000	0.046910
1531.000000	0.046585
1530.000000	0.046281
1529.000000	0.045979
1528.000000	0.045644
1527.000000	0.045261
1526.000000	0.044826
1525.000000	0.044350
1524.000000	0.043883
1523.000000	0.043441
1522.000000	0.042999
1521.000000	0.042584
1520.000000	0.042225
1519.000000	0.041925
1518.000000	0.041645
1517.000000	0.041337
1516.000000	0.041007
1515.000000	0.040671
1514.000000	0.040322
1513.000000	0.039913
1512.000000	0.039354
1511.000000	0.038635
1510.000000	0.037848
1509.000000	0.037085
1508.000000	0.036342
1507.000000	0.035782
1506.000000	0.035461
1505.000000	0.035031
1504.000000	0.034526
1503.000000	0.034107
1502.000000	0.033722
1501.000000	0.033312
1500.000000	0.032848
1499.000000	0.032323
1498.000000	0.031742
1497.000000	0.031179
1496.000000	0.030692
1495.000000	0.030245
1494.000000	0.029841
1493.000000	0.029506
1492.000000	0.029174
1491.000000	0.028701
1490.000000	0.028123
1489.000000	0.027703
1488.000000	0.027551
1487.000000	0.027523
1486.000000	0.027513
1485.000000	0.027520
1484.000000	0.027550
1483.000000	0.027598
1482.000000	0.027650
1481.000000	0.027733
1480.000000	0.027874
1479.000000	0.028075
1478.000000	0.028311
1477.000000	0.028560
1476.000000	0.028807
1475.000000	0.029091
1474.000000	0.029532
1473.000000	0.030236
1472.000000	0.031126
1471.000000	0.031945
1470.000000	0.032610
1469.000000	0.033242
1468.000000	0.033898
1467.000000	0.034547
1466.000000	0.035169
1465.000000	0.035751
1464.000000	0.036235
1463.000000	0.036569
1462.000000	0.036817
1461.000000	0.037082
1460.000000	0.037397
1459.000000	0.037786
1458.000000	0.038339
1457.000000	0.039076
1456.000000	0.039678
1455.000000	0.039988
1454.000000	0.040247
1453.000000	0.040561
1452.000000	0.040850
1451.000000	0.041038
1450.000000	0.041138
1449.000000	0.041202
1448.000000	0.041221
1447.000000	0.041183
1446.000000	0.041127
1445.000000	0.041074
1444.000000	0.041026
1443.000000	0.040942
1442.000000	0.040783
1441.000000	0.040556
1440.000000	0.040331
1439.000000	0.040185
1438.000000	0.040083
1437.000000	0.039878
1436.000000	0.039480
1435.000000	0.038990
1434.000000	0.038576
1433.000000	0.038296
1432.000000	0.038079
1431.000000	0.037846
1430.000000	0.037602
1429.000000	0.037404
1428.000000	0.037250
1427.000000	0.037104
1426.000000	0.036963
1425.000000	0.036805
1424.000000	0.036634
1423.000000	0.036501
1422.000000	0.036453
1421.000000	0.036496
1420.000000	0.036538
1419.000000	0.036495
1418.000000	0.036412
1417.000000	0.036370
1416.000000	0.036386
1415.000000	0.036413
1414.000000	0.036394
1413.000000	0.036328
1412.000000	0.036269
1411.000000	0.036253
1410.000000	0.036262
1409.000000	0.036279
1408.000000	0.036304
1407.000000	0.036335
1406.000000	0.036375
1405.000000	0.036417
1404.000000	0.036439
1403.000000	0.036420
1402.000000	0.036376
1401.000000	0.036317
1400.000000	0.036202
1399.000000	0.036005
1398.000000	0.035774
1397.000000	0.035583
1396.000000	0.035444
1395.000000	0.035315
1394.000000	0.035145
1393.000000	0.034906
1392.000000	0.034626
1391.000000	0.034348
1390.000000	0.034080
1389.000000	0.033804
1388.000000	0.033505
1387.000000	0.033194
1386.000000	0.032901
1385.000000	0.032633
1384.000000	0.032378
1383.000000	0.032116
1382.000000	0.031841
1381.000000	0.031569
1380.000000	0.031300
1379.000000	0.031009
1378.000000	0.030674
1377.000000	0.030297
1376.000000	0.029883
1375.000000	0.029447
1374.000000	0.029030
1373.000000	0.028646
1372.000000	0.028271
1371.000000	0.027890
1370.000000	0.027503
1369.000000	0.027093
1368.000000	0.026640
1367.000000	0.026162
1366.000000	0.025699
1365.000000	0.025271
1364.000000	0.024866
1363.000000	0.024495
1362.000000	0.024204
1361.000000	0.024011
1360.000000	0.023886
1359.000000	0.023793
1358.000000	0.023714
1357.000000	0.023650
1356.000000	0.023623
1355.000000	0.023661
1354.000000	0.023770
1353.000000	0.023932
1352.000000	0.024119
1351.000000	0.024324
1350.000000	0.024563
1349.000000	0.024843
1348.000000	0.025150
1347.000000	0.025460
1346.000000	0.025756
1345.000000	0.026037
1344.000000	0.026299
1343.000000	0.026532
1342.000000	0.026731
1341.000000	0.026902
1340.000000	0.027073
1339.000000	0.027274
1338.000000	0.027492
1337.000000	0.027681
1336.000000	0.027803
1335.000000	0.027841
1334.000000	0.027799
1333.000000	0.027695
1332.000000	0.027543
1331.000000	0.027360
1330.000000	0.027160
1329.000000	0.026957
1328.000000	0.026754
1327.000000	0.026556
1326.000000	0.026373
1325.000000	0.026219
1324.000000	0.026098
1323.000000	0.025996
1322.000000	0.025902
1321.000000	0.025811
1320.000000	0.025733
1319.000000	0.025671
1318.000000	0.025626
1317.000000	0.025587
1316.000000	0.025544
1315.000000	0.025485
1314.000000	0.025401
1313.000000	0.025291
1312.000000	0.025164
1311.000000	0.025025
1310.000000	0.024881
1309.000000	0.024736
1308.000000	0.024596
1307.000000	0.024458
1306.000000	0.024322
1305.000000	0.024187
1304.000000	0.024057
1303.000000	0.023933
1302.000000	0.023806
1301.000000	0.023670
1300.000000	0.023531
1299.000000	0.023405
1298.000000	0.023302
1297.000000	0.023232
1296.000000	0.023197
1295.000000	0.023201
1294.000000	0.023244
1293.000000	0.023328
1292.000000	0.023449
1291.000000	0.023595
1290.000000	0.023747
1289.000000	0.023901
1288.000000	0.024068
1287.000000	0.024259
1286.000000	0.024471
1285.000000	0.024686
1284.000000	0.024886
1283.000000	0.025050
1282.000000	0.025166
1281.000000	0.025233
1280.000000	0.025264
1279.000000	0.025276
1278.000000	0.025277
1277.000000	0.025265
1276.000000	0.025235
1275.000000	0.025185
1274.000000	0.025123
1273.000000	0.025070
1272.000000	0.025046
1271.000000	0.025051
1270.000000	0.025072
1269.000000	0.025104
1268.000000	0.025160
1267.000000	0.025255
1266.000000	0.025380
1265.000000	0.025505
1264.000000	0.025603
1263.000000	0.025676
1262.000000	0.025755
1261.000000	0.025878
1260.000000	0.026061
1259.000000	0.026293
1258.000000	0.026543
1257.000000	0.026788
1256.000000	0.027024
1255.000000	0.027259
1254.000000	0.027505
1253.000000	0.027776
1252.000000	0.028072
1251.000000	0.028386
1250.000000	0.028707
1249.000000	0.029037
1248.000000	0.029375
1247.000000	0.029709
1246.000000	0.030027
1245.000000	0.030330
1244.000000	0.030627
1243.000000	0.030921
1242.000000	0.031198
1241.000000	0.031440
1240.000000	0.031628
1239.000000	0.031743
1238.000000	0.031776
1237.000000	0.031737
1236.000000	0.031644
1235.000000	0.031508
1234.000000	0.031330
1233.000000	0.031116
1232.000000	0.030870
1231.000000	0.030587
1230.000000	0.030253
1229.000000	0.029862
1228.000000	0.029419
1227.000000	0.028937
1226.000000	0.028419
1225.000000	0.027860
1224.000000	0.027258
1223.000000	0.026622
1222.000000	0.025962
1221.000000	0.025287
1220.000000	0.024619
1219.000000	0.024009
1218.000000	0.023525
1217.000000	0.023215
1216.000000	0.023086
1215.000000	0.023094
1214.000000	0.023172
1213.000000	0.023265
1212.000000	0.023354
1211.000000	0.023452
1210.000000	0.023574
1209.000000	0.023723
1208.000000	0.023887
1207.000000	0.024058
1206.000000	0.024227
1205.000000	0.024387
1204.000000	0.024524
1203.000000	0.024623
1202.000000	0.024673
1201.000000	0.024663
1200.000000	0.024591
1199.000000	0.024467
1198.000000	0.024312
1197.000000	0.024136
1196.000000	0.023929
1195.000000	0.023680
1194.000000	0.023402
1193.000000	0.023129
1192.000000	0.022885
1191.000000	0.022665
1190.000000	0.022452
1189.000000	0.022244
1188.000000	0.022052
1187.000000	0.021880
1186.000000	0.021721
1185.000000	0.021574
1184.000000	0.021454
1183.000000	0.021373
1182.000000	0.021328
1181.000000	0.021309
1180.000000	0.021313
1179.000000	0.021337
1178.000000	0.021376
1177.000000	0.021423
1176.000000	0.021481
1175.000000	0.021553
1174.000000	0.021643
1173.000000	0.021743
1172.000000	0.021849
1171.000000	0.021956
1170.000000	0.022066
1169.000000	0.022185
1168.000000	0.022322
1167.000000	0.022482
1166.000000	0.022658
1165.000000	0.022834
1164.000000	0.022994
1163.000000	0.023115
1162.000000	0.023179
1161.000000	0.023180
1160.000000	0.023123
1159.000000	0.023016
1158.000000	0.022859
1157.000000	0.022662
1156.000000	0.022440
1155.000000	0.022213
1154.000000	0.021983
1153.000000	0.021741
1152.000000	0.021483
1151.000000	0.021218
1150.000000	0.020960
1149.000000	0.020714
1148.000000	0.020476
1147.000000	0.020236
1146.000000	0.019991
1145.000000	0.019745
1144.000000	0.019504
1143.000000	0.019274
1142.000000	0.019045
1141.000000	0.018802
1140.000000	0.018538
1139.000000	0.018258
1138.000000	0.017980
1137.000000	0.017723
1136.000000	0.017494
1135.000000	0.017289
1134.000000	0.017096
1133.000000	0.016908
1132.000000	0.016737
1131.000000	0.016601
1130.000000	0.016505
1129.000000	0.016451
1128.000000	0.016437
1127.000000	0.016459
1126.000000	0.016500
1125.000000	0.016546
1124.000000	0.016597
1123.000000	0.016658
1122.000000	0.016727
1121.000000	0.016791
1120.000000	0.016845
1119.000000	0.016895
1118.000000	0.016943
1117.000000	0.016982
1116.000000	0.017003
1115.000000	0.017008
1114.000000	0.017005
1113.000000	0.017000
1112.000000	0.017000
1111.000000	0.017004
1110.000000	0.017016
1109.000000	0.017037
1108.000000	0.017079
1107.000000	0.017143
1106.000000	0.017223
1105.000000	0.017303
1104.000000	0.017377
1103.000000	0.017448
1102.000000	0.017515
1101.000000	0.017580
1100.000000	0.017646
1099.000000	0.017720
1098.000000	0.017795
1097.000000	0.017855
1096.000000	0.017893
1095.000000	0.017925
1094.000000	0.017977
1093.000000	0.018078
1092.000000	0.018249
1091.000000	0.018486
1090.000000	0.018769
1089.000000	0.019073
1088.000000	0.019386
1087.000000	0.019713
1086.000000	0.020052
1085.000000	0.020377
1084.000000	0.020643
1083.000000	0.020815
1082.000000	0.020890
1081.000000	0.020893
1080.000000	0.020850
1079.000000	0.020762
1078.000000	0.020610
1077.000000	0.020384
1076.000000	0.020106
1075.000000	0.019809
1074.000000	0.019522
1073.000000	0.019254
1072.000000	0.019009
1071.000000	0.018801
1070.000000	0.018645
1069.000000	0.018556
1068.000000	0.018532
1067.000000	0.018551
1066.000000	0.018582
1065.000000	0.018605
1064.000000	0.018623
1063.000000	0.018641
1062.000000	0.018654
1061.000000	0.018645
1060.000000	0.018611
1059.000000	0.018567
1058.000000	0.018517
1057.000000	0.018446
1056.000000	0.018333
1055.000000	0.018181
1054.000000	0.018022
1053.000000	0.017892
1052.000000	0.017799
1051.000000	0.017719
1050.000000	0.017623
1049.000000	0.017514
1048.000000	0.017421
1047.000000	0.017369
1046.000000	0.017351
1045.000000	0.017349
1044.000000	0.017354
1043.000000	0.017366
1042.000000	0.017383
1041.000000	0.017404
1040.000000	0.017447
1039.000000	0.017539
1038.000000	0.017697
1037.000000	0.017912
1036.000000	0.018165
1035.000000	0.018430
1034.000000	0.018685
1033.000000	0.018907
1032.000000	0.019078
1031.000000	0.019181
1030.000000	0.019199
1029.000000	0.019134
1028.000000	0.019007
1027.000000	0.018853
1026.000000	0.018685
1025.000000	0.018498
1024.000000	0.018289
1023.000000	0.018083
1022.000000	0.017906
1021.000000	0.017762
1020.000000	0.017633
1019.000000	0.017505
1018.000000	0.017375
1017.000000	0.017246
1016.000000	0.017113
1015.000000	0.016967
1014.000000	0.016797
1013.000000	0.016592
1012.000000	0.016356
1011.000000	0.016111
1010.000000	0.015881
1009.000000	0.015674
1008.000000	0.015483
1007.000000	0.015290
1006.000000	0.015087
1005.000000	0.014877
1004.000000	0.014666
1003.000000	0.014460
1002.000000	0.014254
1001.000000	0.014045
1000.000000	0.013839
999.000000	0.013645
998.000000	0.013464
997.000000	0.013281
996.000000	0.013088
995.000000	0.012902
994.000000	0.012741
993.000000	0.012600
992.000000	0.012451
991.000000	0.012278
990.000000	0.012097
989.000000	0.011940
988.000000	0.011821
987.000000	0.011720
986.000000	0.011603
985.000000	0.011461
984.000000	0.011331
983.000000	0.011262
982.000000	0.011274
981.000000	0.011330
980.000000	0.011387
979.000000	0.011426
978.000000	0.011453
977.000000	0.011466
976.000000	0.011456
975.000000	0.011425
974.000000	0.011385
973.000000	0.011347
972.000000	0.011309
971.000000	0.011259
970.000000	0.011190
969.000000	0.011095
968.000000	0.010973
967.000000	0.010831
966.000000	0.010686
965.000000	0.010546
964.000000	0.010414
963.000000	0.010292
962.000000	0.010177
961.000000	0.010051
960.000000	0.009894
959.000000	0.009720
958.000000	0.009567
957.000000	0.009466
956.000000	0.009398
955.000000	0.009324
954.000000	0.009224
953.000000	0.009110
952.000000	0.009003
951.000000	0.008908
950.000000	0.008822
949.000000	0.008746
948.000000	0.008686
947.000000	0.008648
946.000000	0.008637
945.000000	0.008660
944.000000	0.008712
943.000000	0.008765
942.000000	0.008786
941.000000	0.008762
940.000000	0.008709
939.000000	0.008651
938.000000	0.008601
937.000000	0.008559
936.000000	0.008514
935.000000	0.008451
934.000000	0.008363
933.000000	0.008258
932.000000	0.008153
931.000000	0.008064
930.000000	0.007991
929.000000	0.007930
928.000000	0.007893
927.000000	0.007887
926.000000	0.007907
925.000000	0.007929
924.000000	0.007930
923.000000	0.007898
922.000000	0.007834
921.000000	0.007744
920.000000	0.007636
919.000000	0.007517
918.000000	0.007392
917.000000	0.007273
916.000000	0.007182
915.000000	0.007127
914.000000	0.007090
913.000000	0.007041
912.000000	0.006968
911.000000	0.006877
910.000000	0.006778
909.000000	0.006674
908.000000	0.006575
907.000000	0.006503
906.000000	0.006472
905.000000	0.006466
904.000000	0.006455
903.000000	0.006419
902.000000	0.006352
901.000000	0.006268
900.000000	0.006193
899.000000	0.006152
898.000000	0.006148
897.000000	0.006160
896.000000	0.006163
895.000000	0.006151
894.000000	0.006129
893.000000	0.006099
892.000000	0.006058
891.000000	0.006017
890.000000	0.005993
889.000000	0.005998
888.000000	0.006027
887.000000	0.006079
886.000000	0.006173
885.000000	0.006354
884.000000	0.006663
883.000000	0.007105
882.000000	0.007657
881.000000	0.008302
880.000000	0.009039
879.000000	0.009858
878.000000	0.010705
877.000000	0.011494
876.000000	0.012118
875.000000	0.012474
874.000000	0.012468
873.000000	0.012075
872.000000	0.011370
871.000000	0.010519
870.000000	0.009692
869.000000	0.008992
868.000000	0.008445
867.000000	0.008047
866.000000	0.007777
865.000000	0.007601
864.000000	0.007477
863.000000	0.007373
862.000000	0.007283
861.000000	0.007212
860.000000	0.007164
859.000000	0.007151
858.000000	0.007186
857.000000	0.007264
856.000000	0.007344
855.000000	0.007379
854.000000	0.007359
853.000000	0.007320
852.000000	0.007299
851.000000	0.007297
850.000000	0.007276
849.000000	0.007199
848.000000	0.007071
847.000000	0.006933
846.000000	0.006828
845.000000	0.006762
844.000000	0.006713
843.000000	0.006658
842.000000	0.006604
841.000000	0.006562
840.000000	0.006522
839.000000	0.006461
838.000000	0.006370
837.000000	0.006277
836.000000	0.006215
835.000000	0.006191
834.000000	0.006179
833.000000	0.006152
832.000000	0.006099
831.000000	0.006033
830.000000	0.005974
829.000000	0.005947
828.000000	0.005971
827.000000	0.006034
826.000000	0.006096
825.000000	0.006119
824.000000	0.006107
823.000000	0.006105
822.000000	0.006146
821.000000	0.006218
820.000000	0.006283
819.000000	0.006324
818.000000	0.006356
817.000000	0.006394
816.000000	0.006435
815.000000	0.006463
814.000000	0.006470
813.000000	0.006448
812.000000	0.006382
811.000000	0.006277
810.000000	0.006173
809.000000	0.006119
808.000000	0.006122
807.000000	0.006143
806.000000	0.006137
805.000000	0.006094
804.000000	0.006044
803.000000	0.006026
802.000000	0.006060
801.000000	0.006125
800.000000	0.006172
799.000000	0.006173
798.000000	0.006152
797.000000	0.006163
796.000000	0.006228
795.000000	0.006318
794.000000	0.006401
793.000000	0.006466
792.000000	0.006512
791.000000	0.006533
790.000000	0.006525
789.000000	0.006506
788.000000	0.006490
787.000000	0.006480
786.000000	0.006481
785.000000	0.006515
784.000000	0.006592
783.000000	0.006692
782.000000	0.006783
781.000000	0.006855
780.000000	0.006913
779.000000	0.006948
778.000000	0.006941
777.000000	0.006895
776.000000	0.006849
775.000000	0.006844
774.000000	0.006894
773.000000	0.006973
772.000000	0.007044
771.000000	0.007081
770.000000	0.007103
769.000000	0.007154
768.000000	0.007258
767.000000	0.007381
766.000000	0.007460
765.000000	0.007456
764.000000	0.007389
763.000000	0.007315
762.000000	0.007291
761.000000	0.007343
760.000000	0.007451
759.000000	0.007573
758.000000	0.007673
757.000000	0.007742
756.000000	0.007787
755.000000	0.007811
754.000000	0.007819
753.000000	0.007834
752.000000	0.007870
751.000000	0.007924
750.000000	0.007982
749.000000	0.008041
748.000000	0.008104
747.000000	0.008172
746.000000	0.008244
745.000000	0.008324
744.000000	0.008409
743.000000	0.008480
742.000000	0.008531
741.000000	0.008579
740.000000	0.008657
739.000000	0.008775
738.000000	0.008920
737.000000	0.009075
736.000000	0.009217
735.000000	0.009325
734.000000	0.009405
733.000000	0.009498
732.000000	0.009644
731.000000	0.009838
730.000000	0.010038
729.000000	0.010221
728.000000	0.010392
727.000000	0.010562
726.000000	0.010734
725.000000	0.010912
724.000000	0.011099
723.000000	0.011281
722.000000	0.011437
721.000000	0.011565
720.000000	0.011678
719.000000	0.011791
718.000000	0.011922
717.000000	0.012098
716.000000	0.012328
715.000000	0.012575
714.000000	0.012770
713.000000	0.012865
712.000000	0.012862
711.000000	0.012794
710.000000	0.012702
709.000000	0.012628
708.000000	0.012605
707.000000	0.012638
706.000000	0.012707
705.000000	0.012800
704.000000	0.012908
703.000000	0.013005
702.000000	0.013060
701.000000	0.013066
700.000000	0.013058
699.000000	0.013077
698.000000	0.013133
697.000000	0.013206
696.000000	0.013270
695.000000	0.013316
694.000000	0.013353
693.000000	0.013404
692.000000	0.013473
691.000000	0.013533
690.000000	0.013556
689.000000	0.013557
688.000000	0.013582
687.000000	0.013654
686.000000	0.013750
685.000000	0.013837
684.000000	0.013922
683.000000	0.014019
682.000000	0.014107
681.000000	0.014138
680.000000	0.014108
679.000000	0.014075
678.000000	0.014098
677.000000	0.014195
676.000000	0.014332
675.000000	0.014462
674.000000	0.014563
673.000000	0.014629
672.000000	0.014646
671.000000	0.014584
670.000000	0.014435
669.000000	0.014266
668.000000	0.014295
667.000000	0.014634
666.000000	0.014964
665.000000	0.015174
664.000000	0.015331
663.000000	0.015442
662.000000	0.015505
661.000000	0.015557
660.000000	0.015628
659.000000	0.015682
658.000000	0.015676
657.000000	0.015641
656.000000	0.015639
655.000000	0.015677
654.000000	0.015723
653.000000	0.015763
652.000000	0.015792
651.000000	0.015795
650.000000	0.015774
649.000000	0.015755
648.000000	0.015748
647.000000	0.015730
646.000000	0.015703
645.000000	0.015697
644.000000	0.015709
643.000000	0.015694
642.000000	0.015626
641.000000	0.015543
640.000000	0.015492
639.000000	0.015481
638.000000	0.015506
637.000000	0.015568
636.000000	0.015638
635.000000	0.015668
634.000000	0.015660
633.000000	0.015669
632.000000	0.015714
631.000000	0.015746
630.000000	0.015737
629.000000	0.015743
628.000000	0.015821
627.000000	0.015941
626.000000	0.016037
625.000000	0.016092
624.000000	0.016115
623.000000	0.016091
622.000000	0.016016
621.000000	0.015936
620.000000	0.015904
619.000000	0.015912
618.000000	0.015920
617.000000	0.015922
616.000000	0.015940
615.000000	0.015969
614.000000	0.015993
613.000000	0.016020
612.000000	0.016058
611.000000	0.016079
610.000000	0.016065
609.000000	0.016046
608.000000	0.016058
607.000000	0.016077
606.000000	0.016065
605.000000	0.016038
604.000000	0.016037
603.000000	0.016043
602.000000	0.016011
601.000000	0.015947
600.000000	0.015912
599.000000	0.015940
598.000000	0.016001
597.000000	0.016059
596.000000	0.016104
595.000000	0.016138
594.000000	0.016165
593.000000	0.016202
592.000000	0.016260
591.000000	0.016324
590.000000	0.016363
589.000000	0.016354
588.000000	0.016282
587.000000	0.016148
586.000000	0.016004
585.000000	0.015938
584.000000	0.015981
583.000000	0.016057
582.000000	0.016067
581.000000	0.015997
580.000000	0.015909
579.000000	0.015872
578.000000	0.015919
577.000000	0.016051
576.000000	0.016222
575.000000	0.016355
574.000000	0.016421
573.000000	0.016471
572.000000	0.016548
571.000000	0.016630
570.000000	0.016698
569.000000	0.016797
568.000000	0.016972
567.000000	0.017191
566.000000	0.017402
565.000000	0.017607
564.000000	0.017812
563.000000	0.017942
562.000000	0.017916
561.000000	0.017757
560.000000	0.017579
559.000000	0.017457
558.000000	0.017405
557.000000	0.017410
556.000000	0.017428
555.000000	0.017378
554.000000	0.017235
553.000000	0.017093
552.000000	0.017048
551.000000	0.017069
550.000000	0.017053
549.000000	0.016971
548.000000	0.016863
547.000000	0.016718
546.000000	0.016488
545.000000	0.016196
544.000000	0.015947
543.000000	0.015817
542.000000	0.015808
541.000000	0.015901
540.000000	0.016071
539.000000	0.016248
538.000000	0.016360
537.000000	0.016399
536.000000	0.016425
535.000000	0.016487
534.000000	0.016600
533.000000	0.016757
532.000000	0.016903
531.000000	0.016924
530.000000	0.016758
529.000000	0.016482
528.000000	0.016233
527.000000	0.016061
526.000000	0.015950
525.000000	0.015906
524.000000	0.015945
523.000000	0.015996
522.000000	0.015929
521.000000	0.015677
520.000000	0.015299
519.000000	0.014928
518.000000	0.014682
517.000000	0.014600
516.000000	0.014602
515.000000	0.014545
514.000000	0.014346
513.000000	0.014050
512.000000	0.013757
511.000000	0.013524
510.000000	0.013352
509.000000	0.013220
508.000000	0.013080
507.000000	0.012875
506.000000	0.012621
505.000000	0.012419
504.000000	0.012333
503.000000	0.012321
502.000000	0.012309
501.000000	0.012277
500.000000	0.012216
499.000000	0.012101
498.000000	0.011953
497.000000	0.011872
496.000000	0.011917
495.000000	0.012018
494.000000	0.012072
493.000000	0.012059
492.000000	0.012001
491.000000	0.011883
490.000000	0.011700
489.000000	0.011519
488.000000	0.011373
487.000000	0.011193
486.000000	0.010934
485.000000	0.010689
484.000000	0.010557
483.000000	0.010461
482.000000	0.010264
481.000000	0.009998
480.000000	0.009811
479.000000	0.009773
478.000000	0.009848
477.000000	0.010002
476.000000	0.010199
475.000000	0.010320
474.000000	0.010259
473.000000	0.010103
472.000000	0.010039
471.000000	0.010056
470.000000	0.009972
469.000000	0.009759
468.000000	0.009583
467.000000	0.009572
466.000000	0.009675
465.000000	0.009762
464.000000	0.009714
463.000000	0.009403
462.000000	0.008805
461.000000	0.008111
460.000000	0.007563
459.000000	0.007190
458.000000	0.006892
457.000000	0.006678
456.000000	0.006619
455.000000	0.006631
454.000000	0.006559
453.000000	0.006400
452.000000	0.006215
451.000000	0.006159
450.000000	0.006160
