PE IR       SUBTECH     SPECTRUM    ASCII       PEDS        4.00        
   -1
3S-N10-C006_1.ASC
22/02/18
11:39:53.00
22/02/18
11:50:45.00
uco
Sample 006 By uco Date Friday, February 18 2022
450.000000
#HDR
-1
-1
#GR
cm-1
A
1.0
0.0
4000.000000
-1.000000
3551
8
0.073061
-0.021628
#DATA
4000.000000	0.004374
3999.000000	0.004374
3998.000000	0.004357
3997.000000	0.004364
3996.000000	0.004380
3995.000000	0.004400
3994.000000	0.004415
3993.000000	0.004414
3992.000000	0.004396
3991.000000	0.004368
3990.000000	0.004346
3989.000000	0.004340
3988.000000	0.004352
3987.000000	0.004375
3986.000000	0.004398
3985.000000	0.004414
3984.000000	0.004421
3983.000000	0.004423
3982.000000	0.004424
3981.000000	0.004429
3980.000000	0.004439
3979.000000	0.004449
3978.000000	0.004456
3977.000000	0.004462
3976.000000	0.004468
3975.000000	0.004475
3974.000000	0.004478
3973.000000	0.004473
3972.000000	0.004461
3971.000000	0.004449
3970.000000	0.004442
3969.000000	0.004442
3968.000000	0.004444
3967.000000	0.004439
3966.000000	0.004426
3965.000000	0.004411
3964.000000	0.004404
3963.000000	0.004408
3962.000000	0.004420
3961.000000	0.004433
3960.000000	0.004440
3959.000000	0.004444
3958.000000	0.004448
3957.000000	0.004456
3956.000000	0.004470
3955.000000	0.004488
3954.000000	0.004513
3953.000000	0.004545
3952.000000	0.004580
3951.000000	0.004608
3950.000000	0.004617
3949.000000	0.004609
3948.000000	0.004596
3947.000000	0.004590
3946.000000	0.004597
3945.000000	0.004607
3944.000000	0.004603
3943.000000	0.004580
3942.000000	0.004546
3941.000000	0.004513
3940.000000	0.004489
3939.000000	0.004470
3938.000000	0.004453
3937.000000	0.004444
3936.000000	0.004451
3935.000000	0.004477
3934.000000	0.004517
3933.000000	0.004556
3932.000000	0.004585
3931.000000	0.004602
3930.000000	0.004605
3929.000000	0.004598
3928.000000	0.004586
3927.000000	0.004576
3926.000000	0.004567
3925.000000	0.004555
3924.000000	0.004540
3923.000000	0.004530
3922.000000	0.004530
3921.000000	0.004539
3920.000000	0.004548
3919.000000	0.004555
3918.000000	0.004560
3917.000000	0.004563
3916.000000	0.004566
3915.000000	0.004567
3914.000000	0.004565
3913.000000	0.004559
3912.000000	0.004551
3911.000000	0.004544
3910.000000	0.004539
3909.000000	0.004529
3908.000000	0.004512
3907.000000	0.004492
3906.000000	0.004484
3905.000000	0.004497
3904.000000	0.004529
3903.000000	0.004564
3902.000000	0.004586
3901.000000	0.004594
3900.000000	0.004594
3899.000000	0.004596
3898.000000	0.004606
3897.000000	0.004622
3896.000000	0.004633
3895.000000	0.004631
3894.000000	0.004616
3893.000000	0.004596
3892.000000	0.004581
3891.000000	0.004573
3890.000000	0.004571
3889.000000	0.004573
3888.000000	0.004576
3887.000000	0.004573
3886.000000	0.004559
3885.000000	0.004543
3884.000000	0.004538
3883.000000	0.004546
3882.000000	0.004552
3881.000000	0.004547
3880.000000	0.004537
3879.000000	0.004537
3878.000000	0.004559
3877.000000	0.004599
3876.000000	0.004637
3875.000000	0.004650
3874.000000	0.004635
3873.000000	0.004609
3872.000000	0.004599
3871.000000	0.004602
3870.000000	0.004598
3869.000000	0.004578
3868.000000	0.004557
3867.000000	0.004548
3866.000000	0.004544
3865.000000	0.004536
3864.000000	0.004530
3863.000000	0.004531
3862.000000	0.004535
3861.000000	0.004535
3860.000000	0.004535
3859.000000	0.004541
3858.000000	0.004557
3857.000000	0.004578
3856.000000	0.004597
3855.000000	0.004609
3854.000000	0.004622
3853.000000	0.004642
3852.000000	0.004663
3851.000000	0.004676
3850.000000	0.004681
3849.000000	0.004677
3848.000000	0.004666
3847.000000	0.004654
3846.000000	0.004643
3845.000000	0.004629
3844.000000	0.004608
3843.000000	0.004578
3842.000000	0.004550
3841.000000	0.004534
3840.000000	0.004530
3839.000000	0.004528
3838.000000	0.004522
3837.000000	0.004515
3836.000000	0.004513
3835.000000	0.004521
3834.000000	0.004533
3833.000000	0.004538
3832.000000	0.004528
3831.000000	0.004511
3830.000000	0.004502
3829.000000	0.004507
3828.000000	0.004520
3827.000000	0.004524
3826.000000	0.004509
3825.000000	0.004482
3824.000000	0.004458
3823.000000	0.004443
3822.000000	0.004432
3821.000000	0.004424
3820.000000	0.004426
3819.000000	0.004446
3818.000000	0.004478
3817.000000	0.004504
3816.000000	0.004514
3815.000000	0.004520
3814.000000	0.004539
3813.000000	0.004567
3812.000000	0.004585
3811.000000	0.004580
3810.000000	0.004558
3809.000000	0.004528
3808.000000	0.004500
3807.000000	0.004474
3806.000000	0.004460
3805.000000	0.004465
3804.000000	0.004492
3803.000000	0.004524
3802.000000	0.004539
3801.000000	0.004535
3800.000000	0.004530
3799.000000	0.004537
3798.000000	0.004555
3797.000000	0.004570
3796.000000	0.004570
3795.000000	0.004556
3794.000000	0.004535
3793.000000	0.004514
3792.000000	0.004495
3791.000000	0.004479
3790.000000	0.004463
3789.000000	0.004445
3788.000000	0.004427
3787.000000	0.004418
3786.000000	0.004420
3785.000000	0.004428
3784.000000	0.004431
3783.000000	0.004426
3782.000000	0.004415
3781.000000	0.004400
3780.000000	0.004389
3779.000000	0.004394
3778.000000	0.004417
3777.000000	0.004445
3776.000000	0.004456
3775.000000	0.004437
3774.000000	0.004399
3773.000000	0.004372
3772.000000	0.004371
3771.000000	0.004390
3770.000000	0.004410
3769.000000	0.004424
3768.000000	0.004438
3767.000000	0.004455
3766.000000	0.004464
3765.000000	0.004455
3764.000000	0.004428
3763.000000	0.004392
3762.000000	0.004359
3761.000000	0.004334
3760.000000	0.004329
3759.000000	0.004351
3758.000000	0.004393
3757.000000	0.004436
3756.000000	0.004473
3755.000000	0.004508
3754.000000	0.004535
3753.000000	0.004545
3752.000000	0.004539
3751.000000	0.004534
3750.000000	0.004536
3749.000000	0.004530
3748.000000	0.004519
3747.000000	0.004520
3746.000000	0.004542
3745.000000	0.004566
3744.000000	0.004575
3743.000000	0.004572
3742.000000	0.004567
3741.000000	0.004561
3740.000000	0.004550
3739.000000	0.004537
3738.000000	0.004526
3737.000000	0.004509
3736.000000	0.004475
3735.000000	0.004430
3734.000000	0.004401
3733.000000	0.004395
3732.000000	0.004398
3731.000000	0.004398
3730.000000	0.004395
3729.000000	0.004398
3728.000000	0.004407
3727.000000	0.004417
3726.000000	0.004428
3725.000000	0.004442
3724.000000	0.004454
3723.000000	0.004452
3722.000000	0.004438
3721.000000	0.004423
3720.000000	0.004414
3719.000000	0.004407
3718.000000	0.004393
3717.000000	0.004374
3716.000000	0.004362
3715.000000	0.004369
3714.000000	0.004393
3713.000000	0.004417
3712.000000	0.004425
3711.000000	0.004415
3710.000000	0.004402
3709.000000	0.004398
3708.000000	0.004401
3707.000000	0.004399
3706.000000	0.004389
3705.000000	0.004376
3704.000000	0.004367
3703.000000	0.004365
3702.000000	0.004367
3701.000000	0.004365
3700.000000	0.004358
3699.000000	0.004352
3698.000000	0.004355
3697.000000	0.004368
3696.000000	0.004387
3695.000000	0.004407
3694.000000	0.004421
3693.000000	0.004421
3692.000000	0.004410
3691.000000	0.004401
3690.000000	0.004414
3689.000000	0.004455
3688.000000	0.004511
3687.000000	0.004560
3686.000000	0.004589
3685.000000	0.004593
3684.000000	0.004573
3683.000000	0.004540
3682.000000	0.004514
3681.000000	0.004510
3680.000000	0.004530
3679.000000	0.004573
3678.000000	0.004640
3677.000000	0.004719
3676.000000	0.004770
3675.000000	0.004772
3674.000000	0.004752
3673.000000	0.004743
3672.000000	0.004754
3671.000000	0.004770
3670.000000	0.004776
3669.000000	0.004780
3668.000000	0.004792
3667.000000	0.004816
3666.000000	0.004853
3665.000000	0.004895
3664.000000	0.004937
3663.000000	0.004969
3662.000000	0.004988
3661.000000	0.004992
3660.000000	0.004983
3659.000000	0.004967
3658.000000	0.004957
3657.000000	0.004973
3656.000000	0.005028
3655.000000	0.005113
3654.000000	0.005213
3653.000000	0.005315
3652.000000	0.005416
3651.000000	0.005507
3650.000000	0.005581
3649.000000	0.005626
3648.000000	0.005639
3647.000000	0.005632
3646.000000	0.005632
3645.000000	0.005652
3644.000000	0.005691
3643.000000	0.005737
3642.000000	0.005783
3641.000000	0.005824
3640.000000	0.005860
3639.000000	0.005890
3638.000000	0.005919
3637.000000	0.005960
3636.000000	0.006022
3635.000000	0.006094
3634.000000	0.006152
3633.000000	0.006188
3632.000000	0.006216
3631.000000	0.006262
3630.000000	0.006341
3629.000000	0.006439
3628.000000	0.006524
3627.000000	0.006587
3626.000000	0.006633
3625.000000	0.006676
3624.000000	0.006715
3623.000000	0.006743
3622.000000	0.006753
3621.000000	0.006754
3620.000000	0.006768
3619.000000	0.006822
3618.000000	0.006918
3617.000000	0.007028
3616.000000	0.007122
3615.000000	0.007183
3614.000000	0.007213
3613.000000	0.007234
3612.000000	0.007271
3611.000000	0.007337
3610.000000	0.007422
3609.000000	0.007500
3608.000000	0.007554
3607.000000	0.007594
3606.000000	0.007643
3605.000000	0.007717
3604.000000	0.007810
3603.000000	0.007907
3602.000000	0.007990
3601.000000	0.008054
3600.000000	0.008108
3599.000000	0.008168
3598.000000	0.008239
3597.000000	0.008316
3596.000000	0.008391
3595.000000	0.008460
3594.000000	0.008524
3593.000000	0.008590
3592.000000	0.008657
3591.000000	0.008725
3590.000000	0.008795
3589.000000	0.008867
3588.000000	0.008950
3587.000000	0.009046
3586.000000	0.009148
3585.000000	0.009237
3584.000000	0.009300
3583.000000	0.009341
3582.000000	0.009379
3581.000000	0.009427
3580.000000	0.009492
3579.000000	0.009574
3578.000000	0.009674
3577.000000	0.009789
3576.000000	0.009908
3575.000000	0.010017
3574.000000	0.010109
3573.000000	0.010189
3572.000000	0.010267
3571.000000	0.010350
3570.000000	0.010440
3569.000000	0.010532
3568.000000	0.010615
3567.000000	0.010688
3566.000000	0.010763
3565.000000	0.010853
3564.000000	0.010956
3563.000000	0.011059
3562.000000	0.011148
3561.000000	0.011224
3560.000000	0.011297
3559.000000	0.011381
3558.000000	0.011481
3557.000000	0.011588
3556.000000	0.011688
3555.000000	0.011775
3554.000000	0.011855
3553.000000	0.011940
3552.000000	0.012033
3551.000000	0.012125
3550.000000	0.012209
3549.000000	0.012288
3548.000000	0.012377
3547.000000	0.012484
3546.000000	0.012607
3545.000000	0.012726
3544.000000	0.012821
3543.000000	0.012888
3542.000000	0.012938
3541.000000	0.012994
3540.000000	0.013073
3539.000000	0.013184
3538.000000	0.013312
3537.000000	0.013432
3536.000000	0.013524
3535.000000	0.013586
3534.000000	0.013638
3533.000000	0.013702
3532.000000	0.013790
3531.000000	0.013898
3530.000000	0.014020
3529.000000	0.014150
3528.000000	0.014284
3527.000000	0.014416
3526.000000	0.014532
3525.000000	0.014621
3524.000000	0.014679
3523.000000	0.014720
3522.000000	0.014766
3521.000000	0.014832
3520.000000	0.014922
3519.000000	0.015028
3518.000000	0.015139
3517.000000	0.015246
3516.000000	0.015336
3515.000000	0.015403
3514.000000	0.015456
3513.000000	0.015515
3512.000000	0.015604
3511.000000	0.015724
3510.000000	0.015854
3509.000000	0.015961
3508.000000	0.016032
3507.000000	0.016076
3506.000000	0.016121
3505.000000	0.016190
3504.000000	0.016288
3503.000000	0.016405
3502.000000	0.016524
3501.000000	0.016628
3500.000000	0.016710
3499.000000	0.016770
3498.000000	0.016817
3497.000000	0.016863
3496.000000	0.016919
3495.000000	0.016991
3494.000000	0.017076
3493.000000	0.017161
3492.000000	0.017234
3491.000000	0.017288
3490.000000	0.017332
3489.000000	0.017381
3488.000000	0.017442
3487.000000	0.017512
3486.000000	0.017585
3485.000000	0.017653
3484.000000	0.017716
3483.000000	0.017776
3482.000000	0.017842
3481.000000	0.017917
3480.000000	0.017992
3479.000000	0.018058
3478.000000	0.018112
3477.000000	0.018164
3476.000000	0.018226
3475.000000	0.018305
3474.000000	0.018394
3473.000000	0.018481
3472.000000	0.018559
3471.000000	0.018633
3470.000000	0.018715
3469.000000	0.018810
3468.000000	0.018911
3467.000000	0.019003
3466.000000	0.019073
3465.000000	0.019122
3464.000000	0.019161
3463.000000	0.019208
3462.000000	0.019273
3461.000000	0.019356
3460.000000	0.019446
3459.000000	0.019534
3458.000000	0.019613
3457.000000	0.019680
3456.000000	0.019735
3455.000000	0.019785
3454.000000	0.019844
3453.000000	0.019920
3452.000000	0.020008
3451.000000	0.020099
3450.000000	0.020188
3449.000000	0.020279
3448.000000	0.020376
3447.000000	0.020474
3446.000000	0.020567
3445.000000	0.020648
3444.000000	0.020716
3443.000000	0.020775
3442.000000	0.020840
3441.000000	0.020917
3440.000000	0.021007
3439.000000	0.021098
3438.000000	0.021186
3437.000000	0.021267
3436.000000	0.021343
3435.000000	0.021413
3434.000000	0.021477
3433.000000	0.021541
3432.000000	0.021607
3431.000000	0.021675
3430.000000	0.021742
3429.000000	0.021808
3428.000000	0.021880
3427.000000	0.021965
3426.000000	0.022059
3425.000000	0.022149
3424.000000	0.022229
3423.000000	0.022302
3422.000000	0.022382
3421.000000	0.022475
3420.000000	0.022572
3419.000000	0.022662
3418.000000	0.022741
3417.000000	0.022816
3416.000000	0.022894
3415.000000	0.022974
3414.000000	0.023051
3413.000000	0.023123
3412.000000	0.023192
3411.000000	0.023264
3410.000000	0.023342
3409.000000	0.023427
3408.000000	0.023512
3407.000000	0.023589
3406.000000	0.023650
3405.000000	0.023697
3404.000000	0.023738
3403.000000	0.023788
3402.000000	0.023858
3401.000000	0.023952
3400.000000	0.024064
3399.000000	0.024181
3398.000000	0.024287
3397.000000	0.024369
3396.000000	0.024424
3395.000000	0.024461
3394.000000	0.024496
3393.000000	0.024539
3392.000000	0.024592
3391.000000	0.024653
3390.000000	0.024722
3389.000000	0.024800
3388.000000	0.024892
3387.000000	0.024996
3386.000000	0.025105
3385.000000	0.025209
3384.000000	0.025301
3383.000000	0.025384
3382.000000	0.025464
3381.000000	0.025546
3380.000000	0.025630
3379.000000	0.025718
3378.000000	0.025810
3377.000000	0.025902
3376.000000	0.025992
3375.000000	0.026081
3374.000000	0.026178
3373.000000	0.026285
3372.000000	0.026391
3371.000000	0.026488
3370.000000	0.026574
3369.000000	0.026656
3368.000000	0.026741
3367.000000	0.026837
3366.000000	0.026949
3365.000000	0.027076
3364.000000	0.027207
3363.000000	0.027336
3362.000000	0.027465
3361.000000	0.027597
3360.000000	0.027731
3359.000000	0.027859
3358.000000	0.027983
3357.000000	0.028107
3356.000000	0.028234
3355.000000	0.028359
3354.000000	0.028480
3353.000000	0.028604
3352.000000	0.028742
3351.000000	0.028897
3350.000000	0.029062
3349.000000	0.029222
3348.000000	0.029366
3347.000000	0.029493
3346.000000	0.029611
3345.000000	0.029723
3344.000000	0.029831
3343.000000	0.029934
3342.000000	0.030034
3341.000000	0.030136
3340.000000	0.030245
3339.000000	0.030366
3338.000000	0.030499
3337.000000	0.030638
3336.000000	0.030773
3335.000000	0.030897
3334.000000	0.031013
3333.000000	0.031131
3332.000000	0.031253
3331.000000	0.031379
3330.000000	0.031499
3329.000000	0.031609
3328.000000	0.031710
3327.000000	0.031809
3326.000000	0.031910
3325.000000	0.032013
3324.000000	0.032111
3323.000000	0.032200
3322.000000	0.032284
3321.000000	0.032368
3320.000000	0.032458
3319.000000	0.032555
3318.000000	0.032654
3317.000000	0.032749
3316.000000	0.032838
3315.000000	0.032927
3314.000000	0.033017
3313.000000	0.033104
3312.000000	0.033176
3311.000000	0.033230
3310.000000	0.033273
3309.000000	0.033315
3308.000000	0.033360
3307.000000	0.033414
3306.000000	0.033481
3305.000000	0.033559
3304.000000	0.033645
3303.000000	0.033733
3302.000000	0.033824
3301.000000	0.033912
3300.000000	0.033985
3299.000000	0.034031
3298.000000	0.034054
3297.000000	0.034068
3296.000000	0.034086
3295.000000	0.034114
3294.000000	0.034153
3293.000000	0.034195
3292.000000	0.034230
3291.000000	0.034254
3290.000000	0.034277
3289.000000	0.034313
3288.000000	0.034363
3287.000000	0.034406
3286.000000	0.034423
3285.000000	0.034418
3284.000000	0.034408
3283.000000	0.034414
3282.000000	0.034441
3281.000000	0.034472
3280.000000	0.034487
3279.000000	0.034469
3278.000000	0.034423
3277.000000	0.034364
3276.000000	0.034314
3275.000000	0.034279
3274.000000	0.034247
3273.000000	0.034202
3272.000000	0.034139
3271.000000	0.034070
3270.000000	0.034009
3269.000000	0.033960
3268.000000	0.033917
3267.000000	0.033870
3266.000000	0.033815
3265.000000	0.033751
3264.000000	0.033681
3263.000000	0.033609
3262.000000	0.033545
3261.000000	0.033490
3260.000000	0.033441
3259.000000	0.033389
3258.000000	0.033324
3257.000000	0.033240
3256.000000	0.033141
3255.000000	0.033045
3254.000000	0.032970
3253.000000	0.032915
3252.000000	0.032859
3251.000000	0.032780
3250.000000	0.032675
3249.000000	0.032561
3248.000000	0.032458
3247.000000	0.032379
3246.000000	0.032329
3245.000000	0.032295
3244.000000	0.032260
3243.000000	0.032210
3242.000000	0.032139
3241.000000	0.032052
3240.000000	0.031956
3239.000000	0.031860
3238.000000	0.031779
3237.000000	0.031716
3236.000000	0.031665
3235.000000	0.031614
3234.000000	0.031557
3233.000000	0.031498
3232.000000	0.031445
3231.000000	0.031402
3230.000000	0.031366
3229.000000	0.031329
3228.000000	0.031286
3227.000000	0.031238
3226.000000	0.031191
3225.000000	0.031145
3224.000000	0.031092
3223.000000	0.031033
3222.000000	0.030973
3221.000000	0.030916
3220.000000	0.030857
3219.000000	0.030789
3218.000000	0.030716
3217.000000	0.030650
3216.000000	0.030594
3215.000000	0.030544
3214.000000	0.030492
3213.000000	0.030434
3212.000000	0.030371
3211.000000	0.030306
3210.000000	0.030244
3209.000000	0.030184
3208.000000	0.030123
3207.000000	0.030057
3206.000000	0.029986
3205.000000	0.029914
3204.000000	0.029844
3203.000000	0.029776
3202.000000	0.029707
3201.000000	0.029635
3200.000000	0.029555
3199.000000	0.029471
3198.000000	0.029392
3197.000000	0.029324
3196.000000	0.029261
3195.000000	0.029191
3194.000000	0.029109
3193.000000	0.029021
3192.000000	0.028939
3191.000000	0.028870
3190.000000	0.028815
3189.000000	0.028766
3188.000000	0.028703
3187.000000	0.028609
3186.000000	0.028484
3185.000000	0.028346
3184.000000	0.028216
3183.000000	0.028112
3182.000000	0.028034
3181.000000	0.027974
3180.000000	0.027913
3179.000000	0.027836
3178.000000	0.027735
3177.000000	0.027618
3176.000000	0.027497
3175.000000	0.027383
3174.000000	0.027276
3173.000000	0.027171
3172.000000	0.027062
3171.000000	0.026949
3170.000000	0.026839
3169.000000	0.026739
3168.000000	0.026651
3167.000000	0.026573
3166.000000	0.026502
3165.000000	0.026436
3164.000000	0.026367
3163.000000	0.026291
3162.000000	0.026205
3161.000000	0.026114
3160.000000	0.026026
3159.000000	0.025939
3158.000000	0.025848
3157.000000	0.025752
3156.000000	0.025650
3155.000000	0.025547
3154.000000	0.025448
3153.000000	0.025358
3152.000000	0.025275
3151.000000	0.025191
3150.000000	0.025101
3149.000000	0.025011
3148.000000	0.024933
3147.000000	0.024872
3146.000000	0.024816
3145.000000	0.024750
3144.000000	0.024669
3143.000000	0.024586
3142.000000	0.024510
3141.000000	0.024442
3140.000000	0.024377
3139.000000	0.024315
3138.000000	0.024256
3137.000000	0.024193
3136.000000	0.024120
3135.000000	0.024034
3134.000000	0.023950
3133.000000	0.023882
3132.000000	0.023837
3131.000000	0.023808
3130.000000	0.023784
3129.000000	0.023753
3128.000000	0.023713
3127.000000	0.023670
3126.000000	0.023630
3125.000000	0.023599
3124.000000	0.023570
3123.000000	0.023533
3122.000000	0.023478
3121.000000	0.023407
3120.000000	0.023339
3119.000000	0.023294
3118.000000	0.023277
3117.000000	0.023278
3116.000000	0.023279
3115.000000	0.023274
3114.000000	0.023263
3113.000000	0.023251
3112.000000	0.023240
3111.000000	0.023232
3110.000000	0.023231
3109.000000	0.023239
3108.000000	0.023260
3107.000000	0.023296
3106.000000	0.023345
3105.000000	0.023391
3104.000000	0.023416
3103.000000	0.023413
3102.000000	0.023399
3101.000000	0.023396
3100.000000	0.023415
3099.000000	0.023451
3098.000000	0.023487
3097.000000	0.023515
3096.000000	0.023533
3095.000000	0.023547
3094.000000	0.023565
3093.000000	0.023590
3092.000000	0.023618
3091.000000	0.023638
3090.000000	0.023647
3089.000000	0.023649
3088.000000	0.023657
3087.000000	0.023674
3086.000000	0.023700
3085.000000	0.023732
3084.000000	0.023767
3083.000000	0.023803
3082.000000	0.023836
3081.000000	0.023858
3080.000000	0.023866
3079.000000	0.023861
3078.000000	0.023849
3077.000000	0.023842
3076.000000	0.023846
3075.000000	0.023861
3074.000000	0.023884
3073.000000	0.023903
3072.000000	0.023907
3071.000000	0.023892
3070.000000	0.023861
3069.000000	0.023823
3068.000000	0.023785
3067.000000	0.023753
3066.000000	0.023728
3065.000000	0.023704
3064.000000	0.023673
3063.000000	0.023631
3062.000000	0.023578
3061.000000	0.023515
3060.000000	0.023444
3059.000000	0.023367
3058.000000	0.023285
3057.000000	0.023199
3056.000000	0.023108
3055.000000	0.023013
3054.000000	0.022915
3053.000000	0.022815
3052.000000	0.022723
3051.000000	0.022642
3050.000000	0.022567
3049.000000	0.022483
3048.000000	0.022378
3047.000000	0.022258
3046.000000	0.022138
3045.000000	0.022028
3044.000000	0.021928
3043.000000	0.021835
3042.000000	0.021752
3041.000000	0.021684
3040.000000	0.021625
3039.000000	0.021563
3038.000000	0.021479
3037.000000	0.021368
3036.000000	0.021235
3035.000000	0.021099
3034.000000	0.020979
3033.000000	0.020881
3032.000000	0.020790
3031.000000	0.020691
3030.000000	0.020581
3029.000000	0.020472
3028.000000	0.020368
3027.000000	0.020256
3026.000000	0.020120
3025.000000	0.019963
3024.000000	0.019807
3023.000000	0.019668
3022.000000	0.019539
3021.000000	0.019399
3020.000000	0.019232
3019.000000	0.019044
3018.000000	0.018851
3017.000000	0.018665
3016.000000	0.018486
3015.000000	0.018308
3014.000000	0.018128
3013.000000	0.017948
3012.000000	0.017771
3011.000000	0.017599
3010.000000	0.017432
3009.000000	0.017278
3008.000000	0.017153
3007.000000	0.017066
3006.000000	0.017015
3005.000000	0.016986
3004.000000	0.016970
3003.000000	0.016970
3002.000000	0.016990
3001.000000	0.017031
3000.000000	0.017089
2999.000000	0.017165
2998.000000	0.017257
2997.000000	0.017355
2996.000000	0.017447
2995.000000	0.017526
2994.000000	0.017596
2993.000000	0.017659
2992.000000	0.017709
2991.000000	0.017739
2990.000000	0.017754
2989.000000	0.017769
2988.000000	0.017794
2987.000000	0.017828
2986.000000	0.017858
2985.000000	0.017869
2984.000000	0.017853
2983.000000	0.017819
2982.000000	0.017784
2981.000000	0.017752
2980.000000	0.017705
2979.000000	0.017622
2978.000000	0.017496
2977.000000	0.017345
2976.000000	0.017187
2975.000000	0.017021
2974.000000	0.016830
2973.000000	0.016595
2972.000000	0.016313
2971.000000	0.015990
2970.000000	0.015636
2969.000000	0.015256
2968.000000	0.014858
2967.000000	0.014448
2966.000000	0.014031
2965.000000	0.013609
2964.000000	0.013179
2963.000000	0.012745
2962.000000	0.012315
2961.000000	0.011900
2960.000000	0.011509
2959.000000	0.011149
2958.000000	0.010825
2957.000000	0.010545
2956.000000	0.010309
2955.000000	0.010114
2954.000000	0.009958
2953.000000	0.009840
2952.000000	0.009749
2951.000000	0.009663
2950.000000	0.009547
2949.000000	0.009367
2948.000000	0.009105
2947.000000	0.008755
2946.000000	0.008320
2945.000000	0.007802
2944.000000	0.007206
2943.000000	0.006544
2942.000000	0.005823
2941.000000	0.005029
2940.000000	0.004137
2939.000000	0.003133
2938.000000	0.002033
2937.000000	0.000873
2936.000000	-0.000322
2935.000000	-0.001540
2934.000000	-0.002779
2933.000000	-0.004030
2932.000000	-0.005278
2931.000000	-0.006503
2930.000000	-0.007677
2929.000000	-0.008762
2928.000000	-0.009723
2927.000000	-0.010521
2926.000000	-0.011117
2925.000000	-0.011459
2924.000000	-0.011500
2923.000000	-0.011211
2922.000000	-0.010590
2921.000000	-0.009665
2920.000000	-0.008486
2919.000000	-0.007125
2918.000000	-0.005668
2917.000000	-0.004208
2916.000000	-0.002834
2915.000000	-0.001610
2914.000000	-0.000556
2913.000000	0.000354
2912.000000	0.001163
2911.000000	0.001905
2910.000000	0.002598
2909.000000	0.003247
2908.000000	0.003852
2907.000000	0.004414
2906.000000	0.004937
2905.000000	0.005432
2904.000000	0.005911
2903.000000	0.006379
2902.000000	0.006834
2901.000000	0.007272
2900.000000	0.007689
2899.000000	0.008087
2898.000000	0.008468
2897.000000	0.008841
2896.000000	0.009213
2895.000000	0.009583
2894.000000	0.009942
2893.000000	0.010284
2892.000000	0.010616
2891.000000	0.010950
2890.000000	0.011292
2889.000000	0.011628
2888.000000	0.011941
2887.000000	0.012217
2886.000000	0.012453
2885.000000	0.012651
2884.000000	0.012812
2883.000000	0.012936
2882.000000	0.013023
2881.000000	0.013070
2880.000000	0.013070
2879.000000	0.013008
2878.000000	0.012866
2877.000000	0.012638
2876.000000	0.012343
2875.000000	0.012015
2874.000000	0.011683
2873.000000	0.011366
2872.000000	0.011069
2871.000000	0.010787
2870.000000	0.010500
2869.000000	0.010175
2868.000000	0.009777
2867.000000	0.009276
2866.000000	0.008644
2865.000000	0.007863
2864.000000	0.006924
2863.000000	0.005829
2862.000000	0.004598
2861.000000	0.003260
2860.000000	0.001857
2859.000000	0.000446
2858.000000	-0.000908
2857.000000	-0.002122
2856.000000	-0.003097
2855.000000	-0.003717
2854.000000	-0.003875
2853.000000	-0.003508
2852.000000	-0.002641
2851.000000	-0.001388
2850.000000	0.000082
2849.000000	0.001612
2848.000000	0.003107
2847.000000	0.004537
2846.000000	0.005897
2845.000000	0.007171
2844.000000	0.008330
2843.000000	0.009348
2842.000000	0.010217
2841.000000	0.010944
2840.000000	0.011545
2839.000000	0.012044
2838.000000	0.012465
2837.000000	0.012827
2836.000000	0.013140
2835.000000	0.013412
2834.000000	0.013645
2833.000000	0.013843
2832.000000	0.014009
2831.000000	0.014153
2830.000000	0.014289
2829.000000	0.014420
2828.000000	0.014541
2827.000000	0.014644
2826.000000	0.014722
2825.000000	0.014781
2824.000000	0.014830
2823.000000	0.014881
2822.000000	0.014941
2821.000000	0.015005
2820.000000	0.015062
2819.000000	0.015108
2818.000000	0.015147
2817.000000	0.015180
2816.000000	0.015206
2815.000000	0.015221
2814.000000	0.015228
2813.000000	0.015230
2812.000000	0.015231
2811.000000	0.015235
2810.000000	0.015252
2809.000000	0.015280
2808.000000	0.015305
2807.000000	0.015308
2806.000000	0.015292
2805.000000	0.015271
2804.000000	0.015256
2803.000000	0.015249
2802.000000	0.015241
2801.000000	0.015231
2800.000000	0.015217
2799.000000	0.015203
2798.000000	0.015191
2797.000000	0.015185
2796.000000	0.015183
2795.000000	0.015177
2794.000000	0.015159
2793.000000	0.015132
2792.000000	0.015102
2791.000000	0.015080
2790.000000	0.015073
2789.000000	0.015075
2788.000000	0.015075
2787.000000	0.015064
2786.000000	0.015041
2785.000000	0.015012
2784.000000	0.014986
2783.000000	0.014967
2782.000000	0.014955
2781.000000	0.014943
2780.000000	0.014925
2779.000000	0.014903
2778.000000	0.014882
2777.000000	0.014867
2776.000000	0.014852
2775.000000	0.014828
2774.000000	0.014796
2773.000000	0.014764
2772.000000	0.014740
2771.000000	0.014723
2770.000000	0.014708
2769.000000	0.014692
2768.000000	0.014677
2767.000000	0.014666
2766.000000	0.014657
2765.000000	0.014644
2764.000000	0.014621
2763.000000	0.014592
2762.000000	0.014562
2761.000000	0.014538
2760.000000	0.014521
2759.000000	0.014504
2758.000000	0.014475
2757.000000	0.014433
2756.000000	0.014383
2755.000000	0.014341
2754.000000	0.014314
2753.000000	0.014299
2752.000000	0.014287
2751.000000	0.014274
2750.000000	0.014264
2749.000000	0.014259
2748.000000	0.014258
2747.000000	0.014253
2746.000000	0.014241
2745.000000	0.014221
2744.000000	0.014196
2743.000000	0.014165
2742.000000	0.014126
2741.000000	0.014086
2740.000000	0.014051
2739.000000	0.014027
2738.000000	0.014013
2737.000000	0.013998
2736.000000	0.013973
2735.000000	0.013941
2734.000000	0.013912
2733.000000	0.013893
2732.000000	0.013885
2731.000000	0.013880
2730.000000	0.013868
2729.000000	0.013847
2728.000000	0.013818
2727.000000	0.013786
2726.000000	0.013755
2725.000000	0.013724
2724.000000	0.013690
2723.000000	0.013654
2722.000000	0.013621
2721.000000	0.013593
2720.000000	0.013567
2719.000000	0.013539
2718.000000	0.013509
2717.000000	0.013485
2716.000000	0.013471
2715.000000	0.013464
2714.000000	0.013455
2713.000000	0.013440
2712.000000	0.013420
2711.000000	0.013398
2710.000000	0.013377
2709.000000	0.013356
2708.000000	0.013338
2707.000000	0.013323
2706.000000	0.013313
2705.000000	0.013304
2704.000000	0.013292
2703.000000	0.013272
2702.000000	0.013247
2701.000000	0.013220
2700.000000	0.013193
2699.000000	0.013168
2698.000000	0.013143
2697.000000	0.013118
2696.000000	0.013092
2695.000000	0.013072
2694.000000	0.013060
2693.000000	0.013057
2692.000000	0.013054
2691.000000	0.013049
2690.000000	0.013039
2689.000000	0.013031
2688.000000	0.013028
2687.000000	0.013025
2686.000000	0.013016
2685.000000	0.012994
2684.000000	0.012962
2683.000000	0.012928
2682.000000	0.012902
2681.000000	0.012889
2680.000000	0.012884
2679.000000	0.012875
2678.000000	0.012855
2677.000000	0.012827
2676.000000	0.012805
2675.000000	0.012803
2674.000000	0.012818
2673.000000	0.012835
2672.000000	0.012842
2671.000000	0.012835
2670.000000	0.012818
2669.000000	0.012792
2668.000000	0.012763
2667.000000	0.012744
2666.000000	0.012743
2665.000000	0.012754
2664.000000	0.012762
2663.000000	0.012758
2662.000000	0.012751
2661.000000	0.012750
2660.000000	0.012754
2659.000000	0.012754
2658.000000	0.012742
2657.000000	0.012720
2656.000000	0.012694
2655.000000	0.012672
2654.000000	0.012657
2653.000000	0.012646
2652.000000	0.012633
2651.000000	0.012611
2650.000000	0.012578
2649.000000	0.012539
2648.000000	0.012499
2647.000000	0.012471
2646.000000	0.012460
2645.000000	0.012458
2644.000000	0.012445
2643.000000	0.012409
2642.000000	0.012353
2641.000000	0.012294
2640.000000	0.012247
2639.000000	0.012217
2638.000000	0.012202
2637.000000	0.012195
2636.000000	0.012185
2635.000000	0.012162
2634.000000	0.012128
2633.000000	0.012091
2632.000000	0.012055
2631.000000	0.012023
2630.000000	0.011994
2629.000000	0.011971
2628.000000	0.011951
2627.000000	0.011924
2626.000000	0.011888
2625.000000	0.011852
2624.000000	0.011832
2623.000000	0.011838
2622.000000	0.011861
2621.000000	0.011888
2620.000000	0.011901
2619.000000	0.011888
2618.000000	0.011848
2617.000000	0.011795
2616.000000	0.011746
2615.000000	0.011711
2614.000000	0.011681
2613.000000	0.011646
2612.000000	0.011606
2611.000000	0.011577
2610.000000	0.011568
2609.000000	0.011574
2608.000000	0.011580
2607.000000	0.011581
2606.000000	0.011585
2605.000000	0.011593
2604.000000	0.011596
2603.000000	0.011581
2602.000000	0.011549
2601.000000	0.011516
2600.000000	0.011493
2599.000000	0.011474
2598.000000	0.011444
2597.000000	0.011398
2596.000000	0.011351
2595.000000	0.011320
2594.000000	0.011311
2593.000000	0.011316
2592.000000	0.011319
2591.000000	0.011312
2590.000000	0.011298
2589.000000	0.011286
2588.000000	0.011277
2587.000000	0.011268
2586.000000	0.011254
2585.000000	0.011229
2584.000000	0.011199
2583.000000	0.011175
2582.000000	0.011163
2581.000000	0.011162
2580.000000	0.011165
2579.000000	0.011166
2578.000000	0.011157
2577.000000	0.011128
2576.000000	0.011072
2575.000000	0.011002
2574.000000	0.010946
2573.000000	0.010927
2572.000000	0.010949
2571.000000	0.010995
2570.000000	0.011041
2569.000000	0.011067
2568.000000	0.011068
2567.000000	0.011052
2566.000000	0.011026
2565.000000	0.010992
2564.000000	0.010950
2563.000000	0.010907
2562.000000	0.010875
2561.000000	0.010862
2560.000000	0.010862
2559.000000	0.010864
2558.000000	0.010852
2557.000000	0.010823
2556.000000	0.010794
2555.000000	0.010793
2554.000000	0.010830
2553.000000	0.010884
2552.000000	0.010916
2551.000000	0.010907
2550.000000	0.010864
2549.000000	0.010806
2548.000000	0.010754
2547.000000	0.010729
2546.000000	0.010739
2545.000000	0.010768
2544.000000	0.010790
2543.000000	0.010790
2542.000000	0.010777
2541.000000	0.010762
2540.000000	0.010743
2539.000000	0.010719
2538.000000	0.010695
2537.000000	0.010676
2536.000000	0.010666
2535.000000	0.010667
2534.000000	0.010680
2533.000000	0.010694
2532.000000	0.010693
2531.000000	0.010675
2530.000000	0.010650
2529.000000	0.010626
2528.000000	0.010606
2527.000000	0.010597
2526.000000	0.010607
2525.000000	0.010634
2524.000000	0.010656
2523.000000	0.010660
2522.000000	0.010649
2521.000000	0.010630
2520.000000	0.010604
2519.000000	0.010577
2518.000000	0.010562
2517.000000	0.010569
2516.000000	0.010582
2515.000000	0.010589
2514.000000	0.010592
2513.000000	0.010603
2512.000000	0.010614
2511.000000	0.010610
2510.000000	0.010587
2509.000000	0.010559
2508.000000	0.010535
2507.000000	0.010518
2506.000000	0.010508
2505.000000	0.010505
2504.000000	0.010504
2503.000000	0.010491
2502.000000	0.010455
2501.000000	0.010401
2500.000000	0.010347
2499.000000	0.010316
2498.000000	0.010314
2497.000000	0.010326
2496.000000	0.010328
2495.000000	0.010319
2494.000000	0.010316
2493.000000	0.010322
2492.000000	0.010318
2491.000000	0.010285
2490.000000	0.010242
2489.000000	0.010219
2488.000000	0.010227
2487.000000	0.010251
2486.000000	0.010273
2485.000000	0.010284
2484.000000	0.010282
2483.000000	0.010266
2482.000000	0.010245
2481.000000	0.010230
2480.000000	0.010222
2479.000000	0.010220
2478.000000	0.010226
2477.000000	0.010242
2476.000000	0.010257
2475.000000	0.010255
2474.000000	0.010229
2473.000000	0.010192
2472.000000	0.010163
2471.000000	0.010161
2470.000000	0.010188
2469.000000	0.010229
2468.000000	0.010254
2467.000000	0.010247
2466.000000	0.010214
2465.000000	0.010170
2464.000000	0.010123
2463.000000	0.010080
2462.000000	0.010061
2461.000000	0.010075
2460.000000	0.010104
2459.000000	0.010117
2458.000000	0.010105
2457.000000	0.010089
2456.000000	0.010085
2455.000000	0.010088
2454.000000	0.010083
2453.000000	0.010070
2452.000000	0.010055
2451.000000	0.010047
2450.000000	0.010052
2449.000000	0.010066
2448.000000	0.010084
2447.000000	0.010094
2446.000000	0.010092
2445.000000	0.010078
2444.000000	0.010046
2443.000000	0.009993
2442.000000	0.009928
2441.000000	0.009881
2440.000000	0.009875
2439.000000	0.009906
2438.000000	0.009941
2437.000000	0.009950
2436.000000	0.009921
2435.000000	0.009868
2434.000000	0.009817
2433.000000	0.009791
2432.000000	0.009795
2431.000000	0.009821
2430.000000	0.009855
2429.000000	0.009883
2428.000000	0.009897
2427.000000	0.009898
2426.000000	0.009888
2425.000000	0.009870
2424.000000	0.009847
2423.000000	0.009828
2422.000000	0.009825
2421.000000	0.009837
2420.000000	0.009853
2419.000000	0.009862
2418.000000	0.009865
2417.000000	0.009865
2416.000000	0.009854
2415.000000	0.009827
2414.000000	0.009788
2413.000000	0.009745
2412.000000	0.009707
2411.000000	0.009674
2410.000000	0.009654
2409.000000	0.009655
2408.000000	0.009678
2407.000000	0.009719
2406.000000	0.009760
2405.000000	0.009783
2404.000000	0.009775
2403.000000	0.009748
2402.000000	0.009725
2401.000000	0.009719
2400.000000	0.009714
2399.000000	0.009694
2398.000000	0.009664
2397.000000	0.009641
2396.000000	0.009635
2395.000000	0.009645
2394.000000	0.009667
2393.000000	0.009703
2392.000000	0.009741
2391.000000	0.009764
2390.000000	0.009769
2389.000000	0.009766
2388.000000	0.009768
2387.000000	0.009777
2386.000000	0.009789
2385.000000	0.009797
2384.000000	0.009796
2383.000000	0.009789
2382.000000	0.009776
2381.000000	0.009755
2380.000000	0.009727
2379.000000	0.009709
2378.000000	0.009725
2377.000000	0.009777
2376.000000	0.009833
2375.000000	0.009853
2374.000000	0.009831
2373.000000	0.009796
2372.000000	0.009766
2371.000000	0.009751
2370.000000	0.009763
2369.000000	0.009817
2368.000000	0.009900
2367.000000	0.009979
2366.000000	0.010032
2365.000000	0.010055
2364.000000	0.010053
2363.000000	0.010024
2362.000000	0.009975
2361.000000	0.009926
2360.000000	0.009893
2359.000000	0.009878
2358.000000	0.009879
2357.000000	0.009894
2356.000000	0.009929
2355.000000	0.009980
2354.000000	0.010015
2353.000000	0.010007
2352.000000	0.009972
2351.000000	0.009955
2350.000000	0.009973
2349.000000	0.010013
2348.000000	0.010047
2347.000000	0.010050
2346.000000	0.010034
2345.000000	0.010033
2344.000000	0.010058
2343.000000	0.010069
2342.000000	0.010033
2341.000000	0.009973
2340.000000	0.009938
2339.000000	0.009954
2338.000000	0.009996
2337.000000	0.010029
2336.000000	0.010053
2335.000000	0.010083
2334.000000	0.010111
2333.000000	0.010115
2332.000000	0.010091
2331.000000	0.010059
2330.000000	0.010042
2329.000000	0.010050
2328.000000	0.010086
2327.000000	0.010149
2326.000000	0.010224
2325.000000	0.010277
2324.000000	0.010282
2323.000000	0.010236
2322.000000	0.010169
2321.000000	0.010119
2320.000000	0.010100
2319.000000	0.010090
2318.000000	0.010059
2317.000000	0.010000
2316.000000	0.009942
2315.000000	0.009917
2314.000000	0.009927
2313.000000	0.009944
2312.000000	0.009939
2311.000000	0.009911
2310.000000	0.009874
2309.000000	0.009836
2308.000000	0.009791
2307.000000	0.009739
2306.000000	0.009685
2305.000000	0.009637
2304.000000	0.009596
2303.000000	0.009564
2302.000000	0.009551
2301.000000	0.009562
2300.000000	0.009596
2299.000000	0.009642
2298.000000	0.009692
2297.000000	0.009728
2296.000000	0.009735
2295.000000	0.009706
2294.000000	0.009650
2293.000000	0.009584
2292.000000	0.009528
2291.000000	0.009495
2290.000000	0.009493
2289.000000	0.009517
2288.000000	0.009556
2287.000000	0.009616
2286.000000	0.009699
2285.000000	0.009780
2284.000000	0.009818
2283.000000	0.009794
2282.000000	0.009735
2281.000000	0.009681
2280.000000	0.009645
2279.000000	0.009627
2278.000000	0.009625
2277.000000	0.009630
2276.000000	0.009611
2275.000000	0.009555
2274.000000	0.009490
2273.000000	0.009461
2272.000000	0.009471
2271.000000	0.009487
2270.000000	0.009478
2269.000000	0.009445
2268.000000	0.009404
2267.000000	0.009362
2266.000000	0.009319
2265.000000	0.009264
2264.000000	0.009190
2263.000000	0.009106
2262.000000	0.009038
2261.000000	0.009007
2260.000000	0.009003
2259.000000	0.009004
2258.000000	0.008995
2257.000000	0.008976
2256.000000	0.008950
2255.000000	0.008925
2254.000000	0.008905
2253.000000	0.008885
2252.000000	0.008858
2251.000000	0.008850
2250.000000	0.008911
2249.000000	0.009045
2248.000000	0.009183
2247.000000	0.009254
2246.000000	0.009261
2245.000000	0.009255
2244.000000	0.009253
2243.000000	0.009237
2242.000000	0.009208
2241.000000	0.009212
2240.000000	0.009286
2239.000000	0.009416
2238.000000	0.009550
2237.000000	0.009633
2236.000000	0.009624
2235.000000	0.009526
2234.000000	0.009397
2233.000000	0.009317
2232.000000	0.009317
2231.000000	0.009362
2230.000000	0.009395
2229.000000	0.009385
2228.000000	0.009339
2227.000000	0.009287
2226.000000	0.009255
2225.000000	0.009242
2224.000000	0.009225
2223.000000	0.009193
2222.000000	0.009160
2221.000000	0.009135
2220.000000	0.009107
2219.000000	0.009076
2218.000000	0.009081
2217.000000	0.009148
2216.000000	0.009238
2215.000000	0.009273
2214.000000	0.009225
2213.000000	0.009117
2212.000000	0.008981
2211.000000	0.008836
2210.000000	0.008710
2209.000000	0.008638
2208.000000	0.008629
2207.000000	0.008662
2206.000000	0.008717
2205.000000	0.008784
2204.000000	0.008852
2203.000000	0.008909
2202.000000	0.008950
2201.000000	0.008968
2200.000000	0.008933
2199.000000	0.008823
2198.000000	0.008672
2197.000000	0.008540
2196.000000	0.008460
2195.000000	0.008433
2194.000000	0.008452
2193.000000	0.008500
2192.000000	0.008528
2191.000000	0.008504
2190.000000	0.008467
2189.000000	0.008499
2188.000000	0.008618
2187.000000	0.008739
2186.000000	0.008763
2185.000000	0.008674
2184.000000	0.008537
2183.000000	0.008436
2182.000000	0.008411
2181.000000	0.008447
2180.000000	0.008504
2179.000000	0.008565
2178.000000	0.008647
2177.000000	0.008748
2176.000000	0.008820
2175.000000	0.008806
2174.000000	0.008704
2173.000000	0.008558
2172.000000	0.008430
2171.000000	0.008370
2170.000000	0.008392
2169.000000	0.008445
2168.000000	0.008447
2167.000000	0.008383
2166.000000	0.008343
2165.000000	0.008413
2164.000000	0.008557
2163.000000	0.008648
2162.000000	0.008573
2161.000000	0.008297
2160.000000	0.007868
2159.000000	0.007449
2158.000000	0.007246
2157.000000	0.007312
2156.000000	0.007485
2155.000000	0.007603
2154.000000	0.007663
2153.000000	0.007737
2152.000000	0.007822
2151.000000	0.007839
2150.000000	0.007764
2149.000000	0.007666
2148.000000	0.007640
2147.000000	0.007739
2146.000000	0.007950
2145.000000	0.008190
2144.000000	0.008340
2143.000000	0.008342
2142.000000	0.008254
2141.000000	0.008196
2140.000000	0.008238
2139.000000	0.008363
2138.000000	0.008519
2137.000000	0.008646
2136.000000	0.008677
2135.000000	0.008575
2134.000000	0.008381
2133.000000	0.008191
2132.000000	0.008085
2131.000000	0.008080
2130.000000	0.008144
2129.000000	0.008235
2128.000000	0.008323
2127.000000	0.008408
2126.000000	0.008501
2125.000000	0.008592
2124.000000	0.008650
2123.000000	0.008663
2122.000000	0.008663
2121.000000	0.008689
2120.000000	0.008737
2119.000000	0.008783
2118.000000	0.008819
2117.000000	0.008846
2116.000000	0.008849
2115.000000	0.008800
2114.000000	0.008705
2113.000000	0.008612
2112.000000	0.008564
2111.000000	0.008559
2110.000000	0.008562
2109.000000	0.008546
2108.000000	0.008510
2107.000000	0.008485
2106.000000	0.008500
2105.000000	0.008540
2104.000000	0.008548
2103.000000	0.008479
2102.000000	0.008366
2101.000000	0.008298
2100.000000	0.008337
2099.000000	0.008463
2098.000000	0.008597
2097.000000	0.008665
2096.000000	0.008656
2095.000000	0.008604
2094.000000	0.008551
2093.000000	0.008504
2092.000000	0.008462
2091.000000	0.008438
2090.000000	0.008453
2089.000000	0.008497
2088.000000	0.008543
2087.000000	0.008588
2086.000000	0.008647
2085.000000	0.008705
2084.000000	0.008709
2083.000000	0.008631
2082.000000	0.008513
2081.000000	0.008421
2080.000000	0.008382
2079.000000	0.008381
2078.000000	0.008387
2077.000000	0.008370
2076.000000	0.008316
2075.000000	0.008239
2074.000000	0.008177
2073.000000	0.008134
2072.000000	0.008079
2071.000000	0.008019
2070.000000	0.008010
2069.000000	0.008081
2068.000000	0.008170
2067.000000	0.008200
2066.000000	0.008177
2065.000000	0.008151
2064.000000	0.008131
2063.000000	0.008086
2062.000000	0.008002
2061.000000	0.007903
2060.000000	0.007817
2059.000000	0.007763
2058.000000	0.007760
2057.000000	0.007792
2056.000000	0.007815
2055.000000	0.007807
2054.000000	0.007807
2053.000000	0.007844
2052.000000	0.007881
2051.000000	0.007879
2050.000000	0.007863
2049.000000	0.007879
2048.000000	0.007912
2047.000000	0.007922
2046.000000	0.007910
2045.000000	0.007885
2044.000000	0.007812
2043.000000	0.007697
2042.000000	0.007650
2041.000000	0.007736
2040.000000	0.007834
2039.000000	0.007757
2038.000000	0.007514
2037.000000	0.007287
2036.000000	0.007177
2035.000000	0.007087
2034.000000	0.006924
2033.000000	0.006761
2032.000000	0.006738
2031.000000	0.006891
2030.000000	0.007148
2029.000000	0.007386
2028.000000	0.007494
2027.000000	0.007436
2026.000000	0.007295
2025.000000	0.007196
2024.000000	0.007188
2023.000000	0.007232
2022.000000	0.007274
2021.000000	0.007276
2020.000000	0.007200
2019.000000	0.007038
2018.000000	0.006842
2017.000000	0.006683
2016.000000	0.006592
2015.000000	0.006570
2014.000000	0.006607
2013.000000	0.006638
2012.000000	0.006541
2011.000000	0.006281
2010.000000	0.005996
2009.000000	0.005875
2008.000000	0.005955
2007.000000	0.006132
2006.000000	0.006317
2005.000000	0.006492
2004.000000	0.006648
2003.000000	0.006783
2002.000000	0.006921
2001.000000	0.007081
2000.000000	0.007221
1999.000000	0.007296
1998.000000	0.007323
1997.000000	0.007328
1996.000000	0.007284
1995.000000	0.007158
1994.000000	0.006991
1993.000000	0.006862
1992.000000	0.006798
1991.000000	0.006770
1990.000000	0.006751
1989.000000	0.006718
1988.000000	0.006651
1987.000000	0.006587
1986.000000	0.006624
1985.000000	0.006803
1984.000000	0.007034
1983.000000	0.007216
1982.000000	0.007363
1981.000000	0.007527
1980.000000	0.007634
1979.000000	0.007542
1978.000000	0.007254
1977.000000	0.006945
1976.000000	0.006771
1975.000000	0.006761
1974.000000	0.006879
1973.000000	0.007043
1972.000000	0.007133
1971.000000	0.007101
1970.000000	0.007051
1969.000000	0.007099
1968.000000	0.007206
1967.000000	0.007235
1966.000000	0.007143
1965.000000	0.006998
1964.000000	0.006871
1963.000000	0.006800
1962.000000	0.006832
1961.000000	0.006965
1960.000000	0.007096
1959.000000	0.007125
1958.000000	0.007083
1957.000000	0.007066
1956.000000	0.007093
1955.000000	0.007115
1954.000000	0.007123
1953.000000	0.007142
1952.000000	0.007155
1951.000000	0.007113
1950.000000	0.007021
1949.000000	0.006950
1948.000000	0.006920
1947.000000	0.006886
1946.000000	0.006833
1945.000000	0.006806
1944.000000	0.006821
1943.000000	0.006807
1942.000000	0.006703
1941.000000	0.006556
1940.000000	0.006469
1939.000000	0.006509
1938.000000	0.006668
1937.000000	0.006867
1936.000000	0.007014
1935.000000	0.007076
1934.000000	0.007104
1933.000000	0.007152
1932.000000	0.007212
1931.000000	0.007214
1930.000000	0.007123
1929.000000	0.007002
1928.000000	0.006935
1927.000000	0.006953
1926.000000	0.007008
1925.000000	0.007037
1924.000000	0.007027
1923.000000	0.006990
1922.000000	0.006948
1921.000000	0.006927
1920.000000	0.006951
1919.000000	0.007028
1918.000000	0.007105
1917.000000	0.007120
1916.000000	0.007079
1915.000000	0.007049
1914.000000	0.007079
1913.000000	0.007141
1912.000000	0.007182
1911.000000	0.007194
1910.000000	0.007202
1909.000000	0.007216
1908.000000	0.007208
1907.000000	0.007181
1906.000000	0.007157
1905.000000	0.007145
1904.000000	0.007141
1903.000000	0.007141
1902.000000	0.007161
1901.000000	0.007211
1900.000000	0.007254
1899.000000	0.007267
1898.000000	0.007273
1897.000000	0.007300
1896.000000	0.007343
1895.000000	0.007348
1894.000000	0.007278
1893.000000	0.007141
1892.000000	0.006988
1891.000000	0.006881
1890.000000	0.006849
1889.000000	0.006876
1888.000000	0.006927
1887.000000	0.006994
1886.000000	0.007089
1885.000000	0.007197
1884.000000	0.007266
1883.000000	0.007270
1882.000000	0.007233
1881.000000	0.007184
1880.000000	0.007116
1879.000000	0.007036
1878.000000	0.006983
1877.000000	0.006970
1876.000000	0.006980
1875.000000	0.006989
1874.000000	0.006967
1873.000000	0.006883
1872.000000	0.006746
1871.000000	0.006633
1870.000000	0.006612
1869.000000	0.006649
1868.000000	0.006664
1867.000000	0.006657
1866.000000	0.006691
1865.000000	0.006787
1864.000000	0.006884
1863.000000	0.006927
1862.000000	0.006931
1861.000000	0.006937
1860.000000	0.006935
1859.000000	0.006890
1858.000000	0.006814
1857.000000	0.006747
1856.000000	0.006719
1855.000000	0.006737
1854.000000	0.006802
1853.000000	0.006899
1852.000000	0.006955
1851.000000	0.006938
1850.000000	0.006879
1849.000000	0.006774
1848.000000	0.006580
1847.000000	0.006339
1846.000000	0.006218
1845.000000	0.006309
1844.000000	0.006474
1843.000000	0.006525
1842.000000	0.006491
1841.000000	0.006521
1840.000000	0.006646
1839.000000	0.006773
1838.000000	0.006816
1837.000000	0.006803
1836.000000	0.006802
1835.000000	0.006796
1834.000000	0.006735
1833.000000	0.006634
1832.000000	0.006559
1831.000000	0.006551
1830.000000	0.006543
1829.000000	0.006447
1828.000000	0.006302
1827.000000	0.006248
1826.000000	0.006366
1825.000000	0.006546
1824.000000	0.006618
1823.000000	0.006580
1822.000000	0.006556
1821.000000	0.006589
1820.000000	0.006609
1819.000000	0.006577
1818.000000	0.006535
1817.000000	0.006524
1816.000000	0.006524
1815.000000	0.006487
1814.000000	0.006436
1813.000000	0.006403
1812.000000	0.006391
1811.000000	0.006385
1810.000000	0.006376
1809.000000	0.006381
1808.000000	0.006405
1807.000000	0.006437
1806.000000	0.006462
1805.000000	0.006457
1804.000000	0.006408
1803.000000	0.006330
1802.000000	0.006291
1801.000000	0.006301
1800.000000	0.006315
1799.000000	0.006306
1798.000000	0.006268
1797.000000	0.006191
1796.000000	0.006057
1795.000000	0.005910
1794.000000	0.005880
1793.000000	0.005988
1792.000000	0.006083
1791.000000	0.006068
1790.000000	0.006017
1789.000000	0.006018
1788.000000	0.006071
1787.000000	0.006135
1786.000000	0.006178
1785.000000	0.006177
1784.000000	0.006115
1783.000000	0.006005
1782.000000	0.005956
1781.000000	0.005972
1780.000000	0.005958
1779.000000	0.005888
1778.000000	0.005820
1777.000000	0.005776
1776.000000	0.005638
1775.000000	0.005384
1774.000000	0.005207
1773.000000	0.005212
1772.000000	0.005196
1771.000000	0.005016
1770.000000	0.004811
1769.000000	0.004725
1768.000000	0.004698
1767.000000	0.004519
1766.000000	0.004114
1765.000000	0.003592
1764.000000	0.003058
1763.000000	0.002477
1762.000000	0.001723
1761.000000	0.000730
1760.000000	-0.000431
1759.000000	-0.001678
1758.000000	-0.002996
1757.000000	-0.004462
1756.000000	-0.006166
1755.000000	-0.008036
1754.000000	-0.009930
1753.000000	-0.011802
1752.000000	-0.013737
1751.000000	-0.015757
1750.000000	-0.017695
1749.000000	-0.019282
1748.000000	-0.020427
1747.000000	-0.021199
1746.000000	-0.021609
1745.000000	-0.021628
1744.000000	-0.021254
1743.000000	-0.020556
1742.000000	-0.019522
1741.000000	-0.017983
1740.000000	-0.015942
1739.000000	-0.013941
1738.000000	-0.012508
1737.000000	-0.011467
1736.000000	-0.010179
1735.000000	-0.008212
1734.000000	-0.006028
1733.000000	-0.004407
1732.000000	-0.003263
1731.000000	-0.002159
1730.000000	-0.000981
1729.000000	0.000162
1728.000000	0.001139
1727.000000	0.001922
1726.000000	0.002600
1725.000000	0.003243
1724.000000	0.003859
1723.000000	0.004344
1722.000000	0.004598
1721.000000	0.004706
1720.000000	0.004871
1719.000000	0.005216
1718.000000	0.005622
1717.000000	0.005972
1716.000000	0.006402
1715.000000	0.006990
1714.000000	0.007607
1713.000000	0.008136
1712.000000	0.008568
1711.000000	0.008932
1710.000000	0.009253
1709.000000	0.009554
1708.000000	0.009865
1707.000000	0.010278
1706.000000	0.010789
1705.000000	0.011194
1704.000000	0.011300
1703.000000	0.011275
1702.000000	0.011707
1701.000000	0.013030
1700.000000	0.014461
1699.000000	0.014978
1698.000000	0.015062
1697.000000	0.015707
1696.000000	0.017165
1695.000000	0.018756
1694.000000	0.019886
1693.000000	0.020760
1692.000000	0.021724
1691.000000	0.022783
1690.000000	0.023761
1689.000000	0.024501
1688.000000	0.024913
1687.000000	0.025163
1686.000000	0.025735
1685.000000	0.027107
1684.000000	0.028893
1683.000000	0.030288
1682.000000	0.031332
1681.000000	0.032457
1680.000000	0.033744
1679.000000	0.034930
1678.000000	0.035963
1677.000000	0.037182
1676.000000	0.038852
1675.000000	0.040582
1674.000000	0.041823
1673.000000	0.042682
1672.000000	0.043656
1671.000000	0.045017
1670.000000	0.046681
1669.000000	0.048393
1668.000000	0.049889
1667.000000	0.051059
1666.000000	0.052044
1665.000000	0.053134
1664.000000	0.054528
1663.000000	0.056042
1662.000000	0.057363
1661.000000	0.058470
1660.000000	0.059510
1659.000000	0.060506
1658.000000	0.061304
1657.000000	0.061744
1656.000000	0.061885
1655.000000	0.062194
1654.000000	0.063190
1653.000000	0.064655
1652.000000	0.065797
1651.000000	0.066389
1650.000000	0.066839
1649.000000	0.067453
1648.000000	0.068207
1647.000000	0.068948
1646.000000	0.069527
1645.000000	0.070020
1644.000000	0.070507
1643.000000	0.070970
1642.000000	0.071390
1641.000000	0.071752
1640.000000	0.071982
1639.000000	0.072030
1638.000000	0.071987
1637.000000	0.072116
1636.000000	0.072486
1635.000000	0.072869
1634.000000	0.073039
1633.000000	0.073050
1632.000000	0.073061
1631.000000	0.073045
1630.000000	0.072919
1629.000000	0.072640
1628.000000	0.072187
1627.000000	0.071549
1626.000000	0.070801
1625.000000	0.070036
1624.000000	0.069252
1623.000000	0.068321
1622.000000	0.067217
1621.000000	0.066044
1620.000000	0.064855
1619.000000	0.063659
1618.000000	0.062433
1617.000000	0.061137
1616.000000	0.059805
1615.000000	0.058569
1614.000000	0.057468
1613.000000	0.056431
1612.000000	0.055361
1611.000000	0.054189
1610.000000	0.052945
1609.000000	0.051719
1608.000000	0.050578
1607.000000	0.049522
1606.000000	0.048548
1605.000000	0.047640
1604.000000	0.046780
1603.000000	0.045987
1602.000000	0.045281
1601.000000	0.044644
1600.000000	0.044059
1599.000000	0.043531
1598.000000	0.043068
1597.000000	0.042657
1596.000000	0.042295
1595.000000	0.042001
1594.000000	0.041776
1593.000000	0.041591
1592.000000	0.041422
1591.000000	0.041273
1590.000000	0.041147
1589.000000	0.041035
1588.000000	0.040940
1587.000000	0.040896
1586.000000	0.040921
1585.000000	0.041011
1584.000000	0.041139
1583.000000	0.041340
1582.000000	0.041648
1581.000000	0.041961
1580.000000	0.042121
1579.000000	0.042145
1578.000000	0.042265
1577.000000	0.042709
1576.000000	0.043431
1575.000000	0.044129
1574.000000	0.044642
1573.000000	0.045030
1572.000000	0.045454
1571.000000	0.046079
1570.000000	0.046878
1569.000000	0.047643
1568.000000	0.048258
1567.000000	0.048867
1566.000000	0.049635
1565.000000	0.050498
1564.000000	0.051135
1563.000000	0.051335
1562.000000	0.051258
1561.000000	0.051429
1560.000000	0.052367
1559.000000	0.053661
1558.000000	0.054670
1557.000000	0.055439
1556.000000	0.056165
1555.000000	0.057063
1554.000000	0.058023
1553.000000	0.058815
1552.000000	0.059409
1551.000000	0.059985
1550.000000	0.060562
1549.000000	0.061036
1548.000000	0.061361
1547.000000	0.061636
1546.000000	0.061947
1545.000000	0.062194
1544.000000	0.062240
1543.000000	0.062174
1542.000000	0.062178
1541.000000	0.062333
1540.000000	0.062589
1539.000000	0.062888
1538.000000	0.063068
1537.000000	0.063069
1536.000000	0.063031
1535.000000	0.063023
1534.000000	0.062984
1533.000000	0.062728
1532.000000	0.062320
1531.000000	0.061952
1530.000000	0.061648
1529.000000	0.061334
1528.000000	0.060942
1527.000000	0.060474
1526.000000	0.059957
1525.000000	0.059347
1524.000000	0.058637
1523.000000	0.057958
1522.000000	0.057416
1521.000000	0.056996
1520.000000	0.056657
1519.000000	0.056415
1518.000000	0.056281
1517.000000	0.056129
1516.000000	0.055830
1515.000000	0.055386
1514.000000	0.054886
1513.000000	0.054337
1512.000000	0.053638
1511.000000	0.052669
1510.000000	0.051472
1509.000000	0.050241
1508.000000	0.049210
1507.000000	0.048489
1506.000000	0.048172
1505.000000	0.047994
1504.000000	0.047626
1503.000000	0.047109
1502.000000	0.046444
1501.000000	0.045603
1500.000000	0.044585
1499.000000	0.043425
1498.000000	0.042206
1497.000000	0.041041
1496.000000	0.040046
1495.000000	0.039191
1494.000000	0.038395
1493.000000	0.037652
1492.000000	0.036986
1491.000000	0.036337
1490.000000	0.035616
1489.000000	0.034934
1488.000000	0.034499
1487.000000	0.034278
1486.000000	0.034104
1485.000000	0.033935
1484.000000	0.033794
1483.000000	0.033747
1482.000000	0.033811
1481.000000	0.033934
1480.000000	0.034068
1479.000000	0.034211
1478.000000	0.034365
1477.000000	0.034445
1476.000000	0.034353
1475.000000	0.034097
1474.000000	0.033830
1473.000000	0.033568
1472.000000	0.033178
1471.000000	0.032619
1470.000000	0.031968
1469.000000	0.031344
1468.000000	0.030860
1467.000000	0.030607
1466.000000	0.030688
1465.000000	0.031099
1464.000000	0.031629
1463.000000	0.032068
1462.000000	0.032351
1461.000000	0.032528
1460.000000	0.032626
1459.000000	0.032758
1458.000000	0.033185
1457.000000	0.034099
1456.000000	0.035253
1455.000000	0.036277
1454.000000	0.037192
1453.000000	0.038092
1452.000000	0.038888
1451.000000	0.039469
1450.000000	0.039854
1449.000000	0.040156
1448.000000	0.040403
1447.000000	0.040527
1446.000000	0.040584
1445.000000	0.040643
1444.000000	0.040698
1443.000000	0.040707
1442.000000	0.040618
1441.000000	0.040406
1440.000000	0.040081
1439.000000	0.039752
1438.000000	0.039559
1437.000000	0.039509
1436.000000	0.039415
1435.000000	0.039201
1434.000000	0.038978
1433.000000	0.038847
1432.000000	0.038792
1431.000000	0.038740
1430.000000	0.038663
1429.000000	0.038600
1428.000000	0.038566
1427.000000	0.038510
1426.000000	0.038476
1425.000000	0.038492
1424.000000	0.038456
1423.000000	0.038253
1422.000000	0.037919
1421.000000	0.037638
1420.000000	0.037537
1419.000000	0.037544
1418.000000	0.037582
1417.000000	0.037724
1416.000000	0.037991
1415.000000	0.038317
1414.000000	0.038644
1413.000000	0.038958
1412.000000	0.039268
1411.000000	0.039566
1410.000000	0.039828
1409.000000	0.040047
1408.000000	0.040233
1407.000000	0.040370
1406.000000	0.040485
1405.000000	0.040618
1404.000000	0.040739
1403.000000	0.040778
1402.000000	0.040733
1401.000000	0.040688
1400.000000	0.040656
1399.000000	0.040539
1398.000000	0.040302
1397.000000	0.040049
1396.000000	0.039867
1395.000000	0.039722
1394.000000	0.039563
1393.000000	0.039380
1392.000000	0.039159
1391.000000	0.038864
1390.000000	0.038480
1389.000000	0.038035
1388.000000	0.037580
1387.000000	0.037122
1386.000000	0.036665
1385.000000	0.036210
1384.000000	0.035730
1383.000000	0.035187
1382.000000	0.034560
1381.000000	0.033882
1380.000000	0.033214
1379.000000	0.032600
1378.000000	0.032069
1377.000000	0.031644
1376.000000	0.031330
1375.000000	0.031091
1374.000000	0.030891
1373.000000	0.030717
1372.000000	0.030556
1371.000000	0.030382
1370.000000	0.030189
1369.000000	0.029976
1368.000000	0.029736
1367.000000	0.029461
1366.000000	0.029141
1365.000000	0.028775
1364.000000	0.028375
1363.000000	0.027976
1362.000000	0.027647
1361.000000	0.027428
1360.000000	0.027281
1359.000000	0.027138
1358.000000	0.026969
1357.000000	0.026785
1356.000000	0.026615
1355.000000	0.026488
1354.000000	0.026423
1353.000000	0.026425
1352.000000	0.026494
1351.000000	0.026602
1350.000000	0.026733
1349.000000	0.026891
1348.000000	0.027090
1347.000000	0.027332
1346.000000	0.027603
1345.000000	0.027886
1344.000000	0.028159
1343.000000	0.028391
1342.000000	0.028569
1341.000000	0.028704
1340.000000	0.028836
1339.000000	0.029007
1338.000000	0.029221
1337.000000	0.029435
1336.000000	0.029596
1335.000000	0.029663
1334.000000	0.029628
1333.000000	0.029502
1332.000000	0.029302
1331.000000	0.029042
1330.000000	0.028744
1329.000000	0.028439
1328.000000	0.028150
1327.000000	0.027878
1326.000000	0.027628
1325.000000	0.027417
1324.000000	0.027261
1323.000000	0.027159
1322.000000	0.027100
1321.000000	0.027075
1320.000000	0.027077
1319.000000	0.027094
1318.000000	0.027118
1317.000000	0.027155
1316.000000	0.027201
1315.000000	0.027232
1314.000000	0.027219
1313.000000	0.027155
1312.000000	0.027050
1311.000000	0.026908
1310.000000	0.026729
1309.000000	0.026527
1308.000000	0.026325
1307.000000	0.026125
1306.000000	0.025918
1305.000000	0.025696
1304.000000	0.025465
1303.000000	0.025230
1302.000000	0.024997
1301.000000	0.024778
1300.000000	0.024588
1299.000000	0.024429
1298.000000	0.024299
1297.000000	0.024205
1296.000000	0.024171
1295.000000	0.024212
1294.000000	0.024317
1293.000000	0.024464
1292.000000	0.024637
1291.000000	0.024828
1290.000000	0.025029
1289.000000	0.025229
1288.000000	0.025420
1287.000000	0.025604
1286.000000	0.025793
1285.000000	0.026003
1284.000000	0.026232
1283.000000	0.026465
1282.000000	0.026683
1281.000000	0.026873
1280.000000	0.027026
1279.000000	0.027133
1278.000000	0.027192
1277.000000	0.027216
1276.000000	0.027220
1275.000000	0.027206
1274.000000	0.027172
1273.000000	0.027128
1272.000000	0.027080
1271.000000	0.027033
1270.000000	0.026992
1269.000000	0.026968
1268.000000	0.026962
1267.000000	0.026962
1266.000000	0.026959
1265.000000	0.026968
1264.000000	0.027005
1263.000000	0.027071
1262.000000	0.027164
1261.000000	0.027296
1260.000000	0.027489
1259.000000	0.027748
1258.000000	0.028060
1257.000000	0.028409
1256.000000	0.028776
1255.000000	0.029136
1254.000000	0.029474
1253.000000	0.029790
1252.000000	0.030095
1251.000000	0.030391
1250.000000	0.030685
1249.000000	0.030993
1248.000000	0.031328
1247.000000	0.031675
1246.000000	0.032015
1245.000000	0.032351
1244.000000	0.032707
1243.000000	0.033095
1242.000000	0.033509
1241.000000	0.033932
1240.000000	0.034336
1239.000000	0.034696
1238.000000	0.035003
1237.000000	0.035263
1236.000000	0.035475
1235.000000	0.035611
1234.000000	0.035646
1233.000000	0.035578
1232.000000	0.035416
1231.000000	0.035154
1230.000000	0.034790
1229.000000	0.034327
1228.000000	0.033771
1227.000000	0.033122
1226.000000	0.032397
1225.000000	0.031631
1224.000000	0.030843
1223.000000	0.030029
1222.000000	0.029180
1221.000000	0.028318
1220.000000	0.027490
1219.000000	0.026734
1218.000000	0.026067
1217.000000	0.025490
1216.000000	0.025000
1215.000000	0.024589
1214.000000	0.024252
1213.000000	0.023984
1212.000000	0.023787
1211.000000	0.023652
1210.000000	0.023560
1209.000000	0.023490
1208.000000	0.023416
1207.000000	0.023316
1206.000000	0.023181
1205.000000	0.023016
1204.000000	0.022818
1203.000000	0.022569
1202.000000	0.022242
1201.000000	0.021825
1200.000000	0.021322
1199.000000	0.020744
1198.000000	0.020101
1197.000000	0.019411
1196.000000	0.018695
1195.000000	0.017974
1194.000000	0.017264
1193.000000	0.016579
1192.000000	0.015930
1191.000000	0.015319
1190.000000	0.014734
1189.000000	0.014170
1188.000000	0.013630
1187.000000	0.013134
1186.000000	0.012708
1185.000000	0.012376
1184.000000	0.012142
1183.000000	0.011976
1182.000000	0.011826
1181.000000	0.011659
1180.000000	0.011476
1179.000000	0.011288
1178.000000	0.011091
1177.000000	0.010871
1176.000000	0.010625
1175.000000	0.010364
1174.000000	0.010098
1173.000000	0.009833
1172.000000	0.009575
1171.000000	0.009333
1170.000000	0.009105
1169.000000	0.008890
1168.000000	0.008688
1167.000000	0.008499
1166.000000	0.008327
1165.000000	0.008179
1164.000000	0.008070
1163.000000	0.007997
1162.000000	0.007940
1161.000000	0.007873
1160.000000	0.007793
1159.000000	0.007716
1158.000000	0.007657
1157.000000	0.007621
1156.000000	0.007597
1155.000000	0.007554
1154.000000	0.007464
1153.000000	0.007327
1152.000000	0.007184
1151.000000	0.007072
1150.000000	0.006992
1149.000000	0.006906
1148.000000	0.006787
1147.000000	0.006642
1146.000000	0.006502
1145.000000	0.006404
1144.000000	0.006369
1143.000000	0.006402
1142.000000	0.006498
1141.000000	0.006657
1140.000000	0.006886
1139.000000	0.007190
1138.000000	0.007559
1137.000000	0.007974
1136.000000	0.008416
1135.000000	0.008864
1134.000000	0.009297
1133.000000	0.009705
1132.000000	0.010078
1131.000000	0.010395
1130.000000	0.010628
1129.000000	0.010767
1128.000000	0.010828
1127.000000	0.010828
1126.000000	0.010765
1125.000000	0.010632
1124.000000	0.010440
1123.000000	0.010225
1122.000000	0.010029
1121.000000	0.009883
1120.000000	0.009797
1119.000000	0.009764
1118.000000	0.009785
1117.000000	0.009874
1116.000000	0.010040
1115.000000	0.010270
1114.000000	0.010523
1113.000000	0.010776
1112.000000	0.011030
1111.000000	0.011287
1110.000000	0.011532
1109.000000	0.011745
1108.000000	0.011923
1107.000000	0.012068
1106.000000	0.012189
1105.000000	0.012294
1104.000000	0.012392
1103.000000	0.012478
1102.000000	0.012539
1101.000000	0.012575
1100.000000	0.012609
1099.000000	0.012671
1098.000000	0.012776
1097.000000	0.012927
1096.000000	0.013124
1095.000000	0.013365
1094.000000	0.013647
1093.000000	0.013974
1092.000000	0.014360
1091.000000	0.014811
1090.000000	0.015320
1089.000000	0.015875
1088.000000	0.016472
1087.000000	0.017117
1086.000000	0.017800
1085.000000	0.018487
1084.000000	0.019122
1083.000000	0.019650
1082.000000	0.020034
1081.000000	0.020254
1080.000000	0.020301
1079.000000	0.020179
1078.000000	0.019935
1077.000000	0.019635
1076.000000	0.019325
1075.000000	0.019009
1074.000000	0.018686
1073.000000	0.018387
1072.000000	0.018154
1071.000000	0.017994
1070.000000	0.017883
1069.000000	0.017808
1068.000000	0.017779
1067.000000	0.017805
1066.000000	0.017877
1065.000000	0.017975
1064.000000	0.018093
1063.000000	0.018228
1062.000000	0.018373
1061.000000	0.018512
1060.000000	0.018636
1059.000000	0.018743
1058.000000	0.018841
1057.000000	0.018946
1056.000000	0.019073
1055.000000	0.019227
1054.000000	0.019391
1053.000000	0.019537
1052.000000	0.019636
1051.000000	0.019684
1050.000000	0.019711
1049.000000	0.019758
1048.000000	0.019835
1047.000000	0.019916
1046.000000	0.019974
1045.000000	0.020003
1044.000000	0.020015
1043.000000	0.020011
1042.000000	0.020002
1041.000000	0.020014
1040.000000	0.020080
1039.000000	0.020213
1038.000000	0.020411
1037.000000	0.020662
1036.000000	0.020950
1035.000000	0.021247
1034.000000	0.021527
1033.000000	0.021783
1032.000000	0.022007
1031.000000	0.022177
1030.000000	0.022273
1029.000000	0.022301
1028.000000	0.022291
1027.000000	0.022255
1026.000000	0.022188
1025.000000	0.022094
1024.000000	0.021999
1023.000000	0.021934
1022.000000	0.021915
1021.000000	0.021954
1020.000000	0.022060
1019.000000	0.022217
1018.000000	0.022379
1017.000000	0.022481
1016.000000	0.022474
1015.000000	0.022331
1014.000000	0.022048
1013.000000	0.021641
1012.000000	0.021145
1011.000000	0.020602
1010.000000	0.020038
1009.000000	0.019463
1008.000000	0.018883
1007.000000	0.018316
1006.000000	0.017791
1005.000000	0.017323
1004.000000	0.016900
1003.000000	0.016499
1002.000000	0.016104
1001.000000	0.015714
1000.000000	0.015335
999.000000	0.014974
998.000000	0.014634
997.000000	0.014323
996.000000	0.014043
995.000000	0.013783
994.000000	0.013524
993.000000	0.013242
992.000000	0.012931
991.000000	0.012601
990.000000	0.012280
989.000000	0.011985
988.000000	0.011717
987.000000	0.011466
986.000000	0.011229
985.000000	0.011015
984.000000	0.010834
983.000000	0.010683
982.000000	0.010554
981.000000	0.010437
980.000000	0.010330
979.000000	0.010235
978.000000	0.010145
977.000000	0.010047
976.000000	0.009925
975.000000	0.009766
974.000000	0.009572
973.000000	0.009358
972.000000	0.009140
971.000000	0.008919
970.000000	0.008690
969.000000	0.008454
968.000000	0.008229
967.000000	0.008043
966.000000	0.007918
965.000000	0.007848
964.000000	0.007800
963.000000	0.007737
962.000000	0.007653
961.000000	0.007581
960.000000	0.007555
959.000000	0.007577
958.000000	0.007617
957.000000	0.007655
956.000000	0.007694
955.000000	0.007736
954.000000	0.007761
953.000000	0.007744
952.000000	0.007679
951.000000	0.007587
950.000000	0.007494
949.000000	0.007412
948.000000	0.007345
947.000000	0.007289
946.000000	0.007244
945.000000	0.007209
944.000000	0.007186
943.000000	0.007178
942.000000	0.007193
941.000000	0.007226
940.000000	0.007267
939.000000	0.007302
938.000000	0.007334
937.000000	0.007371
936.000000	0.007409
935.000000	0.007426
934.000000	0.007401
933.000000	0.007343
932.000000	0.007276
931.000000	0.007218
930.000000	0.007174
929.000000	0.007140
928.000000	0.007108
927.000000	0.007053
926.000000	0.006956
925.000000	0.006816
924.000000	0.006658
923.000000	0.006505
922.000000	0.006362
921.000000	0.006225
920.000000	0.006085
919.000000	0.005938
918.000000	0.005784
917.000000	0.005635
916.000000	0.005504
915.000000	0.005382
914.000000	0.005249
913.000000	0.005099
912.000000	0.004955
911.000000	0.004849
910.000000	0.004789
909.000000	0.004755
908.000000	0.004717
907.000000	0.004662
906.000000	0.004602
905.000000	0.004567
904.000000	0.004571
903.000000	0.004601
902.000000	0.004623
901.000000	0.004618
900.000000	0.004590
899.000000	0.004557
898.000000	0.004526
897.000000	0.004494
896.000000	0.004455
895.000000	0.004402
894.000000	0.004337
893.000000	0.004275
892.000000	0.004240
891.000000	0.004236
890.000000	0.004251
889.000000	0.004267
888.000000	0.004284
887.000000	0.004311
886.000000	0.004359
885.000000	0.004445
884.000000	0.004592
883.000000	0.004809
882.000000	0.005089
881.000000	0.005427
880.000000	0.005836
879.000000	0.006325
878.000000	0.006856
877.000000	0.007342
876.000000	0.007678
875.000000	0.007791
874.000000	0.007667
873.000000	0.007339
872.000000	0.006867
871.000000	0.006319
870.000000	0.005766
869.000000	0.005277
868.000000	0.004901
867.000000	0.004649
866.000000	0.004499
865.000000	0.004414
864.000000	0.004373
863.000000	0.004373
862.000000	0.004406
861.000000	0.004463
860.000000	0.004541
859.000000	0.004639
858.000000	0.004750
857.000000	0.004855
856.000000	0.004931
855.000000	0.004983
854.000000	0.005034
853.000000	0.005106
852.000000	0.005190
851.000000	0.005263
850.000000	0.005313
849.000000	0.005342
848.000000	0.005362
847.000000	0.005381
846.000000	0.005416
845.000000	0.005483
844.000000	0.005578
843.000000	0.005682
842.000000	0.005786
841.000000	0.005908
840.000000	0.006073
839.000000	0.006276
838.000000	0.006483
837.000000	0.006653
836.000000	0.006762
835.000000	0.006809
834.000000	0.006814
833.000000	0.006801
832.000000	0.006775
831.000000	0.006720
830.000000	0.006623
829.000000	0.006496
828.000000	0.006368
827.000000	0.006252
826.000000	0.006121
825.000000	0.005942
824.000000	0.005720
823.000000	0.005511
822.000000	0.005367
821.000000	0.005287
820.000000	0.005222
819.000000	0.005139
818.000000	0.005043
817.000000	0.004952
816.000000	0.004863
815.000000	0.004770
814.000000	0.004684
813.000000	0.004624
812.000000	0.004586
811.000000	0.004547
810.000000	0.004498
809.000000	0.004447
808.000000	0.004394
807.000000	0.004336
806.000000	0.004279
805.000000	0.004244
804.000000	0.004234
803.000000	0.004242
802.000000	0.004273
801.000000	0.004339
800.000000	0.004427
799.000000	0.004501
798.000000	0.004546
797.000000	0.004585
796.000000	0.004638
795.000000	0.004693
794.000000	0.004737
793.000000	0.004786
792.000000	0.004861
791.000000	0.004962
790.000000	0.005064
789.000000	0.005148
788.000000	0.005202
787.000000	0.005222
786.000000	0.005225
785.000000	0.005241
784.000000	0.005288
783.000000	0.005359
782.000000	0.005444
781.000000	0.005535
780.000000	0.005607
779.000000	0.005630
778.000000	0.005607
777.000000	0.005596
776.000000	0.005645
775.000000	0.005732
774.000000	0.005797
773.000000	0.005815
772.000000	0.005817
771.000000	0.005838
770.000000	0.005884
769.000000	0.005931
768.000000	0.005952
767.000000	0.005934
766.000000	0.005898
765.000000	0.005883
764.000000	0.005916
763.000000	0.005997
762.000000	0.006111
761.000000	0.006246
760.000000	0.006381
759.000000	0.006494
758.000000	0.006586
757.000000	0.006679
756.000000	0.006783
755.000000	0.006875
754.000000	0.006941
753.000000	0.007007
752.000000	0.007109
751.000000	0.007244
750.000000	0.007379
749.000000	0.007481
748.000000	0.007531
747.000000	0.007514
746.000000	0.007426
745.000000	0.007287
744.000000	0.007127
743.000000	0.006964
742.000000	0.006817
741.000000	0.006713
740.000000	0.006664
739.000000	0.006647
738.000000	0.006632
737.000000	0.006614
736.000000	0.006603
735.000000	0.006602
734.000000	0.006604
733.000000	0.006616
732.000000	0.006645
731.000000	0.006671
730.000000	0.006659
729.000000	0.006604
728.000000	0.006538
727.000000	0.006503
726.000000	0.006506
725.000000	0.006530
724.000000	0.006557
723.000000	0.006604
722.000000	0.006723
721.000000	0.006954
720.000000	0.007275
719.000000	0.007619
718.000000	0.007939
717.000000	0.008246
716.000000	0.008574
715.000000	0.008936
714.000000	0.009312
713.000000	0.009664
712.000000	0.009941
711.000000	0.010124
710.000000	0.010261
709.000000	0.010435
708.000000	0.010674
707.000000	0.010916
706.000000	0.011100
705.000000	0.011236
704.000000	0.011367
703.000000	0.011499
702.000000	0.011620
701.000000	0.011741
700.000000	0.011878
699.000000	0.012003
698.000000	0.012074
697.000000	0.012102
696.000000	0.012144
695.000000	0.012226
694.000000	0.012316
693.000000	0.012369
692.000000	0.012380
691.000000	0.012373
690.000000	0.012379
689.000000	0.012421
688.000000	0.012505
687.000000	0.012618
686.000000	0.012736
685.000000	0.012854
684.000000	0.012992
683.000000	0.013176
682.000000	0.013404
681.000000	0.013644
680.000000	0.013853
679.000000	0.014016
678.000000	0.014160
677.000000	0.014334
676.000000	0.014549
675.000000	0.014774
674.000000	0.014967
673.000000	0.015107
672.000000	0.015179
671.000000	0.015180
670.000000	0.015146
669.000000	0.015187
668.000000	0.015452
667.000000	0.015875
666.000000	0.016129
665.000000	0.016179
664.000000	0.016144
663.000000	0.016091
662.000000	0.016068
661.000000	0.016119
660.000000	0.016254
659.000000	0.016426
658.000000	0.016567
657.000000	0.016637
656.000000	0.016638
655.000000	0.016610
654.000000	0.016631
653.000000	0.016746
652.000000	0.016888
651.000000	0.016939
650.000000	0.016878
649.000000	0.016806
648.000000	0.016799
647.000000	0.016837
646.000000	0.016892
645.000000	0.016971
644.000000	0.017045
643.000000	0.017037
642.000000	0.016920
641.000000	0.016774
640.000000	0.016681
639.000000	0.016629
638.000000	0.016574
637.000000	0.016530
636.000000	0.016528
635.000000	0.016549
634.000000	0.016558
633.000000	0.016554
632.000000	0.016547
631.000000	0.016530
630.000000	0.016508
629.000000	0.016529
628.000000	0.016616
627.000000	0.016728
626.000000	0.016817
625.000000	0.016884
624.000000	0.016938
623.000000	0.016961
622.000000	0.016958
621.000000	0.016989
620.000000	0.017104
619.000000	0.017269
618.000000	0.017406
617.000000	0.017464
616.000000	0.017423
615.000000	0.017291
614.000000	0.017124
613.000000	0.017015
612.000000	0.016995
611.000000	0.017002
610.000000	0.016976
609.000000	0.016938
608.000000	0.016934
607.000000	0.016955
606.000000	0.016974
605.000000	0.017002
604.000000	0.017053
603.000000	0.017095
602.000000	0.017106
601.000000	0.017125
600.000000	0.017190
599.000000	0.017261
598.000000	0.017272
597.000000	0.017218
596.000000	0.017135
595.000000	0.017027
594.000000	0.016886
593.000000	0.016761
592.000000	0.016726
591.000000	0.016794
590.000000	0.016898
589.000000	0.016967
588.000000	0.016976
587.000000	0.016935
586.000000	0.016869
585.000000	0.016815
584.000000	0.016792
583.000000	0.016812
582.000000	0.016905
581.000000	0.017087
580.000000	0.017307
579.000000	0.017452
578.000000	0.017465
577.000000	0.017388
576.000000	0.017280
575.000000	0.017196
574.000000	0.017221
573.000000	0.017441
572.000000	0.017805
571.000000	0.018134
570.000000	0.018316
569.000000	0.018426
568.000000	0.018581
567.000000	0.018765
566.000000	0.018902
565.000000	0.018994
564.000000	0.019094
563.000000	0.019202
562.000000	0.019297
561.000000	0.019412
560.000000	0.019574
559.000000	0.019744
558.000000	0.019867
557.000000	0.019940
556.000000	0.019967
555.000000	0.019917
554.000000	0.019788
553.000000	0.019639
552.000000	0.019502
551.000000	0.019322
550.000000	0.019047
549.000000	0.018700
548.000000	0.018340
547.000000	0.018023
546.000000	0.017821
545.000000	0.017777
544.000000	0.017802
543.000000	0.017759
542.000000	0.017664
541.000000	0.017674
540.000000	0.017827
539.000000	0.017959
538.000000	0.017948
537.000000	0.017886
536.000000	0.017901
535.000000	0.017944
534.000000	0.017903
533.000000	0.017808
532.000000	0.017788
531.000000	0.017907
530.000000	0.018125
529.000000	0.018358
528.000000	0.018508
527.000000	0.018489
526.000000	0.018322
525.000000	0.018119
524.000000	0.017891
523.000000	0.017521
522.000000	0.016991
521.000000	0.016472
520.000000	0.016108
519.000000	0.015861
518.000000	0.015646
517.000000	0.015476
516.000000	0.015355
515.000000	0.015195
514.000000	0.014963
513.000000	0.014749
512.000000	0.014597
511.000000	0.014393
510.000000	0.014053
509.000000	0.013686
508.000000	0.013440
507.000000	0.013303
506.000000	0.013170
505.000000	0.013022
504.000000	0.012883
503.000000	0.012724
502.000000	0.012549
501.000000	0.012454
500.000000	0.012454
499.000000	0.012388
498.000000	0.012129
497.000000	0.011788
496.000000	0.011555
495.000000	0.011425
494.000000	0.011244
493.000000	0.010950
492.000000	0.010634
491.000000	0.010397
490.000000	0.010288
489.000000	0.010307
488.000000	0.010356
487.000000	0.010271
486.000000	0.010020
485.000000	0.009802
484.000000	0.009781
483.000000	0.009830
482.000000	0.009722
481.000000	0.009462
480.000000	0.009177
479.000000	0.008850
478.000000	0.008423
477.000000	0.008031
476.000000	0.007871
475.000000	0.007918
474.000000	0.007998
473.000000	0.008086
472.000000	0.008282
471.000000	0.008499
470.000000	0.008528
469.000000	0.008363
468.000000	0.008155
467.000000	0.007945
466.000000	0.007680
465.000000	0.007390
464.000000	0.007118
463.000000	0.006743
462.000000	0.006093
461.000000	0.005259
460.000000	0.004546
459.000000	0.004205
458.000000	0.004346
457.000000	0.004886
456.000000	0.005458
455.000000	0.005630
454.000000	0.005314
453.000000	0.004867
452.000000	0.004657
451.000000	0.004575
450.000000	0.004252
