PE IR       SUBTECH     SPECTRUM    ASCII       PEDS        4.00        
   -1
3S-N10-C003_1.ASC
22/02/18
11:36:03.00
22/02/18
11:50:45.00
uco
Sample 003 By uco Date Friday, February 18 2022
450.000000
#HDR
-1
-1
#GR
cm-1
A
1.0
0.0
4000.000000
-1.000000
3551
8
0.076137
-0.013161
#DATA
4000.000000	0.005638
3999.000000	0.005631
3998.000000	0.005627
3997.000000	0.005621
3996.000000	0.005617
3995.000000	0.005617
3994.000000	0.005616
3993.000000	0.005611
3992.000000	0.005600
3991.000000	0.005593
3990.000000	0.005599
3989.000000	0.005622
3988.000000	0.005651
3987.000000	0.005676
3986.000000	0.005689
3985.000000	0.005694
3984.000000	0.005699
3983.000000	0.005704
3982.000000	0.005709
3981.000000	0.005710
3980.000000	0.005703
3979.000000	0.005691
3978.000000	0.005678
3977.000000	0.005674
3976.000000	0.005683
3975.000000	0.005703
3974.000000	0.005723
3973.000000	0.005733
3972.000000	0.005733
3971.000000	0.005728
3970.000000	0.005724
3969.000000	0.005724
3968.000000	0.005726
3967.000000	0.005731
3966.000000	0.005736
3965.000000	0.005743
3964.000000	0.005753
3963.000000	0.005763
3962.000000	0.005769
3961.000000	0.005767
3960.000000	0.005764
3959.000000	0.005765
3958.000000	0.005775
3957.000000	0.005787
3956.000000	0.005793
3955.000000	0.005789
3954.000000	0.005781
3953.000000	0.005780
3952.000000	0.005787
3951.000000	0.005799
3950.000000	0.005807
3949.000000	0.005809
3948.000000	0.005808
3947.000000	0.005804
3946.000000	0.005801
3945.000000	0.005797
3944.000000	0.005792
3943.000000	0.005785
3942.000000	0.005779
3941.000000	0.005775
3940.000000	0.005771
3939.000000	0.005763
3938.000000	0.005752
3937.000000	0.005749
3936.000000	0.005761
3935.000000	0.005788
3934.000000	0.005817
3933.000000	0.005833
3932.000000	0.005835
3931.000000	0.005831
3930.000000	0.005826
3929.000000	0.005822
3928.000000	0.005815
3927.000000	0.005805
3926.000000	0.005789
3925.000000	0.005766
3924.000000	0.005742
3923.000000	0.005732
3922.000000	0.005742
3921.000000	0.005760
3920.000000	0.005771
3919.000000	0.005774
3918.000000	0.005779
3917.000000	0.005791
3916.000000	0.005810
3915.000000	0.005830
3914.000000	0.005849
3913.000000	0.005860
3912.000000	0.005858
3911.000000	0.005842
3910.000000	0.005817
3909.000000	0.005788
3908.000000	0.005763
3907.000000	0.005749
3906.000000	0.005749
3905.000000	0.005761
3904.000000	0.005776
3903.000000	0.005788
3902.000000	0.005794
3901.000000	0.005800
3900.000000	0.005808
3899.000000	0.005820
3898.000000	0.005843
3897.000000	0.005875
3896.000000	0.005905
3895.000000	0.005921
3894.000000	0.005916
3893.000000	0.005890
3892.000000	0.005852
3891.000000	0.005818
3890.000000	0.005799
3889.000000	0.005802
3888.000000	0.005828
3887.000000	0.005860
3886.000000	0.005865
3885.000000	0.005838
3884.000000	0.005806
3883.000000	0.005791
3882.000000	0.005786
3881.000000	0.005773
3880.000000	0.005750
3879.000000	0.005737
3878.000000	0.005749
3877.000000	0.005786
3876.000000	0.005829
3875.000000	0.005846
3874.000000	0.005822
3873.000000	0.005781
3872.000000	0.005759
3871.000000	0.005761
3870.000000	0.005757
3869.000000	0.005741
3868.000000	0.005734
3867.000000	0.005756
3866.000000	0.005793
3865.000000	0.005808
3864.000000	0.005795
3863.000000	0.005777
3862.000000	0.005775
3861.000000	0.005786
3860.000000	0.005798
3859.000000	0.005795
3858.000000	0.005774
3857.000000	0.005751
3856.000000	0.005758
3855.000000	0.005799
3854.000000	0.005831
3853.000000	0.005833
3852.000000	0.005834
3851.000000	0.005846
3850.000000	0.005862
3849.000000	0.005870
3848.000000	0.005870
3847.000000	0.005867
3846.000000	0.005862
3845.000000	0.005849
3844.000000	0.005825
3843.000000	0.005794
3842.000000	0.005767
3841.000000	0.005750
3840.000000	0.005738
3839.000000	0.005725
3838.000000	0.005711
3837.000000	0.005707
3836.000000	0.005715
3835.000000	0.005733
3834.000000	0.005755
3833.000000	0.005774
3832.000000	0.005780
3831.000000	0.005775
3830.000000	0.005771
3829.000000	0.005780
3828.000000	0.005798
3827.000000	0.005804
3826.000000	0.005784
3825.000000	0.005749
3824.000000	0.005733
3823.000000	0.005743
3822.000000	0.005747
3821.000000	0.005721
3820.000000	0.005689
3819.000000	0.005689
3818.000000	0.005729
3817.000000	0.005778
3816.000000	0.005799
3815.000000	0.005793
3814.000000	0.005796
3813.000000	0.005826
3812.000000	0.005862
3811.000000	0.005878
3810.000000	0.005867
3809.000000	0.005844
3808.000000	0.005815
3807.000000	0.005776
3806.000000	0.005734
3805.000000	0.005706
3804.000000	0.005709
3803.000000	0.005731
3802.000000	0.005743
3801.000000	0.005741
3800.000000	0.005751
3799.000000	0.005783
3798.000000	0.005822
3797.000000	0.005846
3796.000000	0.005844
3795.000000	0.005829
3794.000000	0.005818
3793.000000	0.005812
3792.000000	0.005802
3791.000000	0.005781
3790.000000	0.005752
3789.000000	0.005727
3788.000000	0.005711
3787.000000	0.005710
3786.000000	0.005720
3785.000000	0.005737
3784.000000	0.005753
3783.000000	0.005763
3782.000000	0.005766
3781.000000	0.005764
3780.000000	0.005760
3779.000000	0.005762
3778.000000	0.005775
3777.000000	0.005789
3776.000000	0.005796
3775.000000	0.005789
3774.000000	0.005773
3773.000000	0.005765
3772.000000	0.005773
3771.000000	0.005785
3770.000000	0.005782
3769.000000	0.005768
3768.000000	0.005760
3767.000000	0.005767
3766.000000	0.005776
3765.000000	0.005771
3764.000000	0.005753
3763.000000	0.005735
3762.000000	0.005725
3761.000000	0.005709
3760.000000	0.005678
3759.000000	0.005647
3758.000000	0.005629
3757.000000	0.005619
3756.000000	0.005608
3755.000000	0.005599
3754.000000	0.005598
3753.000000	0.005602
3752.000000	0.005607
3751.000000	0.005632
3750.000000	0.005684
3749.000000	0.005724
3748.000000	0.005730
3747.000000	0.005730
3746.000000	0.005764
3745.000000	0.005811
3744.000000	0.005829
3743.000000	0.005822
3742.000000	0.005817
3741.000000	0.005821
3740.000000	0.005816
3739.000000	0.005800
3738.000000	0.005784
3737.000000	0.005761
3736.000000	0.005713
3735.000000	0.005651
3734.000000	0.005619
3733.000000	0.005633
3732.000000	0.005665
3731.000000	0.005685
3730.000000	0.005692
3729.000000	0.005704
3728.000000	0.005735
3727.000000	0.005774
3726.000000	0.005806
3725.000000	0.005823
3724.000000	0.005822
3723.000000	0.005790
3722.000000	0.005729
3721.000000	0.005658
3720.000000	0.005599
3719.000000	0.005570
3718.000000	0.005567
3717.000000	0.005580
3716.000000	0.005599
3715.000000	0.005626
3714.000000	0.005658
3713.000000	0.005685
3712.000000	0.005694
3711.000000	0.005697
3710.000000	0.005705
3709.000000	0.005719
3708.000000	0.005730
3707.000000	0.005732
3706.000000	0.005732
3705.000000	0.005739
3704.000000	0.005757
3703.000000	0.005778
3702.000000	0.005790
3701.000000	0.005786
3700.000000	0.005772
3699.000000	0.005757
3698.000000	0.005748
3697.000000	0.005736
3696.000000	0.005717
3695.000000	0.005699
3694.000000	0.005694
3693.000000	0.005695
3692.000000	0.005685
3691.000000	0.005658
3690.000000	0.005635
3689.000000	0.005643
3688.000000	0.005683
3687.000000	0.005725
3686.000000	0.005754
3685.000000	0.005770
3684.000000	0.005773
3683.000000	0.005767
3682.000000	0.005762
3681.000000	0.005765
3680.000000	0.005782
3679.000000	0.005820
3678.000000	0.005899
3677.000000	0.006001
3676.000000	0.006059
3675.000000	0.006041
3674.000000	0.005997
3673.000000	0.005981
3672.000000	0.006017
3671.000000	0.006076
3670.000000	0.006111
3669.000000	0.006123
3668.000000	0.006138
3667.000000	0.006166
3666.000000	0.006205
3665.000000	0.006247
3664.000000	0.006288
3663.000000	0.006324
3662.000000	0.006349
3661.000000	0.006362
3660.000000	0.006370
3659.000000	0.006388
3658.000000	0.006429
3657.000000	0.006488
3656.000000	0.006547
3655.000000	0.006601
3654.000000	0.006658
3653.000000	0.006737
3652.000000	0.006838
3651.000000	0.006935
3650.000000	0.006999
3649.000000	0.007037
3648.000000	0.007064
3647.000000	0.007085
3646.000000	0.007099
3645.000000	0.007117
3644.000000	0.007148
3643.000000	0.007193
3642.000000	0.007247
3641.000000	0.007303
3640.000000	0.007359
3639.000000	0.007412
3638.000000	0.007467
3637.000000	0.007530
3636.000000	0.007603
3635.000000	0.007670
3634.000000	0.007711
3633.000000	0.007730
3632.000000	0.007760
3631.000000	0.007825
3630.000000	0.007902
3629.000000	0.007945
3628.000000	0.007958
3627.000000	0.007978
3626.000000	0.008021
3625.000000	0.008083
3624.000000	0.008154
3623.000000	0.008225
3622.000000	0.008295
3621.000000	0.008368
3620.000000	0.008444
3619.000000	0.008521
3618.000000	0.008594
3617.000000	0.008658
3616.000000	0.008714
3615.000000	0.008764
3614.000000	0.008808
3613.000000	0.008850
3612.000000	0.008897
3611.000000	0.008957
3610.000000	0.009021
3609.000000	0.009078
3608.000000	0.009125
3607.000000	0.009183
3606.000000	0.009274
3605.000000	0.009397
3604.000000	0.009534
3603.000000	0.009665
3602.000000	0.009770
3601.000000	0.009842
3600.000000	0.009886
3599.000000	0.009917
3598.000000	0.009950
3597.000000	0.009992
3596.000000	0.010045
3595.000000	0.010107
3594.000000	0.010176
3593.000000	0.010249
3592.000000	0.010329
3591.000000	0.010416
3590.000000	0.010510
3589.000000	0.010604
3588.000000	0.010693
3587.000000	0.010786
3586.000000	0.010891
3585.000000	0.010995
3584.000000	0.011081
3583.000000	0.011145
3582.000000	0.011200
3581.000000	0.011259
3580.000000	0.011331
3579.000000	0.011413
3578.000000	0.011500
3577.000000	0.011587
3576.000000	0.011674
3575.000000	0.011763
3574.000000	0.011858
3573.000000	0.011958
3572.000000	0.012061
3571.000000	0.012163
3570.000000	0.012264
3569.000000	0.012356
3568.000000	0.012427
3567.000000	0.012485
3566.000000	0.012560
3565.000000	0.012673
3564.000000	0.012811
3563.000000	0.012949
3562.000000	0.013068
3561.000000	0.013165
3560.000000	0.013250
3559.000000	0.013338
3558.000000	0.013434
3557.000000	0.013538
3556.000000	0.013645
3555.000000	0.013748
3554.000000	0.013847
3553.000000	0.013940
3552.000000	0.014028
3551.000000	0.014109
3550.000000	0.014184
3549.000000	0.014260
3548.000000	0.014343
3547.000000	0.014435
3546.000000	0.014527
3545.000000	0.014616
3544.000000	0.014704
3543.000000	0.014796
3542.000000	0.014897
3541.000000	0.015007
3540.000000	0.015124
3539.000000	0.015242
3538.000000	0.015356
3537.000000	0.015457
3536.000000	0.015545
3535.000000	0.015624
3534.000000	0.015703
3533.000000	0.015785
3532.000000	0.015871
3531.000000	0.015961
3530.000000	0.016055
3529.000000	0.016156
3528.000000	0.016263
3527.000000	0.016372
3526.000000	0.016476
3525.000000	0.016571
3524.000000	0.016660
3523.000000	0.016751
3522.000000	0.016852
3521.000000	0.016962
3520.000000	0.017068
3519.000000	0.017163
3518.000000	0.017243
3517.000000	0.017311
3516.000000	0.017367
3515.000000	0.017416
3514.000000	0.017472
3513.000000	0.017553
3512.000000	0.017666
3511.000000	0.017804
3510.000000	0.017947
3509.000000	0.018072
3508.000000	0.018164
3507.000000	0.018224
3506.000000	0.018269
3505.000000	0.018319
3504.000000	0.018389
3503.000000	0.018479
3502.000000	0.018577
3501.000000	0.018672
3500.000000	0.018758
3499.000000	0.018841
3498.000000	0.018923
3497.000000	0.019004
3496.000000	0.019081
3495.000000	0.019153
3494.000000	0.019226
3493.000000	0.019303
3492.000000	0.019380
3491.000000	0.019451
3490.000000	0.019515
3489.000000	0.019576
3488.000000	0.019637
3487.000000	0.019699
3486.000000	0.019765
3485.000000	0.019835
3484.000000	0.019909
3483.000000	0.019987
3482.000000	0.020070
3481.000000	0.020157
3480.000000	0.020239
3479.000000	0.020308
3478.000000	0.020361
3477.000000	0.020409
3476.000000	0.020467
3475.000000	0.020544
3474.000000	0.020639
3473.000000	0.020743
3472.000000	0.020842
3471.000000	0.020932
3470.000000	0.021018
3469.000000	0.021101
3468.000000	0.021179
3467.000000	0.021242
3466.000000	0.021290
3465.000000	0.021331
3464.000000	0.021382
3463.000000	0.021453
3462.000000	0.021537
3461.000000	0.021616
3460.000000	0.021681
3459.000000	0.021738
3458.000000	0.021804
3457.000000	0.021885
3456.000000	0.021977
3455.000000	0.022072
3454.000000	0.022165
3453.000000	0.022257
3452.000000	0.022345
3451.000000	0.022425
3450.000000	0.022500
3449.000000	0.022574
3448.000000	0.022650
3447.000000	0.022727
3446.000000	0.022803
3445.000000	0.022880
3444.000000	0.022953
3443.000000	0.023020
3442.000000	0.023083
3441.000000	0.023151
3440.000000	0.023228
3439.000000	0.023314
3438.000000	0.023404
3437.000000	0.023496
3436.000000	0.023588
3435.000000	0.023678
3434.000000	0.023764
3433.000000	0.023843
3432.000000	0.023914
3431.000000	0.023982
3430.000000	0.024049
3429.000000	0.024122
3428.000000	0.024204
3427.000000	0.024292
3426.000000	0.024380
3425.000000	0.024458
3424.000000	0.024522
3423.000000	0.024583
3422.000000	0.024655
3421.000000	0.024744
3420.000000	0.024840
3419.000000	0.024932
3418.000000	0.025018
3417.000000	0.025102
3416.000000	0.025182
3415.000000	0.025252
3414.000000	0.025313
3413.000000	0.025371
3412.000000	0.025434
3411.000000	0.025499
3410.000000	0.025564
3409.000000	0.025629
3408.000000	0.025700
3407.000000	0.025776
3406.000000	0.025850
3405.000000	0.025917
3404.000000	0.025976
3403.000000	0.026035
3402.000000	0.026106
3401.000000	0.026194
3400.000000	0.026298
3399.000000	0.026401
3398.000000	0.026489
3397.000000	0.026552
3396.000000	0.026597
3395.000000	0.026636
3394.000000	0.026684
3393.000000	0.026745
3392.000000	0.026821
3391.000000	0.026907
3390.000000	0.026997
3389.000000	0.027086
3388.000000	0.027173
3387.000000	0.027259
3386.000000	0.027348
3385.000000	0.027438
3384.000000	0.027530
3383.000000	0.027622
3382.000000	0.027713
3381.000000	0.027797
3380.000000	0.027874
3379.000000	0.027953
3378.000000	0.028040
3377.000000	0.028132
3376.000000	0.028220
3375.000000	0.028304
3374.000000	0.028395
3373.000000	0.028503
3372.000000	0.028625
3371.000000	0.028746
3370.000000	0.028856
3369.000000	0.028960
3368.000000	0.029068
3367.000000	0.029183
3366.000000	0.029299
3365.000000	0.029411
3364.000000	0.029515
3363.000000	0.029623
3362.000000	0.029743
3361.000000	0.029879
3360.000000	0.030020
3359.000000	0.030151
3358.000000	0.030269
3357.000000	0.030382
3356.000000	0.030503
3355.000000	0.030643
3354.000000	0.030798
3353.000000	0.030956
3352.000000	0.031102
3351.000000	0.031235
3350.000000	0.031365
3349.000000	0.031503
3348.000000	0.031651
3347.000000	0.031805
3346.000000	0.031961
3345.000000	0.032113
3344.000000	0.032257
3343.000000	0.032391
3342.000000	0.032520
3341.000000	0.032645
3340.000000	0.032769
3339.000000	0.032894
3338.000000	0.033026
3337.000000	0.033162
3336.000000	0.033293
3335.000000	0.033408
3334.000000	0.033511
3333.000000	0.033617
3332.000000	0.033735
3331.000000	0.033862
3330.000000	0.033985
3329.000000	0.034089
3328.000000	0.034175
3327.000000	0.034252
3326.000000	0.034330
3325.000000	0.034418
3324.000000	0.034516
3323.000000	0.034623
3322.000000	0.034729
3321.000000	0.034827
3320.000000	0.034913
3319.000000	0.034997
3318.000000	0.035093
3317.000000	0.035206
3316.000000	0.035325
3315.000000	0.035432
3314.000000	0.035521
3313.000000	0.035594
3312.000000	0.035654
3311.000000	0.035703
3310.000000	0.035740
3309.000000	0.035768
3308.000000	0.035794
3307.000000	0.035832
3306.000000	0.035892
3305.000000	0.035973
3304.000000	0.036060
3303.000000	0.036138
3302.000000	0.036206
3301.000000	0.036266
3300.000000	0.036316
3299.000000	0.036354
3298.000000	0.036381
3297.000000	0.036408
3296.000000	0.036440
3295.000000	0.036473
3294.000000	0.036503
3293.000000	0.036529
3292.000000	0.036556
3291.000000	0.036592
3290.000000	0.036638
3289.000000	0.036695
3288.000000	0.036755
3287.000000	0.036806
3286.000000	0.036841
3285.000000	0.036860
3284.000000	0.036864
3283.000000	0.036855
3282.000000	0.036833
3281.000000	0.036798
3280.000000	0.036746
3279.000000	0.036679
3278.000000	0.036608
3277.000000	0.036549
3276.000000	0.036510
3275.000000	0.036487
3274.000000	0.036467
3273.000000	0.036439
3272.000000	0.036401
3271.000000	0.036356
3270.000000	0.036305
3269.000000	0.036242
3268.000000	0.036162
3267.000000	0.036071
3266.000000	0.035984
3265.000000	0.035914
3264.000000	0.035860
3263.000000	0.035811
3262.000000	0.035755
3261.000000	0.035686
3260.000000	0.035607
3259.000000	0.035523
3258.000000	0.035443
3257.000000	0.035366
3256.000000	0.035286
3255.000000	0.035199
3254.000000	0.035110
3253.000000	0.035020
3252.000000	0.034926
3251.000000	0.034823
3250.000000	0.034720
3249.000000	0.034632
3248.000000	0.034565
3247.000000	0.034512
3246.000000	0.034457
3245.000000	0.034395
3244.000000	0.034326
3243.000000	0.034258
3242.000000	0.034190
3241.000000	0.034120
3240.000000	0.034040
3239.000000	0.033950
3238.000000	0.033857
3237.000000	0.033773
3236.000000	0.033704
3235.000000	0.033646
3234.000000	0.033594
3233.000000	0.033544
3232.000000	0.033499
3231.000000	0.033456
3230.000000	0.033408
3229.000000	0.033350
3228.000000	0.033287
3227.000000	0.033230
3226.000000	0.033185
3225.000000	0.033151
3224.000000	0.033116
3223.000000	0.033070
3222.000000	0.033011
3221.000000	0.032945
3220.000000	0.032879
3219.000000	0.032817
3218.000000	0.032757
3217.000000	0.032697
3216.000000	0.032634
3215.000000	0.032566
3214.000000	0.032494
3213.000000	0.032422
3212.000000	0.032349
3211.000000	0.032272
3210.000000	0.032191
3209.000000	0.032109
3208.000000	0.032033
3207.000000	0.031965
3206.000000	0.031908
3205.000000	0.031859
3204.000000	0.031814
3203.000000	0.031764
3202.000000	0.031703
3201.000000	0.031629
3200.000000	0.031544
3199.000000	0.031453
3198.000000	0.031362
3197.000000	0.031271
3196.000000	0.031177
3195.000000	0.031073
3194.000000	0.030960
3193.000000	0.030855
3192.000000	0.030776
3191.000000	0.030725
3190.000000	0.030683
3189.000000	0.030624
3188.000000	0.030534
3187.000000	0.030414
3186.000000	0.030275
3185.000000	0.030135
3184.000000	0.030012
3183.000000	0.029913
3182.000000	0.029835
3181.000000	0.029763
3180.000000	0.029686
3179.000000	0.029598
3178.000000	0.029501
3177.000000	0.029400
3176.000000	0.029296
3175.000000	0.029187
3174.000000	0.029071
3173.000000	0.028946
3172.000000	0.028818
3171.000000	0.028694
3170.000000	0.028581
3169.000000	0.028475
3168.000000	0.028376
3167.000000	0.028283
3166.000000	0.028200
3165.000000	0.028129
3164.000000	0.028065
3163.000000	0.028000
3162.000000	0.027925
3161.000000	0.027837
3160.000000	0.027737
3159.000000	0.027633
3158.000000	0.027529
3157.000000	0.027426
3156.000000	0.027320
3155.000000	0.027209
3154.000000	0.027094
3153.000000	0.026981
3152.000000	0.026878
3151.000000	0.026791
3150.000000	0.026718
3149.000000	0.026656
3148.000000	0.026602
3147.000000	0.026552
3146.000000	0.026498
3145.000000	0.026431
3144.000000	0.026347
3143.000000	0.026251
3142.000000	0.026153
3141.000000	0.026060
3140.000000	0.025976
3139.000000	0.025905
3138.000000	0.025844
3137.000000	0.025782
3136.000000	0.025708
3135.000000	0.025627
3134.000000	0.025557
3133.000000	0.025508
3132.000000	0.025474
3131.000000	0.025443
3130.000000	0.025402
3129.000000	0.025352
3128.000000	0.025294
3127.000000	0.025235
3126.000000	0.025181
3125.000000	0.025137
3124.000000	0.025103
3123.000000	0.025073
3122.000000	0.025037
3121.000000	0.024994
3120.000000	0.024952
3119.000000	0.024922
3118.000000	0.024909
3117.000000	0.024912
3116.000000	0.024922
3115.000000	0.024931
3114.000000	0.024929
3113.000000	0.024912
3112.000000	0.024888
3111.000000	0.024869
3110.000000	0.024865
3109.000000	0.024873
3108.000000	0.024890
3107.000000	0.024918
3106.000000	0.024961
3105.000000	0.025012
3104.000000	0.025049
3103.000000	0.025060
3102.000000	0.025055
3101.000000	0.025059
3100.000000	0.025089
3099.000000	0.025141
3098.000000	0.025196
3097.000000	0.025238
3096.000000	0.025258
3095.000000	0.025263
3094.000000	0.025262
3093.000000	0.025268
3092.000000	0.025283
3091.000000	0.025304
3090.000000	0.025325
3089.000000	0.025347
3088.000000	0.025370
3087.000000	0.025397
3086.000000	0.025430
3085.000000	0.025463
3084.000000	0.025492
3083.000000	0.025513
3082.000000	0.025527
3081.000000	0.025537
3080.000000	0.025546
3079.000000	0.025551
3078.000000	0.025549
3077.000000	0.025542
3076.000000	0.025540
3075.000000	0.025553
3074.000000	0.025579
3073.000000	0.025604
3072.000000	0.025612
3071.000000	0.025593
3070.000000	0.025546
3069.000000	0.025483
3068.000000	0.025423
3067.000000	0.025386
3066.000000	0.025373
3065.000000	0.025369
3064.000000	0.025350
3063.000000	0.025302
3062.000000	0.025228
3061.000000	0.025145
3060.000000	0.025069
3059.000000	0.025001
3058.000000	0.024931
3057.000000	0.024846
3056.000000	0.024747
3055.000000	0.024643
3054.000000	0.024546
3053.000000	0.024460
3052.000000	0.024376
3051.000000	0.024283
3050.000000	0.024176
3049.000000	0.024059
3048.000000	0.023944
3047.000000	0.023842
3046.000000	0.023753
3045.000000	0.023665
3044.000000	0.023566
3043.000000	0.023455
3042.000000	0.023347
3041.000000	0.023254
3040.000000	0.023180
3039.000000	0.023116
3038.000000	0.023047
3037.000000	0.022960
3036.000000	0.022851
3035.000000	0.022731
3034.000000	0.022615
3033.000000	0.022514
3032.000000	0.022420
3031.000000	0.022323
3030.000000	0.022217
3029.000000	0.022106
3028.000000	0.021992
3027.000000	0.021872
3026.000000	0.021741
3025.000000	0.021602
3024.000000	0.021468
3023.000000	0.021351
3022.000000	0.021251
3021.000000	0.021153
3020.000000	0.021036
3019.000000	0.020891
3018.000000	0.020725
3017.000000	0.020560
3016.000000	0.020416
3015.000000	0.020299
3014.000000	0.020201
3013.000000	0.020108
3012.000000	0.020009
3011.000000	0.019899
3010.000000	0.019774
3009.000000	0.019646
3008.000000	0.019537
3007.000000	0.019465
3006.000000	0.019426
3005.000000	0.019408
3004.000000	0.019399
3003.000000	0.019399
3002.000000	0.019411
3001.000000	0.019434
3000.000000	0.019466
2999.000000	0.019513
2998.000000	0.019580
2997.000000	0.019662
2996.000000	0.019749
2995.000000	0.019828
2994.000000	0.019897
2993.000000	0.019956
2992.000000	0.020011
2991.000000	0.020068
2990.000000	0.020129
2989.000000	0.020196
2988.000000	0.020268
2987.000000	0.020343
2986.000000	0.020419
2985.000000	0.020486
2984.000000	0.020535
2983.000000	0.020567
2982.000000	0.020588
2981.000000	0.020601
2980.000000	0.020598
2979.000000	0.020574
2978.000000	0.020534
2977.000000	0.020493
2976.000000	0.020458
2975.000000	0.020415
2974.000000	0.020348
2973.000000	0.020253
2972.000000	0.020136
2971.000000	0.020008
2970.000000	0.019869
2969.000000	0.019712
2968.000000	0.019535
2967.000000	0.019343
2966.000000	0.019142
2965.000000	0.018933
2964.000000	0.018717
2963.000000	0.018498
2962.000000	0.018283
2961.000000	0.018079
2960.000000	0.017890
2959.000000	0.017714
2958.000000	0.017552
2957.000000	0.017399
2956.000000	0.017250
2955.000000	0.017105
2954.000000	0.016974
2953.000000	0.016864
2952.000000	0.016774
2951.000000	0.016687
2950.000000	0.016580
2949.000000	0.016440
2948.000000	0.016261
2947.000000	0.016039
2946.000000	0.015768
2945.000000	0.015445
2944.000000	0.015083
2943.000000	0.014703
2942.000000	0.014318
2941.000000	0.013915
2940.000000	0.013464
2939.000000	0.012949
2938.000000	0.012377
2937.000000	0.011769
2936.000000	0.011139
2935.000000	0.010499
2934.000000	0.009854
2933.000000	0.009213
2932.000000	0.008586
2931.000000	0.007987
2930.000000	0.007437
2929.000000	0.006956
2928.000000	0.006561
2927.000000	0.006261
2926.000000	0.006076
2925.000000	0.006037
2924.000000	0.006180
2923.000000	0.006529
2922.000000	0.007086
2921.000000	0.007819
2920.000000	0.008679
2919.000000	0.009609
2918.000000	0.010553
2917.000000	0.011453
2916.000000	0.012245
2915.000000	0.012879
2914.000000	0.013342
2913.000000	0.013667
2912.000000	0.013911
2911.000000	0.014126
2910.000000	0.014340
2909.000000	0.014558
2908.000000	0.014775
2907.000000	0.014985
2906.000000	0.015184
2905.000000	0.015374
2904.000000	0.015558
2903.000000	0.015741
2902.000000	0.015926
2901.000000	0.016111
2900.000000	0.016295
2899.000000	0.016472
2898.000000	0.016640
2897.000000	0.016798
2896.000000	0.016954
2895.000000	0.017108
2894.000000	0.017259
2893.000000	0.017404
2892.000000	0.017545
2891.000000	0.017689
2890.000000	0.017841
2889.000000	0.017995
2888.000000	0.018134
2887.000000	0.018244
2886.000000	0.018324
2885.000000	0.018384
2884.000000	0.018437
2883.000000	0.018492
2882.000000	0.018540
2881.000000	0.018562
2880.000000	0.018537
2879.000000	0.018462
2878.000000	0.018343
2877.000000	0.018190
2876.000000	0.018005
2875.000000	0.017795
2874.000000	0.017576
2873.000000	0.017360
2872.000000	0.017153
2871.000000	0.016945
2870.000000	0.016722
2869.000000	0.016468
2868.000000	0.016163
2867.000000	0.015790
2866.000000	0.015338
2865.000000	0.014806
2864.000000	0.014198
2863.000000	0.013516
2862.000000	0.012768
2861.000000	0.011977
2860.000000	0.011174
2859.000000	0.010394
2858.000000	0.009675
2857.000000	0.009066
2856.000000	0.008628
2855.000000	0.008425
2854.000000	0.008516
2853.000000	0.008929
2852.000000	0.009634
2851.000000	0.010537
2850.000000	0.011505
2849.000000	0.012421
2848.000000	0.013226
2847.000000	0.013920
2846.000000	0.014528
2845.000000	0.015067
2844.000000	0.015543
2843.000000	0.015955
2842.000000	0.016304
2841.000000	0.016587
2840.000000	0.016801
2839.000000	0.016956
2838.000000	0.017065
2837.000000	0.017148
2836.000000	0.017216
2835.000000	0.017278
2834.000000	0.017340
2833.000000	0.017403
2832.000000	0.017462
2831.000000	0.017511
2830.000000	0.017549
2829.000000	0.017576
2828.000000	0.017589
2827.000000	0.017589
2826.000000	0.017574
2825.000000	0.017551
2824.000000	0.017527
2823.000000	0.017508
2822.000000	0.017499
2821.000000	0.017493
2820.000000	0.017483
2819.000000	0.017461
2818.000000	0.017431
2817.000000	0.017401
2816.000000	0.017374
2815.000000	0.017353
2814.000000	0.017331
2813.000000	0.017305
2812.000000	0.017274
2811.000000	0.017246
2810.000000	0.017230
2809.000000	0.017222
2808.000000	0.017210
2807.000000	0.017185
2806.000000	0.017147
2805.000000	0.017110
2804.000000	0.017084
2803.000000	0.017069
2802.000000	0.017060
2801.000000	0.017042
2800.000000	0.017003
2799.000000	0.016945
2798.000000	0.016886
2797.000000	0.016847
2796.000000	0.016832
2795.000000	0.016828
2794.000000	0.016818
2793.000000	0.016796
2792.000000	0.016763
2791.000000	0.016728
2790.000000	0.016693
2789.000000	0.016657
2788.000000	0.016620
2787.000000	0.016585
2786.000000	0.016554
2785.000000	0.016527
2784.000000	0.016497
2783.000000	0.016460
2782.000000	0.016416
2781.000000	0.016366
2780.000000	0.016311
2779.000000	0.016259
2778.000000	0.016222
2777.000000	0.016202
2776.000000	0.016190
2775.000000	0.016174
2774.000000	0.016152
2773.000000	0.016125
2772.000000	0.016095
2771.000000	0.016064
2770.000000	0.016034
2769.000000	0.016016
2768.000000	0.016011
2767.000000	0.016009
2766.000000	0.015997
2765.000000	0.015970
2764.000000	0.015931
2763.000000	0.015890
2762.000000	0.015850
2761.000000	0.015814
2760.000000	0.015783
2759.000000	0.015756
2758.000000	0.015734
2757.000000	0.015718
2756.000000	0.015703
2755.000000	0.015684
2754.000000	0.015653
2753.000000	0.015612
2752.000000	0.015568
2751.000000	0.015536
2750.000000	0.015521
2749.000000	0.015520
2748.000000	0.015518
2747.000000	0.015503
2746.000000	0.015471
2745.000000	0.015429
2744.000000	0.015383
2743.000000	0.015338
2742.000000	0.015297
2741.000000	0.015260
2740.000000	0.015227
2739.000000	0.015201
2738.000000	0.015182
2737.000000	0.015168
2736.000000	0.015151
2735.000000	0.015124
2734.000000	0.015089
2733.000000	0.015055
2732.000000	0.015029
2731.000000	0.015014
2730.000000	0.015004
2729.000000	0.014990
2728.000000	0.014965
2727.000000	0.014934
2726.000000	0.014902
2725.000000	0.014873
2724.000000	0.014842
2723.000000	0.014803
2722.000000	0.014762
2721.000000	0.014726
2720.000000	0.014700
2719.000000	0.014675
2718.000000	0.014645
2717.000000	0.014610
2716.000000	0.014580
2715.000000	0.014561
2714.000000	0.014550
2713.000000	0.014539
2712.000000	0.014525
2711.000000	0.014507
2710.000000	0.014487
2709.000000	0.014463
2708.000000	0.014439
2707.000000	0.014419
2706.000000	0.014408
2705.000000	0.014402
2704.000000	0.014391
2703.000000	0.014371
2702.000000	0.014346
2701.000000	0.014319
2700.000000	0.014290
2699.000000	0.014257
2698.000000	0.014221
2697.000000	0.014186
2696.000000	0.014154
2695.000000	0.014129
2694.000000	0.014114
2693.000000	0.014105
2692.000000	0.014096
2691.000000	0.014084
2690.000000	0.014073
2689.000000	0.014074
2688.000000	0.014087
2687.000000	0.014098
2686.000000	0.014093
2685.000000	0.014070
2684.000000	0.014038
2683.000000	0.014010
2682.000000	0.013997
2681.000000	0.013993
2680.000000	0.013989
2679.000000	0.013976
2678.000000	0.013958
2677.000000	0.013945
2676.000000	0.013942
2675.000000	0.013950
2674.000000	0.013961
2673.000000	0.013965
2672.000000	0.013958
2671.000000	0.013939
2670.000000	0.013911
2669.000000	0.013882
2668.000000	0.013857
2667.000000	0.013844
2666.000000	0.013845
2665.000000	0.013851
2664.000000	0.013847
2663.000000	0.013827
2662.000000	0.013799
2661.000000	0.013777
2660.000000	0.013770
2659.000000	0.013773
2658.000000	0.013779
2657.000000	0.013777
2656.000000	0.013765
2655.000000	0.013745
2654.000000	0.013723
2653.000000	0.013699
2652.000000	0.013668
2651.000000	0.013624
2650.000000	0.013571
2649.000000	0.013515
2648.000000	0.013464
2647.000000	0.013427
2646.000000	0.013413
2645.000000	0.013416
2644.000000	0.013419
2643.000000	0.013406
2642.000000	0.013372
2641.000000	0.013327
2640.000000	0.013283
2639.000000	0.013245
2638.000000	0.013218
2637.000000	0.013201
2636.000000	0.013191
2635.000000	0.013180
2634.000000	0.013163
2633.000000	0.013134
2632.000000	0.013097
2631.000000	0.013055
2630.000000	0.013020
2629.000000	0.012995
2628.000000	0.012970
2627.000000	0.012932
2626.000000	0.012881
2625.000000	0.012831
2624.000000	0.012803
2623.000000	0.012805
2622.000000	0.012829
2621.000000	0.012857
2620.000000	0.012865
2619.000000	0.012839
2618.000000	0.012785
2617.000000	0.012724
2616.000000	0.012680
2615.000000	0.012657
2614.000000	0.012646
2613.000000	0.012628
2612.000000	0.012598
2611.000000	0.012565
2610.000000	0.012541
2609.000000	0.012528
2608.000000	0.012524
2607.000000	0.012525
2606.000000	0.012534
2605.000000	0.012543
2604.000000	0.012543
2603.000000	0.012526
2602.000000	0.012493
2601.000000	0.012451
2600.000000	0.012399
2599.000000	0.012333
2598.000000	0.012262
2597.000000	0.012198
2596.000000	0.012152
2595.000000	0.012125
2594.000000	0.012114
2593.000000	0.012116
2592.000000	0.012124
2591.000000	0.012134
2590.000000	0.012143
2589.000000	0.012150
2588.000000	0.012150
2587.000000	0.012137
2586.000000	0.012112
2585.000000	0.012080
2584.000000	0.012050
2583.000000	0.012032
2582.000000	0.012032
2581.000000	0.012047
2580.000000	0.012061
2579.000000	0.012055
2578.000000	0.012021
2577.000000	0.011967
2576.000000	0.011907
2575.000000	0.011853
2574.000000	0.011819
2573.000000	0.011811
2572.000000	0.011829
2571.000000	0.011867
2570.000000	0.011916
2569.000000	0.011959
2568.000000	0.011982
2567.000000	0.011978
2566.000000	0.011956
2565.000000	0.011923
2564.000000	0.011877
2563.000000	0.011816
2562.000000	0.011753
2561.000000	0.011711
2560.000000	0.011693
2559.000000	0.011678
2558.000000	0.011646
2557.000000	0.011606
2556.000000	0.011590
2555.000000	0.011617
2554.000000	0.011681
2553.000000	0.011746
2552.000000	0.011778
2551.000000	0.011759
2550.000000	0.011699
2549.000000	0.011619
2548.000000	0.011547
2547.000000	0.011497
2546.000000	0.011472
2545.000000	0.011458
2544.000000	0.011439
2543.000000	0.011410
2542.000000	0.011384
2541.000000	0.011375
2540.000000	0.011384
2539.000000	0.011402
2538.000000	0.011423
2537.000000	0.011444
2536.000000	0.011464
2535.000000	0.011473
2534.000000	0.011459
2533.000000	0.011418
2532.000000	0.011366
2531.000000	0.011325
2530.000000	0.011309
2529.000000	0.011315
2528.000000	0.011330
2527.000000	0.011345
2526.000000	0.011359
2525.000000	0.011368
2524.000000	0.011364
2523.000000	0.011350
2522.000000	0.011333
2521.000000	0.011317
2520.000000	0.011295
2519.000000	0.011268
2518.000000	0.011254
2517.000000	0.011268
2516.000000	0.011303
2515.000000	0.011335
2514.000000	0.011355
2513.000000	0.011367
2512.000000	0.011374
2511.000000	0.011363
2510.000000	0.011325
2509.000000	0.011271
2508.000000	0.011226
2507.000000	0.011205
2506.000000	0.011206
2505.000000	0.011213
2504.000000	0.011216
2503.000000	0.011213
2502.000000	0.011201
2501.000000	0.011180
2500.000000	0.011153
2499.000000	0.011131
2498.000000	0.011115
2497.000000	0.011089
2496.000000	0.011039
2495.000000	0.010982
2494.000000	0.010947
2493.000000	0.010944
2492.000000	0.010951
2491.000000	0.010949
2490.000000	0.010946
2489.000000	0.010955
2488.000000	0.010973
2487.000000	0.010984
2486.000000	0.010991
2485.000000	0.011006
2484.000000	0.011025
2483.000000	0.011029
2482.000000	0.011006
2481.000000	0.010970
2480.000000	0.010939
2479.000000	0.010918
2478.000000	0.010905
2477.000000	0.010896
2476.000000	0.010884
2475.000000	0.010865
2474.000000	0.010839
2473.000000	0.010815
2472.000000	0.010798
2471.000000	0.010789
2470.000000	0.010787
2469.000000	0.010790
2468.000000	0.010789
2467.000000	0.010772
2466.000000	0.010736
2465.000000	0.010691
2464.000000	0.010651
2463.000000	0.010630
2462.000000	0.010640
2461.000000	0.010684
2460.000000	0.010746
2459.000000	0.010790
2458.000000	0.010791
2457.000000	0.010750
2456.000000	0.010693
2455.000000	0.010645
2454.000000	0.010620
2453.000000	0.010622
2452.000000	0.010652
2451.000000	0.010699
2450.000000	0.010740
2449.000000	0.010756
2448.000000	0.010742
2447.000000	0.010713
2446.000000	0.010686
2445.000000	0.010662
2444.000000	0.010632
2443.000000	0.010595
2442.000000	0.010563
2441.000000	0.010551
2440.000000	0.010558
2439.000000	0.010574
2438.000000	0.010590
2437.000000	0.010597
2436.000000	0.010582
2435.000000	0.010541
2434.000000	0.010487
2433.000000	0.010451
2432.000000	0.010447
2431.000000	0.010467
2430.000000	0.010488
2429.000000	0.010500
2428.000000	0.010511
2427.000000	0.010525
2426.000000	0.010539
2425.000000	0.010545
2424.000000	0.010544
2423.000000	0.010545
2422.000000	0.010550
2421.000000	0.010546
2420.000000	0.010520
2419.000000	0.010486
2418.000000	0.010466
2417.000000	0.010469
2416.000000	0.010477
2415.000000	0.010470
2414.000000	0.010439
2413.000000	0.010387
2412.000000	0.010326
2411.000000	0.010275
2410.000000	0.010253
2409.000000	0.010262
2408.000000	0.010288
2407.000000	0.010311
2406.000000	0.010322
2405.000000	0.010320
2404.000000	0.010312
2403.000000	0.010308
2402.000000	0.010314
2401.000000	0.010320
2400.000000	0.010309
2399.000000	0.010283
2398.000000	0.010265
2397.000000	0.010269
2396.000000	0.010282
2395.000000	0.010289
2394.000000	0.010300
2393.000000	0.010330
2392.000000	0.010370
2391.000000	0.010398
2390.000000	0.010403
2389.000000	0.010393
2388.000000	0.010385
2387.000000	0.010389
2386.000000	0.010411
2385.000000	0.010447
2384.000000	0.010477
2383.000000	0.010483
2382.000000	0.010462
2381.000000	0.010430
2380.000000	0.010402
2379.000000	0.010390
2378.000000	0.010401
2377.000000	0.010427
2376.000000	0.010450
2375.000000	0.010454
2374.000000	0.010445
2373.000000	0.010438
2372.000000	0.010438
2371.000000	0.010438
2370.000000	0.010449
2369.000000	0.010485
2368.000000	0.010530
2367.000000	0.010552
2366.000000	0.010538
2365.000000	0.010510
2364.000000	0.010489
2363.000000	0.010477
2362.000000	0.010467
2361.000000	0.010468
2360.000000	0.010486
2359.000000	0.010514
2358.000000	0.010536
2357.000000	0.010546
2356.000000	0.010555
2355.000000	0.010569
2354.000000	0.010565
2353.000000	0.010518
2352.000000	0.010459
2351.000000	0.010456
2350.000000	0.010529
2349.000000	0.010631
2348.000000	0.010702
2347.000000	0.010704
2346.000000	0.010650
2345.000000	0.010600
2344.000000	0.010606
2343.000000	0.010647
2342.000000	0.010672
2341.000000	0.010662
2340.000000	0.010633
2339.000000	0.010612
2338.000000	0.010597
2337.000000	0.010581
2336.000000	0.010573
2335.000000	0.010596
2334.000000	0.010647
2333.000000	0.010688
2332.000000	0.010684
2331.000000	0.010645
2330.000000	0.010599
2329.000000	0.010577
2328.000000	0.010598
2327.000000	0.010666
2326.000000	0.010762
2325.000000	0.010838
2324.000000	0.010845
2323.000000	0.010775
2322.000000	0.010669
2321.000000	0.010572
2320.000000	0.010501
2319.000000	0.010449
2318.000000	0.010414
2317.000000	0.010405
2316.000000	0.010421
2315.000000	0.010449
2314.000000	0.010470
2313.000000	0.010471
2312.000000	0.010451
2311.000000	0.010421
2310.000000	0.010393
2309.000000	0.010365
2308.000000	0.010325
2307.000000	0.010271
2306.000000	0.010224
2305.000000	0.010206
2304.000000	0.010214
2303.000000	0.010233
2302.000000	0.010251
2301.000000	0.010270
2300.000000	0.010288
2299.000000	0.010295
2298.000000	0.010283
2297.000000	0.010247
2296.000000	0.010195
2295.000000	0.010147
2294.000000	0.010126
2293.000000	0.010140
2292.000000	0.010168
2291.000000	0.010185
2290.000000	0.010193
2289.000000	0.010207
2288.000000	0.010230
2287.000000	0.010248
2286.000000	0.010244
2285.000000	0.010214
2284.000000	0.010164
2283.000000	0.010113
2282.000000	0.010088
2281.000000	0.010101
2280.000000	0.010130
2279.000000	0.010146
2278.000000	0.010144
2277.000000	0.010128
2276.000000	0.010085
2275.000000	0.010002
2274.000000	0.009900
2273.000000	0.009828
2272.000000	0.009808
2271.000000	0.009820
2270.000000	0.009828
2269.000000	0.009816
2268.000000	0.009787
2267.000000	0.009756
2266.000000	0.009745
2265.000000	0.009763
2264.000000	0.009794
2263.000000	0.009817
2262.000000	0.009823
2261.000000	0.009816
2260.000000	0.009787
2259.000000	0.009725
2258.000000	0.009647
2257.000000	0.009586
2256.000000	0.009556
2255.000000	0.009545
2254.000000	0.009531
2253.000000	0.009504
2252.000000	0.009466
2251.000000	0.009441
2250.000000	0.009465
2249.000000	0.009548
2248.000000	0.009641
2247.000000	0.009696
2246.000000	0.009723
2245.000000	0.009758
2244.000000	0.009789
2243.000000	0.009766
2242.000000	0.009692
2241.000000	0.009652
2240.000000	0.009725
2239.000000	0.009895
2238.000000	0.010087
2237.000000	0.010237
2236.000000	0.010319
2235.000000	0.010316
2234.000000	0.010228
2233.000000	0.010092
2232.000000	0.009976
2231.000000	0.009918
2230.000000	0.009891
2229.000000	0.009833
2228.000000	0.009711
2227.000000	0.009564
2226.000000	0.009463
2225.000000	0.009434
2224.000000	0.009440
2223.000000	0.009434
2222.000000	0.009419
2221.000000	0.009422
2220.000000	0.009435
2219.000000	0.009429
2218.000000	0.009408
2217.000000	0.009408
2216.000000	0.009435
2215.000000	0.009445
2214.000000	0.009403
2213.000000	0.009322
2212.000000	0.009246
2211.000000	0.009207
2210.000000	0.009227
2209.000000	0.009304
2208.000000	0.009404
2207.000000	0.009464
2206.000000	0.009442
2205.000000	0.009353
2204.000000	0.009267
2203.000000	0.009260
2202.000000	0.009342
2201.000000	0.009434
2200.000000	0.009432
2199.000000	0.009322
2198.000000	0.009203
2197.000000	0.009163
2196.000000	0.009179
2195.000000	0.009165
2194.000000	0.009099
2193.000000	0.009036
2192.000000	0.009008
2191.000000	0.008980
2190.000000	0.008915
2189.000000	0.008832
2188.000000	0.008779
2187.000000	0.008786
2186.000000	0.008852
2185.000000	0.008951
2184.000000	0.009043
2183.000000	0.009090
2182.000000	0.009095
2181.000000	0.009088
2180.000000	0.009090
2179.000000	0.009112
2178.000000	0.009177
2177.000000	0.009275
2176.000000	0.009332
2175.000000	0.009258
2174.000000	0.009058
2173.000000	0.008849
2172.000000	0.008750
2171.000000	0.008790
2170.000000	0.008899
2169.000000	0.008983
2168.000000	0.008987
2167.000000	0.008937
2166.000000	0.008902
2165.000000	0.008910
2164.000000	0.008912
2163.000000	0.008849
2162.000000	0.008728
2161.000000	0.008588
2160.000000	0.008435
2159.000000	0.008259
2158.000000	0.008086
2157.000000	0.007940
2156.000000	0.007805
2155.000000	0.007702
2154.000000	0.007723
2153.000000	0.007908
2152.000000	0.008138
2151.000000	0.008231
2150.000000	0.008136
2149.000000	0.007972
2148.000000	0.007903
2147.000000	0.008005
2146.000000	0.008258
2145.000000	0.008563
2144.000000	0.008780
2143.000000	0.008819
2142.000000	0.008708
2141.000000	0.008575
2140.000000	0.008533
2139.000000	0.008607
2138.000000	0.008746
2137.000000	0.008872
2136.000000	0.008925
2135.000000	0.008890
2134.000000	0.008805
2133.000000	0.008722
2132.000000	0.008668
2131.000000	0.008644
2130.000000	0.008651
2129.000000	0.008688
2128.000000	0.008743
2127.000000	0.008796
2126.000000	0.008840
2125.000000	0.008875
2124.000000	0.008896
2123.000000	0.008906
2122.000000	0.008916
2121.000000	0.008943
2120.000000	0.008985
2119.000000	0.009031
2118.000000	0.009077
2117.000000	0.009120
2116.000000	0.009147
2115.000000	0.009146
2114.000000	0.009126
2113.000000	0.009112
2112.000000	0.009118
2111.000000	0.009134
2110.000000	0.009134
2109.000000	0.009108
2108.000000	0.009079
2107.000000	0.009098
2106.000000	0.009191
2105.000000	0.009302
2104.000000	0.009337
2103.000000	0.009256
2102.000000	0.009119
2101.000000	0.009023
2100.000000	0.009012
2099.000000	0.009062
2098.000000	0.009123
2097.000000	0.009144
2096.000000	0.009098
2095.000000	0.009004
2094.000000	0.008920
2093.000000	0.008893
2092.000000	0.008920
2091.000000	0.008978
2090.000000	0.009051
2089.000000	0.009114
2088.000000	0.009130
2087.000000	0.009100
2086.000000	0.009078
2085.000000	0.009109
2084.000000	0.009156
2083.000000	0.009138
2082.000000	0.009025
2081.000000	0.008869
2080.000000	0.008745
2079.000000	0.008696
2078.000000	0.008711
2077.000000	0.008747
2076.000000	0.008749
2075.000000	0.008700
2074.000000	0.008632
2073.000000	0.008592
2072.000000	0.008599
2071.000000	0.008654
2070.000000	0.008746
2069.000000	0.008828
2068.000000	0.008826
2067.000000	0.008713
2066.000000	0.008560
2065.000000	0.008470
2064.000000	0.008476
2063.000000	0.008533
2062.000000	0.008573
2061.000000	0.008562
2060.000000	0.008502
2059.000000	0.008441
2058.000000	0.008429
2057.000000	0.008449
2056.000000	0.008424
2055.000000	0.008328
2054.000000	0.008244
2053.000000	0.008264
2052.000000	0.008383
2051.000000	0.008524
2050.000000	0.008630
2049.000000	0.008660
2048.000000	0.008567
2047.000000	0.008356
2046.000000	0.008135
2045.000000	0.008015
2044.000000	0.007985
2043.000000	0.007962
2042.000000	0.007917
2041.000000	0.007870
2040.000000	0.007812
2039.000000	0.007737
2038.000000	0.007710
2037.000000	0.007775
2036.000000	0.007834
2035.000000	0.007729
2034.000000	0.007456
2033.000000	0.007183
2032.000000	0.007052
2031.000000	0.007080
2030.000000	0.007216
2029.000000	0.007386
2028.000000	0.007493
2027.000000	0.007493
2026.000000	0.007457
2025.000000	0.007462
2024.000000	0.007455
2023.000000	0.007339
2022.000000	0.007147
2021.000000	0.007032
2020.000000	0.007081
2019.000000	0.007250
2018.000000	0.007446
2017.000000	0.007579
2016.000000	0.007590
2015.000000	0.007504
2014.000000	0.007435
2013.000000	0.007439
2012.000000	0.007419
2011.000000	0.007278
2010.000000	0.007099
2009.000000	0.007047
2008.000000	0.007131
2007.000000	0.007199
2006.000000	0.007158
2005.000000	0.007065
2004.000000	0.006994
2003.000000	0.006959
2002.000000	0.006974
2001.000000	0.007062
2000.000000	0.007207
1999.000000	0.007361
1998.000000	0.007510
1997.000000	0.007651
1996.000000	0.007729
1995.000000	0.007681
1994.000000	0.007526
1993.000000	0.007370
1992.000000	0.007289
1991.000000	0.007280
1990.000000	0.007304
1989.000000	0.007336
1988.000000	0.007360
1987.000000	0.007388
1986.000000	0.007467
1985.000000	0.007620
1984.000000	0.007790
1983.000000	0.007914
1982.000000	0.007996
1981.000000	0.008052
1980.000000	0.008026
1979.000000	0.007849
1978.000000	0.007557
1977.000000	0.007268
1976.000000	0.007048
1975.000000	0.006920
1974.000000	0.006941
1973.000000	0.007129
1972.000000	0.007368
1971.000000	0.007516
1970.000000	0.007569
1969.000000	0.007616
1968.000000	0.007675
1967.000000	0.007699
1966.000000	0.007683
1965.000000	0.007643
1964.000000	0.007544
1963.000000	0.007349
1962.000000	0.007141
1961.000000	0.007063
1960.000000	0.007154
1959.000000	0.007320
1958.000000	0.007475
1957.000000	0.007594
1956.000000	0.007664
1955.000000	0.007675
1954.000000	0.007658
1953.000000	0.007653
1952.000000	0.007655
1951.000000	0.007626
1950.000000	0.007579
1949.000000	0.007560
1948.000000	0.007569
1947.000000	0.007565
1946.000000	0.007543
1945.000000	0.007527
1944.000000	0.007511
1943.000000	0.007463
1942.000000	0.007390
1941.000000	0.007353
1940.000000	0.007385
1939.000000	0.007465
1938.000000	0.007559
1937.000000	0.007637
1936.000000	0.007672
1935.000000	0.007664
1934.000000	0.007656
1933.000000	0.007694
1932.000000	0.007768
1931.000000	0.007818
1930.000000	0.007810
1929.000000	0.007749
1928.000000	0.007657
1927.000000	0.007560
1926.000000	0.007491
1925.000000	0.007485
1924.000000	0.007535
1923.000000	0.007597
1922.000000	0.007645
1921.000000	0.007691
1920.000000	0.007747
1919.000000	0.007795
1918.000000	0.007792
1917.000000	0.007733
1916.000000	0.007670
1915.000000	0.007668
1914.000000	0.007737
1913.000000	0.007823
1912.000000	0.007853
1911.000000	0.007816
1910.000000	0.007767
1909.000000	0.007753
1908.000000	0.007760
1907.000000	0.007760
1906.000000	0.007746
1905.000000	0.007735
1904.000000	0.007718
1903.000000	0.007686
1902.000000	0.007656
1901.000000	0.007648
1900.000000	0.007655
1899.000000	0.007666
1898.000000	0.007687
1897.000000	0.007732
1896.000000	0.007781
1895.000000	0.007797
1894.000000	0.007772
1893.000000	0.007719
1892.000000	0.007652
1891.000000	0.007585
1890.000000	0.007546
1889.000000	0.007560
1888.000000	0.007620
1887.000000	0.007698
1886.000000	0.007778
1885.000000	0.007838
1884.000000	0.007844
1883.000000	0.007794
1882.000000	0.007733
1881.000000	0.007696
1880.000000	0.007673
1879.000000	0.007646
1878.000000	0.007618
1877.000000	0.007598
1876.000000	0.007574
1875.000000	0.007519
1874.000000	0.007430
1873.000000	0.007328
1872.000000	0.007240
1871.000000	0.007199
1870.000000	0.007233
1869.000000	0.007324
1868.000000	0.007419
1867.000000	0.007481
1866.000000	0.007521
1865.000000	0.007547
1864.000000	0.007540
1863.000000	0.007496
1862.000000	0.007453
1861.000000	0.007450
1860.000000	0.007472
1859.000000	0.007476
1858.000000	0.007452
1857.000000	0.007419
1856.000000	0.007405
1855.000000	0.007428
1854.000000	0.007494
1853.000000	0.007574
1852.000000	0.007608
1851.000000	0.007584
1850.000000	0.007519
1849.000000	0.007416
1848.000000	0.007255
1847.000000	0.007081
1846.000000	0.007005
1845.000000	0.007084
1844.000000	0.007212
1843.000000	0.007268
1842.000000	0.007279
1841.000000	0.007308
1840.000000	0.007347
1839.000000	0.007355
1838.000000	0.007339
1837.000000	0.007349
1836.000000	0.007385
1835.000000	0.007389
1834.000000	0.007329
1833.000000	0.007241
1832.000000	0.007179
1831.000000	0.007160
1830.000000	0.007138
1829.000000	0.007074
1828.000000	0.007001
1827.000000	0.007005
1826.000000	0.007124
1825.000000	0.007282
1824.000000	0.007369
1823.000000	0.007370
1822.000000	0.007357
1821.000000	0.007363
1820.000000	0.007366
1819.000000	0.007352
1818.000000	0.007339
1817.000000	0.007337
1816.000000	0.007306
1815.000000	0.007225
1814.000000	0.007142
1813.000000	0.007108
1812.000000	0.007123
1811.000000	0.007150
1810.000000	0.007174
1809.000000	0.007205
1808.000000	0.007238
1807.000000	0.007252
1806.000000	0.007236
1805.000000	0.007188
1804.000000	0.007105
1803.000000	0.007022
1802.000000	0.007002
1801.000000	0.007056
1800.000000	0.007134
1799.000000	0.007169
1798.000000	0.007147
1797.000000	0.007071
1796.000000	0.006932
1795.000000	0.006773
1794.000000	0.006695
1793.000000	0.006745
1792.000000	0.006851
1791.000000	0.006927
1790.000000	0.006976
1789.000000	0.007022
1788.000000	0.007060
1787.000000	0.007077
1786.000000	0.007076
1785.000000	0.007056
1784.000000	0.006993
1783.000000	0.006908
1782.000000	0.006873
1781.000000	0.006891
1780.000000	0.006913
1779.000000	0.006897
1778.000000	0.006862
1777.000000	0.006794
1776.000000	0.006619
1775.000000	0.006358
1774.000000	0.006160
1773.000000	0.006122
1772.000000	0.006150
1771.000000	0.006142
1770.000000	0.006130
1769.000000	0.006161
1768.000000	0.006156
1767.000000	0.005989
1766.000000	0.005655
1765.000000	0.005238
1764.000000	0.004784
1763.000000	0.004263
1762.000000	0.003622
1761.000000	0.002858
1760.000000	0.002024
1759.000000	0.001138
1758.000000	0.000184
1757.000000	-0.000911
1756.000000	-0.002189
1755.000000	-0.003581
1754.000000	-0.005001
1753.000000	-0.006436
1752.000000	-0.007916
1751.000000	-0.009404
1750.000000	-0.010725
1749.000000	-0.011709
1748.000000	-0.012398
1747.000000	-0.012887
1746.000000	-0.013161
1745.000000	-0.013129
1744.000000	-0.012751
1743.000000	-0.012099
1742.000000	-0.011191
1741.000000	-0.009914
1740.000000	-0.008301
1739.000000	-0.006771
1738.000000	-0.005692
1737.000000	-0.004963
1736.000000	-0.004137
1735.000000	-0.002854
1734.000000	-0.001301
1733.000000	0.000084
1732.000000	0.001267
1731.000000	0.002346
1730.000000	0.003309
1729.000000	0.004126
1728.000000	0.004786
1727.000000	0.005318
1726.000000	0.005798
1725.000000	0.006309
1724.000000	0.006852
1723.000000	0.007282
1722.000000	0.007493
1721.000000	0.007546
1720.000000	0.007610
1719.000000	0.007838
1718.000000	0.008302
1717.000000	0.008994
1716.000000	0.009850
1715.000000	0.010726
1714.000000	0.011462
1713.000000	0.012018
1712.000000	0.012452
1711.000000	0.012797
1710.000000	0.013050
1709.000000	0.013224
1708.000000	0.013391
1707.000000	0.013639
1706.000000	0.013953
1705.000000	0.014188
1704.000000	0.014212
1703.000000	0.014135
1702.000000	0.014376
1701.000000	0.015236
1700.000000	0.016239
1699.000000	0.016821
1698.000000	0.017257
1697.000000	0.018082
1696.000000	0.019423
1695.000000	0.020815
1694.000000	0.021930
1693.000000	0.022880
1692.000000	0.023788
1691.000000	0.024684
1690.000000	0.025546
1689.000000	0.026257
1688.000000	0.026680
1687.000000	0.026900
1686.000000	0.027363
1685.000000	0.028607
1684.000000	0.030438
1683.000000	0.032085
1682.000000	0.033395
1681.000000	0.034661
1680.000000	0.035923
1679.000000	0.037034
1678.000000	0.038010
1677.000000	0.039167
1676.000000	0.040735
1675.000000	0.042417
1674.000000	0.043772
1673.000000	0.044850
1672.000000	0.045973
1671.000000	0.047345
1670.000000	0.049005
1669.000000	0.050780
1668.000000	0.052384
1667.000000	0.053664
1666.000000	0.054721
1665.000000	0.055823
1664.000000	0.057165
1663.000000	0.058642
1662.000000	0.060020
1661.000000	0.061244
1660.000000	0.062387
1659.000000	0.063407
1658.000000	0.064158
1657.000000	0.064533
1656.000000	0.064625
1655.000000	0.064828
1654.000000	0.065687
1653.000000	0.067125
1652.000000	0.068369
1651.000000	0.069270
1650.000000	0.070007
1649.000000	0.070599
1648.000000	0.071196
1647.000000	0.071853
1646.000000	0.072441
1645.000000	0.072953
1644.000000	0.073486
1643.000000	0.073990
1642.000000	0.074391
1641.000000	0.074670
1640.000000	0.074822
1639.000000	0.074826
1638.000000	0.074766
1637.000000	0.074875
1636.000000	0.075250
1635.000000	0.075646
1634.000000	0.075870
1633.000000	0.076026
1632.000000	0.076137
1631.000000	0.076125
1630.000000	0.075940
1629.000000	0.075584
1628.000000	0.075069
1627.000000	0.074413
1626.000000	0.073673
1625.000000	0.072902
1624.000000	0.072070
1623.000000	0.071083
1622.000000	0.069958
1621.000000	0.068788
1620.000000	0.067578
1619.000000	0.066266
1618.000000	0.064841
1617.000000	0.063369
1616.000000	0.062009
1615.000000	0.060889
1614.000000	0.059910
1613.000000	0.058882
1612.000000	0.057710
1611.000000	0.056425
1610.000000	0.055120
1609.000000	0.053863
1608.000000	0.052679
1607.000000	0.051572
1606.000000	0.050542
1605.000000	0.049564
1604.000000	0.048635
1603.000000	0.047786
1602.000000	0.047032
1601.000000	0.046352
1600.000000	0.045719
1599.000000	0.045144
1598.000000	0.044648
1597.000000	0.044231
1596.000000	0.043886
1595.000000	0.043616
1594.000000	0.043411
1593.000000	0.043231
1592.000000	0.043056
1591.000000	0.042897
1590.000000	0.042762
1589.000000	0.042637
1588.000000	0.042527
1587.000000	0.042485
1586.000000	0.042546
1585.000000	0.042689
1584.000000	0.042874
1583.000000	0.043127
1582.000000	0.043457
1581.000000	0.043774
1580.000000	0.043945
1579.000000	0.043983
1578.000000	0.044091
1577.000000	0.044542
1576.000000	0.045342
1575.000000	0.046200
1574.000000	0.046910
1573.000000	0.047428
1572.000000	0.047848
1571.000000	0.048376
1570.000000	0.049126
1569.000000	0.049965
1568.000000	0.050723
1567.000000	0.051451
1566.000000	0.052260
1565.000000	0.053101
1564.000000	0.053725
1563.000000	0.053948
1562.000000	0.053868
1561.000000	0.053951
1560.000000	0.054738
1559.000000	0.056242
1558.000000	0.057671
1557.000000	0.058670
1556.000000	0.059561
1555.000000	0.060467
1554.000000	0.061335
1553.000000	0.062070
1552.000000	0.062708
1551.000000	0.063333
1550.000000	0.063940
1549.000000	0.064445
1548.000000	0.064784
1547.000000	0.065012
1546.000000	0.065191
1545.000000	0.065308
1544.000000	0.065331
1543.000000	0.065290
1542.000000	0.065274
1541.000000	0.065434
1540.000000	0.065804
1539.000000	0.066168
1538.000000	0.066384
1537.000000	0.066491
1536.000000	0.066460
1535.000000	0.066297
1534.000000	0.066029
1533.000000	0.065658
1532.000000	0.065271
1531.000000	0.064922
1530.000000	0.064570
1529.000000	0.064148
1528.000000	0.063626
1527.000000	0.063034
1526.000000	0.062400
1525.000000	0.061701
1524.000000	0.060944
1523.000000	0.060207
1522.000000	0.059592
1521.000000	0.059139
1520.000000	0.058848
1519.000000	0.058687
1518.000000	0.058553
1517.000000	0.058329
1516.000000	0.057958
1515.000000	0.057459
1514.000000	0.056873
1513.000000	0.056176
1512.000000	0.055308
1511.000000	0.054231
1510.000000	0.052989
1509.000000	0.051712
1508.000000	0.050639
1507.000000	0.049996
1506.000000	0.049655
1505.000000	0.049320
1504.000000	0.048962
1503.000000	0.048486
1502.000000	0.047770
1501.000000	0.046819
1500.000000	0.045695
1499.000000	0.044457
1498.000000	0.043182
1497.000000	0.041995
1496.000000	0.040989
1495.000000	0.040144
1494.000000	0.039381
1493.000000	0.038631
1492.000000	0.037878
1491.000000	0.037121
1490.000000	0.036414
1489.000000	0.035887
1488.000000	0.035587
1487.000000	0.035395
1486.000000	0.035203
1485.000000	0.035013
1484.000000	0.034873
1483.000000	0.034838
1482.000000	0.034921
1481.000000	0.035106
1480.000000	0.035335
1479.000000	0.035557
1478.000000	0.035742
1477.000000	0.035857
1476.000000	0.035862
1475.000000	0.035790
1474.000000	0.035782
1473.000000	0.035905
1472.000000	0.036032
1471.000000	0.036004
1470.000000	0.035835
1469.000000	0.035621
1468.000000	0.035452
1467.000000	0.035429
1466.000000	0.035671
1465.000000	0.036184
1464.000000	0.036779
1463.000000	0.037246
1462.000000	0.037536
1461.000000	0.037686
1460.000000	0.037734
1459.000000	0.037835
1458.000000	0.038334
1457.000000	0.039406
1456.000000	0.040653
1455.000000	0.041721
1454.000000	0.042632
1453.000000	0.043411
1452.000000	0.044032
1451.000000	0.044458
1450.000000	0.044728
1449.000000	0.044941
1448.000000	0.045119
1447.000000	0.045210
1446.000000	0.045225
1445.000000	0.045206
1444.000000	0.045175
1443.000000	0.045106
1442.000000	0.044956
1441.000000	0.044698
1440.000000	0.044331
1439.000000	0.043924
1438.000000	0.043607
1437.000000	0.043448
1436.000000	0.043341
1435.000000	0.043193
1434.000000	0.043012
1433.000000	0.042818
1432.000000	0.042614
1431.000000	0.042407
1430.000000	0.042219
1429.000000	0.042081
1428.000000	0.041975
1427.000000	0.041868
1426.000000	0.041789
1425.000000	0.041759
1424.000000	0.041722
1423.000000	0.041560
1422.000000	0.041254
1421.000000	0.040944
1420.000000	0.040803
1419.000000	0.040868
1418.000000	0.041075
1417.000000	0.041360
1416.000000	0.041654
1415.000000	0.041911
1414.000000	0.042135
1413.000000	0.042365
1412.000000	0.042624
1411.000000	0.042887
1410.000000	0.043116
1409.000000	0.043310
1408.000000	0.043477
1407.000000	0.043616
1406.000000	0.043765
1405.000000	0.043948
1404.000000	0.044116
1403.000000	0.044178
1402.000000	0.044129
1401.000000	0.044040
1400.000000	0.043948
1399.000000	0.043810
1398.000000	0.043604
1397.000000	0.043388
1396.000000	0.043212
1395.000000	0.043061
1394.000000	0.042904
1393.000000	0.042724
1392.000000	0.042498
1391.000000	0.042183
1390.000000	0.041779
1389.000000	0.041360
1388.000000	0.040999
1387.000000	0.040695
1386.000000	0.040398
1385.000000	0.040067
1384.000000	0.039676
1383.000000	0.039203
1382.000000	0.038655
1381.000000	0.038074
1380.000000	0.037507
1379.000000	0.036980
1378.000000	0.036505
1377.000000	0.036095
1376.000000	0.035750
1375.000000	0.035451
1374.000000	0.035182
1373.000000	0.034924
1372.000000	0.034662
1371.000000	0.034388
1370.000000	0.034106
1369.000000	0.033819
1368.000000	0.033517
1367.000000	0.033178
1366.000000	0.032788
1365.000000	0.032362
1364.000000	0.031935
1363.000000	0.031556
1362.000000	0.031256
1361.000000	0.031016
1360.000000	0.030790
1359.000000	0.030546
1358.000000	0.030290
1357.000000	0.030051
1356.000000	0.029865
1355.000000	0.029750
1354.000000	0.029702
1353.000000	0.029716
1352.000000	0.029786
1351.000000	0.029895
1350.000000	0.030033
1349.000000	0.030196
1348.000000	0.030390
1347.000000	0.030618
1346.000000	0.030871
1345.000000	0.031138
1344.000000	0.031399
1343.000000	0.031631
1342.000000	0.031828
1341.000000	0.032015
1340.000000	0.032235
1339.000000	0.032494
1338.000000	0.032745
1337.000000	0.032928
1336.000000	0.033013
1335.000000	0.032996
1334.000000	0.032887
1333.000000	0.032701
1332.000000	0.032457
1331.000000	0.032172
1330.000000	0.031861
1329.000000	0.031544
1328.000000	0.031232
1327.000000	0.030935
1326.000000	0.030668
1325.000000	0.030460
1324.000000	0.030329
1323.000000	0.030264
1322.000000	0.030237
1321.000000	0.030232
1320.000000	0.030242
1319.000000	0.030266
1318.000000	0.030304
1317.000000	0.030353
1316.000000	0.030405
1315.000000	0.030435
1314.000000	0.030419
1313.000000	0.030351
1312.000000	0.030236
1311.000000	0.030083
1310.000000	0.029902
1309.000000	0.029713
1308.000000	0.029526
1307.000000	0.029328
1306.000000	0.029102
1305.000000	0.028857
1304.000000	0.028618
1303.000000	0.028399
1302.000000	0.028191
1301.000000	0.027987
1300.000000	0.027799
1299.000000	0.027642
1298.000000	0.027523
1297.000000	0.027449
1296.000000	0.027428
1295.000000	0.027468
1294.000000	0.027570
1293.000000	0.027731
1292.000000	0.027944
1291.000000	0.028191
1290.000000	0.028449
1289.000000	0.028706
1288.000000	0.028960
1287.000000	0.029207
1286.000000	0.029443
1285.000000	0.029671
1284.000000	0.029902
1283.000000	0.030139
1282.000000	0.030372
1281.000000	0.030586
1280.000000	0.030768
1279.000000	0.030905
1278.000000	0.030991
1277.000000	0.031031
1276.000000	0.031035
1275.000000	0.031013
1274.000000	0.030974
1273.000000	0.030932
1272.000000	0.030891
1271.000000	0.030852
1270.000000	0.030817
1269.000000	0.030794
1268.000000	0.030784
1267.000000	0.030776
1266.000000	0.030762
1265.000000	0.030760
1264.000000	0.030800
1263.000000	0.030894
1262.000000	0.031032
1261.000000	0.031200
1260.000000	0.031405
1259.000000	0.031669
1258.000000	0.032012
1257.000000	0.032425
1256.000000	0.032867
1255.000000	0.033296
1254.000000	0.033699
1253.000000	0.034089
1252.000000	0.034473
1251.000000	0.034846
1250.000000	0.035204
1249.000000	0.035558
1248.000000	0.035917
1247.000000	0.036280
1246.000000	0.036659
1245.000000	0.037073
1244.000000	0.037526
1243.000000	0.038002
1242.000000	0.038484
1241.000000	0.038962
1240.000000	0.039413
1239.000000	0.039806
1238.000000	0.040136
1237.000000	0.040426
1236.000000	0.040671
1235.000000	0.040833
1234.000000	0.040878
1233.000000	0.040810
1232.000000	0.040646
1231.000000	0.040380
1230.000000	0.040003
1229.000000	0.039513
1228.000000	0.038917
1227.000000	0.038216
1226.000000	0.037424
1225.000000	0.036570
1224.000000	0.035681
1223.000000	0.034768
1222.000000	0.033841
1221.000000	0.032926
1220.000000	0.032057
1219.000000	0.031263
1218.000000	0.030562
1217.000000	0.029964
1216.000000	0.029469
1215.000000	0.029063
1214.000000	0.028736
1213.000000	0.028478
1212.000000	0.028279
1211.000000	0.028130
1210.000000	0.028030
1209.000000	0.027977
1208.000000	0.027944
1207.000000	0.027893
1206.000000	0.027805
1205.000000	0.027693
1204.000000	0.027555
1203.000000	0.027356
1202.000000	0.027057
1201.000000	0.026659
1200.000000	0.026184
1199.000000	0.025647
1198.000000	0.025048
1197.000000	0.024393
1196.000000	0.023698
1195.000000	0.022980
1194.000000	0.022261
1193.000000	0.021571
1192.000000	0.020933
1191.000000	0.020348
1190.000000	0.019797
1189.000000	0.019262
1188.000000	0.018749
1187.000000	0.018280
1186.000000	0.017883
1185.000000	0.017582
1184.000000	0.017372
1183.000000	0.017217
1182.000000	0.017078
1181.000000	0.016945
1180.000000	0.016835
1179.000000	0.016747
1178.000000	0.016650
1177.000000	0.016512
1176.000000	0.016333
1175.000000	0.016136
1174.000000	0.015938
1173.000000	0.015747
1172.000000	0.015569
1171.000000	0.015404
1170.000000	0.015248
1169.000000	0.015100
1168.000000	0.014956
1167.000000	0.014811
1166.000000	0.014668
1165.000000	0.014545
1164.000000	0.014464
1163.000000	0.014423
1162.000000	0.014387
1161.000000	0.014321
1160.000000	0.014224
1159.000000	0.014113
1158.000000	0.014006
1157.000000	0.013911
1156.000000	0.013829
1155.000000	0.013738
1154.000000	0.013611
1153.000000	0.013439
1152.000000	0.013251
1151.000000	0.013075
1150.000000	0.012913
1149.000000	0.012747
1148.000000	0.012563
1147.000000	0.012366
1146.000000	0.012166
1145.000000	0.011978
1144.000000	0.011829
1143.000000	0.011744
1142.000000	0.011737
1141.000000	0.011801
1140.000000	0.011911
1139.000000	0.012048
1138.000000	0.012210
1137.000000	0.012416
1136.000000	0.012680
1135.000000	0.012980
1134.000000	0.013276
1133.000000	0.013545
1132.000000	0.013791
1131.000000	0.014020
1130.000000	0.014212
1129.000000	0.014343
1128.000000	0.014411
1127.000000	0.014430
1126.000000	0.014403
1125.000000	0.014329
1124.000000	0.014215
1123.000000	0.014081
1122.000000	0.013959
1121.000000	0.013875
1120.000000	0.013845
1119.000000	0.013866
1118.000000	0.013926
1117.000000	0.014020
1116.000000	0.014165
1115.000000	0.014371
1114.000000	0.014619
1113.000000	0.014871
1112.000000	0.015098
1111.000000	0.015288
1110.000000	0.015442
1109.000000	0.015568
1108.000000	0.015685
1107.000000	0.015802
1106.000000	0.015915
1105.000000	0.016012
1104.000000	0.016091
1103.000000	0.016162
1102.000000	0.016235
1101.000000	0.016313
1100.000000	0.016393
1099.000000	0.016470
1098.000000	0.016544
1097.000000	0.016634
1096.000000	0.016778
1095.000000	0.017008
1094.000000	0.017319
1093.000000	0.017678
1092.000000	0.018051
1091.000000	0.018435
1090.000000	0.018856
1089.000000	0.019347
1088.000000	0.019927
1087.000000	0.020588
1086.000000	0.021295
1085.000000	0.021996
1084.000000	0.022630
1083.000000	0.023144
1082.000000	0.023505
1081.000000	0.023697
1080.000000	0.023714
1079.000000	0.023564
1078.000000	0.023294
1077.000000	0.022972
1076.000000	0.022644
1075.000000	0.022313
1074.000000	0.021972
1073.000000	0.021639
1072.000000	0.021345
1071.000000	0.021110
1070.000000	0.020934
1069.000000	0.020818
1068.000000	0.020760
1067.000000	0.020756
1066.000000	0.020800
1065.000000	0.020900
1064.000000	0.021063
1063.000000	0.021262
1062.000000	0.021448
1061.000000	0.021585
1060.000000	0.021674
1059.000000	0.021742
1058.000000	0.021816
1057.000000	0.021910
1056.000000	0.022022
1055.000000	0.022137
1054.000000	0.022241
1053.000000	0.022324
1052.000000	0.022382
1051.000000	0.022422
1050.000000	0.022454
1049.000000	0.022492
1048.000000	0.022538
1047.000000	0.022580
1046.000000	0.022603
1045.000000	0.022599
1044.000000	0.022575
1043.000000	0.022546
1042.000000	0.022540
1041.000000	0.022585
1040.000000	0.022689
1039.000000	0.022844
1038.000000	0.023042
1037.000000	0.023288
1036.000000	0.023578
1035.000000	0.023884
1034.000000	0.024175
1033.000000	0.024433
1032.000000	0.024649
1031.000000	0.024803
1030.000000	0.024875
1029.000000	0.024872
1028.000000	0.024827
1027.000000	0.024765
1026.000000	0.024687
1025.000000	0.024588
1024.000000	0.024473
1023.000000	0.024363
1022.000000	0.024281
1021.000000	0.024247
1020.000000	0.024272
1019.000000	0.024347
1018.000000	0.024445
1017.000000	0.024518
1016.000000	0.024504
1015.000000	0.024353
1014.000000	0.024051
1013.000000	0.023625
1012.000000	0.023117
1011.000000	0.022559
1010.000000	0.021969
1009.000000	0.021369
1008.000000	0.020787
1007.000000	0.020242
1006.000000	0.019736
1005.000000	0.019255
1004.000000	0.018787
1003.000000	0.018329
1002.000000	0.017889
1001.000000	0.017475
1000.000000	0.017092
999.000000	0.016744
998.000000	0.016433
997.000000	0.016150
996.000000	0.015877
995.000000	0.015587
994.000000	0.015268
993.000000	0.014923
992.000000	0.014569
991.000000	0.014225
990.000000	0.013906
989.000000	0.013621
988.000000	0.013370
987.000000	0.013148
986.000000	0.012942
985.000000	0.012743
984.000000	0.012550
983.000000	0.012374
982.000000	0.012226
981.000000	0.012108
980.000000	0.012010
979.000000	0.011915
978.000000	0.011809
977.000000	0.011683
976.000000	0.011534
975.000000	0.011370
974.000000	0.011208
973.000000	0.011054
972.000000	0.010896
971.000000	0.010720
970.000000	0.010525
969.000000	0.010325
968.000000	0.010131
967.000000	0.009948
966.000000	0.009787
965.000000	0.009661
964.000000	0.009572
963.000000	0.009503
962.000000	0.009438
961.000000	0.009382
960.000000	0.009351
959.000000	0.009350
958.000000	0.009371
957.000000	0.009403
956.000000	0.009433
955.000000	0.009445
954.000000	0.009427
953.000000	0.009375
952.000000	0.009295
951.000000	0.009203
950.000000	0.009116
949.000000	0.009046
948.000000	0.008985
947.000000	0.008915
946.000000	0.008829
945.000000	0.008743
944.000000	0.008677
943.000000	0.008645
942.000000	0.008654
941.000000	0.008701
940.000000	0.008770
939.000000	0.008828
938.000000	0.008854
937.000000	0.008853
936.000000	0.008846
935.000000	0.008838
934.000000	0.008820
933.000000	0.008783
932.000000	0.008729
931.000000	0.008668
930.000000	0.008612
929.000000	0.008571
928.000000	0.008536
927.000000	0.008479
926.000000	0.008377
925.000000	0.008230
924.000000	0.008061
923.000000	0.007892
922.000000	0.007734
921.000000	0.007590
920.000000	0.007451
919.000000	0.007300
918.000000	0.007130
917.000000	0.006953
916.000000	0.006786
915.000000	0.006636
914.000000	0.006499
913.000000	0.006374
912.000000	0.006264
911.000000	0.006171
910.000000	0.006101
909.000000	0.006059
908.000000	0.006040
907.000000	0.006019
906.000000	0.005980
905.000000	0.005940
904.000000	0.005930
903.000000	0.005950
902.000000	0.005964
901.000000	0.005947
900.000000	0.005903
899.000000	0.005850
898.000000	0.005789
897.000000	0.005723
896.000000	0.005662
895.000000	0.005611
894.000000	0.005567
893.000000	0.005529
892.000000	0.005512
891.000000	0.005524
890.000000	0.005550
889.000000	0.005559
888.000000	0.005539
887.000000	0.005509
886.000000	0.005504
885.000000	0.005564
884.000000	0.005713
883.000000	0.005958
882.000000	0.006287
881.000000	0.006691
880.000000	0.007170
879.000000	0.007723
878.000000	0.008320
877.000000	0.008890
876.000000	0.009332
875.000000	0.009554
874.000000	0.009515
873.000000	0.009231
872.000000	0.008754
871.000000	0.008158
870.000000	0.007530
869.000000	0.006965
868.000000	0.006524
867.000000	0.006215
866.000000	0.006010
865.000000	0.005894
864.000000	0.005863
863.000000	0.005904
862.000000	0.005972
861.000000	0.006025
860.000000	0.006053
859.000000	0.006081
858.000000	0.006129
857.000000	0.006191
856.000000	0.006246
855.000000	0.006293
854.000000	0.006354
853.000000	0.006452
852.000000	0.006578
851.000000	0.006700
850.000000	0.006789
849.000000	0.006843
848.000000	0.006873
847.000000	0.006892
846.000000	0.006914
845.000000	0.006957
844.000000	0.007028
843.000000	0.007122
842.000000	0.007234
841.000000	0.007374
840.000000	0.007544
839.000000	0.007719
838.000000	0.007870
837.000000	0.007983
836.000000	0.008064
835.000000	0.008119
834.000000	0.008151
833.000000	0.008162
832.000000	0.008143
831.000000	0.008076
830.000000	0.007950
829.000000	0.007791
828.000000	0.007637
827.000000	0.007496
826.000000	0.007346
825.000000	0.007170
824.000000	0.006981
823.000000	0.006809
822.000000	0.006673
821.000000	0.006569
820.000000	0.006486
819.000000	0.006410
818.000000	0.006332
817.000000	0.006249
816.000000	0.006164
815.000000	0.006086
814.000000	0.006027
813.000000	0.005980
812.000000	0.005924
811.000000	0.005840
810.000000	0.005738
809.000000	0.005645
808.000000	0.005578
807.000000	0.005531
806.000000	0.005498
805.000000	0.005489
804.000000	0.005510
803.000000	0.005555
802.000000	0.005606
801.000000	0.005655
800.000000	0.005693
799.000000	0.005713
798.000000	0.005718
797.000000	0.005733
796.000000	0.005773
795.000000	0.005831
794.000000	0.005888
793.000000	0.005945
792.000000	0.006019
791.000000	0.006124
790.000000	0.006250
789.000000	0.006373
788.000000	0.006462
787.000000	0.006507
786.000000	0.006532
785.000000	0.006581
784.000000	0.006675
783.000000	0.006792
782.000000	0.006888
781.000000	0.006934
780.000000	0.006932
779.000000	0.006906
778.000000	0.006893
777.000000	0.006926
776.000000	0.007007
775.000000	0.007106
774.000000	0.007187
773.000000	0.007232
772.000000	0.007245
771.000000	0.007238
770.000000	0.007224
769.000000	0.007220
768.000000	0.007237
767.000000	0.007282
766.000000	0.007360
765.000000	0.007469
764.000000	0.007593
763.000000	0.007712
762.000000	0.007819
761.000000	0.007916
760.000000	0.008003
759.000000	0.008081
758.000000	0.008173
757.000000	0.008293
756.000000	0.008420
755.000000	0.008519
754.000000	0.008591
753.000000	0.008680
752.000000	0.008810
751.000000	0.008948
750.000000	0.009046
749.000000	0.009092
748.000000	0.009109
747.000000	0.009114
746.000000	0.009111
745.000000	0.009093
744.000000	0.009047
743.000000	0.008964
742.000000	0.008862
741.000000	0.008788
740.000000	0.008777
739.000000	0.008816
738.000000	0.008862
737.000000	0.008882
736.000000	0.008875
735.000000	0.008860
734.000000	0.008868
733.000000	0.008922
732.000000	0.009018
731.000000	0.009134
730.000000	0.009238
729.000000	0.009308
728.000000	0.009344
727.000000	0.009379
726.000000	0.009470
725.000000	0.009638
724.000000	0.009840
723.000000	0.010022
722.000000	0.010200
721.000000	0.010429
720.000000	0.010711
719.000000	0.010983
718.000000	0.011210
717.000000	0.011427
716.000000	0.011672
715.000000	0.011944
714.000000	0.012228
713.000000	0.012517
712.000000	0.012779
711.000000	0.012958
710.000000	0.013051
709.000000	0.013139
708.000000	0.013300
707.000000	0.013530
706.000000	0.013762
705.000000	0.013954
704.000000	0.014109
703.000000	0.014245
702.000000	0.014374
701.000000	0.014494
700.000000	0.014577
699.000000	0.014593
698.000000	0.014559
697.000000	0.014541
696.000000	0.014573
695.000000	0.014623
694.000000	0.014657
693.000000	0.014687
692.000000	0.014750
691.000000	0.014840
690.000000	0.014930
689.000000	0.015015
688.000000	0.015106
687.000000	0.015208
686.000000	0.015318
685.000000	0.015436
684.000000	0.015559
683.000000	0.015674
682.000000	0.015788
681.000000	0.015937
680.000000	0.016141
679.000000	0.016373
678.000000	0.016582
677.000000	0.016753
676.000000	0.016897
675.000000	0.017030
674.000000	0.017170
673.000000	0.017336
672.000000	0.017501
671.000000	0.017601
670.000000	0.017609
669.000000	0.017578
668.000000	0.017638
667.000000	0.017925
666.000000	0.018252
665.000000	0.018452
664.000000	0.018535
663.000000	0.018535
662.000000	0.018513
661.000000	0.018555
660.000000	0.018685
659.000000	0.018835
658.000000	0.018918
657.000000	0.018924
656.000000	0.018888
655.000000	0.018834
654.000000	0.018794
653.000000	0.018827
652.000000	0.018939
651.000000	0.019066
650.000000	0.019158
649.000000	0.019230
648.000000	0.019302
647.000000	0.019345
646.000000	0.019346
645.000000	0.019350
644.000000	0.019387
643.000000	0.019418
642.000000	0.019390
641.000000	0.019295
640.000000	0.019148
639.000000	0.018965
638.000000	0.018790
637.000000	0.018697
636.000000	0.018706
635.000000	0.018758
634.000000	0.018802
633.000000	0.018850
632.000000	0.018919
631.000000	0.018980
630.000000	0.019013
629.000000	0.019040
628.000000	0.019078
627.000000	0.019108
626.000000	0.019132
625.000000	0.019186
624.000000	0.019264
623.000000	0.019298
622.000000	0.019261
621.000000	0.019221
620.000000	0.019248
619.000000	0.019328
618.000000	0.019404
617.000000	0.019443
616.000000	0.019427
615.000000	0.019341
614.000000	0.019232
613.000000	0.019185
612.000000	0.019213
611.000000	0.019233
610.000000	0.019189
609.000000	0.019128
608.000000	0.019096
607.000000	0.019070
606.000000	0.019038
605.000000	0.019070
604.000000	0.019198
603.000000	0.019321
602.000000	0.019323
601.000000	0.019238
600.000000	0.019190
599.000000	0.019232
598.000000	0.019328
597.000000	0.019442
596.000000	0.019553
595.000000	0.019612
594.000000	0.019574
593.000000	0.019463
592.000000	0.019347
591.000000	0.019273
590.000000	0.019254
589.000000	0.019279
588.000000	0.019302
587.000000	0.019265
586.000000	0.019179
585.000000	0.019120
584.000000	0.019109
583.000000	0.019079
582.000000	0.019018
581.000000	0.019029
580.000000	0.019187
579.000000	0.019412
578.000000	0.019583
577.000000	0.019676
576.000000	0.019724
575.000000	0.019730
574.000000	0.019739
573.000000	0.019867
572.000000	0.020153
571.000000	0.020465
570.000000	0.020648
569.000000	0.020718
568.000000	0.020787
567.000000	0.020885
566.000000	0.020984
565.000000	0.021113
564.000000	0.021301
563.000000	0.021492
562.000000	0.021622
561.000000	0.021732
560.000000	0.021892
559.000000	0.022075
558.000000	0.022211
557.000000	0.022302
556.000000	0.022365
555.000000	0.022344
554.000000	0.022190
553.000000	0.021959
552.000000	0.021731
551.000000	0.021497
550.000000	0.021212
549.000000	0.020905
548.000000	0.020620
547.000000	0.020360
546.000000	0.020137
545.000000	0.019989
544.000000	0.019875
543.000000	0.019685
542.000000	0.019434
541.000000	0.019309
540.000000	0.019415
539.000000	0.019600
538.000000	0.019676
537.000000	0.019671
536.000000	0.019716
535.000000	0.019812
534.000000	0.019888
533.000000	0.019985
532.000000	0.020186
531.000000	0.020429
530.000000	0.020571
529.000000	0.020586
528.000000	0.020568
527.000000	0.020551
526.000000	0.020491
525.000000	0.020388
524.000000	0.020255
523.000000	0.020022
522.000000	0.019614
521.000000	0.019077
520.000000	0.018536
519.000000	0.018074
518.000000	0.017725
517.000000	0.017521
516.000000	0.017405
515.000000	0.017229
514.000000	0.016931
513.000000	0.016633
512.000000	0.016460
511.000000	0.016339
510.000000	0.016111
509.000000	0.015757
508.000000	0.015392
507.000000	0.015075
506.000000	0.014775
505.000000	0.014505
504.000000	0.014310
503.000000	0.014180
502.000000	0.014065
501.000000	0.013966
500.000000	0.013915
499.000000	0.013878
498.000000	0.013798
497.000000	0.013691
496.000000	0.013602
495.000000	0.013485
494.000000	0.013243
493.000000	0.012871
492.000000	0.012493
491.000000	0.012256
490.000000	0.012235
489.000000	0.012391
488.000000	0.012539
487.000000	0.012461
486.000000	0.012121
485.000000	0.011725
484.000000	0.011463
483.000000	0.011281
482.000000	0.011037
481.000000	0.010776
480.000000	0.010649
479.000000	0.010660
478.000000	0.010663
477.000000	0.010533
476.000000	0.010233
475.000000	0.009798
474.000000	0.009416
473.000000	0.009382
472.000000	0.009755
471.000000	0.010156
470.000000	0.010213
469.000000	0.009995
468.000000	0.009765
467.000000	0.009610
466.000000	0.009447
465.000000	0.009223
464.000000	0.008896
463.000000	0.008352
462.000000	0.007565
461.000000	0.006764
460.000000	0.006230
459.000000	0.006068
458.000000	0.006294
457.000000	0.006862
456.000000	0.007465
455.000000	0.007645
454.000000	0.007257
453.000000	0.006651
452.000000	0.006230
451.000000	0.005877
450.000000	0.005225
