PE IR       SUBTECH     SPECTRUM    ASCII       PEDS        4.00        
   -1
3S-N10-F020_1.ASC
22/02/18
15:38:39.00
22/02/18
15:59:09.00
uco
Sample 020 By uco Date Friday, February 18 2022
450.000000
#HDR
-1
-1
#GR
cm-1
A
1.0
0.0
4000.000000
-1.000000
3551
8
0.066840
0.007711
#DATA
4000.000000	0.008361
3999.000000	0.008391
3998.000000	0.008425
3997.000000	0.008454
3996.000000	0.008469
3995.000000	0.008471
3994.000000	0.008467
3993.000000	0.008464
3992.000000	0.008469
3991.000000	0.008480
3990.000000	0.008493
3989.000000	0.008507
3988.000000	0.008522
3987.000000	0.008537
3986.000000	0.008547
3985.000000	0.008546
3984.000000	0.008535
3983.000000	0.008522
3982.000000	0.008512
3981.000000	0.008504
3980.000000	0.008494
3979.000000	0.008482
3978.000000	0.008476
3977.000000	0.008486
3976.000000	0.008511
3975.000000	0.008541
3974.000000	0.008562
3973.000000	0.008570
3972.000000	0.008570
3971.000000	0.008568
3970.000000	0.008571
3969.000000	0.008577
3968.000000	0.008584
3967.000000	0.008588
3966.000000	0.008590
3965.000000	0.008587
3964.000000	0.008578
3963.000000	0.008569
3962.000000	0.008566
3961.000000	0.008576
3960.000000	0.008596
3959.000000	0.008617
3958.000000	0.008635
3957.000000	0.008651
3956.000000	0.008667
3955.000000	0.008686
3954.000000	0.008704
3953.000000	0.008719
3952.000000	0.008726
3951.000000	0.008725
3950.000000	0.008716
3949.000000	0.008704
3948.000000	0.008698
3947.000000	0.008707
3946.000000	0.008727
3945.000000	0.008749
3944.000000	0.008761
3943.000000	0.008755
3942.000000	0.008730
3941.000000	0.008702
3940.000000	0.008686
3939.000000	0.008690
3938.000000	0.008706
3937.000000	0.008717
3936.000000	0.008710
3935.000000	0.008685
3934.000000	0.008657
3933.000000	0.008642
3932.000000	0.008646
3931.000000	0.008666
3930.000000	0.008694
3929.000000	0.008727
3928.000000	0.008768
3927.000000	0.008807
3926.000000	0.008833
3925.000000	0.008833
3924.000000	0.008809
3923.000000	0.008776
3922.000000	0.008748
3921.000000	0.008727
3920.000000	0.008701
3919.000000	0.008664
3918.000000	0.008631
3917.000000	0.008622
3916.000000	0.008642
3915.000000	0.008671
3914.000000	0.008693
3913.000000	0.008708
3912.000000	0.008724
3911.000000	0.008746
3910.000000	0.008777
3909.000000	0.008818
3908.000000	0.008869
3907.000000	0.008913
3906.000000	0.008917
3905.000000	0.008847
3904.000000	0.008711
3903.000000	0.008576
3902.000000	0.008514
3901.000000	0.008543
3900.000000	0.008621
3899.000000	0.008689
3898.000000	0.008715
3897.000000	0.008711
3896.000000	0.008703
3895.000000	0.008710
3894.000000	0.008735
3893.000000	0.008761
3892.000000	0.008765
3891.000000	0.008740
3890.000000	0.008696
3889.000000	0.008648
3888.000000	0.008611
3887.000000	0.008601
3886.000000	0.008627
3885.000000	0.008662
3884.000000	0.008675
3883.000000	0.008672
3882.000000	0.008679
3881.000000	0.008711
3880.000000	0.008760
3879.000000	0.008808
3878.000000	0.008843
3877.000000	0.008861
3876.000000	0.008868
3875.000000	0.008869
3874.000000	0.008853
3873.000000	0.008802
3872.000000	0.008722
3871.000000	0.008651
3870.000000	0.008631
3869.000000	0.008665
3868.000000	0.008716
3867.000000	0.008752
3866.000000	0.008779
3865.000000	0.008809
3864.000000	0.008817
3863.000000	0.008791
3862.000000	0.008750
3861.000000	0.008728
3860.000000	0.008747
3859.000000	0.008816
3858.000000	0.008932
3857.000000	0.009066
3856.000000	0.009169
3855.000000	0.009190
3854.000000	0.009088
3853.000000	0.008921
3852.000000	0.008793
3851.000000	0.008728
3850.000000	0.008694
3849.000000	0.008680
3848.000000	0.008674
3847.000000	0.008668
3846.000000	0.008663
3845.000000	0.008666
3844.000000	0.008680
3843.000000	0.008704
3842.000000	0.008728
3841.000000	0.008747
3840.000000	0.008763
3839.000000	0.008772
3838.000000	0.008774
3837.000000	0.008776
3836.000000	0.008780
3835.000000	0.008780
3834.000000	0.008768
3833.000000	0.008752
3832.000000	0.008745
3831.000000	0.008749
3830.000000	0.008758
3829.000000	0.008768
3828.000000	0.008778
3827.000000	0.008792
3826.000000	0.008806
3825.000000	0.008810
3824.000000	0.008795
3823.000000	0.008779
3822.000000	0.008784
3821.000000	0.008805
3820.000000	0.008823
3819.000000	0.008823
3818.000000	0.008813
3817.000000	0.008807
3816.000000	0.008819
3815.000000	0.008842
3814.000000	0.008858
3813.000000	0.008865
3812.000000	0.008870
3811.000000	0.008875
3810.000000	0.008871
3809.000000	0.008857
3808.000000	0.008841
3807.000000	0.008833
3806.000000	0.008822
3805.000000	0.008798
3804.000000	0.008770
3803.000000	0.008770
3802.000000	0.008814
3801.000000	0.008869
3800.000000	0.008889
3799.000000	0.008871
3798.000000	0.008842
3797.000000	0.008832
3796.000000	0.008852
3795.000000	0.008887
3794.000000	0.008918
3793.000000	0.008938
3792.000000	0.008955
3791.000000	0.008972
3790.000000	0.008992
3789.000000	0.009012
3788.000000	0.009031
3787.000000	0.009048
3786.000000	0.009059
3785.000000	0.009062
3784.000000	0.009059
3783.000000	0.009055
3782.000000	0.009056
3781.000000	0.009067
3780.000000	0.009077
3779.000000	0.009063
3778.000000	0.009020
3777.000000	0.008964
3776.000000	0.008919
3775.000000	0.008903
3774.000000	0.008913
3773.000000	0.008929
3772.000000	0.008934
3771.000000	0.008929
3770.000000	0.008924
3769.000000	0.008919
3768.000000	0.008910
3767.000000	0.008896
3766.000000	0.008884
3765.000000	0.008882
3764.000000	0.008882
3763.000000	0.008872
3762.000000	0.008852
3761.000000	0.008842
3760.000000	0.008844
3759.000000	0.008839
3758.000000	0.008825
3757.000000	0.008815
3756.000000	0.008813
3755.000000	0.008803
3754.000000	0.008768
3753.000000	0.008704
3752.000000	0.008622
3751.000000	0.008541
3750.000000	0.008498
3749.000000	0.008513
3748.000000	0.008563
3747.000000	0.008611
3746.000000	0.008654
3745.000000	0.008707
3744.000000	0.008754
3743.000000	0.008746
3742.000000	0.008666
3741.000000	0.008549
3740.000000	0.008446
3739.000000	0.008375
3738.000000	0.008334
3737.000000	0.008322
3736.000000	0.008335
3735.000000	0.008344
3734.000000	0.008334
3733.000000	0.008345
3732.000000	0.008411
3731.000000	0.008507
3730.000000	0.008580
3729.000000	0.008602
3728.000000	0.008589
3727.000000	0.008583
3726.000000	0.008599
3725.000000	0.008624
3724.000000	0.008647
3723.000000	0.008681
3722.000000	0.008721
3721.000000	0.008761
3720.000000	0.008794
3719.000000	0.008813
3718.000000	0.008817
3717.000000	0.008806
3716.000000	0.008777
3715.000000	0.008734
3714.000000	0.008698
3713.000000	0.008696
3712.000000	0.008725
3711.000000	0.008752
3710.000000	0.008765
3709.000000	0.008767
3708.000000	0.008762
3707.000000	0.008750
3706.000000	0.008728
3705.000000	0.008712
3704.000000	0.008719
3703.000000	0.008759
3702.000000	0.008814
3701.000000	0.008853
3700.000000	0.008867
3699.000000	0.008865
3698.000000	0.008865
3697.000000	0.008887
3696.000000	0.008922
3695.000000	0.008947
3694.000000	0.008949
3693.000000	0.008941
3692.000000	0.008925
3691.000000	0.008885
3690.000000	0.008801
3689.000000	0.008708
3688.000000	0.008677
3687.000000	0.008713
3686.000000	0.008775
3685.000000	0.008831
3684.000000	0.008875
3683.000000	0.008907
3682.000000	0.008929
3681.000000	0.008946
3680.000000	0.008965
3679.000000	0.008974
3678.000000	0.008951
3677.000000	0.008915
3676.000000	0.008909
3675.000000	0.008936
3674.000000	0.008954
3673.000000	0.008946
3672.000000	0.008930
3671.000000	0.008955
3670.000000	0.009023
3669.000000	0.009086
3668.000000	0.009119
3667.000000	0.009138
3666.000000	0.009155
3665.000000	0.009182
3664.000000	0.009216
3663.000000	0.009248
3662.000000	0.009271
3661.000000	0.009276
3660.000000	0.009264
3659.000000	0.009243
3658.000000	0.009223
3657.000000	0.009210
3656.000000	0.009202
3655.000000	0.009192
3654.000000	0.009177
3653.000000	0.009160
3652.000000	0.009157
3651.000000	0.009182
3650.000000	0.009219
3649.000000	0.009243
3648.000000	0.009272
3647.000000	0.009328
3646.000000	0.009397
3645.000000	0.009464
3644.000000	0.009527
3643.000000	0.009590
3642.000000	0.009654
3641.000000	0.009712
3640.000000	0.009759
3639.000000	0.009796
3638.000000	0.009821
3637.000000	0.009831
3636.000000	0.009823
3635.000000	0.009809
3634.000000	0.009795
3633.000000	0.009774
3632.000000	0.009746
3631.000000	0.009738
3630.000000	0.009789
3629.000000	0.009894
3628.000000	0.009993
3627.000000	0.010056
3626.000000	0.010100
3625.000000	0.010142
3624.000000	0.010189
3623.000000	0.010236
3622.000000	0.010281
3621.000000	0.010333
3620.000000	0.010402
3619.000000	0.010473
3618.000000	0.010532
3617.000000	0.010575
3616.000000	0.010602
3615.000000	0.010620
3614.000000	0.010634
3613.000000	0.010642
3612.000000	0.010640
3611.000000	0.010640
3610.000000	0.010668
3609.000000	0.010745
3608.000000	0.010861
3607.000000	0.010978
3606.000000	0.011074
3605.000000	0.011151
3604.000000	0.011220
3603.000000	0.011283
3602.000000	0.011338
3601.000000	0.011389
3600.000000	0.011446
3599.000000	0.011510
3598.000000	0.011581
3597.000000	0.011655
3596.000000	0.011720
3595.000000	0.011769
3594.000000	0.011795
3593.000000	0.011804
3592.000000	0.011805
3591.000000	0.011803
3590.000000	0.011819
3589.000000	0.011882
3588.000000	0.011999
3587.000000	0.012138
3586.000000	0.012256
3585.000000	0.012346
3584.000000	0.012424
3583.000000	0.012507
3582.000000	0.012605
3581.000000	0.012713
3580.000000	0.012819
3579.000000	0.012910
3578.000000	0.012980
3577.000000	0.013038
3576.000000	0.013093
3575.000000	0.013157
3574.000000	0.013230
3573.000000	0.013298
3572.000000	0.013342
3571.000000	0.013355
3570.000000	0.013355
3569.000000	0.013386
3568.000000	0.013486
3567.000000	0.013642
3566.000000	0.013801
3565.000000	0.013917
3564.000000	0.013987
3563.000000	0.014035
3562.000000	0.014085
3561.000000	0.014146
3560.000000	0.014218
3559.000000	0.014299
3558.000000	0.014388
3557.000000	0.014481
3556.000000	0.014565
3555.000000	0.014632
3554.000000	0.014689
3553.000000	0.014750
3552.000000	0.014821
3551.000000	0.014892
3550.000000	0.014947
3549.000000	0.014989
3548.000000	0.015034
3547.000000	0.015107
3546.000000	0.015212
3545.000000	0.015335
3544.000000	0.015452
3543.000000	0.015551
3542.000000	0.015635
3541.000000	0.015710
3540.000000	0.015779
3539.000000	0.015842
3538.000000	0.015898
3537.000000	0.015944
3536.000000	0.015987
3535.000000	0.016038
3534.000000	0.016109
3533.000000	0.016205
3532.000000	0.016315
3531.000000	0.016424
3530.000000	0.016514
3529.000000	0.016576
3528.000000	0.016617
3527.000000	0.016654
3526.000000	0.016707
3525.000000	0.016785
3524.000000	0.016875
3523.000000	0.016955
3522.000000	0.017016
3521.000000	0.017066
3520.000000	0.017126
3519.000000	0.017206
3518.000000	0.017299
3517.000000	0.017393
3516.000000	0.017475
3515.000000	0.017538
3514.000000	0.017582
3513.000000	0.017616
3512.000000	0.017650
3511.000000	0.017697
3510.000000	0.017760
3509.000000	0.017832
3508.000000	0.017907
3507.000000	0.017980
3506.000000	0.018050
3505.000000	0.018118
3504.000000	0.018183
3503.000000	0.018244
3502.000000	0.018304
3501.000000	0.018365
3500.000000	0.018430
3499.000000	0.018498
3498.000000	0.018564
3497.000000	0.018624
3496.000000	0.018680
3495.000000	0.018733
3494.000000	0.018790
3493.000000	0.018851
3492.000000	0.018912
3491.000000	0.018967
3490.000000	0.019020
3489.000000	0.019076
3488.000000	0.019135
3487.000000	0.019187
3486.000000	0.019226
3485.000000	0.019258
3484.000000	0.019302
3483.000000	0.019369
3482.000000	0.019449
3481.000000	0.019526
3480.000000	0.019593
3479.000000	0.019660
3478.000000	0.019735
3477.000000	0.019810
3476.000000	0.019875
3475.000000	0.019922
3474.000000	0.019954
3473.000000	0.019983
3472.000000	0.020018
3471.000000	0.020067
3470.000000	0.020131
3469.000000	0.020202
3468.000000	0.020269
3467.000000	0.020327
3466.000000	0.020380
3465.000000	0.020431
3464.000000	0.020479
3463.000000	0.020522
3462.000000	0.020562
3461.000000	0.020606
3460.000000	0.020659
3459.000000	0.020718
3458.000000	0.020779
3457.000000	0.020836
3456.000000	0.020894
3455.000000	0.020956
3454.000000	0.021021
3453.000000	0.021084
3452.000000	0.021139
3451.000000	0.021183
3450.000000	0.021222
3449.000000	0.021259
3448.000000	0.021298
3447.000000	0.021343
3446.000000	0.021399
3445.000000	0.021466
3444.000000	0.021536
3443.000000	0.021601
3442.000000	0.021656
3441.000000	0.021702
3440.000000	0.021742
3439.000000	0.021786
3438.000000	0.021843
3437.000000	0.021916
3436.000000	0.021999
3435.000000	0.022087
3434.000000	0.022176
3433.000000	0.022262
3432.000000	0.022340
3431.000000	0.022406
3430.000000	0.022462
3429.000000	0.022506
3428.000000	0.022540
3427.000000	0.022568
3426.000000	0.022596
3425.000000	0.022632
3424.000000	0.022677
3423.000000	0.022739
3422.000000	0.022821
3421.000000	0.022917
3420.000000	0.023011
3419.000000	0.023092
3418.000000	0.023158
3417.000000	0.023219
3416.000000	0.023281
3415.000000	0.023348
3414.000000	0.023419
3413.000000	0.023490
3412.000000	0.023556
3411.000000	0.023620
3410.000000	0.023689
3409.000000	0.023763
3408.000000	0.023832
3407.000000	0.023891
3406.000000	0.023942
3405.000000	0.023994
3404.000000	0.024049
3403.000000	0.024105
3402.000000	0.024158
3401.000000	0.024211
3400.000000	0.024267
3399.000000	0.024331
3398.000000	0.024402
3397.000000	0.024475
3396.000000	0.024545
3395.000000	0.024612
3394.000000	0.024673
3393.000000	0.024720
3392.000000	0.024748
3391.000000	0.024767
3390.000000	0.024800
3389.000000	0.024861
3388.000000	0.024938
3387.000000	0.025008
3386.000000	0.025061
3385.000000	0.025110
3384.000000	0.025171
3383.000000	0.025239
3382.000000	0.025303
3381.000000	0.025355
3380.000000	0.025407
3379.000000	0.025469
3378.000000	0.025544
3377.000000	0.025622
3376.000000	0.025693
3375.000000	0.025758
3374.000000	0.025824
3373.000000	0.025894
3372.000000	0.025970
3371.000000	0.026048
3370.000000	0.026125
3369.000000	0.026198
3368.000000	0.026268
3367.000000	0.026341
3366.000000	0.026426
3365.000000	0.026521
3364.000000	0.026620
3363.000000	0.026712
3362.000000	0.026799
3361.000000	0.026891
3360.000000	0.026995
3359.000000	0.027111
3358.000000	0.027231
3357.000000	0.027343
3356.000000	0.027440
3355.000000	0.027519
3354.000000	0.027585
3353.000000	0.027650
3352.000000	0.027729
3351.000000	0.027830
3350.000000	0.027948
3349.000000	0.028069
3348.000000	0.028182
3347.000000	0.028285
3346.000000	0.028382
3345.000000	0.028479
3344.000000	0.028573
3343.000000	0.028662
3342.000000	0.028741
3341.000000	0.028808
3340.000000	0.028867
3339.000000	0.028931
3338.000000	0.029017
3337.000000	0.029130
3336.000000	0.029259
3335.000000	0.029386
3334.000000	0.029498
3333.000000	0.029591
3332.000000	0.029668
3331.000000	0.029741
3330.000000	0.029823
3329.000000	0.029914
3328.000000	0.030000
3327.000000	0.030066
3326.000000	0.030118
3325.000000	0.030174
3324.000000	0.030246
3323.000000	0.030330
3322.000000	0.030412
3321.000000	0.030485
3320.000000	0.030550
3319.000000	0.030610
3318.000000	0.030666
3317.000000	0.030715
3316.000000	0.030760
3315.000000	0.030807
3314.000000	0.030860
3313.000000	0.030913
3312.000000	0.030959
3311.000000	0.030999
3310.000000	0.031039
3309.000000	0.031086
3308.000000	0.031136
3307.000000	0.031191
3306.000000	0.031255
3305.000000	0.031332
3304.000000	0.031410
3303.000000	0.031476
3302.000000	0.031528
3301.000000	0.031574
3300.000000	0.031614
3299.000000	0.031643
3298.000000	0.031658
3297.000000	0.031666
3296.000000	0.031682
3295.000000	0.031705
3294.000000	0.031727
3293.000000	0.031739
3292.000000	0.031740
3291.000000	0.031740
3290.000000	0.031750
3289.000000	0.031774
3288.000000	0.031803
3287.000000	0.031819
3286.000000	0.031816
3285.000000	0.031800
3284.000000	0.031788
3283.000000	0.031792
3282.000000	0.031813
3281.000000	0.031834
3280.000000	0.031832
3279.000000	0.031791
3278.000000	0.031720
3277.000000	0.031645
3276.000000	0.031590
3275.000000	0.031557
3274.000000	0.031530
3273.000000	0.031496
3272.000000	0.031456
3271.000000	0.031424
3270.000000	0.031403
3269.000000	0.031386
3268.000000	0.031363
3267.000000	0.031327
3266.000000	0.031280
3265.000000	0.031224
3264.000000	0.031160
3263.000000	0.031087
3262.000000	0.031003
3261.000000	0.030911
3260.000000	0.030817
3259.000000	0.030726
3258.000000	0.030643
3257.000000	0.030567
3256.000000	0.030500
3255.000000	0.030447
3254.000000	0.030403
3253.000000	0.030358
3252.000000	0.030301
3251.000000	0.030231
3250.000000	0.030155
3249.000000	0.030083
3248.000000	0.030016
3247.000000	0.029951
3246.000000	0.029889
3245.000000	0.029836
3244.000000	0.029797
3243.000000	0.029769
3242.000000	0.029737
3241.000000	0.029685
3240.000000	0.029608
3239.000000	0.029516
3238.000000	0.029424
3237.000000	0.029341
3236.000000	0.029272
3235.000000	0.029214
3234.000000	0.029168
3233.000000	0.029131
3232.000000	0.029095
3231.000000	0.029052
3230.000000	0.028999
3229.000000	0.028942
3228.000000	0.028888
3227.000000	0.028842
3226.000000	0.028803
3225.000000	0.028772
3224.000000	0.028745
3223.000000	0.028722
3222.000000	0.028695
3221.000000	0.028657
3220.000000	0.028602
3219.000000	0.028537
3218.000000	0.028476
3217.000000	0.028429
3216.000000	0.028394
3215.000000	0.028359
3214.000000	0.028314
3213.000000	0.028262
3212.000000	0.028208
3211.000000	0.028152
3210.000000	0.028086
3209.000000	0.028008
3208.000000	0.027926
3207.000000	0.027853
3206.000000	0.027792
3205.000000	0.027733
3204.000000	0.027667
3203.000000	0.027593
3202.000000	0.027523
3201.000000	0.027470
3200.000000	0.027433
3199.000000	0.027396
3198.000000	0.027343
3197.000000	0.027271
3196.000000	0.027193
3195.000000	0.027124
3194.000000	0.027067
3193.000000	0.027013
3192.000000	0.026952
3191.000000	0.026881
3190.000000	0.026807
3189.000000	0.026738
3188.000000	0.026672
3187.000000	0.026599
3186.000000	0.026512
3185.000000	0.026416
3184.000000	0.026323
3183.000000	0.026243
3182.000000	0.026178
3181.000000	0.026122
3180.000000	0.026068
3179.000000	0.026011
3178.000000	0.025943
3177.000000	0.025858
3176.000000	0.025756
3175.000000	0.025650
3174.000000	0.025556
3173.000000	0.025483
3172.000000	0.025426
3171.000000	0.025374
3170.000000	0.025319
3169.000000	0.025255
3168.000000	0.025177
3167.000000	0.025085
3166.000000	0.024982
3165.000000	0.024873
3164.000000	0.024762
3163.000000	0.024651
3162.000000	0.024550
3161.000000	0.024471
3160.000000	0.024415
3159.000000	0.024372
3158.000000	0.024328
3157.000000	0.024275
3156.000000	0.024215
3155.000000	0.024149
3154.000000	0.024078
3153.000000	0.024002
3152.000000	0.023921
3151.000000	0.023843
3150.000000	0.023776
3149.000000	0.023725
3148.000000	0.023682
3147.000000	0.023637
3146.000000	0.023585
3145.000000	0.023530
3144.000000	0.023479
3143.000000	0.023429
3142.000000	0.023373
3141.000000	0.023307
3140.000000	0.023233
3139.000000	0.023159
3138.000000	0.023089
3137.000000	0.023023
3136.000000	0.022960
3135.000000	0.022901
3134.000000	0.022847
3133.000000	0.022802
3132.000000	0.022769
3131.000000	0.022743
3130.000000	0.022719
3129.000000	0.022695
3128.000000	0.022673
3127.000000	0.022655
3126.000000	0.022636
3125.000000	0.022611
3124.000000	0.022580
3123.000000	0.022546
3122.000000	0.022511
3121.000000	0.022472
3120.000000	0.022426
3119.000000	0.022378
3118.000000	0.022342
3117.000000	0.022328
3116.000000	0.022334
3115.000000	0.022348
3114.000000	0.022358
3113.000000	0.022358
3112.000000	0.022351
3111.000000	0.022345
3110.000000	0.022352
3109.000000	0.022375
3108.000000	0.022407
3107.000000	0.022436
3106.000000	0.022457
3105.000000	0.022469
3104.000000	0.022470
3103.000000	0.022458
3102.000000	0.022445
3101.000000	0.022447
3100.000000	0.022471
3099.000000	0.022510
3098.000000	0.022548
3097.000000	0.022579
3096.000000	0.022604
3095.000000	0.022628
3094.000000	0.022655
3093.000000	0.022687
3092.000000	0.022718
3091.000000	0.022739
3090.000000	0.022750
3089.000000	0.022759
3088.000000	0.022773
3087.000000	0.022790
3086.000000	0.022802
3085.000000	0.022803
3084.000000	0.022804
3083.000000	0.022812
3082.000000	0.022825
3081.000000	0.022836
3080.000000	0.022841
3079.000000	0.022846
3078.000000	0.022857
3077.000000	0.022874
3076.000000	0.022888
3075.000000	0.022893
3074.000000	0.022889
3073.000000	0.022880
3072.000000	0.022868
3071.000000	0.022855
3070.000000	0.022843
3069.000000	0.022828
3068.000000	0.022807
3067.000000	0.022783
3066.000000	0.022763
3065.000000	0.022750
3064.000000	0.022733
3063.000000	0.022700
3062.000000	0.022648
3061.000000	0.022588
3060.000000	0.022531
3059.000000	0.022487
3058.000000	0.022459
3057.000000	0.022448
3056.000000	0.022442
3055.000000	0.022421
3054.000000	0.022371
3053.000000	0.022292
3052.000000	0.022194
3051.000000	0.022094
3050.000000	0.022002
3049.000000	0.021921
3048.000000	0.021849
3047.000000	0.021777
3046.000000	0.021700
3045.000000	0.021621
3044.000000	0.021547
3043.000000	0.021485
3042.000000	0.021432
3041.000000	0.021382
3040.000000	0.021328
3039.000000	0.021267
3038.000000	0.021191
3037.000000	0.021094
3036.000000	0.020984
3035.000000	0.020881
3034.000000	0.020804
3033.000000	0.020755
3032.000000	0.020723
3031.000000	0.020693
3030.000000	0.020660
3029.000000	0.020622
3028.000000	0.020578
3027.000000	0.020526
3026.000000	0.020467
3025.000000	0.020409
3024.000000	0.020357
3023.000000	0.020318
3022.000000	0.020294
3021.000000	0.020278
3020.000000	0.020262
3019.000000	0.020244
3018.000000	0.020227
3017.000000	0.020217
3016.000000	0.020220
3015.000000	0.020241
3014.000000	0.020280
3013.000000	0.020334
3012.000000	0.020390
3011.000000	0.020441
3010.000000	0.020486
3009.000000	0.020525
3008.000000	0.020552
3007.000000	0.020566
3006.000000	0.020575
3005.000000	0.020587
3004.000000	0.020603
3003.000000	0.020613
3002.000000	0.020605
3001.000000	0.020580
3000.000000	0.020543
2999.000000	0.020502
2998.000000	0.020464
2997.000000	0.020436
2996.000000	0.020418
2995.000000	0.020414
2994.000000	0.020427
2993.000000	0.020464
2992.000000	0.020526
2991.000000	0.020608
2990.000000	0.020699
2989.000000	0.020793
2988.000000	0.020889
2987.000000	0.020992
2986.000000	0.021114
2985.000000	0.021255
2984.000000	0.021405
2983.000000	0.021547
2982.000000	0.021682
2981.000000	0.021821
2980.000000	0.021976
2979.000000	0.022147
2978.000000	0.022327
2977.000000	0.022511
2976.000000	0.022701
2975.000000	0.022901
2974.000000	0.023109
2973.000000	0.023323
2972.000000	0.023553
2971.000000	0.023821
2970.000000	0.024153
2969.000000	0.024552
2968.000000	0.024997
2967.000000	0.025458
2966.000000	0.025914
2965.000000	0.026356
2964.000000	0.026783
2963.000000	0.027197
2962.000000	0.027598
2961.000000	0.027990
2960.000000	0.028369
2959.000000	0.028723
2958.000000	0.029034
2957.000000	0.029291
2956.000000	0.029488
2955.000000	0.029627
2954.000000	0.029714
2953.000000	0.029764
2952.000000	0.029797
2951.000000	0.029832
2950.000000	0.029885
2949.000000	0.029968
2948.000000	0.030091
2947.000000	0.030264
2946.000000	0.030504
2945.000000	0.030833
2944.000000	0.031264
2943.000000	0.031794
2942.000000	0.032409
2941.000000	0.033093
2940.000000	0.033839
2939.000000	0.034652
2938.000000	0.035536
2937.000000	0.036480
2936.000000	0.037462
2935.000000	0.038461
2934.000000	0.039469
2933.000000	0.040486
2932.000000	0.041508
2931.000000	0.042517
2930.000000	0.043495
2929.000000	0.044424
2928.000000	0.045289
2927.000000	0.046067
2926.000000	0.046728
2925.000000	0.047241
2924.000000	0.047574
2923.000000	0.047704
2922.000000	0.047615
2921.000000	0.047307
2920.000000	0.046789
2919.000000	0.046076
2918.000000	0.045189
2917.000000	0.044158
2916.000000	0.043034
2915.000000	0.041873
2914.000000	0.040727
2913.000000	0.039631
2912.000000	0.038606
2911.000000	0.037655
2910.000000	0.036774
2909.000000	0.035955
2908.000000	0.035204
2907.000000	0.034534
2906.000000	0.033950
2905.000000	0.033438
2904.000000	0.032969
2903.000000	0.032519
2902.000000	0.032080
2901.000000	0.031657
2900.000000	0.031248
2899.000000	0.030848
2898.000000	0.030455
2897.000000	0.030076
2896.000000	0.029719
2895.000000	0.029390
2894.000000	0.029076
2893.000000	0.028764
2892.000000	0.028446
2891.000000	0.028130
2890.000000	0.027828
2889.000000	0.027553
2888.000000	0.027312
2887.000000	0.027111
2886.000000	0.026944
2885.000000	0.026802
2884.000000	0.026673
2883.000000	0.026554
2882.000000	0.026458
2881.000000	0.026403
2880.000000	0.026397
2879.000000	0.026438
2878.000000	0.026513
2877.000000	0.026615
2876.000000	0.026737
2875.000000	0.026876
2874.000000	0.027022
2873.000000	0.027158
2872.000000	0.027266
2871.000000	0.027338
2870.000000	0.027382
2869.000000	0.027425
2868.000000	0.027498
2867.000000	0.027627
2866.000000	0.027829
2865.000000	0.028113
2864.000000	0.028492
2863.000000	0.028979
2862.000000	0.029586
2861.000000	0.030315
2860.000000	0.031150
2859.000000	0.032063
2858.000000	0.033007
2857.000000	0.033920
2856.000000	0.034739
2855.000000	0.035402
2854.000000	0.035850
2853.000000	0.036032
2852.000000	0.035912
2851.000000	0.035482
2850.000000	0.034768
2849.000000	0.033812
2848.000000	0.032676
2847.000000	0.031435
2846.000000	0.030177
2845.000000	0.028975
2844.000000	0.027879
2843.000000	0.026910
2842.000000	0.026070
2841.000000	0.025344
2840.000000	0.024710
2839.000000	0.024154
2838.000000	0.023671
2837.000000	0.023259
2836.000000	0.022904
2835.000000	0.022589
2834.000000	0.022303
2833.000000	0.022047
2832.000000	0.021826
2831.000000	0.021637
2830.000000	0.021471
2829.000000	0.021315
2828.000000	0.021157
2827.000000	0.020989
2826.000000	0.020819
2825.000000	0.020662
2824.000000	0.020532
2823.000000	0.020422
2822.000000	0.020317
2821.000000	0.020204
2820.000000	0.020084
2819.000000	0.019967
2818.000000	0.019862
2817.000000	0.019769
2816.000000	0.019680
2815.000000	0.019588
2814.000000	0.019499
2813.000000	0.019420
2812.000000	0.019357
2811.000000	0.019304
2810.000000	0.019250
2809.000000	0.019187
2808.000000	0.019113
2807.000000	0.019038
2806.000000	0.018971
2805.000000	0.018917
2804.000000	0.018869
2803.000000	0.018820
2802.000000	0.018767
2801.000000	0.018714
2800.000000	0.018663
2799.000000	0.018610
2798.000000	0.018558
2797.000000	0.018515
2796.000000	0.018480
2795.000000	0.018447
2794.000000	0.018410
2793.000000	0.018369
2792.000000	0.018324
2791.000000	0.018271
2790.000000	0.018214
2789.000000	0.018159
2788.000000	0.018115
2787.000000	0.018075
2786.000000	0.018030
2785.000000	0.017975
2784.000000	0.017918
2783.000000	0.017870
2782.000000	0.017833
2781.000000	0.017801
2780.000000	0.017769
2779.000000	0.017735
2778.000000	0.017706
2777.000000	0.017685
2776.000000	0.017665
2775.000000	0.017636
2774.000000	0.017593
2773.000000	0.017540
2772.000000	0.017490
2771.000000	0.017448
2770.000000	0.017412
2769.000000	0.017376
2768.000000	0.017337
2767.000000	0.017301
2766.000000	0.017275
2765.000000	0.017257
2764.000000	0.017239
2763.000000	0.017212
2762.000000	0.017179
2761.000000	0.017147
2760.000000	0.017117
2759.000000	0.017090
2758.000000	0.017067
2757.000000	0.017053
2756.000000	0.017042
2755.000000	0.017025
2754.000000	0.016996
2753.000000	0.016957
2752.000000	0.016918
2751.000000	0.016885
2750.000000	0.016861
2749.000000	0.016842
2748.000000	0.016822
2747.000000	0.016798
2746.000000	0.016770
2745.000000	0.016743
2744.000000	0.016714
2743.000000	0.016680
2742.000000	0.016641
2741.000000	0.016602
2740.000000	0.016572
2739.000000	0.016553
2738.000000	0.016547
2737.000000	0.016547
2736.000000	0.016544
2735.000000	0.016531
2734.000000	0.016508
2733.000000	0.016484
2732.000000	0.016467
2731.000000	0.016458
2730.000000	0.016450
2729.000000	0.016438
2728.000000	0.016418
2727.000000	0.016393
2726.000000	0.016361
2725.000000	0.016324
2724.000000	0.016284
2723.000000	0.016247
2722.000000	0.016220
2721.000000	0.016203
2720.000000	0.016191
2719.000000	0.016174
2718.000000	0.016150
2717.000000	0.016119
2716.000000	0.016083
2715.000000	0.016043
2714.000000	0.016007
2713.000000	0.015984
2712.000000	0.015977
2711.000000	0.015978
2710.000000	0.015975
2709.000000	0.015962
2708.000000	0.015937
2707.000000	0.015907
2706.000000	0.015879
2705.000000	0.015860
2704.000000	0.015846
2703.000000	0.015832
2702.000000	0.015817
2701.000000	0.015805
2700.000000	0.015799
2699.000000	0.015795
2698.000000	0.015789
2697.000000	0.015778
2696.000000	0.015765
2695.000000	0.015751
2694.000000	0.015738
2693.000000	0.015725
2692.000000	0.015711
2691.000000	0.015698
2690.000000	0.015685
2689.000000	0.015670
2688.000000	0.015652
2687.000000	0.015634
2686.000000	0.015620
2685.000000	0.015612
2684.000000	0.015607
2683.000000	0.015604
2682.000000	0.015608
2681.000000	0.015621
2680.000000	0.015637
2679.000000	0.015639
2678.000000	0.015622
2677.000000	0.015587
2676.000000	0.015546
2675.000000	0.015506
2674.000000	0.015476
2673.000000	0.015463
2672.000000	0.015469
2671.000000	0.015486
2670.000000	0.015499
2669.000000	0.015492
2668.000000	0.015462
2667.000000	0.015424
2666.000000	0.015395
2665.000000	0.015385
2664.000000	0.015382
2663.000000	0.015372
2662.000000	0.015355
2661.000000	0.015342
2660.000000	0.015340
2659.000000	0.015348
2658.000000	0.015357
2657.000000	0.015357
2656.000000	0.015338
2655.000000	0.015296
2654.000000	0.015239
2653.000000	0.015179
2652.000000	0.015126
2651.000000	0.015083
2650.000000	0.015053
2649.000000	0.015038
2648.000000	0.015035
2647.000000	0.015030
2646.000000	0.015009
2645.000000	0.014968
2644.000000	0.014915
2643.000000	0.014865
2642.000000	0.014832
2641.000000	0.014817
2640.000000	0.014810
2639.000000	0.014796
2638.000000	0.014769
2637.000000	0.014731
2636.000000	0.014685
2635.000000	0.014640
2634.000000	0.014607
2633.000000	0.014593
2632.000000	0.014591
2631.000000	0.014587
2630.000000	0.014574
2629.000000	0.014551
2628.000000	0.014519
2627.000000	0.014478
2626.000000	0.014426
2625.000000	0.014364
2624.000000	0.014301
2623.000000	0.014249
2622.000000	0.014220
2621.000000	0.014218
2620.000000	0.014231
2619.000000	0.014239
2618.000000	0.014234
2617.000000	0.014213
2616.000000	0.014174
2615.000000	0.014115
2614.000000	0.014053
2613.000000	0.014010
2612.000000	0.013996
2611.000000	0.014001
2610.000000	0.014011
2609.000000	0.014018
2608.000000	0.014018
2607.000000	0.014006
2606.000000	0.013984
2605.000000	0.013958
2604.000000	0.013935
2603.000000	0.013913
2602.000000	0.013888
2601.000000	0.013857
2600.000000	0.013818
2599.000000	0.013776
2598.000000	0.013742
2597.000000	0.013725
2596.000000	0.013720
2595.000000	0.013718
2594.000000	0.013712
2593.000000	0.013702
2592.000000	0.013689
2591.000000	0.013668
2590.000000	0.013633
2589.000000	0.013583
2588.000000	0.013522
2587.000000	0.013463
2586.000000	0.013417
2585.000000	0.013388
2584.000000	0.013368
2583.000000	0.013363
2582.000000	0.013390
2581.000000	0.013454
2580.000000	0.013521
2579.000000	0.013541
2578.000000	0.013497
2577.000000	0.013419
2576.000000	0.013344
2575.000000	0.013294
2574.000000	0.013266
2573.000000	0.013255
2572.000000	0.013256
2571.000000	0.013261
2570.000000	0.013266
2569.000000	0.013273
2568.000000	0.013284
2567.000000	0.013297
2566.000000	0.013314
2565.000000	0.013335
2564.000000	0.013356
2563.000000	0.013358
2562.000000	0.013333
2561.000000	0.013283
2560.000000	0.013226
2559.000000	0.013175
2558.000000	0.013136
2557.000000	0.013103
2556.000000	0.013071
2555.000000	0.013050
2554.000000	0.013055
2553.000000	0.013085
2552.000000	0.013120
2551.000000	0.013141
2550.000000	0.013146
2549.000000	0.013142
2548.000000	0.013123
2547.000000	0.013086
2546.000000	0.013039
2545.000000	0.013002
2544.000000	0.012984
2543.000000	0.012974
2542.000000	0.012969
2541.000000	0.012970
2540.000000	0.012982
2539.000000	0.012998
2538.000000	0.013008
2537.000000	0.013008
2536.000000	0.012992
2535.000000	0.012969
2534.000000	0.012952
2533.000000	0.012950
2532.000000	0.012952
2531.000000	0.012947
2530.000000	0.012940
2529.000000	0.012940
2528.000000	0.012943
2527.000000	0.012940
2526.000000	0.012931
2525.000000	0.012918
2524.000000	0.012898
2523.000000	0.012868
2522.000000	0.012842
2521.000000	0.012840
2520.000000	0.012857
2519.000000	0.012864
2518.000000	0.012845
2517.000000	0.012813
2516.000000	0.012793
2515.000000	0.012790
2514.000000	0.012794
2513.000000	0.012785
2512.000000	0.012749
2511.000000	0.012687
2510.000000	0.012636
2509.000000	0.012635
2508.000000	0.012688
2507.000000	0.012760
2506.000000	0.012804
2505.000000	0.012803
2504.000000	0.012770
2503.000000	0.012730
2502.000000	0.012704
2501.000000	0.012694
2500.000000	0.012685
2499.000000	0.012665
2498.000000	0.012639
2497.000000	0.012626
2496.000000	0.012633
2495.000000	0.012653
2494.000000	0.012676
2493.000000	0.012690
2492.000000	0.012681
2491.000000	0.012644
2490.000000	0.012600
2489.000000	0.012577
2488.000000	0.012581
2487.000000	0.012595
2486.000000	0.012596
2485.000000	0.012581
2484.000000	0.012554
2483.000000	0.012521
2482.000000	0.012500
2481.000000	0.012507
2480.000000	0.012542
2479.000000	0.012578
2478.000000	0.012580
2477.000000	0.012532
2476.000000	0.012446
2475.000000	0.012356
2474.000000	0.012300
2473.000000	0.012294
2472.000000	0.012330
2471.000000	0.012385
2470.000000	0.012447
2469.000000	0.012507
2468.000000	0.012544
2467.000000	0.012536
2466.000000	0.012490
2465.000000	0.012437
2464.000000	0.012405
2463.000000	0.012398
2462.000000	0.012410
2461.000000	0.012428
2460.000000	0.012441
2459.000000	0.012440
2458.000000	0.012433
2457.000000	0.012428
2456.000000	0.012423
2455.000000	0.012409
2454.000000	0.012389
2453.000000	0.012376
2452.000000	0.012371
2451.000000	0.012362
2450.000000	0.012347
2449.000000	0.012344
2448.000000	0.012363
2447.000000	0.012394
2446.000000	0.012419
2445.000000	0.012426
2444.000000	0.012412
2443.000000	0.012369
2442.000000	0.012306
2441.000000	0.012246
2440.000000	0.012216
2439.000000	0.012225
2438.000000	0.012259
2437.000000	0.012286
2436.000000	0.012281
2435.000000	0.012238
2434.000000	0.012181
2433.000000	0.012147
2432.000000	0.012150
2431.000000	0.012183
2430.000000	0.012221
2429.000000	0.012243
2428.000000	0.012236
2427.000000	0.012209
2426.000000	0.012182
2425.000000	0.012172
2424.000000	0.012172
2423.000000	0.012165
2422.000000	0.012150
2421.000000	0.012137
2420.000000	0.012127
2419.000000	0.012118
2418.000000	0.012109
2417.000000	0.012107
2416.000000	0.012110
2415.000000	0.012111
2414.000000	0.012111
2413.000000	0.012112
2412.000000	0.012107
2411.000000	0.012093
2410.000000	0.012079
2409.000000	0.012085
2408.000000	0.012107
2407.000000	0.012120
2406.000000	0.012106
2405.000000	0.012073
2404.000000	0.012043
2403.000000	0.012032
2402.000000	0.012044
2401.000000	0.012068
2400.000000	0.012092
2399.000000	0.012104
2398.000000	0.012108
2397.000000	0.012107
2396.000000	0.012096
2395.000000	0.012066
2394.000000	0.012024
2393.000000	0.011993
2392.000000	0.011988
2391.000000	0.012007
2390.000000	0.012038
2389.000000	0.012069
2388.000000	0.012089
2387.000000	0.012093
2386.000000	0.012088
2385.000000	0.012077
2384.000000	0.012052
2383.000000	0.012002
2382.000000	0.011931
2381.000000	0.011853
2380.000000	0.011785
2379.000000	0.011745
2378.000000	0.011754
2377.000000	0.011817
2376.000000	0.011902
2375.000000	0.011964
2374.000000	0.011974
2373.000000	0.011929
2372.000000	0.011836
2371.000000	0.011719
2370.000000	0.011617
2369.000000	0.011567
2368.000000	0.011569
2367.000000	0.011601
2366.000000	0.011641
2365.000000	0.011679
2364.000000	0.011716
2363.000000	0.011772
2362.000000	0.011859
2361.000000	0.011950
2360.000000	0.012005
2359.000000	0.012005
2358.000000	0.011966
2357.000000	0.011911
2356.000000	0.011868
2355.000000	0.011862
2354.000000	0.011854
2353.000000	0.011788
2352.000000	0.011690
2351.000000	0.011657
2350.000000	0.011739
2349.000000	0.011888
2348.000000	0.012014
2347.000000	0.012040
2346.000000	0.011982
2345.000000	0.011948
2344.000000	0.011999
2343.000000	0.012085
2342.000000	0.012117
2341.000000	0.012073
2340.000000	0.012005
2339.000000	0.011968
2338.000000	0.011961
2337.000000	0.011957
2336.000000	0.011942
2335.000000	0.011914
2334.000000	0.011872
2333.000000	0.011814
2332.000000	0.011769
2331.000000	0.011761
2330.000000	0.011806
2329.000000	0.011885
2328.000000	0.011998
2327.000000	0.012126
2326.000000	0.012241
2325.000000	0.012294
2324.000000	0.012259
2323.000000	0.012157
2322.000000	0.012051
2321.000000	0.012002
2320.000000	0.012024
2319.000000	0.012077
2318.000000	0.012127
2317.000000	0.012146
2316.000000	0.012125
2315.000000	0.012057
2314.000000	0.011975
2313.000000	0.011918
2312.000000	0.011896
2311.000000	0.011877
2310.000000	0.011851
2309.000000	0.011833
2308.000000	0.011838
2307.000000	0.011840
2306.000000	0.011817
2305.000000	0.011777
2304.000000	0.011751
2303.000000	0.011745
2302.000000	0.011750
2301.000000	0.011763
2300.000000	0.011789
2299.000000	0.011818
2298.000000	0.011835
2297.000000	0.011832
2296.000000	0.011819
2295.000000	0.011799
2294.000000	0.011777
2293.000000	0.011757
2292.000000	0.011752
2291.000000	0.011769
2290.000000	0.011810
2289.000000	0.011869
2288.000000	0.011923
2287.000000	0.011944
2286.000000	0.011924
2285.000000	0.011884
2284.000000	0.011849
2283.000000	0.011833
2282.000000	0.011831
2281.000000	0.011832
2280.000000	0.011814
2279.000000	0.011769
2278.000000	0.011715
2277.000000	0.011677
2276.000000	0.011654
2275.000000	0.011623
2274.000000	0.011590
2273.000000	0.011586
2272.000000	0.011619
2271.000000	0.011652
2270.000000	0.011649
2269.000000	0.011615
2268.000000	0.011583
2267.000000	0.011574
2266.000000	0.011589
2265.000000	0.011597
2264.000000	0.011560
2263.000000	0.011475
2262.000000	0.011399
2261.000000	0.011401
2260.000000	0.011473
2259.000000	0.011541
2258.000000	0.011559
2257.000000	0.011543
2256.000000	0.011512
2255.000000	0.011458
2254.000000	0.011398
2253.000000	0.011384
2252.000000	0.011428
2251.000000	0.011466
2250.000000	0.011431
2249.000000	0.011334
2248.000000	0.011233
2247.000000	0.011166
2246.000000	0.011139
2245.000000	0.011150
2244.000000	0.011180
2243.000000	0.011188
2242.000000	0.011151
2241.000000	0.011085
2240.000000	0.011005
2239.000000	0.010913
2238.000000	0.010836
2237.000000	0.010831
2236.000000	0.010906
2235.000000	0.010987
2234.000000	0.011002
2233.000000	0.010972
2232.000000	0.010975
2231.000000	0.011040
2230.000000	0.011129
2229.000000	0.011206
2228.000000	0.011258
2227.000000	0.011265
2226.000000	0.011189
2225.000000	0.011025
2224.000000	0.010831
2223.000000	0.010687
2222.000000	0.010645
2221.000000	0.010702
2220.000000	0.010807
2219.000000	0.010904
2218.000000	0.010954
2217.000000	0.010949
2216.000000	0.010903
2215.000000	0.010843
2214.000000	0.010799
2213.000000	0.010782
2212.000000	0.010778
2211.000000	0.010780
2210.000000	0.010798
2209.000000	0.010820
2208.000000	0.010802
2207.000000	0.010735
2206.000000	0.010685
2205.000000	0.010715
2204.000000	0.010785
2203.000000	0.010798
2202.000000	0.010740
2201.000000	0.010685
2200.000000	0.010682
2199.000000	0.010700
2198.000000	0.010695
2197.000000	0.010667
2196.000000	0.010631
2195.000000	0.010604
2194.000000	0.010627
2193.000000	0.010726
2192.000000	0.010834
2191.000000	0.010833
2190.000000	0.010701
2189.000000	0.010550
2188.000000	0.010485
2187.000000	0.010481
2186.000000	0.010459
2185.000000	0.010415
2184.000000	0.010423
2183.000000	0.010527
2182.000000	0.010682
2181.000000	0.010783
2180.000000	0.010755
2179.000000	0.010602
2178.000000	0.010407
2177.000000	0.010262
2176.000000	0.010202
2175.000000	0.010218
2174.000000	0.010276
2173.000000	0.010314
2172.000000	0.010262
2171.000000	0.010122
2170.000000	0.009999
2169.000000	0.009977
2168.000000	0.010006
2167.000000	0.009980
2166.000000	0.009894
2165.000000	0.009825
2164.000000	0.009807
2163.000000	0.009814
2162.000000	0.009841
2161.000000	0.009876
2160.000000	0.009817
2159.000000	0.009570
2158.000000	0.009246
2157.000000	0.009053
2156.000000	0.009035
2155.000000	0.009091
2154.000000	0.009173
2153.000000	0.009301
2152.000000	0.009447
2151.000000	0.009549
2150.000000	0.009621
2149.000000	0.009734
2148.000000	0.009897
2147.000000	0.010054
2146.000000	0.010185
2145.000000	0.010302
2144.000000	0.010372
2143.000000	0.010360
2142.000000	0.010315
2141.000000	0.010320
2140.000000	0.010369
2139.000000	0.010385
2138.000000	0.010361
2137.000000	0.010367
2136.000000	0.010418
2135.000000	0.010439
2134.000000	0.010396
2133.000000	0.010343
2132.000000	0.010343
2131.000000	0.010391
2130.000000	0.010452
2129.000000	0.010501
2128.000000	0.010510
2127.000000	0.010472
2126.000000	0.010436
2125.000000	0.010470
2124.000000	0.010573
2123.000000	0.010667
2122.000000	0.010694
2121.000000	0.010675
2120.000000	0.010660
2119.000000	0.010660
2118.000000	0.010662
2117.000000	0.010658
2116.000000	0.010643
2115.000000	0.010620
2114.000000	0.010615
2113.000000	0.010645
2112.000000	0.010681
2111.000000	0.010678
2110.000000	0.010653
2109.000000	0.010675
2108.000000	0.010765
2107.000000	0.010863
2106.000000	0.010901
2105.000000	0.010878
2104.000000	0.010826
2103.000000	0.010762
2102.000000	0.010703
2101.000000	0.010674
2100.000000	0.010681
2099.000000	0.010698
2098.000000	0.010701
2097.000000	0.010685
2096.000000	0.010645
2095.000000	0.010573
2094.000000	0.010499
2093.000000	0.010480
2092.000000	0.010536
2091.000000	0.010635
2090.000000	0.010736
2089.000000	0.010820
2088.000000	0.010860
2087.000000	0.010826
2086.000000	0.010731
2085.000000	0.010641
2084.000000	0.010605
2083.000000	0.010608
2082.000000	0.010608
2081.000000	0.010590
2080.000000	0.010569
2079.000000	0.010564
2078.000000	0.010578
2077.000000	0.010582
2076.000000	0.010529
2075.000000	0.010408
2074.000000	0.010284
2073.000000	0.010243
2072.000000	0.010304
2071.000000	0.010407
2070.000000	0.010483
2069.000000	0.010487
2068.000000	0.010400
2067.000000	0.010238
2066.000000	0.010066
2065.000000	0.009941
2064.000000	0.009856
2063.000000	0.009794
2062.000000	0.009802
2061.000000	0.009928
2060.000000	0.010107
2059.000000	0.010204
2058.000000	0.010175
2057.000000	0.010089
2056.000000	0.010018
2055.000000	0.009981
2054.000000	0.009994
2053.000000	0.010064
2052.000000	0.010129
2051.000000	0.010092
2050.000000	0.009941
2049.000000	0.009784
2048.000000	0.009710
2047.000000	0.009698
2046.000000	0.009691
2045.000000	0.009669
2044.000000	0.009620
2043.000000	0.009540
2042.000000	0.009481
2041.000000	0.009501
2040.000000	0.009555
2039.000000	0.009538
2038.000000	0.009446
2037.000000	0.009366
2036.000000	0.009306
2035.000000	0.009183
2034.000000	0.009000
2033.000000	0.008878
2032.000000	0.008859
2031.000000	0.008837
2030.000000	0.008722
2029.000000	0.008535
2028.000000	0.008325
2027.000000	0.008134
2026.000000	0.008057
2025.000000	0.008183
2024.000000	0.008444
2023.000000	0.008659
2022.000000	0.008737
2021.000000	0.008720
2020.000000	0.008652
2019.000000	0.008568
2018.000000	0.008559
2017.000000	0.008681
2016.000000	0.008797
2015.000000	0.008726
2014.000000	0.008532
2013.000000	0.008470
2012.000000	0.008644
2011.000000	0.008887
2010.000000	0.009017
2009.000000	0.009019
2008.000000	0.008954
2007.000000	0.008868
2006.000000	0.008814
2005.000000	0.008820
2004.000000	0.008805
2003.000000	0.008697
2002.000000	0.008597
2001.000000	0.008690
2000.000000	0.008966
1999.000000	0.009208
1998.000000	0.009254
1997.000000	0.009134
1996.000000	0.008959
1995.000000	0.008820
1994.000000	0.008804
1993.000000	0.008956
1992.000000	0.009169
1991.000000	0.009255
1990.000000	0.009183
1989.000000	0.009108
1988.000000	0.009134
1987.000000	0.009220
1986.000000	0.009309
1985.000000	0.009401
1984.000000	0.009449
1983.000000	0.009356
1982.000000	0.009138
1981.000000	0.008960
1980.000000	0.008928
1979.000000	0.008964
1978.000000	0.008947
1977.000000	0.008892
1976.000000	0.008882
1975.000000	0.008921
1974.000000	0.008971
1973.000000	0.009018
1972.000000	0.009042
1971.000000	0.009010
1970.000000	0.008935
1969.000000	0.008879
1968.000000	0.008857
1967.000000	0.008826
1966.000000	0.008779
1965.000000	0.008756
1964.000000	0.008752
1963.000000	0.008712
1962.000000	0.008643
1961.000000	0.008632
1960.000000	0.008730
1959.000000	0.008886
1958.000000	0.009009
1957.000000	0.009042
1956.000000	0.008983
1955.000000	0.008893
1954.000000	0.008880
1953.000000	0.008979
1952.000000	0.009099
1951.000000	0.009117
1950.000000	0.009044
1949.000000	0.008989
1948.000000	0.008983
1947.000000	0.008965
1946.000000	0.008911
1945.000000	0.008889
1944.000000	0.008947
1943.000000	0.009051
1942.000000	0.009140
1941.000000	0.009184
1940.000000	0.009165
1939.000000	0.009088
1938.000000	0.009007
1937.000000	0.009000
1936.000000	0.009087
1935.000000	0.009204
1934.000000	0.009289
1933.000000	0.009326
1932.000000	0.009320
1931.000000	0.009282
1930.000000	0.009262
1929.000000	0.009314
1928.000000	0.009396
1927.000000	0.009417
1926.000000	0.009358
1925.000000	0.009302
1924.000000	0.009306
1923.000000	0.009332
1922.000000	0.009334
1921.000000	0.009328
1920.000000	0.009336
1919.000000	0.009337
1918.000000	0.009324
1917.000000	0.009322
1916.000000	0.009336
1915.000000	0.009350
1914.000000	0.009358
1913.000000	0.009369
1912.000000	0.009381
1911.000000	0.009384
1910.000000	0.009392
1909.000000	0.009410
1908.000000	0.009399
1907.000000	0.009340
1906.000000	0.009281
1905.000000	0.009292
1904.000000	0.009356
1903.000000	0.009406
1902.000000	0.009446
1901.000000	0.009509
1900.000000	0.009557
1899.000000	0.009528
1898.000000	0.009434
1897.000000	0.009354
1896.000000	0.009317
1895.000000	0.009283
1894.000000	0.009246
1893.000000	0.009244
1892.000000	0.009274
1891.000000	0.009295
1890.000000	0.009307
1889.000000	0.009331
1888.000000	0.009329
1887.000000	0.009260
1886.000000	0.009174
1885.000000	0.009152
1884.000000	0.009205
1883.000000	0.009278
1882.000000	0.009357
1881.000000	0.009448
1880.000000	0.009506
1879.000000	0.009482
1878.000000	0.009403
1877.000000	0.009339
1876.000000	0.009303
1875.000000	0.009238
1874.000000	0.009140
1873.000000	0.009076
1872.000000	0.009065
1871.000000	0.009050
1870.000000	0.009003
1869.000000	0.008991
1868.000000	0.009029
1867.000000	0.009061
1866.000000	0.009099
1865.000000	0.009181
1864.000000	0.009269
1863.000000	0.009305
1862.000000	0.009303
1861.000000	0.009322
1860.000000	0.009357
1859.000000	0.009354
1858.000000	0.009319
1857.000000	0.009305
1856.000000	0.009300
1855.000000	0.009253
1854.000000	0.009183
1853.000000	0.009157
1852.000000	0.009176
1851.000000	0.009200
1850.000000	0.009205
1849.000000	0.009192
1848.000000	0.009147
1847.000000	0.009067
1846.000000	0.008994
1845.000000	0.008975
1844.000000	0.008982
1843.000000	0.008932
1842.000000	0.008881
1841.000000	0.008930
1840.000000	0.009049
1839.000000	0.009139
1838.000000	0.009169
1837.000000	0.009198
1836.000000	0.009229
1835.000000	0.009198
1834.000000	0.009088
1833.000000	0.008956
1832.000000	0.008851
1831.000000	0.008798
1830.000000	0.008786
1829.000000	0.008787
1828.000000	0.008793
1827.000000	0.008823
1826.000000	0.008875
1825.000000	0.008943
1824.000000	0.009008
1823.000000	0.009040
1822.000000	0.009054
1821.000000	0.009074
1820.000000	0.009096
1819.000000	0.009087
1818.000000	0.009053
1817.000000	0.009055
1816.000000	0.009094
1815.000000	0.009096
1814.000000	0.009042
1813.000000	0.008994
1812.000000	0.009010
1811.000000	0.009039
1810.000000	0.009036
1809.000000	0.009061
1808.000000	0.009142
1807.000000	0.009202
1806.000000	0.009200
1805.000000	0.009194
1804.000000	0.009207
1803.000000	0.009175
1802.000000	0.009063
1801.000000	0.008937
1800.000000	0.008877
1799.000000	0.008856
1798.000000	0.008845
1797.000000	0.008868
1796.000000	0.008907
1795.000000	0.008884
1794.000000	0.008769
1793.000000	0.008652
1792.000000	0.008646
1791.000000	0.008685
1790.000000	0.008703
1789.000000	0.008755
1788.000000	0.008851
1787.000000	0.008924
1786.000000	0.008941
1785.000000	0.008920
1784.000000	0.008853
1783.000000	0.008736
1782.000000	0.008642
1781.000000	0.008620
1780.000000	0.008651
1779.000000	0.008645
1778.000000	0.008583
1777.000000	0.008516
1776.000000	0.008467
1775.000000	0.008425
1774.000000	0.008356
1773.000000	0.008259
1772.000000	0.008198
1771.000000	0.008190
1770.000000	0.008254
1769.000000	0.008423
1768.000000	0.008626
1767.000000	0.008734
1766.000000	0.008744
1765.000000	0.008800
1764.000000	0.008996
1763.000000	0.009295
1762.000000	0.009617
1761.000000	0.009911
1760.000000	0.010245
1759.000000	0.010705
1758.000000	0.011348
1757.000000	0.012152
1756.000000	0.013003
1755.000000	0.013832
1754.000000	0.014678
1753.000000	0.015586
1752.000000	0.016519
1751.000000	0.017412
1750.000000	0.018222
1749.000000	0.018987
1748.000000	0.019684
1747.000000	0.020200
1746.000000	0.020466
1745.000000	0.020495
1744.000000	0.020329
1743.000000	0.019958
1742.000000	0.019367
1741.000000	0.018598
1740.000000	0.017728
1739.000000	0.016828
1738.000000	0.016023
1737.000000	0.015428
1736.000000	0.014933
1735.000000	0.014279
1734.000000	0.013476
1733.000000	0.012695
1732.000000	0.012101
1731.000000	0.011768
1730.000000	0.011592
1729.000000	0.011419
1728.000000	0.011167
1727.000000	0.010873
1726.000000	0.010590
1725.000000	0.010339
1724.000000	0.010124
1723.000000	0.009884
1722.000000	0.009597
1721.000000	0.009336
1720.000000	0.009131
1719.000000	0.008903
1718.000000	0.008644
1717.000000	0.008536
1716.000000	0.008631
1715.000000	0.008829
1714.000000	0.009114
1713.000000	0.009509
1712.000000	0.009960
1711.000000	0.010380
1710.000000	0.010751
1709.000000	0.011097
1708.000000	0.011454
1707.000000	0.011875
1706.000000	0.012431
1705.000000	0.013121
1704.000000	0.013812
1703.000000	0.014458
1702.000000	0.015087
1701.000000	0.015781
1700.000000	0.016575
1699.000000	0.017164
1698.000000	0.017796
1697.000000	0.018926
1696.000000	0.020392
1695.000000	0.021486
1694.000000	0.022049
1693.000000	0.022596
1692.000000	0.023375
1691.000000	0.024257
1690.000000	0.025111
1689.000000	0.025929
1688.000000	0.026716
1687.000000	0.027461
1686.000000	0.028142
1685.000000	0.028961
1684.000000	0.030079
1683.000000	0.031037
1682.000000	0.031851
1681.000000	0.032856
1680.000000	0.033980
1679.000000	0.034989
1678.000000	0.035867
1677.000000	0.036791
1676.000000	0.037868
1675.000000	0.038969
1674.000000	0.039883
1673.000000	0.040675
1672.000000	0.041579
1671.000000	0.042681
1670.000000	0.044007
1669.000000	0.045449
1668.000000	0.046758
1667.000000	0.047855
1666.000000	0.048829
1665.000000	0.049815
1664.000000	0.050899
1663.000000	0.052058
1662.000000	0.053187
1661.000000	0.054204
1660.000000	0.055147
1659.000000	0.056035
1658.000000	0.056816
1657.000000	0.057508
1656.000000	0.058204
1655.000000	0.058950
1654.000000	0.059893
1653.000000	0.061141
1652.000000	0.061750
1651.000000	0.061746
1650.000000	0.061821
1649.000000	0.062206
1648.000000	0.062871
1647.000000	0.063694
1646.000000	0.064398
1645.000000	0.064858
1644.000000	0.065220
1643.000000	0.065569
1642.000000	0.065908
1641.000000	0.066173
1640.000000	0.066304
1639.000000	0.066323
1638.000000	0.066317
1637.000000	0.066398
1636.000000	0.066620
1635.000000	0.066826
1634.000000	0.066840
1633.000000	0.066820
1632.000000	0.066816
1631.000000	0.066697
1630.000000	0.066382
1629.000000	0.065920
1628.000000	0.065378
1627.000000	0.064774
1626.000000	0.064110
1625.000000	0.063350
1624.000000	0.062458
1623.000000	0.061464
1622.000000	0.060464
1621.000000	0.059533
1620.000000	0.058694
1619.000000	0.057872
1618.000000	0.056890
1617.000000	0.055632
1616.000000	0.054178
1615.000000	0.052802
1614.000000	0.051710
1613.000000	0.050794
1612.000000	0.049817
1611.000000	0.048715
1610.000000	0.047628
1609.000000	0.046633
1608.000000	0.045673
1607.000000	0.044743
1606.000000	0.043909
1605.000000	0.043137
1604.000000	0.042362
1603.000000	0.041620
1602.000000	0.040974
1601.000000	0.040400
1600.000000	0.039840
1599.000000	0.039327
1598.000000	0.038910
1597.000000	0.038559
1596.000000	0.038216
1595.000000	0.037901
1594.000000	0.037676
1593.000000	0.037520
1592.000000	0.037368
1591.000000	0.037229
1590.000000	0.037168
1589.000000	0.037177
1588.000000	0.037208
1587.000000	0.037290
1586.000000	0.037482
1585.000000	0.037742
1584.000000	0.037973
1583.000000	0.038218
1582.000000	0.038531
1581.000000	0.038845
1580.000000	0.039093
1579.000000	0.039372
1578.000000	0.039774
1577.000000	0.040240
1576.000000	0.040618
1575.000000	0.040856
1574.000000	0.041113
1573.000000	0.041487
1572.000000	0.041918
1571.000000	0.042351
1570.000000	0.042866
1569.000000	0.043421
1568.000000	0.043866
1567.000000	0.044319
1566.000000	0.044915
1565.000000	0.045603
1564.000000	0.046246
1563.000000	0.046861
1562.000000	0.047486
1561.000000	0.047926
1560.000000	0.048032
1559.000000	0.048584
1558.000000	0.049550
1557.000000	0.050292
1556.000000	0.051045
1555.000000	0.051884
1554.000000	0.052639
1553.000000	0.053168
1552.000000	0.053608
1551.000000	0.054130
1550.000000	0.054708
1549.000000	0.055193
1548.000000	0.055531
1547.000000	0.055825
1546.000000	0.056143
1545.000000	0.056461
1544.000000	0.056702
1543.000000	0.056806
1542.000000	0.056801
1541.000000	0.056909
1540.000000	0.057275
1539.000000	0.057546
1538.000000	0.057527
1537.000000	0.057455
1536.000000	0.057431
1535.000000	0.057360
1534.000000	0.057189
1533.000000	0.056985
1532.000000	0.056780
1531.000000	0.056552
1530.000000	0.056293
1529.000000	0.056037
1528.000000	0.055801
1527.000000	0.055524
1526.000000	0.055123
1525.000000	0.054632
1524.000000	0.054179
1523.000000	0.053801
1522.000000	0.053452
1521.000000	0.053081
1520.000000	0.052614
1519.000000	0.052142
1518.000000	0.051787
1517.000000	0.051558
1516.000000	0.051343
1515.000000	0.051028
1514.000000	0.050626
1513.000000	0.050143
1512.000000	0.049563
1511.000000	0.048879
1510.000000	0.048131
1509.000000	0.047328
1508.000000	0.046467
1507.000000	0.045604
1506.000000	0.044689
1505.000000	0.043817
1504.000000	0.043193
1503.000000	0.042731
1502.000000	0.042236
1501.000000	0.041591
1500.000000	0.040837
1499.000000	0.040074
1498.000000	0.039299
1497.000000	0.038526
1496.000000	0.037801
1495.000000	0.037078
1494.000000	0.036356
1493.000000	0.035685
1492.000000	0.035036
1491.000000	0.034335
1490.000000	0.033634
1489.000000	0.033097
1488.000000	0.032788
1487.000000	0.032577
1486.000000	0.032407
1485.000000	0.032309
1484.000000	0.032250
1483.000000	0.032196
1482.000000	0.032134
1481.000000	0.032123
1480.000000	0.032192
1479.000000	0.032310
1478.000000	0.032460
1477.000000	0.032695
1476.000000	0.033044
1475.000000	0.033450
1474.000000	0.033961
1473.000000	0.034752
1472.000000	0.035823
1471.000000	0.036885
1470.000000	0.037845
1469.000000	0.038790
1468.000000	0.039704
1467.000000	0.040464
1466.000000	0.041037
1465.000000	0.041514
1464.000000	0.041950
1463.000000	0.042304
1462.000000	0.042576
1461.000000	0.042850
1460.000000	0.043199
1459.000000	0.043671
1458.000000	0.044302
1457.000000	0.045038
1456.000000	0.045559
1455.000000	0.045808
1454.000000	0.046041
1453.000000	0.046341
1452.000000	0.046610
1451.000000	0.046740
1450.000000	0.046745
1449.000000	0.046722
1448.000000	0.046731
1447.000000	0.046735
1446.000000	0.046703
1445.000000	0.046633
1444.000000	0.046557
1443.000000	0.046463
1442.000000	0.046304
1441.000000	0.046077
1440.000000	0.045849
1439.000000	0.045657
1438.000000	0.045399
1437.000000	0.044994
1436.000000	0.044484
1435.000000	0.043979
1434.000000	0.043559
1433.000000	0.043220
1432.000000	0.042889
1431.000000	0.042532
1430.000000	0.042166
1429.000000	0.041823
1428.000000	0.041522
1427.000000	0.041272
1426.000000	0.041075
1425.000000	0.040885
1424.000000	0.040717
1423.000000	0.040631
1422.000000	0.040627
1421.000000	0.040634
1420.000000	0.040603
1419.000000	0.040591
1418.000000	0.040562
1417.000000	0.040505
1416.000000	0.040516
1415.000000	0.040575
1414.000000	0.040586
1413.000000	0.040523
1412.000000	0.040461
1411.000000	0.040453
1410.000000	0.040451
1409.000000	0.040416
1408.000000	0.040386
1407.000000	0.040392
1406.000000	0.040430
1405.000000	0.040461
1404.000000	0.040478
1403.000000	0.040482
1402.000000	0.040452
1401.000000	0.040363
1400.000000	0.040214
1399.000000	0.040042
1398.000000	0.039865
1397.000000	0.039702
1396.000000	0.039573
1395.000000	0.039469
1394.000000	0.039325
1393.000000	0.039089
1392.000000	0.038831
1391.000000	0.038622
1390.000000	0.038445
1389.000000	0.038244
1388.000000	0.038007
1387.000000	0.037755
1386.000000	0.037497
1385.000000	0.037237
1384.000000	0.036992
1383.000000	0.036761
1382.000000	0.036534
1381.000000	0.036320
1380.000000	0.036110
1379.000000	0.035869
1378.000000	0.035558
1377.000000	0.035168
1376.000000	0.034722
1375.000000	0.034272
1374.000000	0.033849
1373.000000	0.033427
1372.000000	0.032984
1371.000000	0.032542
1370.000000	0.032133
1369.000000	0.031722
1368.000000	0.031257
1367.000000	0.030744
1366.000000	0.030242
1365.000000	0.029802
1364.000000	0.029431
1363.000000	0.029112
1362.000000	0.028823
1361.000000	0.028560
1360.000000	0.028344
1359.000000	0.028192
1358.000000	0.028106
1357.000000	0.028075
1356.000000	0.028089
1355.000000	0.028146
1354.000000	0.028243
1353.000000	0.028372
1352.000000	0.028526
1351.000000	0.028703
1350.000000	0.028933
1349.000000	0.029221
1348.000000	0.029538
1347.000000	0.029854
1346.000000	0.030160
1345.000000	0.030454
1344.000000	0.030729
1343.000000	0.030987
1342.000000	0.031253
1341.000000	0.031544
1340.000000	0.031846
1339.000000	0.032107
1338.000000	0.032280
1337.000000	0.032362
1336.000000	0.032382
1335.000000	0.032360
1334.000000	0.032302
1333.000000	0.032205
1332.000000	0.032072
1331.000000	0.031914
1330.000000	0.031748
1329.000000	0.031580
1328.000000	0.031407
1327.000000	0.031229
1326.000000	0.031066
1325.000000	0.030926
1324.000000	0.030813
1323.000000	0.030732
1322.000000	0.030681
1321.000000	0.030648
1320.000000	0.030629
1319.000000	0.030627
1318.000000	0.030633
1317.000000	0.030626
1316.000000	0.030595
1315.000000	0.030545
1314.000000	0.030470
1313.000000	0.030356
1312.000000	0.030203
1311.000000	0.030034
1310.000000	0.029875
1309.000000	0.029731
1308.000000	0.029592
1307.000000	0.029449
1306.000000	0.029297
1305.000000	0.029130
1304.000000	0.028960
1303.000000	0.028808
1302.000000	0.028677
1301.000000	0.028543
1300.000000	0.028394
1299.000000	0.028239
1298.000000	0.028097
1297.000000	0.027980
1296.000000	0.027901
1295.000000	0.027876
1294.000000	0.027907
1293.000000	0.027980
1292.000000	0.028083
1291.000000	0.028212
1290.000000	0.028364
1289.000000	0.028529
1288.000000	0.028704
1287.000000	0.028893
1286.000000	0.029098
1285.000000	0.029305
1284.000000	0.029497
1283.000000	0.029659
1282.000000	0.029783
1281.000000	0.029872
1280.000000	0.029941
1279.000000	0.030004
1278.000000	0.030061
1277.000000	0.030097
1276.000000	0.030104
1275.000000	0.030092
1274.000000	0.030075
1273.000000	0.030064
1272.000000	0.030061
1271.000000	0.030072
1270.000000	0.030098
1269.000000	0.030143
1268.000000	0.030216
1267.000000	0.030331
1266.000000	0.030474
1265.000000	0.030616
1264.000000	0.030741
1263.000000	0.030861
1262.000000	0.030997
1261.000000	0.031162
1260.000000	0.031358
1259.000000	0.031588
1258.000000	0.031838
1257.000000	0.032094
1256.000000	0.032349
1255.000000	0.032613
1254.000000	0.032894
1253.000000	0.033187
1252.000000	0.033490
1251.000000	0.033808
1250.000000	0.034144
1249.000000	0.034493
1248.000000	0.034843
1247.000000	0.035185
1246.000000	0.035511
1245.000000	0.035816
1244.000000	0.036097
1243.000000	0.036358
1242.000000	0.036594
1241.000000	0.036796
1240.000000	0.036954
1239.000000	0.037061
1238.000000	0.037111
1237.000000	0.037102
1236.000000	0.037033
1235.000000	0.036908
1234.000000	0.036734
1233.000000	0.036515
1232.000000	0.036259
1231.000000	0.035973
1230.000000	0.035657
1229.000000	0.035301
1228.000000	0.034903
1227.000000	0.034470
1226.000000	0.034009
1225.000000	0.033515
1224.000000	0.032978
1223.000000	0.032394
1222.000000	0.031757
1221.000000	0.031066
1220.000000	0.030344
1219.000000	0.029660
1218.000000	0.029103
1217.000000	0.028736
1216.000000	0.028562
1215.000000	0.028526
1214.000000	0.028553
1213.000000	0.028589
1212.000000	0.028626
1211.000000	0.028674
1210.000000	0.028733
1209.000000	0.028789
1208.000000	0.028842
1207.000000	0.028904
1206.000000	0.028986
1205.000000	0.029082
1204.000000	0.029177
1203.000000	0.029253
1202.000000	0.029287
1201.000000	0.029258
1200.000000	0.029166
1199.000000	0.029032
1198.000000	0.028872
1197.000000	0.028689
1196.000000	0.028485
1195.000000	0.028270
1194.000000	0.028062
1193.000000	0.027867
1192.000000	0.027678
1191.000000	0.027485
1190.000000	0.027282
1189.000000	0.027079
1188.000000	0.026898
1187.000000	0.026751
1186.000000	0.026624
1185.000000	0.026499
1184.000000	0.026382
1183.000000	0.026302
1182.000000	0.026278
1181.000000	0.026308
1180.000000	0.026377
1179.000000	0.026473
1178.000000	0.026587
1177.000000	0.026716
1176.000000	0.026862
1175.000000	0.027025
1174.000000	0.027197
1173.000000	0.027369
1172.000000	0.027544
1171.000000	0.027737
1170.000000	0.027947
1169.000000	0.028165
1168.000000	0.028383
1167.000000	0.028602
1166.000000	0.028812
1165.000000	0.029003
1164.000000	0.029170
1163.000000	0.029315
1162.000000	0.029435
1161.000000	0.029513
1160.000000	0.029528
1159.000000	0.029481
1158.000000	0.029380
1157.000000	0.029234
1156.000000	0.029046
1155.000000	0.028820
1154.000000	0.028559
1153.000000	0.028272
1152.000000	0.027970
1151.000000	0.027664
1150.000000	0.027355
1149.000000	0.027038
1148.000000	0.026719
1147.000000	0.026416
1146.000000	0.026140
1145.000000	0.025883
1144.000000	0.025628
1143.000000	0.025363
1142.000000	0.025079
1141.000000	0.024768
1140.000000	0.024423
1139.000000	0.024051
1138.000000	0.023669
1137.000000	0.023303
1136.000000	0.022971
1135.000000	0.022681
1134.000000	0.022418
1133.000000	0.022174
1132.000000	0.021963
1131.000000	0.021810
1130.000000	0.021724
1129.000000	0.021692
1128.000000	0.021703
1127.000000	0.021751
1126.000000	0.021832
1125.000000	0.021935
1124.000000	0.022057
1123.000000	0.022197
1122.000000	0.022344
1121.000000	0.022479
1120.000000	0.022598
1119.000000	0.022702
1118.000000	0.022793
1117.000000	0.022871
1116.000000	0.022943
1115.000000	0.023018
1114.000000	0.023089
1113.000000	0.023137
1112.000000	0.023157
1111.000000	0.023161
1110.000000	0.023166
1109.000000	0.023184
1108.000000	0.023236
1107.000000	0.023340
1106.000000	0.023485
1105.000000	0.023634
1104.000000	0.023768
1103.000000	0.023892
1102.000000	0.024013
1101.000000	0.024123
1100.000000	0.024223
1099.000000	0.024319
1098.000000	0.024411
1097.000000	0.024479
1096.000000	0.024514
1095.000000	0.024536
1094.000000	0.024582
1093.000000	0.024680
1092.000000	0.024841
1091.000000	0.025064
1090.000000	0.025342
1089.000000	0.025661
1088.000000	0.026006
1087.000000	0.026365
1086.000000	0.026726
1085.000000	0.027068
1084.000000	0.027364
1083.000000	0.027583
1082.000000	0.027700
1081.000000	0.027713
1080.000000	0.027636
1079.000000	0.027490
1078.000000	0.027289
1077.000000	0.027038
1076.000000	0.026750
1075.000000	0.026440
1074.000000	0.026122
1073.000000	0.025806
1072.000000	0.025521
1071.000000	0.025300
1070.000000	0.025163
1069.000000	0.025101
1068.000000	0.025093
1067.000000	0.025123
1066.000000	0.025182
1065.000000	0.025265
1064.000000	0.025368
1063.000000	0.025480
1062.000000	0.025570
1061.000000	0.025608
1060.000000	0.025590
1059.000000	0.025543
1058.000000	0.025495
1057.000000	0.025448
1056.000000	0.025384
1055.000000	0.025297
1054.000000	0.025198
1053.000000	0.025109
1052.000000	0.025040
1051.000000	0.024988
1050.000000	0.024940
1049.000000	0.024887
1048.000000	0.024831
1047.000000	0.024784
1046.000000	0.024758
1045.000000	0.024754
1044.000000	0.024765
1043.000000	0.024781
1042.000000	0.024801
1041.000000	0.024839
1040.000000	0.024925
1039.000000	0.025079
1038.000000	0.025297
1037.000000	0.025564
1036.000000	0.025867
1035.000000	0.026194
1034.000000	0.026511
1033.000000	0.026777
1032.000000	0.026967
1031.000000	0.027081
1030.000000	0.027139
1029.000000	0.027159
1028.000000	0.027161
1027.000000	0.027154
1026.000000	0.027126
1025.000000	0.027067
1024.000000	0.026991
1023.000000	0.026935
1022.000000	0.026919
1021.000000	0.026923
1020.000000	0.026914
1019.000000	0.026873
1018.000000	0.026799
1017.000000	0.026678
1016.000000	0.026488
1015.000000	0.026215
1014.000000	0.025871
1013.000000	0.025483
1012.000000	0.025074
1011.000000	0.024661
1010.000000	0.024257
1009.000000	0.023867
1008.000000	0.023494
1007.000000	0.023134
1006.000000	0.022779
1005.000000	0.022427
1004.000000	0.022086
1003.000000	0.021764
1002.000000	0.021458
1001.000000	0.021151
1000.000000	0.020835
999.000000	0.020516
998.000000	0.020204
997.000000	0.019907
996.000000	0.019636
995.000000	0.019395
994.000000	0.019170
993.000000	0.018930
992.000000	0.018659
991.000000	0.018369
990.000000	0.018091
989.000000	0.017852
988.000000	0.017661
987.000000	0.017501
986.000000	0.017335
985.000000	0.017136
984.000000	0.016920
983.000000	0.016731
982.000000	0.016603
981.000000	0.016527
980.000000	0.016473
979.000000	0.016423
978.000000	0.016373
977.000000	0.016323
976.000000	0.016271
975.000000	0.016221
974.000000	0.016171
973.000000	0.016117
972.000000	0.016051
971.000000	0.015967
970.000000	0.015853
969.000000	0.015699
968.000000	0.015512
967.000000	0.015314
966.000000	0.015123
965.000000	0.014943
964.000000	0.014772
963.000000	0.014611
962.000000	0.014447
961.000000	0.014260
960.000000	0.014041
959.000000	0.013811
958.000000	0.013600
957.000000	0.013424
956.000000	0.013269
955.000000	0.013110
954.000000	0.012930
953.000000	0.012736
952.000000	0.012551
951.000000	0.012397
950.000000	0.012273
949.000000	0.012164
948.000000	0.012060
947.000000	0.011970
946.000000	0.011906
945.000000	0.011870
944.000000	0.011854
943.000000	0.011840
942.000000	0.011813
941.000000	0.011768
940.000000	0.011713
939.000000	0.011656
938.000000	0.011592
937.000000	0.011517
936.000000	0.011440
935.000000	0.011372
934.000000	0.011303
933.000000	0.011215
932.000000	0.011108
931.000000	0.011001
930.000000	0.010908
929.000000	0.010835
928.000000	0.010782
927.000000	0.010748
926.000000	0.010719
925.000000	0.010680
924.000000	0.010631
923.000000	0.010578
922.000000	0.010513
921.000000	0.010428
920.000000	0.010329
919.000000	0.010228
918.000000	0.010125
917.000000	0.010016
916.000000	0.009912
915.000000	0.009830
914.000000	0.009756
913.000000	0.009657
912.000000	0.009525
911.000000	0.009385
910.000000	0.009250
909.000000	0.009111
908.000000	0.008962
907.000000	0.008828
906.000000	0.008733
905.000000	0.008676
904.000000	0.008640
903.000000	0.008605
902.000000	0.008553
901.000000	0.008477
900.000000	0.008401
899.000000	0.008374
898.000000	0.008409
897.000000	0.008465
896.000000	0.008483
895.000000	0.008445
894.000000	0.008380
893.000000	0.008325
892.000000	0.008295
891.000000	0.008292
890.000000	0.008310
889.000000	0.008337
888.000000	0.008369
887.000000	0.008407
886.000000	0.008467
885.000000	0.008573
884.000000	0.008753
883.000000	0.009022
882.000000	0.009374
881.000000	0.009790
880.000000	0.010255
879.000000	0.010750
878.000000	0.011237
877.000000	0.011651
876.000000	0.011920
875.000000	0.011986
874.000000	0.011821
873.000000	0.011451
872.000000	0.010960
871.000000	0.010459
870.000000	0.010031
869.000000	0.009704
868.000000	0.009472
867.000000	0.009316
866.000000	0.009216
865.000000	0.009149
864.000000	0.009097
863.000000	0.009045
862.000000	0.008991
861.000000	0.008943
860.000000	0.008924
859.000000	0.008941
858.000000	0.008975
857.000000	0.008995
856.000000	0.008997
855.000000	0.008996
854.000000	0.008998
853.000000	0.009001
852.000000	0.009013
851.000000	0.009055
850.000000	0.009120
849.000000	0.009164
848.000000	0.009139
847.000000	0.009040
846.000000	0.008903
845.000000	0.008777
844.000000	0.008705
843.000000	0.008702
842.000000	0.008753
841.000000	0.008814
840.000000	0.008844
839.000000	0.008821
838.000000	0.008748
837.000000	0.008645
836.000000	0.008538
835.000000	0.008451
834.000000	0.008390
833.000000	0.008353
832.000000	0.008332
831.000000	0.008317
830.000000	0.008297
829.000000	0.008271
828.000000	0.008260
827.000000	0.008280
826.000000	0.008312
825.000000	0.008330
824.000000	0.008342
823.000000	0.008376
822.000000	0.008427
821.000000	0.008471
820.000000	0.008503
819.000000	0.008546
818.000000	0.008603
817.000000	0.008650
816.000000	0.008675
815.000000	0.008697
814.000000	0.008733
813.000000	0.008760
812.000000	0.008739
811.000000	0.008662
810.000000	0.008555
809.000000	0.008453
808.000000	0.008383
807.000000	0.008351
806.000000	0.008334
805.000000	0.008308
804.000000	0.008276
803.000000	0.008272
802.000000	0.008316
801.000000	0.008375
800.000000	0.008403
799.000000	0.008395
798.000000	0.008379
797.000000	0.008369
796.000000	0.008357
795.000000	0.008345
794.000000	0.008369
793.000000	0.008449
792.000000	0.008559
791.000000	0.008643
790.000000	0.008670
789.000000	0.008647
788.000000	0.008594
787.000000	0.008528
786.000000	0.008467
785.000000	0.008443
784.000000	0.008477
783.000000	0.008552
782.000000	0.008621
781.000000	0.008645
780.000000	0.008622
779.000000	0.008579
778.000000	0.008533
777.000000	0.008486
776.000000	0.008430
775.000000	0.008366
774.000000	0.008311
773.000000	0.008295
772.000000	0.008332
771.000000	0.008413
770.000000	0.008504
769.000000	0.008576
768.000000	0.008619
767.000000	0.008631
766.000000	0.008620
765.000000	0.008598
764.000000	0.008583
763.000000	0.008587
762.000000	0.008609
761.000000	0.008637
760.000000	0.008666
759.000000	0.008692
758.000000	0.008722
757.000000	0.008766
756.000000	0.008829
755.000000	0.008900
754.000000	0.008962
753.000000	0.009011
752.000000	0.009056
751.000000	0.009102
750.000000	0.009131
749.000000	0.009138
748.000000	0.009146
747.000000	0.009185
746.000000	0.009263
745.000000	0.009361
744.000000	0.009454
743.000000	0.009528
742.000000	0.009573
741.000000	0.009590
740.000000	0.009604
739.000000	0.009647
738.000000	0.009731
737.000000	0.009833
736.000000	0.009921
735.000000	0.009988
734.000000	0.010051
733.000000	0.010145
732.000000	0.010301
731.000000	0.010526
730.000000	0.010789
729.000000	0.011047
728.000000	0.011275
727.000000	0.011468
726.000000	0.011647
725.000000	0.011849
724.000000	0.012097
723.000000	0.012369
722.000000	0.012603
721.000000	0.012737
720.000000	0.012761
719.000000	0.012718
718.000000	0.012673
717.000000	0.012671
716.000000	0.012720
715.000000	0.012791
714.000000	0.012835
713.000000	0.012830
712.000000	0.012803
711.000000	0.012797
710.000000	0.012828
709.000000	0.012878
708.000000	0.012934
707.000000	0.012995
706.000000	0.013067
705.000000	0.013167
704.000000	0.013304
703.000000	0.013464
702.000000	0.013602
701.000000	0.013670
700.000000	0.013668
699.000000	0.013635
698.000000	0.013616
697.000000	0.013634
696.000000	0.013686
695.000000	0.013754
694.000000	0.013805
693.000000	0.013802
692.000000	0.013750
691.000000	0.013685
690.000000	0.013636
689.000000	0.013612
688.000000	0.013623
687.000000	0.013685
686.000000	0.013785
685.000000	0.013877
684.000000	0.013942
683.000000	0.014004
682.000000	0.014068
681.000000	0.014103
680.000000	0.014097
679.000000	0.014094
678.000000	0.014140
677.000000	0.014263
676.000000	0.014448
675.000000	0.014651
674.000000	0.014822
673.000000	0.014931
672.000000	0.014948
671.000000	0.014827
670.000000	0.014505
669.000000	0.014013
668.000000	0.013755
667.000000	0.014161
666.000000	0.014686
665.000000	0.015045
664.000000	0.015294
663.000000	0.015410
662.000000	0.015387
661.000000	0.015319
660.000000	0.015301
659.000000	0.015326
658.000000	0.015327
657.000000	0.015297
656.000000	0.015252
655.000000	0.015181
654.000000	0.015108
653.000000	0.015107
652.000000	0.015180
651.000000	0.015232
650.000000	0.015212
649.000000	0.015180
648.000000	0.015177
647.000000	0.015153
646.000000	0.015082
645.000000	0.015031
644.000000	0.015043
643.000000	0.015060
642.000000	0.015012
641.000000	0.014913
640.000000	0.014826
639.000000	0.014776
638.000000	0.014763
637.000000	0.014795
636.000000	0.014848
635.000000	0.014873
634.000000	0.014867
633.000000	0.014874
632.000000	0.014911
631.000000	0.014936
630.000000	0.014936
629.000000	0.014973
628.000000	0.015080
627.000000	0.015187
626.000000	0.015213
625.000000	0.015165
624.000000	0.015096
623.000000	0.015047
622.000000	0.015038
621.000000	0.015083
620.000000	0.015160
619.000000	0.015210
618.000000	0.015215
617.000000	0.015217
616.000000	0.015243
615.000000	0.015243
614.000000	0.015173
613.000000	0.015068
612.000000	0.014995
611.000000	0.014967
610.000000	0.014969
609.000000	0.015008
608.000000	0.015066
607.000000	0.015074
606.000000	0.014991
605.000000	0.014877
604.000000	0.014820
603.000000	0.014828
602.000000	0.014847
601.000000	0.014849
600.000000	0.014843
599.000000	0.014831
598.000000	0.014806
597.000000	0.014784
596.000000	0.014791
595.000000	0.014834
594.000000	0.014897
593.000000	0.014962
592.000000	0.015012
591.000000	0.015037
590.000000	0.015050
589.000000	0.015074
588.000000	0.015099
587.000000	0.015085
586.000000	0.015018
585.000000	0.014959
584.000000	0.014970
583.000000	0.015041
582.000000	0.015091
581.000000	0.015043
580.000000	0.014896
579.000000	0.014745
578.000000	0.014726
577.000000	0.014892
576.000000	0.015160
575.000000	0.015381
574.000000	0.015492
573.000000	0.015552
572.000000	0.015620
571.000000	0.015672
570.000000	0.015672
569.000000	0.015656
568.000000	0.015696
567.000000	0.015807
566.000000	0.015949
565.000000	0.016092
564.000000	0.016211
563.000000	0.016282
562.000000	0.016307
561.000000	0.016333
560.000000	0.016373
559.000000	0.016358
558.000000	0.016238
557.000000	0.016096
556.000000	0.016059
555.000000	0.016124
554.000000	0.016192
553.000000	0.016218
552.000000	0.016236
551.000000	0.016236
550.000000	0.016144
549.000000	0.015948
548.000000	0.015730
547.000000	0.015555
546.000000	0.015413
545.000000	0.015277
544.000000	0.015169
543.000000	0.015128
542.000000	0.015163
541.000000	0.015273
540.000000	0.015451
539.000000	0.015656
538.000000	0.015832
537.000000	0.015967
536.000000	0.016095
535.000000	0.016221
534.000000	0.016295
533.000000	0.016292
532.000000	0.016208
531.000000	0.016029
530.000000	0.015768
529.000000	0.015512
528.000000	0.015353
527.000000	0.015313
526.000000	0.015360
525.000000	0.015444
524.000000	0.015511
523.000000	0.015480
522.000000	0.015304
521.000000	0.015044
520.000000	0.014826
519.000000	0.014707
518.000000	0.014637
517.000000	0.014526
516.000000	0.014308
515.000000	0.013958
514.000000	0.013533
513.000000	0.013201
512.000000	0.013096
511.000000	0.013157
510.000000	0.013180
509.000000	0.013039
508.000000	0.012748
507.000000	0.012390
506.000000	0.012071
505.000000	0.011874
504.000000	0.011815
503.000000	0.011812
502.000000	0.011780
501.000000	0.011726
500.000000	0.011701
499.000000	0.011720
498.000000	0.011769
497.000000	0.011850
496.000000	0.011955
495.000000	0.012022
494.000000	0.012005
493.000000	0.011913
492.000000	0.011735
491.000000	0.011453
490.000000	0.011122
489.000000	0.010899
488.000000	0.010863
487.000000	0.010907
486.000000	0.010875
485.000000	0.010733
484.000000	0.010536
483.000000	0.010319
482.000000	0.010104
481.000000	0.009923
480.000000	0.009815
479.000000	0.009812
478.000000	0.009918
477.000000	0.010082
476.000000	0.010167
475.000000	0.010029
474.000000	0.009685
473.000000	0.009399
472.000000	0.009436
471.000000	0.009793
470.000000	0.010195
469.000000	0.010410
468.000000	0.010442
467.000000	0.010484
466.000000	0.010718
465.000000	0.011165
464.000000	0.011586
463.000000	0.011590
462.000000	0.011010
461.000000	0.010124
460.000000	0.009354
459.000000	0.008824
458.000000	0.008372
457.000000	0.007941
456.000000	0.007711
455.000000	0.007807
454.000000	0.008158
453.000000	0.008624
452.000000	0.009041
451.000000	0.009190
450.000000	0.008909
