PE IR       SUBTECH     SPECTRUM    ASCII       PEDS        4.00        
   -1
3S-N10-F028_1.ASC
22/02/18
15:46:46.00
22/02/18
15:59:09.00
uco
Sample 028 By uco Date Friday, February 18 2022
450.000000
#HDR
-1
-1
#GR
cm-1
A
1.0
0.0
4000.000000
-1.000000
3551
8
0.077225
0.008286
#DATA
4000.000000	0.008949
3999.000000	0.008948
3998.000000	0.008962
3997.000000	0.008986
3996.000000	0.009011
3995.000000	0.009027
3994.000000	0.009036
3993.000000	0.009046
3992.000000	0.009061
3991.000000	0.009081
3990.000000	0.009099
3989.000000	0.009112
3988.000000	0.009120
3987.000000	0.009126
3986.000000	0.009126
3985.000000	0.009118
3984.000000	0.009106
3983.000000	0.009098
3982.000000	0.009100
3981.000000	0.009108
3980.000000	0.009112
3979.000000	0.009104
3978.000000	0.009090
3977.000000	0.009086
3976.000000	0.009104
3975.000000	0.009141
3974.000000	0.009181
3973.000000	0.009205
3972.000000	0.009206
3971.000000	0.009190
3970.000000	0.009168
3969.000000	0.009144
3968.000000	0.009119
3967.000000	0.009096
3966.000000	0.009085
3965.000000	0.009088
3964.000000	0.009103
3963.000000	0.009123
3962.000000	0.009145
3961.000000	0.009169
3960.000000	0.009191
3959.000000	0.009207
3958.000000	0.009216
3957.000000	0.009223
3956.000000	0.009230
3955.000000	0.009241
3954.000000	0.009252
3953.000000	0.009259
3952.000000	0.009259
3951.000000	0.009251
3950.000000	0.009233
3949.000000	0.009208
3948.000000	0.009188
3947.000000	0.009187
3946.000000	0.009209
3945.000000	0.009242
3944.000000	0.009267
3943.000000	0.009269
3942.000000	0.009252
3941.000000	0.009233
3940.000000	0.009226
3939.000000	0.009233
3938.000000	0.009246
3937.000000	0.009250
3936.000000	0.009235
3935.000000	0.009202
3934.000000	0.009167
3933.000000	0.009151
3932.000000	0.009161
3931.000000	0.009193
3930.000000	0.009236
3929.000000	0.009281
3928.000000	0.009325
3927.000000	0.009361
3926.000000	0.009379
3925.000000	0.009371
3924.000000	0.009341
3923.000000	0.009302
3922.000000	0.009268
3921.000000	0.009242
3920.000000	0.009219
3919.000000	0.009193
3918.000000	0.009174
3917.000000	0.009175
3916.000000	0.009191
3915.000000	0.009207
3914.000000	0.009213
3913.000000	0.009220
3912.000000	0.009239
3911.000000	0.009275
3910.000000	0.009324
3909.000000	0.009376
3908.000000	0.009423
3907.000000	0.009447
3906.000000	0.009418
3905.000000	0.009317
3904.000000	0.009159
3903.000000	0.009016
3902.000000	0.008956
3901.000000	0.008988
3900.000000	0.009076
3899.000000	0.009166
3898.000000	0.009224
3897.000000	0.009256
3896.000000	0.009279
3895.000000	0.009306
3894.000000	0.009336
3893.000000	0.009352
3892.000000	0.009335
3891.000000	0.009293
3890.000000	0.009243
3889.000000	0.009191
3888.000000	0.009138
3887.000000	0.009102
3886.000000	0.009106
3885.000000	0.009143
3884.000000	0.009180
3883.000000	0.009207
3882.000000	0.009228
3881.000000	0.009244
3880.000000	0.009249
3879.000000	0.009250
3878.000000	0.009256
3877.000000	0.009267
3876.000000	0.009287
3875.000000	0.009315
3874.000000	0.009328
3873.000000	0.009303
3872.000000	0.009237
3871.000000	0.009162
3870.000000	0.009124
3869.000000	0.009135
3868.000000	0.009172
3867.000000	0.009203
3866.000000	0.009228
3865.000000	0.009252
3864.000000	0.009250
3863.000000	0.009214
3862.000000	0.009176
3861.000000	0.009171
3860.000000	0.009221
3859.000000	0.009329
3858.000000	0.009478
3857.000000	0.009631
3856.000000	0.009730
3855.000000	0.009729
3854.000000	0.009596
3853.000000	0.009408
3852.000000	0.009284
3851.000000	0.009239
3850.000000	0.009220
3849.000000	0.009213
3848.000000	0.009215
3847.000000	0.009224
3846.000000	0.009242
3845.000000	0.009269
3844.000000	0.009294
3843.000000	0.009312
3842.000000	0.009314
3841.000000	0.009309
3840.000000	0.009307
3839.000000	0.009304
3838.000000	0.009297
3837.000000	0.009293
3836.000000	0.009295
3835.000000	0.009298
3834.000000	0.009288
3833.000000	0.009268
3832.000000	0.009257
3831.000000	0.009261
3830.000000	0.009275
3829.000000	0.009290
3828.000000	0.009301
3827.000000	0.009310
3826.000000	0.009320
3825.000000	0.009320
3824.000000	0.009304
3823.000000	0.009296
3822.000000	0.009320
3821.000000	0.009365
3820.000000	0.009400
3819.000000	0.009402
3818.000000	0.009369
3817.000000	0.009316
3816.000000	0.009281
3815.000000	0.009280
3814.000000	0.009302
3813.000000	0.009333
3812.000000	0.009366
3811.000000	0.009390
3810.000000	0.009388
3809.000000	0.009354
3808.000000	0.009305
3807.000000	0.009274
3806.000000	0.009275
3805.000000	0.009296
3804.000000	0.009322
3803.000000	0.009358
3802.000000	0.009407
3801.000000	0.009447
3800.000000	0.009451
3799.000000	0.009422
3798.000000	0.009374
3797.000000	0.009331
3796.000000	0.009313
3795.000000	0.009322
3794.000000	0.009343
3793.000000	0.009364
3792.000000	0.009382
3791.000000	0.009398
3790.000000	0.009417
3789.000000	0.009441
3788.000000	0.009475
3787.000000	0.009511
3786.000000	0.009536
3785.000000	0.009544
3784.000000	0.009540
3783.000000	0.009532
3782.000000	0.009523
3781.000000	0.009511
3780.000000	0.009490
3779.000000	0.009457
3778.000000	0.009427
3777.000000	0.009412
3776.000000	0.009415
3775.000000	0.009427
3774.000000	0.009439
3773.000000	0.009436
3772.000000	0.009414
3771.000000	0.009391
3770.000000	0.009381
3769.000000	0.009379
3768.000000	0.009379
3767.000000	0.009371
3766.000000	0.009358
3765.000000	0.009351
3764.000000	0.009347
3763.000000	0.009337
3762.000000	0.009325
3761.000000	0.009327
3760.000000	0.009340
3759.000000	0.009338
3758.000000	0.009317
3757.000000	0.009298
3756.000000	0.009288
3755.000000	0.009275
3754.000000	0.009248
3753.000000	0.009204
3752.000000	0.009144
3751.000000	0.009067
3750.000000	0.009007
3749.000000	0.009005
3748.000000	0.009040
3747.000000	0.009063
3746.000000	0.009059
3745.000000	0.009058
3744.000000	0.009085
3743.000000	0.009114
3742.000000	0.009103
3741.000000	0.009050
3740.000000	0.008991
3739.000000	0.008943
3738.000000	0.008913
3737.000000	0.008911
3736.000000	0.008929
3735.000000	0.008932
3734.000000	0.008904
3733.000000	0.008904
3732.000000	0.008978
3731.000000	0.009101
3730.000000	0.009206
3729.000000	0.009245
3728.000000	0.009227
3727.000000	0.009195
3726.000000	0.009183
3725.000000	0.009193
3724.000000	0.009221
3723.000000	0.009266
3722.000000	0.009314
3721.000000	0.009353
3720.000000	0.009372
3719.000000	0.009369
3718.000000	0.009353
3717.000000	0.009338
3716.000000	0.009327
3715.000000	0.009312
3714.000000	0.009299
3713.000000	0.009303
3712.000000	0.009319
3711.000000	0.009322
3710.000000	0.009309
3709.000000	0.009292
3708.000000	0.009281
3707.000000	0.009281
3706.000000	0.009288
3705.000000	0.009303
3704.000000	0.009329
3703.000000	0.009360
3702.000000	0.009385
3701.000000	0.009399
3700.000000	0.009414
3699.000000	0.009435
3698.000000	0.009457
3697.000000	0.009478
3696.000000	0.009491
3695.000000	0.009492
3694.000000	0.009489
3693.000000	0.009502
3692.000000	0.009523
3691.000000	0.009507
3690.000000	0.009406
3689.000000	0.009253
3688.000000	0.009156
3687.000000	0.009157
3686.000000	0.009216
3685.000000	0.009289
3684.000000	0.009355
3683.000000	0.009405
3682.000000	0.009446
3681.000000	0.009492
3680.000000	0.009560
3679.000000	0.009639
3678.000000	0.009693
3677.000000	0.009718
3676.000000	0.009729
3675.000000	0.009728
3674.000000	0.009708
3673.000000	0.009665
3672.000000	0.009607
3671.000000	0.009575
3670.000000	0.009582
3669.000000	0.009605
3668.000000	0.009630
3667.000000	0.009660
3666.000000	0.009694
3665.000000	0.009733
3664.000000	0.009773
3663.000000	0.009808
3662.000000	0.009838
3661.000000	0.009863
3660.000000	0.009886
3659.000000	0.009904
3658.000000	0.009916
3657.000000	0.009922
3656.000000	0.009927
3655.000000	0.009934
3654.000000	0.009933
3653.000000	0.009922
3652.000000	0.009910
3651.000000	0.009920
3650.000000	0.009948
3649.000000	0.009978
3648.000000	0.010026
3647.000000	0.010104
3646.000000	0.010184
3645.000000	0.010248
3644.000000	0.010299
3643.000000	0.010354
3642.000000	0.010426
3641.000000	0.010510
3640.000000	0.010591
3639.000000	0.010658
3638.000000	0.010699
3637.000000	0.010708
3636.000000	0.010693
3635.000000	0.010677
3634.000000	0.010675
3633.000000	0.010679
3632.000000	0.010673
3631.000000	0.010672
3630.000000	0.010706
3629.000000	0.010773
3628.000000	0.010837
3627.000000	0.010886
3626.000000	0.010934
3625.000000	0.010985
3624.000000	0.011041
3623.000000	0.011096
3622.000000	0.011153
3621.000000	0.011225
3620.000000	0.011318
3619.000000	0.011407
3618.000000	0.011477
3617.000000	0.011528
3616.000000	0.011563
3615.000000	0.011587
3614.000000	0.011607
3613.000000	0.011625
3612.000000	0.011637
3611.000000	0.011647
3610.000000	0.011675
3609.000000	0.011749
3608.000000	0.011868
3607.000000	0.012003
3606.000000	0.012131
3605.000000	0.012245
3604.000000	0.012349
3603.000000	0.012445
3602.000000	0.012532
3601.000000	0.012606
3600.000000	0.012666
3599.000000	0.012707
3598.000000	0.012740
3597.000000	0.012781
3596.000000	0.012838
3595.000000	0.012909
3594.000000	0.012977
3593.000000	0.013029
3592.000000	0.013058
3591.000000	0.013066
3590.000000	0.013079
3589.000000	0.013140
3588.000000	0.013263
3587.000000	0.013416
3586.000000	0.013559
3585.000000	0.013673
3584.000000	0.013764
3583.000000	0.013844
3582.000000	0.013930
3581.000000	0.014031
3580.000000	0.014142
3579.000000	0.014248
3578.000000	0.014331
3577.000000	0.014391
3576.000000	0.014439
3575.000000	0.014490
3574.000000	0.014554
3573.000000	0.014624
3572.000000	0.014685
3571.000000	0.014721
3570.000000	0.014740
3569.000000	0.014779
3568.000000	0.014879
3567.000000	0.015036
3566.000000	0.015207
3565.000000	0.015349
3564.000000	0.015447
3563.000000	0.015512
3562.000000	0.015568
3561.000000	0.015633
3560.000000	0.015715
3559.000000	0.015813
3558.000000	0.015923
3557.000000	0.016040
3556.000000	0.016155
3555.000000	0.016255
3554.000000	0.016335
3553.000000	0.016396
3552.000000	0.016446
3551.000000	0.016492
3550.000000	0.016541
3549.000000	0.016600
3548.000000	0.016675
3547.000000	0.016773
3546.000000	0.016890
3545.000000	0.017015
3544.000000	0.017139
3543.000000	0.017256
3542.000000	0.017368
3541.000000	0.017472
3540.000000	0.017564
3539.000000	0.017640
3538.000000	0.017704
3537.000000	0.017766
3536.000000	0.017833
3535.000000	0.017906
3534.000000	0.017988
3533.000000	0.018080
3532.000000	0.018184
3531.000000	0.018297
3530.000000	0.018402
3529.000000	0.018483
3528.000000	0.018535
3527.000000	0.018572
3526.000000	0.018621
3525.000000	0.018698
3524.000000	0.018801
3523.000000	0.018907
3522.000000	0.018998
3521.000000	0.019076
3520.000000	0.019156
3519.000000	0.019248
3518.000000	0.019350
3517.000000	0.019447
3516.000000	0.019528
3515.000000	0.019595
3514.000000	0.019654
3513.000000	0.019710
3512.000000	0.019766
3511.000000	0.019826
3510.000000	0.019890
3509.000000	0.019956
3508.000000	0.020022
3507.000000	0.020089
3506.000000	0.020161
3505.000000	0.020243
3504.000000	0.020331
3503.000000	0.020415
3502.000000	0.020490
3501.000000	0.020557
3500.000000	0.020623
3499.000000	0.020689
3498.000000	0.020756
3497.000000	0.020824
3496.000000	0.020893
3495.000000	0.020969
3494.000000	0.021052
3493.000000	0.021140
3492.000000	0.021226
3491.000000	0.021304
3490.000000	0.021372
3489.000000	0.021435
3488.000000	0.021502
3487.000000	0.021576
3486.000000	0.021650
3485.000000	0.021717
3484.000000	0.021778
3483.000000	0.021838
3482.000000	0.021900
3481.000000	0.021964
3480.000000	0.022036
3479.000000	0.022120
3478.000000	0.022207
3477.000000	0.022283
3476.000000	0.022340
3475.000000	0.022383
3474.000000	0.022425
3473.000000	0.022472
3472.000000	0.022527
3471.000000	0.022592
3470.000000	0.022668
3469.000000	0.022744
3468.000000	0.022809
3467.000000	0.022858
3466.000000	0.022904
3465.000000	0.022958
3464.000000	0.023025
3463.000000	0.023094
3462.000000	0.023150
3461.000000	0.023188
3460.000000	0.023220
3459.000000	0.023264
3458.000000	0.023331
3457.000000	0.023414
3456.000000	0.023501
3455.000000	0.023584
3454.000000	0.023661
3453.000000	0.023736
3452.000000	0.023810
3451.000000	0.023881
3450.000000	0.023949
3449.000000	0.024012
3448.000000	0.024065
3447.000000	0.024106
3446.000000	0.024142
3445.000000	0.024183
3444.000000	0.024236
3443.000000	0.024302
3442.000000	0.024377
3441.000000	0.024454
3440.000000	0.024526
3439.000000	0.024597
3438.000000	0.024674
3437.000000	0.024759
3436.000000	0.024843
3435.000000	0.024915
3434.000000	0.024971
3433.000000	0.025021
3432.000000	0.025078
3431.000000	0.025152
3430.000000	0.025242
3429.000000	0.025335
3428.000000	0.025415
3427.000000	0.025481
3426.000000	0.025546
3425.000000	0.025621
3424.000000	0.025700
3423.000000	0.025778
3422.000000	0.025850
3421.000000	0.025922
3420.000000	0.025993
3419.000000	0.026063
3418.000000	0.026133
3417.000000	0.026202
3416.000000	0.026266
3415.000000	0.026327
3414.000000	0.026396
3413.000000	0.026481
3412.000000	0.026584
3411.000000	0.026696
3410.000000	0.026803
3409.000000	0.026896
3408.000000	0.026974
3407.000000	0.027042
3406.000000	0.027109
3405.000000	0.027181
3404.000000	0.027250
3403.000000	0.027309
3402.000000	0.027360
3401.000000	0.027414
3400.000000	0.027476
3399.000000	0.027544
3398.000000	0.027607
3397.000000	0.027661
3396.000000	0.027713
3395.000000	0.027771
3394.000000	0.027836
3393.000000	0.027903
3392.000000	0.027964
3391.000000	0.028023
3390.000000	0.028089
3389.000000	0.028164
3388.000000	0.028242
3387.000000	0.028316
3386.000000	0.028385
3385.000000	0.028455
3384.000000	0.028531
3383.000000	0.028610
3382.000000	0.028685
3381.000000	0.028754
3380.000000	0.028822
3379.000000	0.028895
3378.000000	0.028977
3377.000000	0.029066
3376.000000	0.029155
3375.000000	0.029245
3374.000000	0.029336
3373.000000	0.029425
3372.000000	0.029509
3371.000000	0.029588
3370.000000	0.029668
3369.000000	0.029760
3368.000000	0.029865
3367.000000	0.029979
3366.000000	0.030095
3365.000000	0.030204
3364.000000	0.030302
3363.000000	0.030388
3362.000000	0.030470
3361.000000	0.030561
3360.000000	0.030676
3359.000000	0.030816
3358.000000	0.030963
3357.000000	0.031094
3356.000000	0.031199
3355.000000	0.031283
3354.000000	0.031364
3353.000000	0.031451
3352.000000	0.031549
3351.000000	0.031659
3350.000000	0.031780
3349.000000	0.031903
3348.000000	0.032019
3347.000000	0.032128
3346.000000	0.032232
3345.000000	0.032337
3344.000000	0.032442
3343.000000	0.032545
3342.000000	0.032641
3341.000000	0.032728
3340.000000	0.032803
3339.000000	0.032877
3338.000000	0.032965
3337.000000	0.033078
3336.000000	0.033213
3335.000000	0.033352
3334.000000	0.033479
3333.000000	0.033585
3332.000000	0.033674
3331.000000	0.033760
3330.000000	0.033856
3329.000000	0.033957
3328.000000	0.034050
3327.000000	0.034122
3326.000000	0.034182
3325.000000	0.034246
3324.000000	0.034328
3323.000000	0.034429
3322.000000	0.034541
3321.000000	0.034653
3320.000000	0.034758
3319.000000	0.034850
3318.000000	0.034933
3317.000000	0.035008
3316.000000	0.035073
3315.000000	0.035130
3314.000000	0.035183
3313.000000	0.035235
3312.000000	0.035281
3311.000000	0.035319
3310.000000	0.035354
3309.000000	0.035390
3308.000000	0.035429
3307.000000	0.035474
3306.000000	0.035536
3305.000000	0.035625
3304.000000	0.035734
3303.000000	0.035844
3302.000000	0.035933
3301.000000	0.035995
3300.000000	0.036030
3299.000000	0.036044
3298.000000	0.036047
3297.000000	0.036048
3296.000000	0.036051
3295.000000	0.036062
3294.000000	0.036082
3293.000000	0.036112
3292.000000	0.036147
3291.000000	0.036176
3290.000000	0.036195
3289.000000	0.036209
3288.000000	0.036225
3287.000000	0.036241
3286.000000	0.036252
3285.000000	0.036255
3284.000000	0.036252
3283.000000	0.036251
3282.000000	0.036257
3281.000000	0.036265
3280.000000	0.036267
3279.000000	0.036251
3278.000000	0.036213
3277.000000	0.036156
3276.000000	0.036086
3275.000000	0.036007
3274.000000	0.035919
3273.000000	0.035827
3272.000000	0.035742
3271.000000	0.035680
3270.000000	0.035648
3269.000000	0.035635
3268.000000	0.035626
3267.000000	0.035608
3266.000000	0.035576
3265.000000	0.035530
3264.000000	0.035475
3263.000000	0.035409
3262.000000	0.035327
3261.000000	0.035226
3260.000000	0.035110
3259.000000	0.034992
3258.000000	0.034884
3257.000000	0.034790
3256.000000	0.034704
3255.000000	0.034623
3254.000000	0.034546
3253.000000	0.034471
3252.000000	0.034396
3251.000000	0.034321
3250.000000	0.034241
3249.000000	0.034154
3248.000000	0.034067
3247.000000	0.033990
3246.000000	0.033929
3245.000000	0.033878
3244.000000	0.033823
3243.000000	0.033763
3242.000000	0.033703
3241.000000	0.033641
3240.000000	0.033565
3239.000000	0.033465
3238.000000	0.033344
3237.000000	0.033220
3236.000000	0.033111
3235.000000	0.033025
3234.000000	0.032960
3233.000000	0.032913
3232.000000	0.032879
3231.000000	0.032852
3230.000000	0.032824
3229.000000	0.032786
3228.000000	0.032737
3227.000000	0.032684
3226.000000	0.032637
3225.000000	0.032593
3224.000000	0.032540
3223.000000	0.032469
3222.000000	0.032384
3221.000000	0.032297
3220.000000	0.032220
3219.000000	0.032157
3218.000000	0.032108
3217.000000	0.032071
3216.000000	0.032036
3215.000000	0.031992
3214.000000	0.031931
3213.000000	0.031859
3212.000000	0.031788
3211.000000	0.031728
3210.000000	0.031674
3209.000000	0.031617
3208.000000	0.031549
3207.000000	0.031475
3206.000000	0.031400
3205.000000	0.031322
3204.000000	0.031235
3203.000000	0.031139
3202.000000	0.031043
3201.000000	0.030959
3200.000000	0.030891
3199.000000	0.030831
3198.000000	0.030766
3197.000000	0.030691
3196.000000	0.030607
3195.000000	0.030519
3194.000000	0.030429
3193.000000	0.030333
3192.000000	0.030235
3191.000000	0.030144
3190.000000	0.030070
3189.000000	0.030014
3188.000000	0.029962
3187.000000	0.029895
3186.000000	0.029804
3185.000000	0.029699
3184.000000	0.029597
3183.000000	0.029509
3182.000000	0.029439
3181.000000	0.029378
3180.000000	0.029316
3179.000000	0.029242
3178.000000	0.029150
3177.000000	0.029041
3176.000000	0.028923
3175.000000	0.028807
3174.000000	0.028703
3173.000000	0.028608
3172.000000	0.028513
3171.000000	0.028413
3170.000000	0.028315
3169.000000	0.028226
3168.000000	0.028137
3167.000000	0.028039
3166.000000	0.027936
3165.000000	0.027838
3164.000000	0.027749
3163.000000	0.027657
3162.000000	0.027555
3161.000000	0.027449
3160.000000	0.027353
3159.000000	0.027271
3158.000000	0.027201
3157.000000	0.027137
3156.000000	0.027069
3155.000000	0.026984
3154.000000	0.026878
3153.000000	0.026761
3152.000000	0.026651
3151.000000	0.026562
3150.000000	0.026497
3149.000000	0.026447
3148.000000	0.026399
3147.000000	0.026342
3146.000000	0.026273
3145.000000	0.026192
3144.000000	0.026109
3143.000000	0.026029
3142.000000	0.025955
3141.000000	0.025890
3140.000000	0.025829
3139.000000	0.025765
3138.000000	0.025690
3137.000000	0.025605
3136.000000	0.025518
3135.000000	0.025440
3134.000000	0.025378
3133.000000	0.025332
3132.000000	0.025295
3131.000000	0.025261
3130.000000	0.025231
3129.000000	0.025213
3128.000000	0.025205
3127.000000	0.025194
3126.000000	0.025169
3125.000000	0.025127
3124.000000	0.025075
3123.000000	0.025020
3122.000000	0.024970
3121.000000	0.024927
3120.000000	0.024894
3119.000000	0.024868
3118.000000	0.024846
3117.000000	0.024826
3116.000000	0.024809
3115.000000	0.024799
3114.000000	0.024805
3113.000000	0.024830
3112.000000	0.024868
3111.000000	0.024902
3110.000000	0.024928
3109.000000	0.024946
3108.000000	0.024962
3107.000000	0.024974
3106.000000	0.024977
3105.000000	0.024974
3104.000000	0.024970
3103.000000	0.024969
3102.000000	0.024975
3101.000000	0.024993
3100.000000	0.025024
3099.000000	0.025058
3098.000000	0.025087
3097.000000	0.025109
3096.000000	0.025131
3095.000000	0.025158
3094.000000	0.025190
3093.000000	0.025221
3092.000000	0.025249
3091.000000	0.025270
3090.000000	0.025288
3089.000000	0.025307
3088.000000	0.025329
3087.000000	0.025349
3086.000000	0.025362
3085.000000	0.025367
3084.000000	0.025370
3083.000000	0.025370
3082.000000	0.025368
3081.000000	0.025364
3080.000000	0.025368
3079.000000	0.025391
3078.000000	0.025431
3077.000000	0.025469
3076.000000	0.025484
3075.000000	0.025476
3074.000000	0.025462
3073.000000	0.025462
3072.000000	0.025475
3071.000000	0.025484
3070.000000	0.025480
3069.000000	0.025459
3068.000000	0.025425
3067.000000	0.025386
3066.000000	0.025355
3065.000000	0.025337
3064.000000	0.025324
3063.000000	0.025299
3062.000000	0.025255
3061.000000	0.025196
3060.000000	0.025133
3059.000000	0.025071
3058.000000	0.025008
3057.000000	0.024946
3056.000000	0.024891
3055.000000	0.024845
3054.000000	0.024800
3053.000000	0.024740
3052.000000	0.024656
3051.000000	0.024557
3050.000000	0.024458
3049.000000	0.024368
3048.000000	0.024283
3047.000000	0.024199
3046.000000	0.024114
3045.000000	0.024031
3044.000000	0.023952
3043.000000	0.023880
3042.000000	0.023815
3041.000000	0.023755
3040.000000	0.023691
3039.000000	0.023612
3038.000000	0.023510
3037.000000	0.023391
3036.000000	0.023269
3035.000000	0.023163
3034.000000	0.023084
3033.000000	0.023031
3032.000000	0.022990
3031.000000	0.022951
3030.000000	0.022912
3029.000000	0.022877
3028.000000	0.022845
3027.000000	0.022808
3026.000000	0.022760
3025.000000	0.022700
3024.000000	0.022631
3023.000000	0.022565
3022.000000	0.022511
3021.000000	0.022475
3020.000000	0.022459
3019.000000	0.022464
3018.000000	0.022486
3017.000000	0.022516
3016.000000	0.022544
3015.000000	0.022570
3014.000000	0.022608
3013.000000	0.022672
3012.000000	0.022756
3011.000000	0.022843
3010.000000	0.022917
3009.000000	0.022974
3008.000000	0.023018
3007.000000	0.023055
3006.000000	0.023089
3005.000000	0.023120
3004.000000	0.023143
3003.000000	0.023151
3002.000000	0.023140
3001.000000	0.023107
3000.000000	0.023053
2999.000000	0.022984
2998.000000	0.022914
2997.000000	0.022862
2996.000000	0.022839
2995.000000	0.022844
2994.000000	0.022870
2993.000000	0.022909
2992.000000	0.022953
2991.000000	0.023005
2990.000000	0.023075
2989.000000	0.023172
2988.000000	0.023299
2987.000000	0.023452
2986.000000	0.023625
2985.000000	0.023812
2984.000000	0.024003
2983.000000	0.024187
2982.000000	0.024362
2981.000000	0.024541
2980.000000	0.024741
2979.000000	0.024968
2978.000000	0.025212
2977.000000	0.025461
2976.000000	0.025711
2975.000000	0.025969
2974.000000	0.026246
2973.000000	0.026552
2972.000000	0.026894
2971.000000	0.027288
2970.000000	0.027751
2969.000000	0.028287
2968.000000	0.028872
2967.000000	0.029468
2966.000000	0.030052
2965.000000	0.030620
2964.000000	0.031173
2963.000000	0.031715
2962.000000	0.032243
2961.000000	0.032755
2960.000000	0.033244
2959.000000	0.033698
2958.000000	0.034103
2957.000000	0.034448
2956.000000	0.034721
2955.000000	0.034919
2954.000000	0.035051
2953.000000	0.035136
2952.000000	0.035196
2951.000000	0.035255
2950.000000	0.035329
2949.000000	0.035439
2948.000000	0.035602
2947.000000	0.035841
2946.000000	0.036178
2945.000000	0.036631
2944.000000	0.037207
2943.000000	0.037903
2942.000000	0.038707
2941.000000	0.039610
2940.000000	0.040606
2939.000000	0.041693
2938.000000	0.042861
2937.000000	0.044099
2936.000000	0.045387
2935.000000	0.046711
2934.000000	0.048060
2933.000000	0.049427
2932.000000	0.050796
2931.000000	0.052146
2930.000000	0.053450
2929.000000	0.054686
2928.000000	0.055832
2927.000000	0.056867
2926.000000	0.057759
2925.000000	0.058461
2924.000000	0.058918
2923.000000	0.059084
2922.000000	0.058944
2921.000000	0.058515
2920.000000	0.057822
2919.000000	0.056886
2918.000000	0.055723
2917.000000	0.054368
2916.000000	0.052885
2915.000000	0.051351
2914.000000	0.049834
2913.000000	0.048377
2912.000000	0.047003
2911.000000	0.045727
2910.000000	0.044558
2909.000000	0.043501
2908.000000	0.042550
2907.000000	0.041698
2906.000000	0.040933
2905.000000	0.040238
2904.000000	0.039589
2903.000000	0.038971
2902.000000	0.038378
2901.000000	0.037812
2900.000000	0.037268
2899.000000	0.036740
2898.000000	0.036228
2897.000000	0.035741
2896.000000	0.035284
2895.000000	0.034852
2894.000000	0.034431
2893.000000	0.034016
2892.000000	0.033603
2891.000000	0.033199
2890.000000	0.032807
2889.000000	0.032435
2888.000000	0.032090
2887.000000	0.031780
2886.000000	0.031508
2885.000000	0.031272
2884.000000	0.031068
2883.000000	0.030892
2882.000000	0.030750
2881.000000	0.030657
2880.000000	0.030629
2879.000000	0.030673
2878.000000	0.030785
2877.000000	0.030948
2876.000000	0.031146
2875.000000	0.031362
2874.000000	0.031578
2873.000000	0.031770
2872.000000	0.031914
2871.000000	0.032004
2870.000000	0.032056
2869.000000	0.032108
2868.000000	0.032201
2867.000000	0.032377
2866.000000	0.032670
2865.000000	0.033103
2864.000000	0.033684
2863.000000	0.034410
2862.000000	0.035280
2861.000000	0.036291
2860.000000	0.037430
2859.000000	0.038658
2858.000000	0.039917
2857.000000	0.041133
2856.000000	0.042225
2855.000000	0.043110
2854.000000	0.043704
2853.000000	0.043936
2852.000000	0.043759
2851.000000	0.043161
2850.000000	0.042171
2849.000000	0.040855
2848.000000	0.039305
2847.000000	0.037631
2846.000000	0.035944
2845.000000	0.034336
2844.000000	0.032867
2843.000000	0.031563
2842.000000	0.030423
2841.000000	0.029431
2840.000000	0.028566
2839.000000	0.027811
2838.000000	0.027158
2837.000000	0.026602
2836.000000	0.026132
2835.000000	0.025726
2834.000000	0.025362
2833.000000	0.025027
2832.000000	0.024721
2831.000000	0.024449
2830.000000	0.024211
2829.000000	0.023995
2828.000000	0.023787
2827.000000	0.023578
2826.000000	0.023374
2825.000000	0.023187
2824.000000	0.023019
2823.000000	0.022858
2822.000000	0.022694
2821.000000	0.022525
2820.000000	0.022360
2819.000000	0.022204
2818.000000	0.022062
2817.000000	0.021936
2816.000000	0.021824
2815.000000	0.021722
2814.000000	0.021627
2813.000000	0.021536
2812.000000	0.021444
2811.000000	0.021347
2810.000000	0.021244
2809.000000	0.021144
2808.000000	0.021055
2807.000000	0.020983
2806.000000	0.020920
2805.000000	0.020855
2804.000000	0.020782
2803.000000	0.020703
2802.000000	0.020624
2801.000000	0.020550
2800.000000	0.020481
2799.000000	0.020415
2798.000000	0.020357
2797.000000	0.020309
2796.000000	0.020270
2795.000000	0.020232
2794.000000	0.020180
2793.000000	0.020113
2792.000000	0.020037
2791.000000	0.019968
2790.000000	0.019914
2789.000000	0.019871
2788.000000	0.019829
2787.000000	0.019780
2786.000000	0.019723
2785.000000	0.019661
2784.000000	0.019600
2783.000000	0.019539
2782.000000	0.019482
2781.000000	0.019429
2780.000000	0.019382
2779.000000	0.019341
2778.000000	0.019301
2777.000000	0.019260
2776.000000	0.019215
2775.000000	0.019164
2774.000000	0.019111
2773.000000	0.019060
2772.000000	0.019013
2771.000000	0.018968
2770.000000	0.018923
2769.000000	0.018877
2768.000000	0.018831
2767.000000	0.018789
2766.000000	0.018758
2765.000000	0.018738
2764.000000	0.018724
2763.000000	0.018704
2762.000000	0.018672
2761.000000	0.018635
2760.000000	0.018598
2759.000000	0.018566
2758.000000	0.018536
2757.000000	0.018505
2756.000000	0.018468
2755.000000	0.018421
2754.000000	0.018372
2753.000000	0.018330
2752.000000	0.018299
2751.000000	0.018275
2750.000000	0.018253
2749.000000	0.018227
2748.000000	0.018197
2747.000000	0.018163
2746.000000	0.018129
2745.000000	0.018098
2744.000000	0.018067
2743.000000	0.018029
2742.000000	0.017986
2741.000000	0.017942
2740.000000	0.017907
2739.000000	0.017881
2738.000000	0.017860
2737.000000	0.017838
2736.000000	0.017813
2735.000000	0.017788
2734.000000	0.017768
2733.000000	0.017754
2732.000000	0.017742
2731.000000	0.017723
2730.000000	0.017695
2729.000000	0.017662
2728.000000	0.017632
2727.000000	0.017605
2726.000000	0.017577
2725.000000	0.017548
2724.000000	0.017520
2723.000000	0.017498
2722.000000	0.017485
2721.000000	0.017472
2720.000000	0.017450
2719.000000	0.017415
2718.000000	0.017370
2717.000000	0.017325
2716.000000	0.017281
2715.000000	0.017241
2714.000000	0.017207
2713.000000	0.017183
2712.000000	0.017169
2711.000000	0.017158
2710.000000	0.017146
2709.000000	0.017130
2708.000000	0.017111
2707.000000	0.017091
2706.000000	0.017073
2705.000000	0.017058
2704.000000	0.017040
2703.000000	0.017013
2702.000000	0.016979
2701.000000	0.016949
2700.000000	0.016937
2699.000000	0.016938
2698.000000	0.016938
2697.000000	0.016927
2696.000000	0.016906
2695.000000	0.016888
2694.000000	0.016882
2693.000000	0.016884
2692.000000	0.016887
2691.000000	0.016886
2690.000000	0.016878
2689.000000	0.016858
2688.000000	0.016822
2687.000000	0.016776
2686.000000	0.016736
2685.000000	0.016717
2684.000000	0.016715
2683.000000	0.016719
2682.000000	0.016723
2681.000000	0.016727
2680.000000	0.016732
2679.000000	0.016733
2678.000000	0.016725
2677.000000	0.016707
2676.000000	0.016682
2675.000000	0.016655
2674.000000	0.016630
2673.000000	0.016611
2672.000000	0.016598
2671.000000	0.016589
2670.000000	0.016584
2669.000000	0.016578
2668.000000	0.016565
2667.000000	0.016541
2666.000000	0.016514
2665.000000	0.016494
2664.000000	0.016488
2663.000000	0.016490
2662.000000	0.016490
2661.000000	0.016483
2660.000000	0.016466
2659.000000	0.016447
2658.000000	0.016431
2657.000000	0.016415
2656.000000	0.016390
2655.000000	0.016348
2654.000000	0.016299
2653.000000	0.016259
2652.000000	0.016235
2651.000000	0.016218
2650.000000	0.016200
2649.000000	0.016182
2648.000000	0.016159
2647.000000	0.016127
2646.000000	0.016079
2645.000000	0.016025
2644.000000	0.015976
2643.000000	0.015943
2642.000000	0.015925
2641.000000	0.015917
2640.000000	0.015907
2639.000000	0.015883
2638.000000	0.015841
2637.000000	0.015791
2636.000000	0.015743
2635.000000	0.015705
2634.000000	0.015677
2633.000000	0.015658
2632.000000	0.015644
2631.000000	0.015625
2630.000000	0.015596
2629.000000	0.015557
2628.000000	0.015515
2627.000000	0.015473
2626.000000	0.015435
2625.000000	0.015397
2624.000000	0.015359
2623.000000	0.015322
2622.000000	0.015290
2621.000000	0.015266
2620.000000	0.015248
2619.000000	0.015231
2618.000000	0.015213
2617.000000	0.015196
2616.000000	0.015175
2615.000000	0.015149
2614.000000	0.015124
2613.000000	0.015112
2612.000000	0.015116
2611.000000	0.015124
2610.000000	0.015124
2609.000000	0.015110
2608.000000	0.015085
2607.000000	0.015051
2606.000000	0.015017
2605.000000	0.014993
2604.000000	0.014986
2603.000000	0.014985
2602.000000	0.014972
2601.000000	0.014934
2600.000000	0.014877
2599.000000	0.014819
2598.000000	0.014781
2597.000000	0.014766
2596.000000	0.014757
2595.000000	0.014739
2594.000000	0.014716
2593.000000	0.014700
2592.000000	0.014693
2591.000000	0.014688
2590.000000	0.014673
2589.000000	0.014651
2588.000000	0.014626
2587.000000	0.014600
2586.000000	0.014564
2585.000000	0.014513
2584.000000	0.014453
2583.000000	0.014405
2582.000000	0.014386
2581.000000	0.014392
2580.000000	0.014397
2579.000000	0.014380
2578.000000	0.014350
2577.000000	0.014326
2576.000000	0.014311
2575.000000	0.014294
2574.000000	0.014272
2573.000000	0.014256
2572.000000	0.014255
2571.000000	0.014264
2570.000000	0.014268
2569.000000	0.014258
2568.000000	0.014237
2567.000000	0.014218
2566.000000	0.014223
2565.000000	0.014259
2564.000000	0.014303
2563.000000	0.014320
2562.000000	0.014294
2561.000000	0.014245
2560.000000	0.014196
2559.000000	0.014158
2558.000000	0.014127
2557.000000	0.014099
2556.000000	0.014076
2555.000000	0.014064
2554.000000	0.014064
2553.000000	0.014068
2552.000000	0.014068
2551.000000	0.014065
2550.000000	0.014065
2549.000000	0.014074
2548.000000	0.014079
2547.000000	0.014070
2546.000000	0.014047
2545.000000	0.014015
2544.000000	0.013971
2543.000000	0.013923
2542.000000	0.013896
2541.000000	0.013914
2540.000000	0.013961
2539.000000	0.013996
2538.000000	0.013995
2537.000000	0.013970
2536.000000	0.013948
2535.000000	0.013941
2534.000000	0.013942
2533.000000	0.013944
2532.000000	0.013940
2531.000000	0.013929
2530.000000	0.013914
2529.000000	0.013896
2528.000000	0.013875
2527.000000	0.013854
2526.000000	0.013836
2525.000000	0.013825
2524.000000	0.013812
2523.000000	0.013793
2522.000000	0.013776
2521.000000	0.013776
2520.000000	0.013791
2519.000000	0.013808
2518.000000	0.013817
2517.000000	0.013816
2516.000000	0.013806
2515.000000	0.013785
2514.000000	0.013753
2513.000000	0.013712
2512.000000	0.013662
2511.000000	0.013612
2510.000000	0.013584
2509.000000	0.013594
2508.000000	0.013639
2507.000000	0.013692
2506.000000	0.013725
2505.000000	0.013722
2504.000000	0.013686
2503.000000	0.013641
2502.000000	0.013611
2501.000000	0.013602
2500.000000	0.013588
2499.000000	0.013548
2498.000000	0.013489
2497.000000	0.013435
2496.000000	0.013401
2495.000000	0.013395
2494.000000	0.013417
2493.000000	0.013456
2492.000000	0.013480
2491.000000	0.013460
2490.000000	0.013413
2489.000000	0.013377
2488.000000	0.013372
2487.000000	0.013385
2486.000000	0.013397
2485.000000	0.013402
2484.000000	0.013395
2483.000000	0.013370
2482.000000	0.013334
2481.000000	0.013309
2480.000000	0.013308
2479.000000	0.013321
2478.000000	0.013323
2477.000000	0.013301
2476.000000	0.013257
2475.000000	0.013204
2474.000000	0.013163
2473.000000	0.013147
2472.000000	0.013155
2471.000000	0.013181
2470.000000	0.013222
2469.000000	0.013267
2468.000000	0.013290
2467.000000	0.013271
2466.000000	0.013227
2465.000000	0.013197
2464.000000	0.013203
2463.000000	0.013232
2462.000000	0.013253
2461.000000	0.013249
2460.000000	0.013221
2459.000000	0.013187
2458.000000	0.013164
2457.000000	0.013161
2456.000000	0.013166
2455.000000	0.013169
2454.000000	0.013175
2453.000000	0.013191
2452.000000	0.013212
2451.000000	0.013219
2450.000000	0.013211
2449.000000	0.013198
2448.000000	0.013183
2447.000000	0.013159
2446.000000	0.013135
2445.000000	0.013129
2444.000000	0.013141
2443.000000	0.013150
2442.000000	0.013143
2441.000000	0.013128
2440.000000	0.013117
2439.000000	0.013112
2438.000000	0.013105
2437.000000	0.013091
2436.000000	0.013063
2435.000000	0.013021
2434.000000	0.012976
2433.000000	0.012948
2432.000000	0.012948
2431.000000	0.012967
2430.000000	0.012982
2429.000000	0.012974
2428.000000	0.012938
2427.000000	0.012889
2426.000000	0.012852
2425.000000	0.012842
2424.000000	0.012850
2423.000000	0.012862
2422.000000	0.012877
2421.000000	0.012898
2420.000000	0.012912
2419.000000	0.012899
2418.000000	0.012856
2417.000000	0.012807
2416.000000	0.012779
2415.000000	0.012789
2414.000000	0.012836
2413.000000	0.012909
2412.000000	0.012981
2411.000000	0.013026
2410.000000	0.013035
2409.000000	0.013009
2408.000000	0.012952
2407.000000	0.012875
2406.000000	0.012801
2405.000000	0.012751
2404.000000	0.012732
2403.000000	0.012738
2402.000000	0.012764
2401.000000	0.012803
2400.000000	0.012833
2399.000000	0.012840
2398.000000	0.012834
2397.000000	0.012834
2396.000000	0.012842
2395.000000	0.012838
2394.000000	0.012813
2393.000000	0.012781
2392.000000	0.012761
2391.000000	0.012757
2390.000000	0.012772
2389.000000	0.012801
2388.000000	0.012832
2387.000000	0.012854
2386.000000	0.012866
2385.000000	0.012874
2384.000000	0.012875
2383.000000	0.012860
2382.000000	0.012830
2381.000000	0.012797
2380.000000	0.012775
2379.000000	0.012777
2378.000000	0.012817
2377.000000	0.012885
2376.000000	0.012944
2375.000000	0.012962
2374.000000	0.012949
2373.000000	0.012933
2372.000000	0.012919
2371.000000	0.012895
2370.000000	0.012864
2369.000000	0.012848
2368.000000	0.012852
2367.000000	0.012866
2366.000000	0.012888
2365.000000	0.012926
2364.000000	0.012979
2363.000000	0.013051
2362.000000	0.013151
2361.000000	0.013255
2360.000000	0.013316
2359.000000	0.013304
2358.000000	0.013227
2357.000000	0.013127
2356.000000	0.013062
2355.000000	0.013066
2354.000000	0.013072
2353.000000	0.012998
2352.000000	0.012879
2351.000000	0.012841
2350.000000	0.012936
2349.000000	0.013103
2348.000000	0.013232
2347.000000	0.013235
2346.000000	0.013136
2345.000000	0.013071
2344.000000	0.013130
2343.000000	0.013253
2342.000000	0.013327
2341.000000	0.013305
2340.000000	0.013228
2339.000000	0.013161
2338.000000	0.013130
2337.000000	0.013124
2336.000000	0.013127
2335.000000	0.013118
2334.000000	0.013074
2333.000000	0.012983
2332.000000	0.012889
2331.000000	0.012841
2330.000000	0.012861
2329.000000	0.012929
2328.000000	0.013031
2327.000000	0.013150
2326.000000	0.013258
2325.000000	0.013316
2324.000000	0.013302
2323.000000	0.013227
2322.000000	0.013143
2321.000000	0.013112
2320.000000	0.013156
2319.000000	0.013235
2318.000000	0.013292
2317.000000	0.013286
2316.000000	0.013219
2315.000000	0.013115
2314.000000	0.013016
2313.000000	0.012951
2312.000000	0.012917
2311.000000	0.012885
2310.000000	0.012844
2309.000000	0.012806
2308.000000	0.012781
2307.000000	0.012749
2306.000000	0.012697
2305.000000	0.012634
2304.000000	0.012584
2303.000000	0.012555
2302.000000	0.012550
2301.000000	0.012571
2300.000000	0.012610
2299.000000	0.012640
2298.000000	0.012645
2297.000000	0.012638
2296.000000	0.012638
2295.000000	0.012643
2294.000000	0.012635
2293.000000	0.012603
2292.000000	0.012564
2291.000000	0.012544
2290.000000	0.012562
2289.000000	0.012609
2288.000000	0.012646
2287.000000	0.012629
2286.000000	0.012551
2285.000000	0.012451
2284.000000	0.012374
2283.000000	0.012336
2282.000000	0.012327
2281.000000	0.012328
2280.000000	0.012325
2279.000000	0.012311
2278.000000	0.012290
2277.000000	0.012268
2276.000000	0.012232
2275.000000	0.012174
2274.000000	0.012105
2273.000000	0.012055
2272.000000	0.012035
2271.000000	0.012036
2270.000000	0.012063
2269.000000	0.012133
2268.000000	0.012239
2267.000000	0.012336
2266.000000	0.012369
2265.000000	0.012309
2264.000000	0.012168
2263.000000	0.012006
2262.000000	0.011915
2261.000000	0.011947
2260.000000	0.012061
2259.000000	0.012173
2258.000000	0.012238
2257.000000	0.012261
2256.000000	0.012241
2255.000000	0.012171
2254.000000	0.012079
2253.000000	0.012028
2252.000000	0.012035
2251.000000	0.012055
2250.000000	0.012038
2249.000000	0.011972
2248.000000	0.011860
2247.000000	0.011720
2246.000000	0.011609
2245.000000	0.011595
2244.000000	0.011685
2243.000000	0.011805
2242.000000	0.011885
2241.000000	0.011906
2240.000000	0.011874
2239.000000	0.011799
2238.000000	0.011725
2237.000000	0.011717
2236.000000	0.011772
2235.000000	0.011814
2234.000000	0.011784
2233.000000	0.011712
2232.000000	0.011662
2231.000000	0.011643
2230.000000	0.011620
2229.000000	0.011576
2228.000000	0.011528
2227.000000	0.011496
2226.000000	0.011496
2225.000000	0.011535
2224.000000	0.011598
2223.000000	0.011654
2222.000000	0.011680
2221.000000	0.011666
2220.000000	0.011609
2219.000000	0.011523
2218.000000	0.011451
2217.000000	0.011423
2216.000000	0.011414
2215.000000	0.011375
2214.000000	0.011304
2213.000000	0.011244
2212.000000	0.011223
2211.000000	0.011237
2210.000000	0.011281
2209.000000	0.011345
2208.000000	0.011398
2207.000000	0.011424
2206.000000	0.011461
2205.000000	0.011535
2204.000000	0.011587
2203.000000	0.011535
2202.000000	0.011398
2201.000000	0.011277
2200.000000	0.011222
2199.000000	0.011209
2198.000000	0.011235
2197.000000	0.011338
2196.000000	0.011502
2195.000000	0.011635
2194.000000	0.011675
2193.000000	0.011642
2192.000000	0.011563
2191.000000	0.011438
2190.000000	0.011285
2189.000000	0.011164
2188.000000	0.011094
2187.000000	0.011040
2186.000000	0.010980
2185.000000	0.010949
2184.000000	0.010967
2183.000000	0.011002
2182.000000	0.011017
2181.000000	0.010991
2180.000000	0.010902
2179.000000	0.010749
2178.000000	0.010592
2177.000000	0.010512
2176.000000	0.010516
2175.000000	0.010547
2174.000000	0.010569
2173.000000	0.010573
2172.000000	0.010535
2171.000000	0.010463
2170.000000	0.010437
2169.000000	0.010515
2168.000000	0.010626
2167.000000	0.010647
2166.000000	0.010576
2165.000000	0.010484
2164.000000	0.010355
2163.000000	0.010127
2162.000000	0.009871
2161.000000	0.009744
2160.000000	0.009732
2159.000000	0.009647
2158.000000	0.009442
2157.000000	0.009284
2156.000000	0.009279
2155.000000	0.009372
2154.000000	0.009512
2153.000000	0.009696
2152.000000	0.009871
2151.000000	0.009966
2150.000000	0.010020
2149.000000	0.010153
2148.000000	0.010385
2147.000000	0.010616
2146.000000	0.010772
2145.000000	0.010859
2144.000000	0.010867
2143.000000	0.010773
2142.000000	0.010632
2141.000000	0.010555
2140.000000	0.010568
2139.000000	0.010602
2138.000000	0.010631
2137.000000	0.010696
2136.000000	0.010800
2135.000000	0.010873
2134.000000	0.010889
2133.000000	0.010903
2132.000000	0.010946
2131.000000	0.010985
2130.000000	0.010995
2129.000000	0.011007
2128.000000	0.011044
2127.000000	0.011084
2126.000000	0.011122
2125.000000	0.011190
2124.000000	0.011292
2123.000000	0.011370
2122.000000	0.011374
2121.000000	0.011327
2120.000000	0.011285
2119.000000	0.011270
2118.000000	0.011278
2117.000000	0.011304
2116.000000	0.011337
2115.000000	0.011357
2114.000000	0.011354
2113.000000	0.011341
2112.000000	0.011333
2111.000000	0.011340
2110.000000	0.011377
2109.000000	0.011451
2108.000000	0.011527
2107.000000	0.011555
2106.000000	0.011531
2105.000000	0.011492
2104.000000	0.011462
2103.000000	0.011428
2102.000000	0.011394
2101.000000	0.011379
2100.000000	0.011378
2099.000000	0.011361
2098.000000	0.011331
2097.000000	0.011324
2096.000000	0.011340
2095.000000	0.011340
2094.000000	0.011311
2093.000000	0.011284
2092.000000	0.011276
2091.000000	0.011264
2090.000000	0.011236
2089.000000	0.011216
2088.000000	0.011220
2087.000000	0.011234
2086.000000	0.011248
2085.000000	0.011267
2084.000000	0.011279
2083.000000	0.011260
2082.000000	0.011213
2081.000000	0.011170
2080.000000	0.011143
2079.000000	0.011124
2078.000000	0.011127
2077.000000	0.011187
2076.000000	0.011277
2075.000000	0.011317
2074.000000	0.011255
2073.000000	0.011124
2072.000000	0.010993
2071.000000	0.010912
2070.000000	0.010892
2069.000000	0.010902
2068.000000	0.010874
2067.000000	0.010763
2066.000000	0.010610
2065.000000	0.010495
2064.000000	0.010452
2063.000000	0.010474
2062.000000	0.010557
2061.000000	0.010682
2060.000000	0.010767
2059.000000	0.010752
2058.000000	0.010693
2057.000000	0.010703
2056.000000	0.010789
2055.000000	0.010873
2054.000000	0.010917
2053.000000	0.010945
2052.000000	0.010935
2051.000000	0.010813
2050.000000	0.010576
2049.000000	0.010326
2048.000000	0.010149
2047.000000	0.010051
2046.000000	0.010030
2045.000000	0.010089
2044.000000	0.010158
2043.000000	0.010142
2042.000000	0.010077
2041.000000	0.010081
2040.000000	0.010142
2039.000000	0.010108
2038.000000	0.009931
2037.000000	0.009744
2036.000000	0.009654
2035.000000	0.009630
2034.000000	0.009627
2033.000000	0.009669
2032.000000	0.009731
2031.000000	0.009708
2030.000000	0.009561
2029.000000	0.009359
2028.000000	0.009168
2027.000000	0.009030
2026.000000	0.009041
2025.000000	0.009266
2024.000000	0.009561
2023.000000	0.009676
2022.000000	0.009533
2021.000000	0.009270
2020.000000	0.009021
2019.000000	0.008822
2018.000000	0.008733
2017.000000	0.008815
2016.000000	0.008964
2015.000000	0.008994
2014.000000	0.008912
2013.000000	0.008908
2012.000000	0.009067
2011.000000	0.009269
2010.000000	0.009379
2009.000000	0.009388
2008.000000	0.009332
2007.000000	0.009248
2006.000000	0.009223
2005.000000	0.009318
2004.000000	0.009454
2003.000000	0.009516
2002.000000	0.009529
2001.000000	0.009575
2000.000000	0.009614
1999.000000	0.009551
1998.000000	0.009430
1997.000000	0.009392
1996.000000	0.009464
1995.000000	0.009562
1994.000000	0.009680
1993.000000	0.009876
1992.000000	0.010084
1991.000000	0.010146
1990.000000	0.010069
1989.000000	0.010020
1988.000000	0.010065
1987.000000	0.010107
1986.000000	0.010104
1985.000000	0.010137
1984.000000	0.010207
1983.000000	0.010180
1982.000000	0.010005
1981.000000	0.009811
1980.000000	0.009711
1979.000000	0.009652
1978.000000	0.009572
1977.000000	0.009532
1976.000000	0.009580
1975.000000	0.009633
1974.000000	0.009626
1973.000000	0.009597
1972.000000	0.009568
1971.000000	0.009473
1970.000000	0.009285
1969.000000	0.009095
1968.000000	0.009006
1967.000000	0.009037
1966.000000	0.009165
1965.000000	0.009351
1964.000000	0.009501
1963.000000	0.009522
1962.000000	0.009434
1961.000000	0.009353
1960.000000	0.009346
1959.000000	0.009394
1958.000000	0.009474
1957.000000	0.009580
1956.000000	0.009662
1955.000000	0.009680
1954.000000	0.009675
1953.000000	0.009710
1952.000000	0.009743
1951.000000	0.009686
1950.000000	0.009563
1949.000000	0.009487
1948.000000	0.009472
1947.000000	0.009431
1946.000000	0.009346
1945.000000	0.009314
1944.000000	0.009387
1943.000000	0.009499
1942.000000	0.009581
1941.000000	0.009637
1940.000000	0.009675
1939.000000	0.009674
1938.000000	0.009656
1937.000000	0.009685
1936.000000	0.009775
1935.000000	0.009868
1934.000000	0.009911
1933.000000	0.009915
1932.000000	0.009895
1931.000000	0.009846
1930.000000	0.009802
1929.000000	0.009811
1928.000000	0.009852
1927.000000	0.009864
1926.000000	0.009848
1925.000000	0.009875
1924.000000	0.009954
1923.000000	0.010009
1922.000000	0.010004
1921.000000	0.009987
1920.000000	0.009975
1919.000000	0.009937
1918.000000	0.009881
1917.000000	0.009869
1916.000000	0.009898
1915.000000	0.009904
1914.000000	0.009876
1913.000000	0.009856
1912.000000	0.009861
1911.000000	0.009857
1910.000000	0.009838
1909.000000	0.009827
1908.000000	0.009818
1907.000000	0.009797
1906.000000	0.009790
1905.000000	0.009838
1904.000000	0.009897
1903.000000	0.009896
1902.000000	0.009865
1901.000000	0.009871
1900.000000	0.009892
1899.000000	0.009859
1898.000000	0.009784
1897.000000	0.009744
1896.000000	0.009744
1895.000000	0.009715
1894.000000	0.009659
1893.000000	0.009651
1892.000000	0.009706
1891.000000	0.009763
1890.000000	0.009797
1889.000000	0.009834
1888.000000	0.009850
1887.000000	0.009793
1886.000000	0.009695
1885.000000	0.009639
1884.000000	0.009640
1883.000000	0.009644
1882.000000	0.009644
1881.000000	0.009678
1880.000000	0.009727
1879.000000	0.009745
1878.000000	0.009734
1877.000000	0.009736
1876.000000	0.009741
1875.000000	0.009692
1874.000000	0.009604
1873.000000	0.009555
1872.000000	0.009562
1871.000000	0.009554
1870.000000	0.009506
1869.000000	0.009481
1868.000000	0.009497
1867.000000	0.009494
1866.000000	0.009487
1865.000000	0.009531
1864.000000	0.009608
1863.000000	0.009648
1862.000000	0.009649
1861.000000	0.009665
1860.000000	0.009685
1859.000000	0.009644
1858.000000	0.009553
1857.000000	0.009495
1856.000000	0.009488
1855.000000	0.009482
1854.000000	0.009476
1853.000000	0.009518
1852.000000	0.009586
1851.000000	0.009616
1850.000000	0.009576
1849.000000	0.009493
1848.000000	0.009394
1847.000000	0.009295
1846.000000	0.009245
1845.000000	0.009279
1844.000000	0.009344
1843.000000	0.009347
1842.000000	0.009327
1841.000000	0.009372
1840.000000	0.009476
1839.000000	0.009559
1838.000000	0.009585
1837.000000	0.009603
1836.000000	0.009622
1835.000000	0.009597
1834.000000	0.009524
1833.000000	0.009464
1832.000000	0.009465
1831.000000	0.009498
1830.000000	0.009490
1829.000000	0.009440
1828.000000	0.009411
1827.000000	0.009426
1826.000000	0.009460
1825.000000	0.009502
1824.000000	0.009551
1823.000000	0.009578
1822.000000	0.009576
1821.000000	0.009563
1820.000000	0.009545
1819.000000	0.009497
1818.000000	0.009430
1817.000000	0.009423
1816.000000	0.009482
1815.000000	0.009517
1814.000000	0.009481
1813.000000	0.009437
1812.000000	0.009442
1811.000000	0.009444
1810.000000	0.009409
1809.000000	0.009415
1808.000000	0.009481
1807.000000	0.009516
1806.000000	0.009488
1805.000000	0.009475
1804.000000	0.009508
1803.000000	0.009513
1802.000000	0.009436
1801.000000	0.009338
1800.000000	0.009299
1799.000000	0.009287
1798.000000	0.009281
1797.000000	0.009313
1796.000000	0.009354
1795.000000	0.009323
1794.000000	0.009199
1793.000000	0.009080
1792.000000	0.009064
1791.000000	0.009084
1790.000000	0.009091
1789.000000	0.009136
1788.000000	0.009217
1787.000000	0.009258
1786.000000	0.009227
1785.000000	0.009179
1784.000000	0.009154
1783.000000	0.009137
1782.000000	0.009128
1781.000000	0.009127
1780.000000	0.009127
1779.000000	0.009094
1778.000000	0.009036
1777.000000	0.008987
1776.000000	0.008955
1775.000000	0.008935
1774.000000	0.008910
1773.000000	0.008861
1772.000000	0.008821
1771.000000	0.008816
1770.000000	0.008866
1769.000000	0.009006
1768.000000	0.009209
1767.000000	0.009380
1766.000000	0.009494
1765.000000	0.009642
1764.000000	0.009916
1763.000000	0.010315
1762.000000	0.010778
1761.000000	0.011289
1760.000000	0.011900
1759.000000	0.012640
1758.000000	0.013546
1757.000000	0.014620
1756.000000	0.015790
1755.000000	0.016975
1754.000000	0.018180
1753.000000	0.019490
1752.000000	0.020947
1751.000000	0.022450
1750.000000	0.023823
1749.000000	0.024989
1748.000000	0.025922
1747.000000	0.026585
1746.000000	0.026951
1745.000000	0.027014
1744.000000	0.026785
1743.000000	0.026259
1742.000000	0.025464
1741.000000	0.024462
1740.000000	0.023302
1739.000000	0.022066
1738.000000	0.020925
1737.000000	0.019985
1736.000000	0.019138
1735.000000	0.018129
1734.000000	0.016979
1733.000000	0.016006
1732.000000	0.015335
1731.000000	0.014845
1730.000000	0.014420
1729.000000	0.014014
1728.000000	0.013622
1727.000000	0.013265
1726.000000	0.012931
1725.000000	0.012606
1724.000000	0.012286
1723.000000	0.011939
1722.000000	0.011586
1721.000000	0.011310
1720.000000	0.011139
1719.000000	0.010973
1718.000000	0.010718
1717.000000	0.010567
1716.000000	0.010635
1715.000000	0.010789
1714.000000	0.011012
1713.000000	0.011379
1712.000000	0.011839
1711.000000	0.012280
1710.000000	0.012689
1709.000000	0.013134
1708.000000	0.013671
1707.000000	0.014307
1706.000000	0.015032
1705.000000	0.015811
1704.000000	0.016516
1703.000000	0.017093
1702.000000	0.017680
1701.000000	0.018519
1700.000000	0.019644
1699.000000	0.020589
1698.000000	0.021399
1697.000000	0.022496
1696.000000	0.023883
1695.000000	0.025063
1694.000000	0.025877
1693.000000	0.026648
1692.000000	0.027574
1691.000000	0.028580
1690.000000	0.029550
1689.000000	0.030449
1688.000000	0.031294
1687.000000	0.032110
1686.000000	0.032984
1685.000000	0.034093
1684.000000	0.035396
1683.000000	0.036522
1682.000000	0.037534
1681.000000	0.038634
1680.000000	0.039788
1679.000000	0.040833
1678.000000	0.041779
1677.000000	0.042807
1676.000000	0.044028
1675.000000	0.045319
1674.000000	0.046474
1673.000000	0.047515
1672.000000	0.048624
1671.000000	0.049888
1670.000000	0.051322
1669.000000	0.052836
1668.000000	0.054249
1667.000000	0.055476
1666.000000	0.056573
1665.000000	0.057696
1664.000000	0.058940
1663.000000	0.060235
1662.000000	0.061469
1661.000000	0.062609
1660.000000	0.063706
1659.000000	0.064769
1658.000000	0.065730
1657.000000	0.066577
1656.000000	0.067395
1655.000000	0.068347
1654.000000	0.069523
1653.000000	0.070842
1652.000000	0.071713
1651.000000	0.072106
1650.000000	0.072362
1649.000000	0.072800
1648.000000	0.073436
1647.000000	0.074114
1646.000000	0.074683
1645.000000	0.075178
1644.000000	0.075630
1643.000000	0.076013
1642.000000	0.076350
1641.000000	0.076639
1640.000000	0.076845
1639.000000	0.076951
1638.000000	0.077015
1637.000000	0.077106
1636.000000	0.077190
1635.000000	0.077225
1634.000000	0.077211
1633.000000	0.077202
1632.000000	0.077145
1631.000000	0.076945
1630.000000	0.076567
1629.000000	0.076050
1628.000000	0.075416
1627.000000	0.074689
1626.000000	0.073910
1625.000000	0.073055
1624.000000	0.072040
1623.000000	0.070856
1622.000000	0.069662
1621.000000	0.068571
1620.000000	0.067573
1619.000000	0.066574
1618.000000	0.065412
1617.000000	0.063944
1616.000000	0.062287
1615.000000	0.060777
1614.000000	0.059571
1613.000000	0.058505
1612.000000	0.057357
1611.000000	0.056089
1610.000000	0.054847
1609.000000	0.053687
1608.000000	0.052546
1607.000000	0.051435
1606.000000	0.050440
1605.000000	0.049524
1604.000000	0.048611
1603.000000	0.047736
1602.000000	0.046975
1601.000000	0.046308
1600.000000	0.045672
1599.000000	0.045091
1598.000000	0.044616
1597.000000	0.044213
1596.000000	0.043808
1595.000000	0.043419
1594.000000	0.043126
1593.000000	0.042922
1592.000000	0.042741
1591.000000	0.042588
1590.000000	0.042527
1589.000000	0.042542
1588.000000	0.042574
1587.000000	0.042651
1586.000000	0.042846
1585.000000	0.043116
1584.000000	0.043368
1583.000000	0.043642
1582.000000	0.044009
1581.000000	0.044403
1580.000000	0.044738
1579.000000	0.045092
1578.000000	0.045583
1577.000000	0.046139
1576.000000	0.046561
1575.000000	0.046852
1574.000000	0.047177
1573.000000	0.047570
1572.000000	0.048000
1571.000000	0.048470
1570.000000	0.049026
1569.000000	0.049593
1568.000000	0.050075
1567.000000	0.050593
1566.000000	0.051255
1565.000000	0.051999
1564.000000	0.052678
1563.000000	0.053286
1562.000000	0.053896
1561.000000	0.054471
1560.000000	0.054961
1559.000000	0.055633
1558.000000	0.056549
1557.000000	0.057419
1556.000000	0.058196
1555.000000	0.058970
1554.000000	0.059720
1553.000000	0.060371
1552.000000	0.060966
1551.000000	0.061569
1550.000000	0.062157
1549.000000	0.062661
1548.000000	0.063074
1547.000000	0.063476
1546.000000	0.063919
1545.000000	0.064371
1544.000000	0.064748
1543.000000	0.065009
1542.000000	0.065210
1541.000000	0.065470
1540.000000	0.065739
1539.000000	0.065869
1538.000000	0.065875
1537.000000	0.065840
1536.000000	0.065802
1535.000000	0.065723
1534.000000	0.065538
1533.000000	0.065278
1532.000000	0.065037
1531.000000	0.064817
1530.000000	0.064590
1529.000000	0.064374
1528.000000	0.064152
1527.000000	0.063842
1526.000000	0.063394
1525.000000	0.062913
1524.000000	0.062530
1523.000000	0.062230
1522.000000	0.061871
1521.000000	0.061416
1520.000000	0.060947
1519.000000	0.060544
1518.000000	0.060191
1517.000000	0.059827
1516.000000	0.059402
1515.000000	0.058922
1514.000000	0.058405
1513.000000	0.057836
1512.000000	0.057205
1511.000000	0.056500
1510.000000	0.055747
1509.000000	0.054970
1508.000000	0.054107
1507.000000	0.052933
1506.000000	0.051610
1505.000000	0.050625
1504.000000	0.049972
1503.000000	0.049390
1502.000000	0.048719
1501.000000	0.047909
1500.000000	0.047035
1499.000000	0.046164
1498.000000	0.045245
1497.000000	0.044284
1496.000000	0.043387
1495.000000	0.042558
1494.000000	0.041764
1493.000000	0.041021
1492.000000	0.040318
1491.000000	0.039573
1490.000000	0.038767
1489.000000	0.038076
1488.000000	0.037613
1487.000000	0.037253
1486.000000	0.036950
1485.000000	0.036767
1484.000000	0.036691
1483.000000	0.036668
1482.000000	0.036653
1481.000000	0.036692
1480.000000	0.036816
1479.000000	0.036991
1478.000000	0.037198
1477.000000	0.037495
1476.000000	0.037912
1475.000000	0.038403
1474.000000	0.039049
1473.000000	0.040035
1472.000000	0.041370
1471.000000	0.042761
1470.000000	0.044043
1469.000000	0.045250
1468.000000	0.046376
1467.000000	0.047320
1466.000000	0.048047
1465.000000	0.048633
1464.000000	0.049165
1463.000000	0.049641
1462.000000	0.050050
1461.000000	0.050449
1460.000000	0.050905
1459.000000	0.051470
1458.000000	0.052132
1457.000000	0.052824
1456.000000	0.053404
1455.000000	0.053802
1454.000000	0.054082
1453.000000	0.054322
1452.000000	0.054515
1451.000000	0.054613
1450.000000	0.054621
1449.000000	0.054603
1448.000000	0.054599
1447.000000	0.054584
1446.000000	0.054549
1445.000000	0.054493
1444.000000	0.054428
1443.000000	0.054331
1442.000000	0.054160
1441.000000	0.053913
1440.000000	0.053647
1439.000000	0.053396
1438.000000	0.053082
1437.000000	0.052632
1436.000000	0.052114
1435.000000	0.051650
1434.000000	0.051248
1433.000000	0.050858
1432.000000	0.050435
1431.000000	0.049971
1430.000000	0.049484
1429.000000	0.049025
1428.000000	0.048657
1427.000000	0.048388
1426.000000	0.048173
1425.000000	0.047930
1424.000000	0.047683
1423.000000	0.047531
1422.000000	0.047492
1421.000000	0.047497
1420.000000	0.047497
1419.000000	0.047499
1418.000000	0.047450
1417.000000	0.047366
1416.000000	0.047342
1415.000000	0.047372
1414.000000	0.047364
1413.000000	0.047269
1412.000000	0.047141
1411.000000	0.047044
1410.000000	0.046963
1409.000000	0.046885
1408.000000	0.046849
1407.000000	0.046873
1406.000000	0.046920
1405.000000	0.046924
1404.000000	0.046893
1403.000000	0.046867
1402.000000	0.046821
1401.000000	0.046703
1400.000000	0.046505
1399.000000	0.046283
1398.000000	0.046086
1397.000000	0.045917
1396.000000	0.045750
1395.000000	0.045558
1394.000000	0.045319
1393.000000	0.045033
1392.000000	0.044764
1391.000000	0.044549
1390.000000	0.044360
1389.000000	0.044140
1388.000000	0.043868
1387.000000	0.043565
1386.000000	0.043273
1385.000000	0.043006
1384.000000	0.042765
1383.000000	0.042541
1382.000000	0.042325
1381.000000	0.042122
1380.000000	0.041915
1379.000000	0.041667
1378.000000	0.041344
1377.000000	0.040936
1376.000000	0.040446
1375.000000	0.039897
1374.000000	0.039326
1373.000000	0.038766
1372.000000	0.038244
1371.000000	0.037769
1370.000000	0.037333
1369.000000	0.036871
1368.000000	0.036341
1367.000000	0.035784
1366.000000	0.035265
1365.000000	0.034808
1364.000000	0.034382
1363.000000	0.033953
1362.000000	0.033542
1361.000000	0.033205
1360.000000	0.032964
1359.000000	0.032803
1358.000000	0.032699
1357.000000	0.032635
1356.000000	0.032610
1355.000000	0.032634
1354.000000	0.032715
1353.000000	0.032854
1352.000000	0.033035
1351.000000	0.033242
1350.000000	0.033492
1349.000000	0.033781
1348.000000	0.034089
1347.000000	0.034395
1346.000000	0.034703
1345.000000	0.035010
1344.000000	0.035310
1343.000000	0.035608
1342.000000	0.035919
1341.000000	0.036239
1340.000000	0.036531
1339.000000	0.036751
1338.000000	0.036884
1337.000000	0.036941
1336.000000	0.036945
1335.000000	0.036913
1334.000000	0.036853
1333.000000	0.036765
1332.000000	0.036638
1331.000000	0.036473
1330.000000	0.036285
1329.000000	0.036091
1328.000000	0.035896
1327.000000	0.035709
1326.000000	0.035549
1325.000000	0.035420
1324.000000	0.035321
1323.000000	0.035257
1322.000000	0.035224
1321.000000	0.035201
1320.000000	0.035175
1319.000000	0.035151
1318.000000	0.035132
1317.000000	0.035110
1316.000000	0.035076
1315.000000	0.035025
1314.000000	0.034941
1313.000000	0.034806
1312.000000	0.034627
1311.000000	0.034438
1310.000000	0.034267
1309.000000	0.034109
1308.000000	0.033943
1307.000000	0.033757
1306.000000	0.033563
1305.000000	0.033372
1304.000000	0.033195
1303.000000	0.033037
1302.000000	0.032887
1301.000000	0.032724
1300.000000	0.032547
1299.000000	0.032376
1298.000000	0.032228
1297.000000	0.032105
1296.000000	0.032009
1295.000000	0.031950
1294.000000	0.031940
1293.000000	0.031977
1292.000000	0.032061
1291.000000	0.032189
1290.000000	0.032350
1289.000000	0.032528
1288.000000	0.032720
1287.000000	0.032934
1286.000000	0.033168
1285.000000	0.033410
1284.000000	0.033647
1283.000000	0.033863
1282.000000	0.034037
1281.000000	0.034160
1280.000000	0.034249
1279.000000	0.034325
1278.000000	0.034391
1277.000000	0.034436
1276.000000	0.034456
1275.000000	0.034461
1274.000000	0.034455
1273.000000	0.034440
1272.000000	0.034432
1271.000000	0.034455
1270.000000	0.034518
1269.000000	0.034611
1268.000000	0.034726
1267.000000	0.034864
1266.000000	0.035020
1265.000000	0.035178
1264.000000	0.035336
1263.000000	0.035505
1262.000000	0.035685
1261.000000	0.035875
1260.000000	0.036081
1259.000000	0.036318
1258.000000	0.036580
1257.000000	0.036845
1256.000000	0.037107
1255.000000	0.037380
1254.000000	0.037677
1253.000000	0.037993
1252.000000	0.038333
1251.000000	0.038710
1250.000000	0.039121
1249.000000	0.039534
1248.000000	0.039920
1247.000000	0.040278
1246.000000	0.040626
1245.000000	0.040978
1244.000000	0.041331
1243.000000	0.041670
1242.000000	0.041974
1241.000000	0.042224
1240.000000	0.042406
1239.000000	0.042509
1238.000000	0.042534
1237.000000	0.042488
1236.000000	0.042387
1235.000000	0.042243
1234.000000	0.042052
1233.000000	0.041812
1232.000000	0.041532
1231.000000	0.041228
1230.000000	0.040892
1229.000000	0.040504
1228.000000	0.040062
1227.000000	0.039589
1226.000000	0.039096
1225.000000	0.038569
1224.000000	0.037984
1223.000000	0.037336
1222.000000	0.036633
1221.000000	0.035882
1220.000000	0.035108
1219.000000	0.034375
1218.000000	0.033762
1217.000000	0.033327
1216.000000	0.033081
1215.000000	0.032981
1214.000000	0.032953
1213.000000	0.032934
1212.000000	0.032913
1211.000000	0.032912
1210.000000	0.032945
1209.000000	0.033000
1208.000000	0.033069
1207.000000	0.033155
1206.000000	0.033260
1205.000000	0.033366
1204.000000	0.033453
1203.000000	0.033513
1202.000000	0.033539
1201.000000	0.033519
1200.000000	0.033451
1199.000000	0.033349
1198.000000	0.033225
1197.000000	0.033075
1196.000000	0.032892
1195.000000	0.032680
1194.000000	0.032456
1193.000000	0.032234
1192.000000	0.032023
1191.000000	0.031825
1190.000000	0.031638
1189.000000	0.031461
1188.000000	0.031302
1187.000000	0.031167
1186.000000	0.031053
1185.000000	0.030961
1184.000000	0.030905
1183.000000	0.030905
1182.000000	0.030962
1181.000000	0.031054
1180.000000	0.031170
1179.000000	0.031308
1178.000000	0.031473
1177.000000	0.031661
1176.000000	0.031870
1175.000000	0.032102
1174.000000	0.032354
1173.000000	0.032625
1172.000000	0.032917
1171.000000	0.033224
1170.000000	0.033533
1169.000000	0.033830
1168.000000	0.034119
1167.000000	0.034415
1166.000000	0.034717
1165.000000	0.035005
1164.000000	0.035257
1163.000000	0.035457
1162.000000	0.035593
1161.000000	0.035655
1160.000000	0.035644
1159.000000	0.035570
1158.000000	0.035432
1157.000000	0.035232
1156.000000	0.034974
1155.000000	0.034676
1154.000000	0.034350
1153.000000	0.034001
1152.000000	0.033642
1151.000000	0.033289
1150.000000	0.032944
1149.000000	0.032595
1148.000000	0.032234
1147.000000	0.031872
1146.000000	0.031525
1145.000000	0.031187
1144.000000	0.030843
1143.000000	0.030475
1142.000000	0.030068
1141.000000	0.029617
1140.000000	0.029134
1139.000000	0.028642
1138.000000	0.028158
1137.000000	0.027690
1136.000000	0.027244
1135.000000	0.026833
1134.000000	0.026459
1133.000000	0.026124
1132.000000	0.025840
1131.000000	0.025628
1130.000000	0.025498
1129.000000	0.025438
1128.000000	0.025438
1127.000000	0.025491
1126.000000	0.025591
1125.000000	0.025729
1124.000000	0.025909
1123.000000	0.026129
1122.000000	0.026368
1121.000000	0.026587
1120.000000	0.026768
1119.000000	0.026921
1118.000000	0.027056
1117.000000	0.027175
1116.000000	0.027283
1115.000000	0.027391
1114.000000	0.027489
1113.000000	0.027554
1112.000000	0.027574
1111.000000	0.027568
1110.000000	0.027567
1109.000000	0.027594
1108.000000	0.027666
1107.000000	0.027785
1106.000000	0.027938
1105.000000	0.028096
1104.000000	0.028248
1103.000000	0.028393
1102.000000	0.028527
1101.000000	0.028644
1100.000000	0.028756
1099.000000	0.028876
1098.000000	0.028994
1097.000000	0.029086
1096.000000	0.029138
1095.000000	0.029176
1094.000000	0.029234
1093.000000	0.029335
1092.000000	0.029484
1091.000000	0.029684
1090.000000	0.029937
1089.000000	0.030238
1088.000000	0.030579
1087.000000	0.030951
1086.000000	0.031331
1085.000000	0.031684
1084.000000	0.031969
1083.000000	0.032158
1082.000000	0.032236
1081.000000	0.032208
1080.000000	0.032095
1079.000000	0.031916
1078.000000	0.031677
1077.000000	0.031384
1076.000000	0.031058
1075.000000	0.030732
1074.000000	0.030419
1073.000000	0.030112
1072.000000	0.029809
1071.000000	0.029535
1070.000000	0.029325
1069.000000	0.029203
1068.000000	0.029175
1067.000000	0.029226
1066.000000	0.029322
1065.000000	0.029422
1064.000000	0.029505
1063.000000	0.029573
1062.000000	0.029630
1061.000000	0.029672
1060.000000	0.029693
1059.000000	0.029690
1058.000000	0.029664
1057.000000	0.029610
1056.000000	0.029532
1055.000000	0.029443
1054.000000	0.029354
1053.000000	0.029270
1052.000000	0.029195
1051.000000	0.029124
1050.000000	0.029043
1049.000000	0.028943
1048.000000	0.028837
1047.000000	0.028753
1046.000000	0.028701
1045.000000	0.028667
1044.000000	0.028641
1043.000000	0.028625
1042.000000	0.028630
1041.000000	0.028668
1040.000000	0.028762
1039.000000	0.028930
1038.000000	0.029167
1037.000000	0.029454
1036.000000	0.029777
1035.000000	0.030130
1034.000000	0.030490
1033.000000	0.030817
1032.000000	0.031077
1031.000000	0.031255
1030.000000	0.031352
1029.000000	0.031372
1028.000000	0.031335
1027.000000	0.031272
1026.000000	0.031209
1025.000000	0.031148
1024.000000	0.031089
1023.000000	0.031038
1022.000000	0.030997
1021.000000	0.030954
1020.000000	0.030893
1019.000000	0.030813
1018.000000	0.030713
1017.000000	0.030577
1016.000000	0.030376
1015.000000	0.030087
1014.000000	0.029703
1013.000000	0.029236
1012.000000	0.028715
1011.000000	0.028180
1010.000000	0.027669
1009.000000	0.027195
1008.000000	0.026744
1007.000000	0.026301
1006.000000	0.025862
1005.000000	0.025438
1004.000000	0.025047
1003.000000	0.024691
1002.000000	0.024349
1001.000000	0.023997
1000.000000	0.023631
999.000000	0.023269
998.000000	0.022922
997.000000	0.022585
996.000000	0.022260
995.000000	0.021954
994.000000	0.021663
993.000000	0.021372
992.000000	0.021070
991.000000	0.020762
990.000000	0.020464
989.000000	0.020191
988.000000	0.019952
987.000000	0.019738
986.000000	0.019518
985.000000	0.019270
984.000000	0.019020
983.000000	0.018823
982.000000	0.018702
981.000000	0.018628
980.000000	0.018567
979.000000	0.018507
978.000000	0.018442
977.000000	0.018358
976.000000	0.018251
975.000000	0.018140
974.000000	0.018046
973.000000	0.017959
972.000000	0.017863
971.000000	0.017754
970.000000	0.017632
969.000000	0.017489
968.000000	0.017317
967.000000	0.017116
966.000000	0.016894
965.000000	0.016660
964.000000	0.016433
963.000000	0.016229
962.000000	0.016044
961.000000	0.015845
960.000000	0.015608
959.000000	0.015341
958.000000	0.015070
957.000000	0.014812
956.000000	0.014578
955.000000	0.014378
954.000000	0.014211
953.000000	0.014048
952.000000	0.013862
951.000000	0.013651
950.000000	0.013436
949.000000	0.013241
948.000000	0.013085
947.000000	0.012976
946.000000	0.012904
945.000000	0.012852
944.000000	0.012812
943.000000	0.012785
942.000000	0.012768
941.000000	0.012741
940.000000	0.012690
939.000000	0.012612
938.000000	0.012508
937.000000	0.012389
936.000000	0.012283
935.000000	0.012213
934.000000	0.012172
933.000000	0.012117
932.000000	0.012023
931.000000	0.011899
930.000000	0.011773
929.000000	0.011661
928.000000	0.011578
927.000000	0.011535
926.000000	0.011519
925.000000	0.011500
924.000000	0.011455
923.000000	0.011393
922.000000	0.011327
921.000000	0.011257
920.000000	0.011168
919.000000	0.011054
918.000000	0.010917
917.000000	0.010765
916.000000	0.010618
915.000000	0.010496
914.000000	0.010387
913.000000	0.010262
912.000000	0.010112
911.000000	0.009956
910.000000	0.009810
909.000000	0.009672
908.000000	0.009545
907.000000	0.009457
906.000000	0.009421
905.000000	0.009412
904.000000	0.009390
903.000000	0.009338
902.000000	0.009258
901.000000	0.009160
900.000000	0.009070
899.000000	0.009029
898.000000	0.009050
897.000000	0.009094
896.000000	0.009101
895.000000	0.009050
894.000000	0.008970
893.000000	0.008895
892.000000	0.008850
891.000000	0.008837
890.000000	0.008851
889.000000	0.008878
888.000000	0.008919
887.000000	0.008988
886.000000	0.009103
885.000000	0.009275
884.000000	0.009516
883.000000	0.009839
882.000000	0.010251
881.000000	0.010748
880.000000	0.011325
879.000000	0.011960
878.000000	0.012591
877.000000	0.013114
876.000000	0.013434
875.000000	0.013503
874.000000	0.013326
873.000000	0.012938
872.000000	0.012411
871.000000	0.011844
870.000000	0.011322
869.000000	0.010888
868.000000	0.010551
867.000000	0.010307
866.000000	0.010138
865.000000	0.010007
864.000000	0.009885
863.000000	0.009783
862.000000	0.009725
861.000000	0.009712
860.000000	0.009709
859.000000	0.009693
858.000000	0.009675
857.000000	0.009683
856.000000	0.009723
855.000000	0.009771
854.000000	0.009798
853.000000	0.009800
852.000000	0.009803
851.000000	0.009826
850.000000	0.009860
849.000000	0.009870
848.000000	0.009828
847.000000	0.009738
846.000000	0.009618
845.000000	0.009495
844.000000	0.009396
843.000000	0.009336
842.000000	0.009318
841.000000	0.009324
840.000000	0.009331
839.000000	0.009317
838.000000	0.009271
837.000000	0.009204
836.000000	0.009149
835.000000	0.009122
834.000000	0.009105
833.000000	0.009059
832.000000	0.008978
831.000000	0.008888
830.000000	0.008820
829.000000	0.008786
828.000000	0.008790
827.000000	0.008833
826.000000	0.008891
825.000000	0.008932
824.000000	0.008950
823.000000	0.008962
822.000000	0.008975
821.000000	0.008979
820.000000	0.008985
819.000000	0.009022
818.000000	0.009096
817.000000	0.009170
816.000000	0.009210
815.000000	0.009222
814.000000	0.009230
813.000000	0.009234
812.000000	0.009220
811.000000	0.009184
810.000000	0.009132
809.000000	0.009068
808.000000	0.008999
807.000000	0.008945
806.000000	0.008920
805.000000	0.008911
804.000000	0.008894
803.000000	0.008875
802.000000	0.008884
801.000000	0.008922
800.000000	0.008957
799.000000	0.008963
798.000000	0.008948
797.000000	0.008938
796.000000	0.008952
795.000000	0.009000
794.000000	0.009086
793.000000	0.009202
792.000000	0.009313
791.000000	0.009380
790.000000	0.009394
789.000000	0.009376
788.000000	0.009352
787.000000	0.009333
786.000000	0.009323
785.000000	0.009339
784.000000	0.009399
783.000000	0.009497
782.000000	0.009599
781.000000	0.009665
780.000000	0.009683
779.000000	0.009660
778.000000	0.009611
777.000000	0.009549
776.000000	0.009492
775.000000	0.009465
774.000000	0.009481
773.000000	0.009533
772.000000	0.009602
771.000000	0.009675
770.000000	0.009753
769.000000	0.009845
768.000000	0.009955
767.000000	0.010062
766.000000	0.010132
765.000000	0.010147
764.000000	0.010130
763.000000	0.010125
762.000000	0.010154
761.000000	0.010205
760.000000	0.010261
759.000000	0.010321
758.000000	0.010393
757.000000	0.010473
756.000000	0.010549
755.000000	0.010607
754.000000	0.010647
753.000000	0.010680
752.000000	0.010723
751.000000	0.010784
750.000000	0.010847
749.000000	0.010889
748.000000	0.010909
747.000000	0.010941
746.000000	0.011013
745.000000	0.011128
744.000000	0.011267
743.000000	0.011410
742.000000	0.011539
741.000000	0.011646
740.000000	0.011748
739.000000	0.011873
738.000000	0.012026
737.000000	0.012168
736.000000	0.012258
735.000000	0.012302
734.000000	0.012356
733.000000	0.012470
732.000000	0.012663
731.000000	0.012924
730.000000	0.013226
729.000000	0.013541
728.000000	0.013853
727.000000	0.014154
726.000000	0.014447
725.000000	0.014744
724.000000	0.015045
723.000000	0.015324
722.000000	0.015534
721.000000	0.015637
720.000000	0.015641
719.000000	0.015618
718.000000	0.015648
717.000000	0.015746
716.000000	0.015860
715.000000	0.015936
714.000000	0.015963
713.000000	0.015961
712.000000	0.015939
711.000000	0.015894
710.000000	0.015835
709.000000	0.015801
708.000000	0.015833
707.000000	0.015935
706.000000	0.016082
705.000000	0.016243
704.000000	0.016395
703.000000	0.016525
702.000000	0.016628
701.000000	0.016700
700.000000	0.016735
699.000000	0.016723
698.000000	0.016671
697.000000	0.016615
696.000000	0.016594
695.000000	0.016619
694.000000	0.016651
693.000000	0.016637
692.000000	0.016566
691.000000	0.016466
690.000000	0.016380
689.000000	0.016345
688.000000	0.016393
687.000000	0.016530
686.000000	0.016706
685.000000	0.016848
684.000000	0.016933
683.000000	0.017001
682.000000	0.017073
681.000000	0.017126
680.000000	0.017147
679.000000	0.017174
678.000000	0.017241
677.000000	0.017361
676.000000	0.017524
675.000000	0.017693
674.000000	0.017834
673.000000	0.017938
672.000000	0.017993
671.000000	0.017933
670.000000	0.017656
669.000000	0.017149
668.000000	0.016799
667.000000	0.017106
666.000000	0.017573
665.000000	0.017900
664.000000	0.018120
663.000000	0.018228
662.000000	0.018252
661.000000	0.018272
660.000000	0.018315
659.000000	0.018307
658.000000	0.018200
657.000000	0.018080
656.000000	0.018048
655.000000	0.018077
654.000000	0.018103
653.000000	0.018128
652.000000	0.018136
651.000000	0.018056
650.000000	0.017889
649.000000	0.017770
648.000000	0.017798
647.000000	0.017910
646.000000	0.017989
645.000000	0.017999
644.000000	0.017957
643.000000	0.017876
642.000000	0.017771
641.000000	0.017668
640.000000	0.017575
639.000000	0.017479
638.000000	0.017406
637.000000	0.017400
636.000000	0.017429
635.000000	0.017418
634.000000	0.017366
633.000000	0.017351
632.000000	0.017406
631.000000	0.017479
630.000000	0.017538
629.000000	0.017614
628.000000	0.017701
627.000000	0.017732
626.000000	0.017705
625.000000	0.017711
624.000000	0.017794
623.000000	0.017880
622.000000	0.017896
621.000000	0.017866
620.000000	0.017838
619.000000	0.017809
618.000000	0.017779
617.000000	0.017802
616.000000	0.017902
615.000000	0.018009
614.000000	0.018054
613.000000	0.018063
612.000000	0.018086
611.000000	0.018093
610.000000	0.018037
609.000000	0.017944
608.000000	0.017870
607.000000	0.017823
606.000000	0.017796
605.000000	0.017815
604.000000	0.017875
603.000000	0.017902
602.000000	0.017838
601.000000	0.017735
600.000000	0.017687
599.000000	0.017727
598.000000	0.017826
597.000000	0.017950
596.000000	0.018067
595.000000	0.018130
594.000000	0.018121
593.000000	0.018087
592.000000	0.018085
591.000000	0.018118
590.000000	0.018156
589.000000	0.018176
588.000000	0.018137
587.000000	0.017995
586.000000	0.017767
585.000000	0.017563
584.000000	0.017476
583.000000	0.017489
582.000000	0.017528
581.000000	0.017560
580.000000	0.017582
579.000000	0.017570
578.000000	0.017502
577.000000	0.017424
576.000000	0.017430
575.000000	0.017554
574.000000	0.017740
573.000000	0.017909
572.000000	0.018031
571.000000	0.018111
570.000000	0.018186
569.000000	0.018296
568.000000	0.018440
567.000000	0.018567
566.000000	0.018656
565.000000	0.018760
564.000000	0.018921
563.000000	0.019079
562.000000	0.019143
561.000000	0.019126
560.000000	0.019117
559.000000	0.019125
558.000000	0.019067
557.000000	0.018909
556.000000	0.018720
555.000000	0.018569
554.000000	0.018468
553.000000	0.018430
552.000000	0.018481
551.000000	0.018575
550.000000	0.018595
549.000000	0.018456
548.000000	0.018201
547.000000	0.017948
546.000000	0.017793
545.000000	0.017750
544.000000	0.017743
543.000000	0.017664
542.000000	0.017488
541.000000	0.017320
540.000000	0.017283
539.000000	0.017385
538.000000	0.017530
537.000000	0.017663
536.000000	0.017797
535.000000	0.017940
534.000000	0.018047
533.000000	0.018103
532.000000	0.018114
531.000000	0.018046
530.000000	0.017868
529.000000	0.017635
528.000000	0.017440
527.000000	0.017321
526.000000	0.017248
525.000000	0.017191
524.000000	0.017159
523.000000	0.017153
522.000000	0.017140
521.000000	0.017092
520.000000	0.016991
519.000000	0.016802
518.000000	0.016513
517.000000	0.016168
516.000000	0.015825
515.000000	0.015505
514.000000	0.015243
513.000000	0.015127
512.000000	0.015162
511.000000	0.015180
510.000000	0.015014
509.000000	0.014721
508.000000	0.014463
507.000000	0.014291
506.000000	0.014151
505.000000	0.014053
504.000000	0.014073
503.000000	0.014174
502.000000	0.014193
501.000000	0.014046
500.000000	0.013828
499.000000	0.013678
498.000000	0.013626
497.000000	0.013609
496.000000	0.013556
495.000000	0.013446
494.000000	0.013318
493.000000	0.013206
492.000000	0.013035
491.000000	0.012734
490.000000	0.012390
489.000000	0.012202
488.000000	0.012210
487.000000	0.012208
486.000000	0.012005
485.000000	0.011646
484.000000	0.011322
483.000000	0.011148
482.000000	0.011133
481.000000	0.011245
480.000000	0.011430
479.000000	0.011621
478.000000	0.011757
477.000000	0.011828
476.000000	0.011820
475.000000	0.011678
474.000000	0.011381
473.000000	0.011057
472.000000	0.010900
471.000000	0.011004
470.000000	0.011274
469.000000	0.011562
468.000000	0.011795
467.000000	0.011958
466.000000	0.012051
465.000000	0.012090
464.000000	0.012007
463.000000	0.011638
462.000000	0.010975
461.000000	0.010313
460.000000	0.009961
459.000000	0.009841
458.000000	0.009549
457.000000	0.008954
456.000000	0.008430
455.000000	0.008286
454.000000	0.008445
453.000000	0.008725
452.000000	0.009043
451.000000	0.009324
450.000000	0.009343
