PE UV       SUBTECH     SPECTRUM    ASCII       PEDS        4.00        
   -1
AgChevreUK 42.Sample.asc
18/03/06
16:51:05.00
18/03/06
16:51:05.00
Administrator

200.000000
1
Lambda 750
750N8071901
PerkinElmer UV WinLab 6.0.4.0738 / 1.61.00 Lambda 900

0
0
3350/servo 860.8/2
0
0
UV/VIS
1
1
1
CommonBeamDepol,150mm sphere / downward view
0
0
0
0
Program
Program
3350/servo 860.8/2
3350/0.2 860.8/0.2
3350/0.2 860.8/0.2
0
1
 
 
 
0
 
860.8
319.2
860.8
Front
100
on
 
 
0
0
0
 
0
 
 
 
0
 
 
0
0
0
0
0
 
 
 
 
0
0


0
0
#HDR
-1
-1
#GR
nm
A
1.0
0.0
2350.000000
-1.000000
2151
8
0.982737
-0.015078
#DATA
2350.000000	0.381390
2349.000000	0.382307
2348.000000	0.383440
2347.000000	0.367895
2346.000000	0.380672
2345.000000	0.378301
2344.000000	0.381020
2343.000000	0.384084
2342.000000	0.378316
2341.000000	0.378976
2340.000000	0.384918
2339.000000	0.367734
2338.000000	0.365744
2337.000000	0.372158
2336.000000	0.373715
2335.000000	0.366113
2334.000000	0.365714
2333.000000	0.365512
2332.000000	0.363655
2331.000000	0.372923
2330.000000	0.371713
2329.000000	0.373323
2328.000000	0.365314
2327.000000	0.370870
2326.000000	0.372227
2325.000000	0.370278
2324.000000	0.368127
2323.000000	0.375434
2322.000000	0.376129
2321.000000	0.370011
2320.000000	0.370926
2319.000000	0.373378
2318.000000	0.374938
2317.000000	0.372861
2316.000000	0.375580
2315.000000	0.376422
2314.000000	0.377511
2313.000000	0.377322
2312.000000	0.382869
2311.000000	0.380728
2310.000000	0.383558
2309.000000	0.385893
2308.000000	0.385629
2307.000000	0.389060
2306.000000	0.386772
2305.000000	0.390906
2304.000000	0.389301
2303.000000	0.392086
2302.000000	0.396156
2301.000000	0.394570
2300.000000	0.398823
2299.000000	0.399472
2298.000000	0.400729
2297.000000	0.403359
2296.000000	0.400022
2295.000000	0.401168
2294.000000	0.403241
2293.000000	0.405739
2292.000000	0.409953
2291.000000	0.408666
2290.000000	0.407371
2289.000000	0.409640
2288.000000	0.409851
2287.000000	0.408501
2286.000000	0.409594
2285.000000	0.409516
2284.000000	0.410127
2283.000000	0.416734
2282.000000	0.414402
2281.000000	0.411016
2280.000000	0.414385
2279.000000	0.412760
2278.000000	0.411361
2277.000000	0.414422
2276.000000	0.413375
2275.000000	0.409913
2274.000000	0.409679
2273.000000	0.410326
2272.000000	0.409153
2271.000000	0.409819
2270.000000	0.410716
2269.000000	0.408017
2268.000000	0.406509
2267.000000	0.406985
2266.000000	0.404235
2265.000000	0.398917
2264.000000	0.396973
2263.000000	0.401090
2262.000000	0.399086
2261.000000	0.394670
2260.000000	0.393387
2259.000000	0.391111
2258.000000	0.387673
2257.000000	0.385267
2256.000000	0.381856
2255.000000	0.379160
2254.000000	0.374584
2253.000000	0.372670
2252.000000	0.371436
2251.000000	0.365540
2250.000000	0.362361
2249.000000	0.359838
2248.000000	0.358009
2247.000000	0.355796
2246.000000	0.351716
2245.000000	0.348476
2244.000000	0.345015
2243.000000	0.342340
2242.000000	0.341119
2241.000000	0.338724
2240.000000	0.337129
2239.000000	0.335393
2238.000000	0.332856
2237.000000	0.330354
2236.000000	0.329014
2235.000000	0.328571
2234.000000	0.327807
2233.000000	0.325956
2232.000000	0.325841
2231.000000	0.324701
2230.000000	0.324219
2229.000000	0.322943
2228.000000	0.321146
2227.000000	0.322630
2226.000000	0.323715
2225.000000	0.323880
2224.000000	0.324938
2223.000000	0.324760
2222.000000	0.322443
2221.000000	0.323567
2220.000000	0.325143
2219.000000	0.324677
2218.000000	0.327037
2217.000000	0.328173
2216.000000	0.325969
2215.000000	0.327200
2214.000000	0.328117
2213.000000	0.328803
2212.000000	0.328796
2211.000000	0.330078
2210.000000	0.333444
2209.000000	0.331326
2208.000000	0.333690
2207.000000	0.334273
2206.000000	0.333472
2205.000000	0.335796
2204.000000	0.335989
2203.000000	0.339421
2202.000000	0.340238
2201.000000	0.338527
2200.000000	0.340374
2199.000000	0.343038
2198.000000	0.342873
2197.000000	0.343347
2196.000000	0.347552
2195.000000	0.350063
2194.000000	0.349826
2193.000000	0.350567
2192.000000	0.351140
2191.000000	0.350674
2190.000000	0.351483
2189.000000	0.353167
2188.000000	0.352490
2187.000000	0.355857
2186.000000	0.356194
2185.000000	0.355976
2184.000000	0.357269
2183.000000	0.357518
2182.000000	0.357959
2181.000000	0.361107
2180.000000	0.359004
2179.000000	0.357054
2178.000000	0.359852
2177.000000	0.357277
2176.000000	0.358932
2175.000000	0.355980
2174.000000	0.356930
2173.000000	0.357124
2172.000000	0.357753
2171.000000	0.355571
2170.000000	0.356231
2169.000000	0.354572
2168.000000	0.351758
2167.000000	0.352318
2166.000000	0.349344
2165.000000	0.349560
2164.000000	0.347695
2163.000000	0.346910
2162.000000	0.344701
2161.000000	0.344788
2160.000000	0.343780
2159.000000	0.338894
2158.000000	0.336137
2157.000000	0.335031
2156.000000	0.332497
2155.000000	0.333250
2154.000000	0.329315
2153.000000	0.325628
2152.000000	0.324044
2151.000000	0.324252
2150.000000	0.323011
2149.000000	0.320007
2148.000000	0.317582
2147.000000	0.313562
2146.000000	0.312894
2145.000000	0.310467
2144.000000	0.306971
2143.000000	0.306740
2142.000000	0.304626
2141.000000	0.300011
2140.000000	0.302658
2139.000000	0.297543
2138.000000	0.295232
2137.000000	0.292837
2136.000000	0.294466
2135.000000	0.293374
2134.000000	0.291980
2133.000000	0.290501
2132.000000	0.289370
2131.000000	0.286261
2130.000000	0.285015
2129.000000	0.284692
2128.000000	0.284297
2127.000000	0.282856
2126.000000	0.283266
2125.000000	0.281919
2124.000000	0.280978
2123.000000	0.280665
2122.000000	0.278966
2121.000000	0.278732
2120.000000	0.279734
2119.000000	0.279232
2118.000000	0.275442
2117.000000	0.275975
2116.000000	0.274451
2115.000000	0.274229
2114.000000	0.274891
2113.000000	0.275121
2112.000000	0.274084
2111.000000	0.274602
2110.000000	0.274628
2109.000000	0.272243
2108.000000	0.272192
2107.000000	0.272411
2106.000000	0.272722
2105.000000	0.274035
2104.000000	0.272580
2103.000000	0.271585
2102.000000	0.271922
2101.000000	0.270935
2100.000000	0.270656
2099.000000	0.270587
2098.000000	0.272270
2097.000000	0.271601
2096.000000	0.272347
2095.000000	0.271349
2094.000000	0.270803
2093.000000	0.270650
2092.000000	0.271351
2091.000000	0.271605
2090.000000	0.272743
2089.000000	0.273552
2088.000000	0.273248
2087.000000	0.273903
2086.000000	0.273484
2085.000000	0.273689
2084.000000	0.276512
2083.000000	0.276852
2082.000000	0.276118
2081.000000	0.278015
2080.000000	0.280275
2079.000000	0.279310
2078.000000	0.280558
2077.000000	0.282249
2076.000000	0.283056
2075.000000	0.284074
2074.000000	0.285038
2073.000000	0.287548
2072.000000	0.288577
2071.000000	0.288909
2070.000000	0.290422
2069.000000	0.294057
2068.000000	0.295815
2067.000000	0.297057
2066.000000	0.299594
2065.000000	0.301516
2064.000000	0.302465
2063.000000	0.304536
2062.000000	0.307102
2061.000000	0.309973
2060.000000	0.312296
2059.000000	0.311977
2058.000000	0.314768
2057.000000	0.317906
2056.000000	0.319651
2055.000000	0.321592
2054.000000	0.322940
2053.000000	0.324757
2052.000000	0.327308
2051.000000	0.329237
2050.000000	0.330945
2049.000000	0.331619
2048.000000	0.332618
2047.000000	0.333548
2046.000000	0.335200
2045.000000	0.336596
2044.000000	0.336280
2043.000000	0.335907
2042.000000	0.336153
2041.000000	0.335549
2040.000000	0.335281
2039.000000	0.335388
2038.000000	0.335374
2037.000000	0.334979
2036.000000	0.334571
2035.000000	0.332957
2034.000000	0.331112
2033.000000	0.329732
2032.000000	0.328671
2031.000000	0.327939
2030.000000	0.325770
2029.000000	0.323665
2028.000000	0.321779
2027.000000	0.319174
2026.000000	0.317862
2025.000000	0.317629
2024.000000	0.316374
2023.000000	0.314657
2022.000000	0.314479
2021.000000	0.314758
2020.000000	0.312889
2019.000000	0.311894
2018.000000	0.312378
2017.000000	0.312198
2016.000000	0.311793
2015.000000	0.311848
2014.000000	0.312245
2013.000000	0.312381
2012.000000	0.312736
2011.000000	0.313176
2010.000000	0.313329
2009.000000	0.314356
2008.000000	0.315171
2007.000000	0.316037
2006.000000	0.317332
2005.000000	0.318982
2004.000000	0.320451
2003.000000	0.321274
2002.000000	0.322408
2001.000000	0.323853
2000.000000	0.324883
1999.000000	0.325728
1998.000000	0.327671
1997.000000	0.329223
1996.000000	0.330572
1995.000000	0.331609
1994.000000	0.333327
1993.000000	0.335788
1992.000000	0.337207
1991.000000	0.338013
1990.000000	0.339151
1989.000000	0.341544
1988.000000	0.343322
1987.000000	0.344346
1986.000000	0.346276
1985.000000	0.347888
1984.000000	0.349127
1983.000000	0.350271
1982.000000	0.351591
1981.000000	0.352953
1980.000000	0.355428
1979.000000	0.356600
1978.000000	0.358012
1977.000000	0.359757
1976.000000	0.360902
1975.000000	0.363157
1974.000000	0.363726
1973.000000	0.364831
1972.000000	0.367256
1971.000000	0.368864
1970.000000	0.370841
1969.000000	0.371608
1968.000000	0.372050
1967.000000	0.373335
1966.000000	0.375092
1965.000000	0.376304
1964.000000	0.378753
1963.000000	0.379518
1962.000000	0.381112
1961.000000	0.382215
1960.000000	0.383285
1959.000000	0.384583
1958.000000	0.386181
1957.000000	0.386906
1956.000000	0.388682
1955.000000	0.389513
1954.000000	0.389669
1953.000000	0.390484
1952.000000	0.390388
1951.000000	0.391484
1950.000000	0.392032
1949.000000	0.394040
1948.000000	0.393916
1947.000000	0.394272
1946.000000	0.394502
1945.000000	0.394239
1944.000000	0.393512
1943.000000	0.394374
1942.000000	0.394713
1941.000000	0.394198
1940.000000	0.391252
1939.000000	0.391568
1938.000000	0.390242
1937.000000	0.389650
1936.000000	0.387435
1935.000000	0.385255
1934.000000	0.383049
1933.000000	0.380368
1932.000000	0.380465
1931.000000	0.378203
1930.000000	0.373984
1929.000000	0.373410
1928.000000	0.368288
1927.000000	0.365608
1926.000000	0.362666
1925.000000	0.356737
1924.000000	0.355798
1923.000000	0.350706
1922.000000	0.346535
1921.000000	0.342074
1920.000000	0.337990
1919.000000	0.334818
1918.000000	0.331254
1917.000000	0.327262
1916.000000	0.322365
1915.000000	0.315127
1914.000000	0.309401
1913.000000	0.303604
1912.000000	0.299170
1911.000000	0.294359
1910.000000	0.288146
1909.000000	0.282629
1908.000000	0.276988
1907.000000	0.269348
1906.000000	0.264485
1905.000000	0.257044
1904.000000	0.250742
1903.000000	0.245557
1902.000000	0.239806
1901.000000	0.233336
1900.000000	0.226929
1899.000000	0.220501
1898.000000	0.213856
1897.000000	0.207783
1896.000000	0.202514
1895.000000	0.196354
1894.000000	0.190590
1893.000000	0.185157
1892.000000	0.180135
1891.000000	0.175545
1890.000000	0.169495
1889.000000	0.165204
1888.000000	0.160906
1887.000000	0.156095
1886.000000	0.152090
1885.000000	0.147775
1884.000000	0.143821
1883.000000	0.139579
1882.000000	0.136186
1881.000000	0.132779
1880.000000	0.128713
1879.000000	0.125976
1878.000000	0.123164
1877.000000	0.120677
1876.000000	0.118272
1875.000000	0.115066
1874.000000	0.113001
1873.000000	0.110163
1872.000000	0.107973
1871.000000	0.106518
1870.000000	0.105099
1869.000000	0.103258
1868.000000	0.101422
1867.000000	0.100608
1866.000000	0.099279
1865.000000	0.098300
1864.000000	0.097215
1863.000000	0.096120
1862.000000	0.095778
1861.000000	0.094988
1860.000000	0.094008
1859.000000	0.093548
1858.000000	0.093454
1857.000000	0.092948
1856.000000	0.092566
1855.000000	0.092312
1854.000000	0.092371
1853.000000	0.091778
1852.000000	0.092079
1851.000000	0.091911
1850.000000	0.091609
1849.000000	0.091730
1848.000000	0.091479
1847.000000	0.091401
1846.000000	0.091700
1845.000000	0.092286
1844.000000	0.092392
1843.000000	0.092411
1842.000000	0.092439
1841.000000	0.092855
1840.000000	0.093111
1839.000000	0.093406
1838.000000	0.093943
1837.000000	0.094465
1836.000000	0.094684
1835.000000	0.094929
1834.000000	0.095518
1833.000000	0.095960
1832.000000	0.096451
1831.000000	0.096832
1830.000000	0.097118
1829.000000	0.097882
1828.000000	0.098352
1827.000000	0.098473
1826.000000	0.099064
1825.000000	0.099454
1824.000000	0.099761
1823.000000	0.100205
1822.000000	0.100741
1821.000000	0.101254
1820.000000	0.101597
1819.000000	0.102047
1818.000000	0.102543
1817.000000	0.102750
1816.000000	0.103063
1815.000000	0.103460
1814.000000	0.103888
1813.000000	0.104521
1812.000000	0.104900
1811.000000	0.105123
1810.000000	0.105541
1809.000000	0.105915
1808.000000	0.106304
1807.000000	0.106816
1806.000000	0.107058
1805.000000	0.107421
1804.000000	0.107751
1803.000000	0.108173
1802.000000	0.108681
1801.000000	0.109036
1800.000000	0.109408
1799.000000	0.109736
1798.000000	0.110123
1797.000000	0.110598
1796.000000	0.110845
1795.000000	0.111101
1794.000000	0.111229
1793.000000	0.111687
1792.000000	0.112112
1791.000000	0.112346
1790.000000	0.112636
1789.000000	0.112786
1788.000000	0.113106
1787.000000	0.113415
1786.000000	0.113780
1785.000000	0.114076
1784.000000	0.114436
1783.000000	0.114610
1782.000000	0.114839
1781.000000	0.115431
1780.000000	0.115843
1779.000000	0.116193
1778.000000	0.116774
1777.000000	0.117385
1776.000000	0.117754
1775.000000	0.118221
1774.000000	0.118753
1773.000000	0.119140
1772.000000	0.119870
1771.000000	0.120486
1770.000000	0.121124
1769.000000	0.121789
1768.000000	0.122296
1767.000000	0.122892
1766.000000	0.123295
1765.000000	0.124068
1764.000000	0.124506
1763.000000	0.125061
1762.000000	0.125637
1761.000000	0.126256
1760.000000	0.127224
1759.000000	0.127530
1758.000000	0.127850
1757.000000	0.128438
1756.000000	0.128938
1755.000000	0.129651
1754.000000	0.130614
1753.000000	0.131165
1752.000000	0.131824
1751.000000	0.132171
1750.000000	0.132836
1749.000000	0.133497
1748.000000	0.134308
1747.000000	0.135000
1746.000000	0.135721
1745.000000	0.136474
1744.000000	0.136770
1743.000000	0.137521
1742.000000	0.138210
1741.000000	0.138808
1740.000000	0.139035
1739.000000	0.139798
1738.000000	0.140587
1737.000000	0.140778
1736.000000	0.141053
1735.000000	0.141577
1734.000000	0.141600
1733.000000	0.141955
1732.000000	0.141926
1731.000000	0.141537
1730.000000	0.141790
1729.000000	0.141356
1728.000000	0.140823
1727.000000	0.140196
1726.000000	0.139719
1725.000000	0.138767
1724.000000	0.138469
1723.000000	0.137426
1722.000000	0.136276
1721.000000	0.135096
1720.000000	0.134097
1719.000000	0.132872
1718.000000	0.131989
1717.000000	0.130983
1716.000000	0.130174
1715.000000	0.129125
1714.000000	0.127906
1713.000000	0.126957
1712.000000	0.126131
1711.000000	0.125633
1710.000000	0.125126
1709.000000	0.124176
1708.000000	0.123496
1707.000000	0.123208
1706.000000	0.122885
1705.000000	0.122296
1704.000000	0.121937
1703.000000	0.121907
1702.000000	0.121932
1701.000000	0.121540
1700.000000	0.121368
1699.000000	0.121301
1698.000000	0.121405
1697.000000	0.120597
1696.000000	0.119926
1695.000000	0.119968
1694.000000	0.119736
1693.000000	0.118967
1692.000000	0.118296
1691.000000	0.117646
1690.000000	0.116728
1689.000000	0.115561
1688.000000	0.114728
1687.000000	0.113601
1686.000000	0.112451
1685.000000	0.110924
1684.000000	0.109310
1683.000000	0.107870
1682.000000	0.106011
1681.000000	0.104401
1680.000000	0.102394
1679.000000	0.100620
1678.000000	0.098973
1677.000000	0.097006
1676.000000	0.095283
1675.000000	0.093704
1674.000000	0.091761
1673.000000	0.090081
1672.000000	0.088456
1671.000000	0.086905
1670.000000	0.085406
1669.000000	0.083631
1668.000000	0.082428
1667.000000	0.081054
1666.000000	0.079974
1665.000000	0.078940
1664.000000	0.078024
1663.000000	0.077041
1662.000000	0.076238
1661.000000	0.075517
1660.000000	0.075083
1659.000000	0.074413
1658.000000	0.074098
1657.000000	0.073382
1656.000000	0.073144
1655.000000	0.072952
1654.000000	0.072605
1653.000000	0.072582
1652.000000	0.072434
1651.000000	0.072372
1650.000000	0.072243
1649.000000	0.072226
1648.000000	0.072467
1647.000000	0.072283
1646.000000	0.072560
1645.000000	0.072814
1644.000000	0.072704
1643.000000	0.073241
1642.000000	0.073348
1641.000000	0.073465
1640.000000	0.073777
1639.000000	0.074043
1638.000000	0.074341
1637.000000	0.074554
1636.000000	0.075105
1635.000000	0.075385
1634.000000	0.075751
1633.000000	0.076148
1632.000000	0.076526
1631.000000	0.076824
1630.000000	0.077262
1629.000000	0.077656
1628.000000	0.078345
1627.000000	0.078756
1626.000000	0.079174
1625.000000	0.079629
1624.000000	0.080038
1623.000000	0.080498
1622.000000	0.081079
1621.000000	0.081592
1620.000000	0.082043
1619.000000	0.082593
1618.000000	0.083209
1617.000000	0.083798
1616.000000	0.084392
1615.000000	0.084916
1614.000000	0.085373
1613.000000	0.085938
1612.000000	0.086592
1611.000000	0.087197
1610.000000	0.087795
1609.000000	0.088463
1608.000000	0.089064
1607.000000	0.089665
1606.000000	0.090477
1605.000000	0.091197
1604.000000	0.091940
1603.000000	0.092539
1602.000000	0.093119
1601.000000	0.093881
1600.000000	0.094528
1599.000000	0.095087
1598.000000	0.095824
1597.000000	0.096506
1596.000000	0.097026
1595.000000	0.097534
1594.000000	0.098162
1593.000000	0.098779
1592.000000	0.099376
1591.000000	0.099960
1590.000000	0.100620
1589.000000	0.101251
1588.000000	0.101882
1587.000000	0.102443
1586.000000	0.102967
1585.000000	0.103424
1584.000000	0.103900
1583.000000	0.104436
1582.000000	0.104883
1581.000000	0.105455
1580.000000	0.105958
1579.000000	0.106410
1578.000000	0.106852
1577.000000	0.107457
1576.000000	0.108034
1575.000000	0.108473
1574.000000	0.109152
1573.000000	0.109580
1572.000000	0.110015
1571.000000	0.110581
1570.000000	0.110944
1569.000000	0.111339
1568.000000	0.111709
1567.000000	0.112221
1566.000000	0.112600
1565.000000	0.112903
1564.000000	0.113215
1563.000000	0.113577
1562.000000	0.113913
1561.000000	0.114204
1560.000000	0.114538
1559.000000	0.114797
1558.000000	0.114947
1557.000000	0.115256
1556.000000	0.115534
1555.000000	0.115809
1554.000000	0.116178
1553.000000	0.116505
1552.000000	0.116816
1551.000000	0.117218
1550.000000	0.117491
1549.000000	0.117722
1548.000000	0.118167
1547.000000	0.118883
1546.000000	0.119559
1545.000000	0.120030
1544.000000	0.120804
1543.000000	0.121347
1542.000000	0.122123
1541.000000	0.123248
1540.000000	0.124057
1539.000000	0.124742
1538.000000	0.125615
1537.000000	0.126630
1536.000000	0.127612
1535.000000	0.128437
1534.000000	0.129397
1533.000000	0.130333
1532.000000	0.131438
1531.000000	0.132319
1530.000000	0.133326
1529.000000	0.134306
1528.000000	0.135027
1527.000000	0.135877
1526.000000	0.136662
1525.000000	0.137309
1524.000000	0.138155
1523.000000	0.138802
1522.000000	0.139552
1521.000000	0.139964
1520.000000	0.140445
1519.000000	0.141107
1518.000000	0.141464
1517.000000	0.142170
1516.000000	0.142447
1515.000000	0.142957
1514.000000	0.143514
1513.000000	0.143531
1512.000000	0.143879
1511.000000	0.144360
1510.000000	0.144578
1509.000000	0.144762
1508.000000	0.145163
1507.000000	0.145397
1506.000000	0.145678
1505.000000	0.145671
1504.000000	0.145784
1503.000000	0.146109
1502.000000	0.146300
1501.000000	0.146348
1500.000000	0.146177
1499.000000	0.146283
1498.000000	0.145927
1497.000000	0.146040
1496.000000	0.145801
1495.000000	0.145650
1494.000000	0.145511
1493.000000	0.145400
1492.000000	0.145077
1491.000000	0.144628
1490.000000	0.144298
1489.000000	0.143905
1488.000000	0.143276
1487.000000	0.142698
1486.000000	0.142413
1485.000000	0.141809
1484.000000	0.141289
1483.000000	0.140512
1482.000000	0.140163
1481.000000	0.139379
1480.000000	0.138902
1479.000000	0.138186
1478.000000	0.137647
1477.000000	0.136877
1476.000000	0.136245
1475.000000	0.135772
1474.000000	0.135100
1473.000000	0.134505
1472.000000	0.133955
1471.000000	0.133491
1470.000000	0.132983
1469.000000	0.132400
1468.000000	0.131989
1467.000000	0.131411
1466.000000	0.130893
1465.000000	0.130405
1464.000000	0.129749
1463.000000	0.129269
1462.000000	0.128784
1461.000000	0.128430
1460.000000	0.127721
1459.000000	0.127159
1458.000000	0.126532
1457.000000	0.126197
1456.000000	0.125331
1455.000000	0.124886
1454.000000	0.124296
1453.000000	0.123400
1452.000000	0.122889
1451.000000	0.122149
1450.000000	0.121408
1449.000000	0.120796
1448.000000	0.120060
1447.000000	0.119204
1446.000000	0.118376
1445.000000	0.117585
1444.000000	0.116756
1443.000000	0.116005
1442.000000	0.115239
1441.000000	0.114135
1440.000000	0.113141
1439.000000	0.112219
1438.000000	0.111312
1437.000000	0.110192
1436.000000	0.109106
1435.000000	0.107961
1434.000000	0.106908
1433.000000	0.105720
1432.000000	0.104559
1431.000000	0.103390
1430.000000	0.101933
1429.000000	0.100672
1428.000000	0.099418
1427.000000	0.098101
1426.000000	0.096621
1425.000000	0.095139
1424.000000	0.093556
1423.000000	0.092075
1422.000000	0.090560
1421.000000	0.088727
1420.000000	0.087078
1419.000000	0.085521
1418.000000	0.083738
1417.000000	0.081881
1416.000000	0.080184
1415.000000	0.078388
1414.000000	0.076451
1413.000000	0.074686
1412.000000	0.072949
1411.000000	0.071140
1410.000000	0.069316
1409.000000	0.067542
1408.000000	0.065571
1407.000000	0.063794
1406.000000	0.062081
1405.000000	0.060281
1404.000000	0.058610
1403.000000	0.056861
1402.000000	0.055171
1401.000000	0.053539
1400.000000	0.051989
1399.000000	0.050415
1398.000000	0.048935
1397.000000	0.047499
1396.000000	0.045984
1395.000000	0.044570
1394.000000	0.043171
1393.000000	0.041779
1392.000000	0.040554
1391.000000	0.039187
1390.000000	0.037953
1389.000000	0.036968
1388.000000	0.035801
1387.000000	0.034739
1386.000000	0.033757
1385.000000	0.032631
1384.000000	0.031680
1383.000000	0.030910
1382.000000	0.030061
1381.000000	0.029223
1380.000000	0.028545
1379.000000	0.027863
1378.000000	0.027186
1377.000000	0.026629
1376.000000	0.025978
1375.000000	0.025357
1374.000000	0.024902
1373.000000	0.024402
1372.000000	0.023929
1371.000000	0.023434
1370.000000	0.022940
1369.000000	0.022527
1368.000000	0.022051
1367.000000	0.021605
1366.000000	0.021154
1365.000000	0.020728
1364.000000	0.020277
1363.000000	0.019745
1362.000000	0.019170
1361.000000	0.018605
1360.000000	0.018123
1359.000000	0.017735
1358.000000	0.017230
1357.000000	0.016591
1356.000000	0.016168
1355.000000	0.015817
1354.000000	0.015336
1353.000000	0.014752
1352.000000	0.014189
1351.000000	0.013765
1350.000000	0.013277
1349.000000	0.012825
1348.000000	0.012320
1347.000000	0.011811
1346.000000	0.011399
1345.000000	0.011044
1344.000000	0.010598
1343.000000	0.010075
1342.000000	0.009563
1341.000000	0.009259
1340.000000	0.008929
1339.000000	0.008517
1338.000000	0.008079
1337.000000	0.007719
1336.000000	0.007456
1335.000000	0.007139
1334.000000	0.006851
1333.000000	0.006395
1332.000000	0.006259
1331.000000	0.006005
1330.000000	0.005695
1329.000000	0.005410
1328.000000	0.005016
1327.000000	0.004882
1326.000000	0.004712
1325.000000	0.004362
1324.000000	0.004364
1323.000000	0.004214
1322.000000	0.003837
1321.000000	0.003770
1320.000000	0.003661
1319.000000	0.003467
1318.000000	0.003505
1317.000000	0.003154
1316.000000	0.002989
1315.000000	0.002935
1314.000000	0.003056
1313.000000	0.002797
1312.000000	0.002550
1311.000000	0.002403
1310.000000	0.002384
1309.000000	0.002413
1308.000000	0.002232
1307.000000	0.002090
1306.000000	0.001916
1305.000000	0.001984
1304.000000	0.001849
1303.000000	0.001782
1302.000000	0.001735
1301.000000	0.001614
1300.000000	0.001628
1299.000000	0.001624
1298.000000	0.001689
1297.000000	0.001555
1296.000000	0.001541
1295.000000	0.001566
1294.000000	0.001565
1293.000000	0.001537
1292.000000	0.001543
1291.000000	0.001564
1290.000000	0.001754
1289.000000	0.001753
1288.000000	0.001750
1287.000000	0.001931
1286.000000	0.001907
1285.000000	0.001986
1284.000000	0.001990
1283.000000	0.001979
1282.000000	0.001990
1281.000000	0.001999
1280.000000	0.002126
1279.000000	0.002021
1278.000000	0.001973
1277.000000	0.002021
1276.000000	0.002030
1275.000000	0.002004
1274.000000	0.001906
1273.000000	0.001942
1272.000000	0.001873
1271.000000	0.001971
1270.000000	0.001898
1269.000000	0.001788
1268.000000	0.001928
1267.000000	0.001774
1266.000000	0.001604
1265.000000	0.001649
1264.000000	0.001630
1263.000000	0.001311
1262.000000	0.001645
1261.000000	0.001416
1260.000000	0.001315
1259.000000	0.001442
1258.000000	0.001348
1257.000000	0.001171
1256.000000	0.001254
1255.000000	0.001313
1254.000000	0.001166
1253.000000	0.001180
1252.000000	0.001168
1251.000000	0.001208
1250.000000	0.001280
1249.000000	0.001345
1248.000000	0.001329
1247.000000	0.001277
1246.000000	0.001431
1245.000000	0.001496
1244.000000	0.001662
1243.000000	0.001855
1242.000000	0.001956
1241.000000	0.002053
1240.000000	0.002265
1239.000000	0.002424
1238.000000	0.002587
1237.000000	0.002735
1236.000000	0.002982
1235.000000	0.003071
1234.000000	0.003285
1233.000000	0.003477
1232.000000	0.003647
1231.000000	0.003817
1230.000000	0.003972
1229.000000	0.004155
1228.000000	0.004275
1227.000000	0.004543
1226.000000	0.004745
1225.000000	0.004992
1224.000000	0.005103
1223.000000	0.005260
1222.000000	0.005412
1221.000000	0.005685
1220.000000	0.005908
1219.000000	0.006149
1218.000000	0.006348
1217.000000	0.006560
1216.000000	0.006732
1215.000000	0.006977
1214.000000	0.007258
1213.000000	0.007553
1212.000000	0.007747
1211.000000	0.008011
1210.000000	0.008340
1209.000000	0.008447
1208.000000	0.008902
1207.000000	0.009192
1206.000000	0.009349
1205.000000	0.009605
1204.000000	0.009989
1203.000000	0.010269
1202.000000	0.010539
1201.000000	0.010964
1200.000000	0.011083
1199.000000	0.011350
1198.000000	0.011634
1197.000000	0.011838
1196.000000	0.012063
1195.000000	0.012336
1194.000000	0.012591
1193.000000	0.012705
1192.000000	0.012754
1191.000000	0.012937
1190.000000	0.013036
1189.000000	0.013084
1188.000000	0.013184
1187.000000	0.013166
1186.000000	0.013188
1185.000000	0.013110
1184.000000	0.013038
1183.000000	0.013011
1182.000000	0.012874
1181.000000	0.012678
1180.000000	0.012488
1179.000000	0.012309
1178.000000	0.011999
1177.000000	0.011704
1176.000000	0.011307
1175.000000	0.010930
1174.000000	0.010535
1173.000000	0.010059
1172.000000	0.009569
1171.000000	0.009095
1170.000000	0.008593
1169.000000	0.008070
1168.000000	0.007626
1167.000000	0.006972
1166.000000	0.006338
1165.000000	0.005872
1164.000000	0.005241
1163.000000	0.004644
1162.000000	0.004026
1161.000000	0.003431
1160.000000	0.002933
1159.000000	0.002346
1158.000000	0.001751
1157.000000	0.001246
1156.000000	0.000720
1155.000000	0.000159
1154.000000	-0.000311
1153.000000	-0.000729
1152.000000	-0.001268
1151.000000	-0.001647
1150.000000	-0.001988
1149.000000	-0.002471
1148.000000	-0.002937
1147.000000	-0.003312
1146.000000	-0.003605
1145.000000	-0.003970
1144.000000	-0.004312
1143.000000	-0.004660
1142.000000	-0.005037
1141.000000	-0.005348
1140.000000	-0.005695
1139.000000	-0.006060
1138.000000	-0.006318
1137.000000	-0.006646
1136.000000	-0.006956
1135.000000	-0.007129
1134.000000	-0.007414
1133.000000	-0.007736
1132.000000	-0.008014
1131.000000	-0.008313
1130.000000	-0.008485
1129.000000	-0.008716
1128.000000	-0.008849
1127.000000	-0.008941
1126.000000	-0.009165
1125.000000	-0.009438
1124.000000	-0.009481
1123.000000	-0.009572
1122.000000	-0.009739
1121.000000	-0.009887
1120.000000	-0.010047
1119.000000	-0.010108
1118.000000	-0.010135
1117.000000	-0.010170
1116.000000	-0.010186
1115.000000	-0.010284
1114.000000	-0.010364
1113.000000	-0.010308
1112.000000	-0.010247
1111.000000	-0.010334
1110.000000	-0.010441
1109.000000	-0.010460
1108.000000	-0.010498
1107.000000	-0.010484
1106.000000	-0.010491
1105.000000	-0.010499
1104.000000	-0.010531
1103.000000	-0.010485
1102.000000	-0.010484
1101.000000	-0.010572
1100.000000	-0.010654
1099.000000	-0.010659
1098.000000	-0.010514
1097.000000	-0.010520
1096.000000	-0.010609
1095.000000	-0.010630
1094.000000	-0.010609
1093.000000	-0.010634
1092.000000	-0.010632
1091.000000	-0.010573
1090.000000	-0.010634
1089.000000	-0.010631
1088.000000	-0.010637
1087.000000	-0.010508
1086.000000	-0.010469
1085.000000	-0.010528
1084.000000	-0.010561
1083.000000	-0.010597
1082.000000	-0.010522
1081.000000	-0.010470
1080.000000	-0.010491
1079.000000	-0.010431
1078.000000	-0.010383
1077.000000	-0.010327
1076.000000	-0.010324
1075.000000	-0.010301
1074.000000	-0.010161
1073.000000	-0.010141
1072.000000	-0.010139
1071.000000	-0.010118
1070.000000	-0.009912
1069.000000	-0.010039
1068.000000	-0.009925
1067.000000	-0.009977
1066.000000	-0.009843
1065.000000	-0.009693
1064.000000	-0.009707
1063.000000	-0.009657
1062.000000	-0.009647
1061.000000	-0.009679
1060.000000	-0.009566
1059.000000	-0.009514
1058.000000	-0.009480
1057.000000	-0.009272
1056.000000	-0.009350
1055.000000	-0.009141
1054.000000	-0.009165
1053.000000	-0.009058
1052.000000	-0.009041
1051.000000	-0.009011
1050.000000	-0.009060
1049.000000	-0.008853
1048.000000	-0.008860
1047.000000	-0.008819
1046.000000	-0.008748
1045.000000	-0.008726
1044.000000	-0.008758
1043.000000	-0.008559
1042.000000	-0.008696
1041.000000	-0.008621
1040.000000	-0.008637
1039.000000	-0.008474
1038.000000	-0.008450
1037.000000	-0.008481
1036.000000	-0.008548
1035.000000	-0.008333
1034.000000	-0.008432
1033.000000	-0.008248
1032.000000	-0.008267
1031.000000	-0.008336
1030.000000	-0.008255
1029.000000	-0.008195
1028.000000	-0.008195
1027.000000	-0.008193
1026.000000	-0.008101
1025.000000	-0.008152
1024.000000	-0.008087
1023.000000	-0.008077
1022.000000	-0.008184
1021.000000	-0.008178
1020.000000	-0.008098
1019.000000	-0.008120
1018.000000	-0.008131
1017.000000	-0.008208
1016.000000	-0.008191
1015.000000	-0.008328
1014.000000	-0.008348
1013.000000	-0.008272
1012.000000	-0.008323
1011.000000	-0.008407
1010.000000	-0.008429
1009.000000	-0.008461
1008.000000	-0.008440
1007.000000	-0.008495
1006.000000	-0.008608
1005.000000	-0.008647
1004.000000	-0.008785
1003.000000	-0.008742
1002.000000	-0.008734
1001.000000	-0.008854
1000.000000	-0.008778
999.000000	-0.008805
998.000000	-0.008888
997.000000	-0.008989
996.000000	-0.008992
995.000000	-0.009030
994.000000	-0.009122
993.000000	-0.009258
992.000000	-0.009231
991.000000	-0.009267
990.000000	-0.009275
989.000000	-0.009361
988.000000	-0.009296
987.000000	-0.009339
986.000000	-0.009406
985.000000	-0.009459
984.000000	-0.009553
983.000000	-0.009623
982.000000	-0.009699
981.000000	-0.009740
980.000000	-0.009750
979.000000	-0.009757
978.000000	-0.009748
977.000000	-0.009904
976.000000	-0.010014
975.000000	-0.010031
974.000000	-0.010088
973.000000	-0.010070
972.000000	-0.010244
971.000000	-0.010266
970.000000	-0.010279
969.000000	-0.010307
968.000000	-0.010480
967.000000	-0.010441
966.000000	-0.010490
965.000000	-0.010656
964.000000	-0.010725
963.000000	-0.010748
962.000000	-0.010804
961.000000	-0.010829
960.000000	-0.010875
959.000000	-0.010968
958.000000	-0.011015
957.000000	-0.011124
956.000000	-0.011219
955.000000	-0.011106
954.000000	-0.011162
953.000000	-0.011290
952.000000	-0.011352
951.000000	-0.011456
950.000000	-0.011604
949.000000	-0.011575
948.000000	-0.011492
947.000000	-0.011639
946.000000	-0.011669
945.000000	-0.011621
944.000000	-0.011733
943.000000	-0.011672
942.000000	-0.011635
941.000000	-0.011709
940.000000	-0.011633
939.000000	-0.011602
938.000000	-0.011552
937.000000	-0.011491
936.000000	-0.011626
935.000000	-0.011744
934.000000	-0.011755
933.000000	-0.011762
932.000000	-0.011709
931.000000	-0.011548
930.000000	-0.011487
929.000000	-0.011651
928.000000	-0.011624
927.000000	-0.011398
926.000000	-0.011500
925.000000	-0.011528
924.000000	-0.011496
923.000000	-0.011577
922.000000	-0.011550
921.000000	-0.011497
920.000000	-0.011398
919.000000	-0.011191
918.000000	-0.011158
917.000000	-0.011299
916.000000	-0.011421
915.000000	-0.011265
914.000000	-0.011408
913.000000	-0.011267
912.000000	-0.011067
911.000000	-0.010973
910.000000	-0.011043
909.000000	-0.011179
908.000000	-0.011305
907.000000	-0.011242
906.000000	-0.011300
905.000000	-0.011280
904.000000	-0.011234
903.000000	-0.011206
902.000000	-0.011262
901.000000	-0.011574
900.000000	-0.011253
899.000000	-0.011527
898.000000	-0.011603
897.000000	-0.011576
896.000000	-0.011542
895.000000	-0.011722
894.000000	-0.012183
893.000000	-0.012146
892.000000	-0.011793
891.000000	-0.012091
890.000000	-0.012349
889.000000	-0.012271
888.000000	-0.012020
887.000000	-0.012293
886.000000	-0.012293
885.000000	-0.012139
884.000000	-0.012381
883.000000	-0.012251
882.000000	-0.012425
881.000000	-0.012032
880.000000	-0.011831
879.000000	-0.011995
878.000000	-0.012061
877.000000	-0.012383
876.000000	-0.012376
875.000000	-0.012704
874.000000	-0.012109
873.000000	-0.012896
872.000000	-0.012900
871.000000	-0.011775
870.000000	-0.012378
869.000000	-0.012267
868.000000	-0.011952
867.000000	-0.012986
866.000000	-0.013192
865.000000	-0.012531
864.000000	-0.011899
863.000000	-0.011938
862.000000	-0.012430
861.000000	-0.012386
860.000000	-0.012513
859.000000	-0.011263
858.000000	-0.014327
857.000000	-0.014424
856.000000	-0.012651
855.000000	-0.014393
854.000000	-0.012859
853.000000	-0.014275
852.000000	-0.013743
851.000000	-0.011225
850.000000	-0.012453
849.000000	-0.012121
848.000000	-0.012970
847.000000	-0.013579
846.000000	-0.013455
845.000000	-0.013425
844.000000	-0.014577
843.000000	-0.013615
842.000000	-0.015078
841.000000	-0.013246
840.000000	-0.013857
839.000000	-0.012695
838.000000	-0.012902
837.000000	-0.013246
836.000000	-0.011966
835.000000	-0.011748
834.000000	-0.013091
833.000000	-0.011776
832.000000	-0.011216
831.000000	-0.012214
830.000000	-0.013540
829.000000	-0.012649
828.000000	-0.012401
827.000000	-0.012563
826.000000	-0.012621
825.000000	-0.012332
824.000000	-0.011773
823.000000	-0.013620
822.000000	-0.013499
821.000000	-0.013231
820.000000	-0.012372
819.000000	-0.012852
818.000000	-0.012503
817.000000	-0.013372
816.000000	-0.014065
815.000000	-0.013095
814.000000	-0.012237
813.000000	-0.011018
812.000000	-0.012041
811.000000	-0.011381
810.000000	-0.012016
809.000000	-0.012201
808.000000	-0.013035
807.000000	-0.012345
806.000000	-0.011742
805.000000	-0.011378
804.000000	-0.012020
803.000000	-0.012276
802.000000	-0.011920
801.000000	-0.012779
800.000000	-0.012131
799.000000	-0.012577
798.000000	-0.012234
797.000000	-0.012481
796.000000	-0.012249
795.000000	-0.010954
794.000000	-0.011540
793.000000	-0.012043
792.000000	-0.012583
791.000000	-0.011153
790.000000	-0.011356
789.000000	-0.011303
788.000000	-0.011641
787.000000	-0.011199
786.000000	-0.011827
785.000000	-0.012092
784.000000	-0.011823
783.000000	-0.011851
782.000000	-0.011483
781.000000	-0.012391
780.000000	-0.011699
779.000000	-0.011326
778.000000	-0.011797
777.000000	-0.011712
776.000000	-0.011358
775.000000	-0.011552
774.000000	-0.010979
773.000000	-0.011121
772.000000	-0.011148
771.000000	-0.011367
770.000000	-0.011642
769.000000	-0.010685
768.000000	-0.010867
767.000000	-0.011215
766.000000	-0.010318
765.000000	-0.010860
764.000000	-0.010695
763.000000	-0.011168
762.000000	-0.011649
761.000000	-0.010839
760.000000	-0.010693
759.000000	-0.010479
758.000000	-0.010637
757.000000	-0.010386
756.000000	-0.010466
755.000000	-0.010155
754.000000	-0.010932
753.000000	-0.010946
752.000000	-0.010669
751.000000	-0.009685
750.000000	-0.009825
749.000000	-0.010416
748.000000	-0.010444
747.000000	-0.010135
746.000000	-0.009683
745.000000	-0.009395
744.000000	-0.009633
743.000000	-0.009825
742.000000	-0.009328
741.000000	-0.009190
740.000000	-0.009415
739.000000	-0.009486
738.000000	-0.009343
737.000000	-0.009818
736.000000	-0.009828
735.000000	-0.009606
734.000000	-0.009521
733.000000	-0.008969
732.000000	-0.009456
731.000000	-0.009435
730.000000	-0.009003
729.000000	-0.008966
728.000000	-0.009037
727.000000	-0.009185
726.000000	-0.008510
725.000000	-0.008456
724.000000	-0.009270
723.000000	-0.009229
722.000000	-0.008868
721.000000	-0.008694
720.000000	-0.008561
719.000000	-0.008626
718.000000	-0.008277
717.000000	-0.008061
716.000000	-0.008298
715.000000	-0.008256
714.000000	-0.008189
713.000000	-0.007846
712.000000	-0.007846
711.000000	-0.008087
710.000000	-0.007827
709.000000	-0.007532
708.000000	-0.007461
707.000000	-0.007821
706.000000	-0.007572
705.000000	-0.006969
704.000000	-0.007016
703.000000	-0.007550
702.000000	-0.007865
701.000000	-0.006947
700.000000	-0.006562
699.000000	-0.006911
698.000000	-0.006420
697.000000	-0.006445
696.000000	-0.006503
695.000000	-0.006227
694.000000	-0.006296
693.000000	-0.006145
692.000000	-0.005973
691.000000	-0.006225
690.000000	-0.005929
689.000000	-0.005364
688.000000	-0.005208
687.000000	-0.005593
686.000000	-0.005302
685.000000	-0.004694
684.000000	-0.004362
683.000000	-0.004755
682.000000	-0.004514
681.000000	-0.004509
680.000000	-0.004743
679.000000	-0.004703
678.000000	-0.004286
677.000000	-0.003953
676.000000	-0.003670
675.000000	-0.003579
674.000000	-0.003397
673.000000	-0.003297
672.000000	-0.003566
671.000000	-0.003173
670.000000	-0.002522
669.000000	-0.002736
668.000000	-0.002695
667.000000	-0.002662
666.000000	-0.002221
665.000000	-0.002081
664.000000	-0.001906
663.000000	-0.001845
662.000000	-0.001669
661.000000	-0.001546
660.000000	-0.001694
659.000000	-0.001566
658.000000	-0.001106
657.000000	-0.000926
656.000000	-0.000862
655.000000	-0.001154
654.000000	-0.001082
653.000000	-0.000820
652.000000	-0.000202
651.000000	-0.000270
650.000000	-0.000199
649.000000	0.000237
648.000000	0.000636
647.000000	0.000404
646.000000	0.000513
645.000000	0.000447
644.000000	0.001001
643.000000	0.000746
642.000000	0.001208
641.000000	0.001572
640.000000	0.001455
639.000000	0.001341
638.000000	0.001499
637.000000	0.001689
636.000000	0.002076
635.000000	0.002443
634.000000	0.002657
633.000000	0.002116
632.000000	0.002854
631.000000	0.003207
630.000000	0.003322
629.000000	0.003490
628.000000	0.003523
627.000000	0.003246
626.000000	0.004010
625.000000	0.004200
624.000000	0.003965
623.000000	0.004837
622.000000	0.004640
621.000000	0.004708
620.000000	0.005329
619.000000	0.005328
618.000000	0.005092
617.000000	0.005513
616.000000	0.006091
615.000000	0.006164
614.000000	0.006430
613.000000	0.006448
612.000000	0.006980
611.000000	0.006694
610.000000	0.006809
609.000000	0.007057
608.000000	0.007497
607.000000	0.007536
606.000000	0.007869
605.000000	0.008243
604.000000	0.008281
603.000000	0.008520
602.000000	0.008836
601.000000	0.008706
600.000000	0.009769
599.000000	0.009435
598.000000	0.009628
597.000000	0.010017
596.000000	0.010491
595.000000	0.010893
594.000000	0.010736
593.000000	0.010907
592.000000	0.011288
591.000000	0.011102
590.000000	0.011519
589.000000	0.011344
588.000000	0.011772
587.000000	0.012514
586.000000	0.012159
585.000000	0.012131
584.000000	0.013052
583.000000	0.013813
582.000000	0.013429
581.000000	0.013749
580.000000	0.014202
579.000000	0.014184
578.000000	0.014791
577.000000	0.014659
576.000000	0.015064
575.000000	0.015327
574.000000	0.016040
573.000000	0.016021
572.000000	0.016251
571.000000	0.016561
570.000000	0.016960
569.000000	0.017118
568.000000	0.017174
567.000000	0.017272
566.000000	0.018226
565.000000	0.018374
564.000000	0.018620
563.000000	0.018851
562.000000	0.019191
561.000000	0.018780
560.000000	0.019240
559.000000	0.018916
558.000000	0.019089
557.000000	0.019910
556.000000	0.019975
555.000000	0.020277
554.000000	0.020850
553.000000	0.021201
552.000000	0.021814
551.000000	0.022038
550.000000	0.021830
549.000000	0.022351
548.000000	0.022861
547.000000	0.022765
546.000000	0.023382
545.000000	0.023967
544.000000	0.024288
543.000000	0.024771
542.000000	0.025026
541.000000	0.025594
540.000000	0.026060
539.000000	0.026089
538.000000	0.026423
537.000000	0.027316
536.000000	0.027272
535.000000	0.027876
534.000000	0.028253
533.000000	0.028637
532.000000	0.028589
531.000000	0.029165
530.000000	0.029831
529.000000	0.030350
528.000000	0.030720
527.000000	0.031291
526.000000	0.031486
525.000000	0.031739
524.000000	0.032668
523.000000	0.032693
522.000000	0.033204
521.000000	0.033547
520.000000	0.034252
519.000000	0.034735
518.000000	0.034588
517.000000	0.035136
516.000000	0.036369
515.000000	0.036526
514.000000	0.036610
513.000000	0.037048
512.000000	0.038009
511.000000	0.037983
510.000000	0.038566
509.000000	0.039376
508.000000	0.039805
507.000000	0.040640
506.000000	0.041206
505.000000	0.041438
504.000000	0.041771
503.000000	0.041964
502.000000	0.042907
501.000000	0.043830
500.000000	0.044770
499.000000	0.045099
498.000000	0.045500
497.000000	0.046185
496.000000	0.046919
495.000000	0.047563
494.000000	0.048334
493.000000	0.048976
492.000000	0.049422
491.000000	0.050049
490.000000	0.050551
489.000000	0.051307
488.000000	0.052130
487.000000	0.052798
486.000000	0.053613
485.000000	0.054745
484.000000	0.055497
483.000000	0.055578
482.000000	0.056142
481.000000	0.056988
480.000000	0.057804
479.000000	0.058690
478.000000	0.059320
477.000000	0.060042
476.000000	0.060995
475.000000	0.061888
474.000000	0.062599
473.000000	0.063477
472.000000	0.064381
471.000000	0.065128
470.000000	0.066020
469.000000	0.066944
468.000000	0.067706
467.000000	0.068821
466.000000	0.069788
465.000000	0.070615
464.000000	0.071525
463.000000	0.072529
462.000000	0.073509
461.000000	0.074532
460.000000	0.075267
459.000000	0.076099
458.000000	0.077555
457.000000	0.078986
456.000000	0.079949
455.000000	0.080735
454.000000	0.081653
453.000000	0.082638
452.000000	0.083983
451.000000	0.085091
450.000000	0.086048
449.000000	0.086942
448.000000	0.087797
447.000000	0.089298
446.000000	0.090489
445.000000	0.091763
444.000000	0.092964
443.000000	0.094063
442.000000	0.095383
441.000000	0.097007
440.000000	0.098241
439.000000	0.099401
438.000000	0.100403
437.000000	0.102032
436.000000	0.103567
435.000000	0.104393
434.000000	0.105827
433.000000	0.107028
432.000000	0.108089
431.000000	0.109286
430.000000	0.110739
429.000000	0.112280
428.000000	0.114020
427.000000	0.115521
426.000000	0.117406
425.000000	0.118465
424.000000	0.119924
423.000000	0.121302
422.000000	0.122754
421.000000	0.124118
420.000000	0.126145
419.000000	0.127089
418.000000	0.127928
417.000000	0.129418
416.000000	0.130590
415.000000	0.132135
414.000000	0.133853
413.000000	0.133853
412.000000	0.135277
411.000000	0.137507
410.000000	0.138706
409.000000	0.139123
408.000000	0.140420
407.000000	0.141014
406.000000	0.142597
405.000000	0.144393
404.000000	0.145407
403.000000	0.146460
402.000000	0.147045
401.000000	0.148287
400.000000	0.150030
399.000000	0.150882
398.000000	0.152304
397.000000	0.152484
396.000000	0.154086
395.000000	0.155654
394.000000	0.156388
393.000000	0.158051
392.000000	0.159123
391.000000	0.161015
390.000000	0.162139
389.000000	0.163871
388.000000	0.164940
387.000000	0.166223
386.000000	0.168131
385.000000	0.168831
384.000000	0.170833
383.000000	0.172734
382.000000	0.174383
381.000000	0.175917
380.000000	0.177205
379.000000	0.178263
378.000000	0.181483
377.000000	0.182553
376.000000	0.184139
375.000000	0.184499
374.000000	0.185174
373.000000	0.187392
372.000000	0.189766
371.000000	0.190688
370.000000	0.193937
369.000000	0.194993
368.000000	0.197602
367.000000	0.196801
366.000000	0.200670
365.000000	0.202489
364.000000	0.203041
363.000000	0.204326
362.000000	0.205369
361.000000	0.207943
360.000000	0.207885
359.000000	0.212440
358.000000	0.212057
357.000000	0.213934
356.000000	0.214983
355.000000	0.217582
354.000000	0.218875
353.000000	0.221103
352.000000	0.223399
351.000000	0.224432
350.000000	0.227588
349.000000	0.227734
348.000000	0.229479
347.000000	0.231750
346.000000	0.234865
345.000000	0.235335
344.000000	0.238423
343.000000	0.240245
342.000000	0.242257
341.000000	0.244840
340.000000	0.245484
339.000000	0.248761
338.000000	0.249488
337.000000	0.252310
336.000000	0.252628
335.000000	0.257330
334.000000	0.259595
333.000000	0.262189
332.000000	0.260947
331.000000	0.266858
330.000000	0.265315
329.000000	0.267638
328.000000	0.270829
327.000000	0.271918
326.000000	0.271624
325.000000	0.277823
324.000000	0.277299
323.000000	0.280165
322.000000	0.280187
321.000000	0.284380
320.000000	0.280913
319.000000	0.285184
318.000000	0.288058
317.000000	0.289959
316.000000	0.294193
315.000000	0.294423
314.000000	0.297107
313.000000	0.299529
312.000000	0.299643
311.000000	0.301792
310.000000	0.302398
309.000000	0.304063
308.000000	0.306973
307.000000	0.310696
306.000000	0.311606
305.000000	0.314531
304.000000	0.313754
303.000000	0.318282
302.000000	0.323994
301.000000	0.326630
300.000000	0.328693
299.000000	0.333422
298.000000	0.336938
297.000000	0.343893
296.000000	0.351106
295.000000	0.356975
294.000000	0.366031
293.000000	0.376326
292.000000	0.388053
291.000000	0.403324
290.000000	0.416713
289.000000	0.429551
288.000000	0.445091
287.000000	0.454271
286.000000	0.462104
285.000000	0.464623
284.000000	0.468632
283.000000	0.469608
282.000000	0.471065
281.000000	0.469820
280.000000	0.471792
279.000000	0.471967
278.000000	0.471236
277.000000	0.467008
276.000000	0.464935
275.000000	0.458979
274.000000	0.455788
273.000000	0.450525
272.000000	0.445299
271.000000	0.442541
270.000000	0.442104
269.000000	0.441660
268.000000	0.436978
267.000000	0.432472
266.000000	0.428398
265.000000	0.426106
264.000000	0.421134
263.000000	0.414693
262.000000	0.412494
261.000000	0.408722
260.000000	0.404548
259.000000	0.401966
258.000000	0.399198
257.000000	0.394304
256.000000	0.389686
255.000000	0.388442
254.000000	0.387713
253.000000	0.388351
252.000000	0.392657
251.000000	0.397376
250.000000	0.402998
249.000000	0.411471
248.000000	0.425785
247.000000	0.443171
246.000000	0.461218
245.000000	0.482094
244.000000	0.510522
243.000000	0.539983
242.000000	0.569593
241.000000	0.602106
240.000000	0.631479
239.000000	0.661748
238.000000	0.693112
237.000000	0.720129
236.000000	0.741626
235.000000	0.763002
234.000000	0.785776
233.000000	0.804786
232.000000	0.824355
231.000000	0.845221
230.000000	0.862129
229.000000	0.878516
228.000000	0.897037
227.000000	0.911964
226.000000	0.924609
225.000000	0.936930
224.000000	0.948563
223.000000	0.959989
222.000000	0.962575
221.000000	0.967725
220.000000	0.977973
219.000000	0.981837
218.000000	0.982257
217.000000	0.980607
216.000000	0.980427
215.000000	0.982324
214.000000	0.982737
213.000000	0.980099
212.000000	0.973752
211.000000	0.968459
210.000000	0.963103
209.000000	0.954737
208.000000	0.946498
207.000000	0.938175
206.000000	0.929539
205.000000	0.923804
204.000000	0.919694
203.000000	0.904205
202.000000	0.888183
201.000000	0.879129
200.000000	0.864433
