PE UV       SUBTECH     SPECTRUM    ASCII       PEDS        4.00        
   -1
AgChevreUK 52.Sample.asc
18/03/06
17:01:20.00
18/03/06
17:01:20.00
Administrator

200.000000
1
Lambda 750
750N8071901
PerkinElmer UV WinLab 6.0.4.0738 / 1.61.00 Lambda 900

0
0
3350/servo 860.8/2
0
0
UV/VIS
1
1
1
CommonBeamDepol,150mm sphere / downward view
0
0
0
0
Program
Program
3350/servo 860.8/2
3350/0.2 860.8/0.2
3350/0.2 860.8/0.2
0
1
 
 
 
0
 
860.8
319.2
860.8
Front
100
on
 
 
0
0
0
 
0
 
 
 
0
 
 
0
0
0
0
0
 
 
 
 
0
0


0
0
#HDR
-1
-1
#GR
nm
A
1.0
0.0
2350.000000
-1.000000
2151
8
0.976097
-0.013878
#DATA
2350.000000	0.399985
2349.000000	0.390871
2348.000000	0.395017
2347.000000	0.384350
2346.000000	0.396040
2345.000000	0.395019
2344.000000	0.387645
2343.000000	0.392680
2342.000000	0.393144
2341.000000	0.389209
2340.000000	0.388575
2339.000000	0.385723
2338.000000	0.381107
2337.000000	0.382775
2336.000000	0.381538
2335.000000	0.378263
2334.000000	0.380867
2333.000000	0.374811
2332.000000	0.372804
2331.000000	0.381348
2330.000000	0.379970
2329.000000	0.380120
2328.000000	0.378128
2327.000000	0.382940
2326.000000	0.380421
2325.000000	0.382767
2324.000000	0.381082
2323.000000	0.384700
2322.000000	0.385244
2321.000000	0.382598
2320.000000	0.383297
2319.000000	0.385660
2318.000000	0.390644
2317.000000	0.389794
2316.000000	0.385566
2315.000000	0.392263
2314.000000	0.393493
2313.000000	0.391783
2312.000000	0.395664
2311.000000	0.395041
2310.000000	0.396619
2309.000000	0.393628
2308.000000	0.392292
2307.000000	0.396233
2306.000000	0.397400
2305.000000	0.396632
2304.000000	0.398304
2303.000000	0.399599
2302.000000	0.402639
2301.000000	0.407594
2300.000000	0.406892
2299.000000	0.405639
2298.000000	0.410488
2297.000000	0.412250
2296.000000	0.412757
2295.000000	0.409573
2294.000000	0.407325
2293.000000	0.410448
2292.000000	0.414477
2291.000000	0.415879
2290.000000	0.418626
2289.000000	0.422206
2288.000000	0.422349
2287.000000	0.417489
2286.000000	0.417679
2285.000000	0.421644
2284.000000	0.424468
2283.000000	0.422611
2282.000000	0.423528
2281.000000	0.422630
2280.000000	0.422630
2279.000000	0.420580
2278.000000	0.422535
2277.000000	0.421085
2276.000000	0.419694
2275.000000	0.421333
2274.000000	0.418065
2273.000000	0.413749
2272.000000	0.413841
2271.000000	0.418411
2270.000000	0.417483
2269.000000	0.413684
2268.000000	0.412927
2267.000000	0.412138
2266.000000	0.410242
2265.000000	0.409376
2264.000000	0.410314
2263.000000	0.411812
2262.000000	0.408878
2261.000000	0.403025
2260.000000	0.397587
2259.000000	0.394804
2258.000000	0.393613
2257.000000	0.387690
2256.000000	0.386091
2255.000000	0.386443
2254.000000	0.383535
2253.000000	0.379053
2252.000000	0.375941
2251.000000	0.372030
2250.000000	0.367460
2249.000000	0.365840
2248.000000	0.365738
2247.000000	0.360672
2246.000000	0.355082
2245.000000	0.354225
2244.000000	0.351999
2243.000000	0.347640
2242.000000	0.346708
2241.000000	0.346810
2240.000000	0.344311
2239.000000	0.341326
2238.000000	0.339040
2237.000000	0.337930
2236.000000	0.336814
2235.000000	0.333461
2234.000000	0.331493
2233.000000	0.332333
2232.000000	0.332467
2231.000000	0.331421
2230.000000	0.331546
2229.000000	0.330559
2228.000000	0.328392
2227.000000	0.329855
2226.000000	0.332282
2225.000000	0.331467
2224.000000	0.330062
2223.000000	0.331583
2222.000000	0.329630
2221.000000	0.330000
2220.000000	0.332065
2219.000000	0.329771
2218.000000	0.330337
2217.000000	0.333080
2216.000000	0.334179
2215.000000	0.334013
2214.000000	0.332335
2213.000000	0.332499
2212.000000	0.336887
2211.000000	0.337565
2210.000000	0.338536
2209.000000	0.339269
2208.000000	0.340611
2207.000000	0.340084
2206.000000	0.340011
2205.000000	0.340952
2204.000000	0.341856
2203.000000	0.345826
2202.000000	0.346401
2201.000000	0.345346
2200.000000	0.346830
2199.000000	0.349469
2198.000000	0.348910
2197.000000	0.349437
2196.000000	0.351926
2195.000000	0.355377
2194.000000	0.355058
2193.000000	0.355302
2192.000000	0.353956
2191.000000	0.355927
2190.000000	0.356803
2189.000000	0.358707
2188.000000	0.360864
2187.000000	0.364412
2186.000000	0.363718
2185.000000	0.362206
2184.000000	0.361613
2183.000000	0.360701
2182.000000	0.363336
2181.000000	0.364479
2180.000000	0.365111
2179.000000	0.365788
2178.000000	0.365695
2177.000000	0.366879
2176.000000	0.364255
2175.000000	0.364691
2174.000000	0.364000
2173.000000	0.363954
2172.000000	0.363523
2171.000000	0.362959
2170.000000	0.361515
2169.000000	0.360207
2168.000000	0.356873
2167.000000	0.357846
2166.000000	0.357421
2165.000000	0.356926
2164.000000	0.353018
2163.000000	0.354795
2162.000000	0.351899
2161.000000	0.348585
2160.000000	0.348001
2159.000000	0.344282
2158.000000	0.343680
2157.000000	0.341612
2156.000000	0.340849
2155.000000	0.335988
2154.000000	0.335878
2153.000000	0.329493
2152.000000	0.328822
2151.000000	0.330174
2150.000000	0.327246
2149.000000	0.323206
2148.000000	0.323980
2147.000000	0.318950
2146.000000	0.317556
2145.000000	0.315689
2144.000000	0.313753
2143.000000	0.311442
2142.000000	0.308416
2141.000000	0.307617
2140.000000	0.305341
2139.000000	0.302558
2138.000000	0.300070
2137.000000	0.301936
2136.000000	0.297801
2135.000000	0.299306
2134.000000	0.296505
2133.000000	0.297168
2132.000000	0.293232
2131.000000	0.293879
2130.000000	0.290624
2129.000000	0.290670
2128.000000	0.290222
2127.000000	0.291213
2126.000000	0.289406
2125.000000	0.286989
2124.000000	0.285425
2123.000000	0.284067
2122.000000	0.283040
2121.000000	0.282837
2120.000000	0.283257
2119.000000	0.281213
2118.000000	0.280905
2117.000000	0.280223
2116.000000	0.278589
2115.000000	0.278042
2114.000000	0.278911
2113.000000	0.279704
2112.000000	0.280191
2111.000000	0.279575
2110.000000	0.279715
2109.000000	0.276586
2108.000000	0.277226
2107.000000	0.275864
2106.000000	0.278310
2105.000000	0.278073
2104.000000	0.278164
2103.000000	0.274186
2102.000000	0.277674
2101.000000	0.274920
2100.000000	0.274612
2099.000000	0.276408
2098.000000	0.276966
2097.000000	0.276872
2096.000000	0.275691
2095.000000	0.275708
2094.000000	0.276674
2093.000000	0.276633
2092.000000	0.275633
2091.000000	0.276775
2090.000000	0.277573
2089.000000	0.277274
2088.000000	0.277684
2087.000000	0.278460
2086.000000	0.278394
2085.000000	0.279062
2084.000000	0.278420
2083.000000	0.280285
2082.000000	0.281148
2081.000000	0.282738
2080.000000	0.285013
2079.000000	0.284959
2078.000000	0.286729
2077.000000	0.286678
2076.000000	0.288048
2075.000000	0.288769
2074.000000	0.289920
2073.000000	0.292088
2072.000000	0.294793
2071.000000	0.297004
2070.000000	0.298805
2069.000000	0.300382
2068.000000	0.302528
2067.000000	0.303422
2066.000000	0.305675
2065.000000	0.307547
2064.000000	0.308582
2063.000000	0.309761
2062.000000	0.312229
2061.000000	0.314498
2060.000000	0.316579
2059.000000	0.318214
2058.000000	0.320354
2057.000000	0.323380
2056.000000	0.324185
2055.000000	0.325948
2054.000000	0.329051
2053.000000	0.332013
2052.000000	0.332798
2051.000000	0.333703
2050.000000	0.335052
2049.000000	0.336096
2048.000000	0.337865
2047.000000	0.338915
2046.000000	0.340554
2045.000000	0.341697
2044.000000	0.341645
2043.000000	0.341408
2042.000000	0.340690
2041.000000	0.340040
2040.000000	0.340006
2039.000000	0.340064
2038.000000	0.339121
2037.000000	0.338509
2036.000000	0.338100
2035.000000	0.337172
2034.000000	0.335423
2033.000000	0.334007
2032.000000	0.332247
2031.000000	0.331260
2030.000000	0.329643
2029.000000	0.327513
2028.000000	0.325829
2027.000000	0.324373
2026.000000	0.322244
2025.000000	0.321297
2024.000000	0.320658
2023.000000	0.318629
2022.000000	0.318148
2021.000000	0.317541
2020.000000	0.316155
2019.000000	0.315788
2018.000000	0.315662
2017.000000	0.314740
2016.000000	0.314090
2015.000000	0.313926
2014.000000	0.314270
2013.000000	0.315176
2012.000000	0.315787
2011.000000	0.315426
2010.000000	0.315870
2009.000000	0.316905
2008.000000	0.318476
2007.000000	0.319219
2006.000000	0.319646
2005.000000	0.321007
2004.000000	0.322162
2003.000000	0.323538
2002.000000	0.324351
2001.000000	0.325948
2000.000000	0.327351
1999.000000	0.328052
1998.000000	0.329561
1997.000000	0.330888
1996.000000	0.332428
1995.000000	0.334284
1994.000000	0.335319
1993.000000	0.337385
1992.000000	0.339162
1991.000000	0.340504
1990.000000	0.341538
1989.000000	0.343458
1988.000000	0.344790
1987.000000	0.346471
1986.000000	0.349049
1985.000000	0.349545
1984.000000	0.350635
1983.000000	0.352687
1982.000000	0.353649
1981.000000	0.354840
1980.000000	0.357180
1979.000000	0.358586
1978.000000	0.360009
1977.000000	0.361882
1976.000000	0.363071
1975.000000	0.364383
1974.000000	0.366163
1973.000000	0.367444
1972.000000	0.368875
1971.000000	0.369853
1970.000000	0.371023
1969.000000	0.372049
1968.000000	0.374325
1967.000000	0.374789
1966.000000	0.376322
1965.000000	0.378068
1964.000000	0.379399
1963.000000	0.381567
1962.000000	0.382784
1961.000000	0.383780
1960.000000	0.384184
1959.000000	0.385687
1958.000000	0.387987
1957.000000	0.388325
1956.000000	0.389807
1955.000000	0.391494
1954.000000	0.391394
1953.000000	0.392318
1952.000000	0.391574
1951.000000	0.390380
1950.000000	0.392450
1949.000000	0.395282
1948.000000	0.394332
1947.000000	0.395471
1946.000000	0.396181
1945.000000	0.395566
1944.000000	0.395902
1943.000000	0.395196
1942.000000	0.394949
1941.000000	0.393888
1940.000000	0.393036
1939.000000	0.392351
1938.000000	0.390700
1937.000000	0.389699
1936.000000	0.387613
1935.000000	0.386816
1934.000000	0.385145
1933.000000	0.384276
1932.000000	0.381156
1931.000000	0.379886
1930.000000	0.376326
1929.000000	0.375361
1928.000000	0.372308
1927.000000	0.368402
1926.000000	0.365721
1925.000000	0.362102
1924.000000	0.357315
1923.000000	0.354951
1922.000000	0.350692
1921.000000	0.344926
1920.000000	0.342950
1919.000000	0.336548
1918.000000	0.333175
1917.000000	0.327749
1916.000000	0.324166
1915.000000	0.319564
1914.000000	0.314348
1913.000000	0.308955
1912.000000	0.301399
1911.000000	0.297004
1910.000000	0.291911
1909.000000	0.286147
1908.000000	0.281798
1907.000000	0.272951
1906.000000	0.268459
1905.000000	0.261500
1904.000000	0.255543
1903.000000	0.249803
1902.000000	0.244100
1901.000000	0.237612
1900.000000	0.231511
1899.000000	0.225074
1898.000000	0.218606
1897.000000	0.212837
1896.000000	0.207677
1895.000000	0.201185
1894.000000	0.196548
1893.000000	0.190972
1892.000000	0.184252
1891.000000	0.179725
1890.000000	0.174860
1889.000000	0.170237
1888.000000	0.166219
1887.000000	0.161202
1886.000000	0.157256
1885.000000	0.153715
1884.000000	0.149224
1883.000000	0.144826
1882.000000	0.141515
1881.000000	0.138482
1880.000000	0.134721
1879.000000	0.132046
1878.000000	0.129354
1877.000000	0.126233
1876.000000	0.124071
1875.000000	0.120938
1874.000000	0.119188
1873.000000	0.116640
1872.000000	0.114543
1871.000000	0.112257
1870.000000	0.110605
1869.000000	0.109439
1868.000000	0.107788
1867.000000	0.107051
1866.000000	0.105524
1865.000000	0.104412
1864.000000	0.103705
1863.000000	0.102639
1862.000000	0.102031
1861.000000	0.101565
1860.000000	0.100686
1859.000000	0.100556
1858.000000	0.100184
1857.000000	0.099424
1856.000000	0.099133
1855.000000	0.098781
1854.000000	0.098657
1853.000000	0.098476
1852.000000	0.098496
1851.000000	0.098269
1850.000000	0.098246
1849.000000	0.098510
1848.000000	0.098149
1847.000000	0.098077
1846.000000	0.098313
1845.000000	0.098690
1844.000000	0.098865
1843.000000	0.099204
1842.000000	0.099302
1841.000000	0.099323
1840.000000	0.099654
1839.000000	0.100362
1838.000000	0.100638
1837.000000	0.100924
1836.000000	0.101349
1835.000000	0.101921
1834.000000	0.102199
1833.000000	0.102287
1832.000000	0.102642
1831.000000	0.103584
1830.000000	0.103930
1829.000000	0.104355
1828.000000	0.104887
1827.000000	0.105152
1826.000000	0.105800
1825.000000	0.106129
1824.000000	0.106299
1823.000000	0.106938
1822.000000	0.107590
1821.000000	0.108230
1820.000000	0.108683
1819.000000	0.108846
1818.000000	0.109255
1817.000000	0.109492
1816.000000	0.109952
1815.000000	0.110187
1814.000000	0.110439
1813.000000	0.111068
1812.000000	0.111418
1811.000000	0.111831
1810.000000	0.112166
1809.000000	0.112487
1808.000000	0.113074
1807.000000	0.113393
1806.000000	0.113709
1805.000000	0.114236
1804.000000	0.114676
1803.000000	0.115036
1802.000000	0.115296
1801.000000	0.115657
1800.000000	0.115972
1799.000000	0.116290
1798.000000	0.116689
1797.000000	0.117096
1796.000000	0.117310
1795.000000	0.117637
1794.000000	0.117732
1793.000000	0.118132
1792.000000	0.118573
1791.000000	0.118718
1790.000000	0.118807
1789.000000	0.119002
1788.000000	0.119510
1787.000000	0.119995
1786.000000	0.120192
1785.000000	0.120310
1784.000000	0.120806
1783.000000	0.121107
1782.000000	0.121415
1781.000000	0.121732
1780.000000	0.122133
1779.000000	0.122579
1778.000000	0.123371
1777.000000	0.123874
1776.000000	0.124407
1775.000000	0.124802
1774.000000	0.125410
1773.000000	0.126001
1772.000000	0.126501
1771.000000	0.126983
1770.000000	0.127801
1769.000000	0.128528
1768.000000	0.129099
1767.000000	0.129845
1766.000000	0.130254
1765.000000	0.130841
1764.000000	0.131250
1763.000000	0.131884
1762.000000	0.132717
1761.000000	0.133071
1760.000000	0.133973
1759.000000	0.134602
1758.000000	0.134778
1757.000000	0.135481
1756.000000	0.136242
1755.000000	0.136614
1754.000000	0.137582
1753.000000	0.138085
1752.000000	0.138911
1751.000000	0.139293
1750.000000	0.140082
1749.000000	0.140528
1748.000000	0.141257
1747.000000	0.141757
1746.000000	0.142808
1745.000000	0.143446
1744.000000	0.143862
1743.000000	0.144764
1742.000000	0.145618
1741.000000	0.146052
1740.000000	0.146649
1739.000000	0.147528
1738.000000	0.147820
1737.000000	0.148322
1736.000000	0.148415
1735.000000	0.148972
1734.000000	0.149043
1733.000000	0.149595
1732.000000	0.149239
1731.000000	0.149276
1730.000000	0.149012
1729.000000	0.148773
1728.000000	0.148244
1727.000000	0.147817
1726.000000	0.147303
1725.000000	0.146732
1724.000000	0.146048
1723.000000	0.144946
1722.000000	0.143884
1721.000000	0.143012
1720.000000	0.141795
1719.000000	0.140631
1718.000000	0.139795
1717.000000	0.138576
1716.000000	0.137655
1715.000000	0.137008
1714.000000	0.135838
1713.000000	0.134658
1712.000000	0.133591
1711.000000	0.132826
1710.000000	0.132591
1709.000000	0.131734
1708.000000	0.131349
1707.000000	0.130566
1706.000000	0.130221
1705.000000	0.130043
1704.000000	0.129292
1703.000000	0.129000
1702.000000	0.128891
1701.000000	0.128543
1700.000000	0.128503
1699.000000	0.128190
1698.000000	0.127780
1697.000000	0.127579
1696.000000	0.126750
1695.000000	0.126805
1694.000000	0.126079
1693.000000	0.125477
1692.000000	0.125095
1691.000000	0.124122
1690.000000	0.123010
1689.000000	0.122199
1688.000000	0.121002
1687.000000	0.119842
1686.000000	0.118260
1685.000000	0.116917
1684.000000	0.115327
1683.000000	0.114014
1682.000000	0.112237
1681.000000	0.110358
1680.000000	0.108520
1679.000000	0.106759
1678.000000	0.104990
1677.000000	0.103109
1676.000000	0.101482
1675.000000	0.099714
1674.000000	0.097706
1673.000000	0.096138
1672.000000	0.094376
1671.000000	0.092659
1670.000000	0.091460
1669.000000	0.089482
1668.000000	0.088109
1667.000000	0.086795
1666.000000	0.086061
1665.000000	0.084960
1664.000000	0.083795
1663.000000	0.083051
1662.000000	0.082162
1661.000000	0.081480
1660.000000	0.080804
1659.000000	0.080102
1658.000000	0.079719
1657.000000	0.079202
1656.000000	0.078852
1655.000000	0.078486
1654.000000	0.078277
1653.000000	0.078160
1652.000000	0.078005
1651.000000	0.077967
1650.000000	0.077990
1649.000000	0.077820
1648.000000	0.078059
1647.000000	0.078079
1646.000000	0.078290
1645.000000	0.078450
1644.000000	0.078344
1643.000000	0.078715
1642.000000	0.079048
1641.000000	0.079111
1640.000000	0.079343
1639.000000	0.079455
1638.000000	0.079926
1637.000000	0.080283
1636.000000	0.080637
1635.000000	0.081009
1634.000000	0.081399
1633.000000	0.081700
1632.000000	0.082080
1631.000000	0.082290
1630.000000	0.082850
1629.000000	0.083215
1628.000000	0.083870
1627.000000	0.084241
1626.000000	0.084717
1625.000000	0.085155
1624.000000	0.085613
1623.000000	0.086054
1622.000000	0.086612
1621.000000	0.087067
1620.000000	0.087514
1619.000000	0.088065
1618.000000	0.088612
1617.000000	0.089135
1616.000000	0.089637
1615.000000	0.090216
1614.000000	0.090784
1613.000000	0.091330
1612.000000	0.091870
1611.000000	0.092417
1610.000000	0.093026
1609.000000	0.093708
1608.000000	0.094406
1607.000000	0.094959
1606.000000	0.095575
1605.000000	0.096324
1604.000000	0.096976
1603.000000	0.097601
1602.000000	0.098214
1601.000000	0.098860
1600.000000	0.099623
1599.000000	0.100371
1598.000000	0.101011
1597.000000	0.101696
1596.000000	0.102339
1595.000000	0.102819
1594.000000	0.103214
1593.000000	0.103731
1592.000000	0.104426
1591.000000	0.105032
1590.000000	0.105554
1589.000000	0.106127
1588.000000	0.106662
1587.000000	0.107182
1586.000000	0.107786
1585.000000	0.108210
1584.000000	0.108756
1583.000000	0.109294
1582.000000	0.109752
1581.000000	0.110235
1580.000000	0.110680
1579.000000	0.111198
1578.000000	0.111733
1577.000000	0.112368
1576.000000	0.112841
1575.000000	0.113127
1574.000000	0.113718
1573.000000	0.114199
1572.000000	0.114730
1571.000000	0.115346
1570.000000	0.115736
1569.000000	0.116022
1568.000000	0.116371
1567.000000	0.116897
1566.000000	0.117243
1565.000000	0.117519
1564.000000	0.117932
1563.000000	0.118276
1562.000000	0.118517
1561.000000	0.118808
1560.000000	0.119073
1559.000000	0.119338
1558.000000	0.119552
1557.000000	0.119866
1556.000000	0.120184
1555.000000	0.120527
1554.000000	0.120865
1553.000000	0.121188
1552.000000	0.121455
1551.000000	0.121963
1550.000000	0.122350
1549.000000	0.122723
1548.000000	0.122981
1547.000000	0.123603
1546.000000	0.124212
1545.000000	0.124726
1544.000000	0.125631
1543.000000	0.126199
1542.000000	0.126830
1541.000000	0.127788
1540.000000	0.128763
1539.000000	0.129543
1538.000000	0.130315
1537.000000	0.131225
1536.000000	0.132285
1535.000000	0.132947
1534.000000	0.133924
1533.000000	0.134568
1532.000000	0.135641
1531.000000	0.136883
1530.000000	0.137769
1529.000000	0.138615
1528.000000	0.139457
1527.000000	0.140035
1526.000000	0.140844
1525.000000	0.141726
1524.000000	0.142543
1523.000000	0.143158
1522.000000	0.143644
1521.000000	0.144344
1520.000000	0.144753
1519.000000	0.145310
1518.000000	0.145821
1517.000000	0.146340
1516.000000	0.146687
1515.000000	0.146917
1514.000000	0.147743
1513.000000	0.147857
1512.000000	0.148204
1511.000000	0.148621
1510.000000	0.148750
1509.000000	0.149129
1508.000000	0.149391
1507.000000	0.149512
1506.000000	0.149618
1505.000000	0.149994
1504.000000	0.150208
1503.000000	0.150199
1502.000000	0.150338
1501.000000	0.150335
1500.000000	0.150279
1499.000000	0.150505
1498.000000	0.150076
1497.000000	0.150100
1496.000000	0.150076
1495.000000	0.149993
1494.000000	0.149758
1493.000000	0.149481
1492.000000	0.149138
1491.000000	0.148776
1490.000000	0.148189
1489.000000	0.148115
1488.000000	0.147423
1487.000000	0.146919
1486.000000	0.146490
1485.000000	0.145622
1484.000000	0.145064
1483.000000	0.144686
1482.000000	0.144104
1481.000000	0.143285
1480.000000	0.142667
1479.000000	0.142204
1478.000000	0.141544
1477.000000	0.140960
1476.000000	0.140365
1475.000000	0.139661
1474.000000	0.138919
1473.000000	0.138599
1472.000000	0.137909
1471.000000	0.137412
1470.000000	0.136775
1469.000000	0.136283
1468.000000	0.135978
1467.000000	0.135258
1466.000000	0.134804
1465.000000	0.134160
1464.000000	0.133720
1463.000000	0.133568
1462.000000	0.132790
1461.000000	0.132548
1460.000000	0.131864
1459.000000	0.131250
1458.000000	0.130656
1457.000000	0.130176
1456.000000	0.129398
1455.000000	0.128879
1454.000000	0.128358
1453.000000	0.127810
1452.000000	0.126978
1451.000000	0.126311
1450.000000	0.125465
1449.000000	0.124827
1448.000000	0.124170
1447.000000	0.123419
1446.000000	0.122784
1445.000000	0.121935
1444.000000	0.121138
1443.000000	0.120316
1442.000000	0.119401
1441.000000	0.118594
1440.000000	0.117576
1439.000000	0.116680
1438.000000	0.115579
1437.000000	0.114562
1436.000000	0.113654
1435.000000	0.112481
1434.000000	0.111508
1433.000000	0.110286
1432.000000	0.109105
1431.000000	0.108075
1430.000000	0.106807
1429.000000	0.105501
1428.000000	0.104109
1427.000000	0.102732
1426.000000	0.101391
1425.000000	0.099896
1424.000000	0.098397
1423.000000	0.096977
1422.000000	0.095430
1421.000000	0.093653
1420.000000	0.091972
1419.000000	0.090504
1418.000000	0.088615
1417.000000	0.086904
1416.000000	0.085242
1415.000000	0.083456
1414.000000	0.081581
1413.000000	0.079766
1412.000000	0.077944
1411.000000	0.076080
1410.000000	0.074281
1409.000000	0.072497
1408.000000	0.070636
1407.000000	0.068888
1406.000000	0.067027
1405.000000	0.065334
1404.000000	0.063793
1403.000000	0.061956
1402.000000	0.060177
1401.000000	0.058529
1400.000000	0.056878
1399.000000	0.055255
1398.000000	0.053803
1397.000000	0.052298
1396.000000	0.050752
1395.000000	0.049390
1394.000000	0.047941
1393.000000	0.046346
1392.000000	0.045062
1391.000000	0.043772
1390.000000	0.042549
1389.000000	0.041386
1388.000000	0.040123
1387.000000	0.039032
1386.000000	0.037958
1385.000000	0.036868
1384.000000	0.035900
1383.000000	0.035006
1382.000000	0.034118
1381.000000	0.033234
1380.000000	0.032542
1379.000000	0.031819
1378.000000	0.031039
1377.000000	0.030420
1376.000000	0.029725
1375.000000	0.029136
1374.000000	0.028605
1373.000000	0.028015
1372.000000	0.027487
1371.000000	0.026936
1370.000000	0.026456
1369.000000	0.025924
1368.000000	0.025313
1367.000000	0.024827
1366.000000	0.024352
1365.000000	0.023878
1364.000000	0.023377
1363.000000	0.022765
1362.000000	0.022197
1361.000000	0.021605
1360.000000	0.021130
1359.000000	0.020648
1358.000000	0.020118
1357.000000	0.019589
1356.000000	0.019024
1355.000000	0.018534
1354.000000	0.018053
1353.000000	0.017442
1352.000000	0.016841
1351.000000	0.016366
1350.000000	0.015855
1349.000000	0.015403
1348.000000	0.014824
1347.000000	0.014263
1346.000000	0.013845
1345.000000	0.013432
1344.000000	0.012943
1343.000000	0.012445
1342.000000	0.011907
1341.000000	0.011567
1340.000000	0.011113
1339.000000	0.010635
1338.000000	0.010238
1337.000000	0.009807
1336.000000	0.009390
1335.000000	0.009098
1334.000000	0.008826
1333.000000	0.008415
1332.000000	0.008172
1331.000000	0.007940
1330.000000	0.007583
1329.000000	0.007289
1328.000000	0.006969
1327.000000	0.006726
1326.000000	0.006506
1325.000000	0.006145
1324.000000	0.005934
1323.000000	0.005878
1322.000000	0.005732
1321.000000	0.005535
1320.000000	0.005348
1319.000000	0.005208
1318.000000	0.005016
1317.000000	0.004719
1316.000000	0.004819
1315.000000	0.004822
1314.000000	0.004577
1313.000000	0.004307
1312.000000	0.004088
1311.000000	0.004184
1310.000000	0.003948
1309.000000	0.003931
1308.000000	0.003986
1307.000000	0.003719
1306.000000	0.003463
1305.000000	0.003466
1304.000000	0.003592
1303.000000	0.003304
1302.000000	0.003283
1301.000000	0.003300
1300.000000	0.003283
1299.000000	0.003269
1298.000000	0.003182
1297.000000	0.003174
1296.000000	0.003149
1295.000000	0.003198
1294.000000	0.003153
1293.000000	0.003168
1292.000000	0.003203
1291.000000	0.003172
1290.000000	0.003317
1289.000000	0.003411
1288.000000	0.003414
1287.000000	0.003503
1286.000000	0.003555
1285.000000	0.003664
1284.000000	0.003669
1283.000000	0.003645
1282.000000	0.003650
1281.000000	0.003636
1280.000000	0.003696
1279.000000	0.003670
1278.000000	0.003599
1277.000000	0.003648
1276.000000	0.003674
1275.000000	0.003664
1274.000000	0.003713
1273.000000	0.003630
1272.000000	0.003587
1271.000000	0.003596
1270.000000	0.003519
1269.000000	0.003483
1268.000000	0.003452
1267.000000	0.003569
1266.000000	0.003281
1265.000000	0.003302
1264.000000	0.003296
1263.000000	0.003086
1262.000000	0.003106
1261.000000	0.003030
1260.000000	0.003133
1259.000000	0.002928
1258.000000	0.002867
1257.000000	0.002764
1256.000000	0.002770
1255.000000	0.002802
1254.000000	0.002876
1253.000000	0.002918
1252.000000	0.002860
1251.000000	0.002960
1250.000000	0.002868
1249.000000	0.003065
1248.000000	0.003130
1247.000000	0.003135
1246.000000	0.003236
1245.000000	0.003350
1244.000000	0.003543
1243.000000	0.003576
1242.000000	0.003854
1241.000000	0.004001
1240.000000	0.004243
1239.000000	0.004222
1238.000000	0.004571
1237.000000	0.004730
1236.000000	0.004913
1235.000000	0.005191
1234.000000	0.005377
1233.000000	0.005608
1232.000000	0.005832
1231.000000	0.006043
1230.000000	0.006364
1229.000000	0.006514
1228.000000	0.006686
1227.000000	0.006970
1226.000000	0.007302
1225.000000	0.007539
1224.000000	0.007664
1223.000000	0.007935
1222.000000	0.008221
1221.000000	0.008482
1220.000000	0.008701
1219.000000	0.008974
1218.000000	0.009231
1217.000000	0.009463
1216.000000	0.009661
1215.000000	0.009956
1214.000000	0.010247
1213.000000	0.010539
1212.000000	0.010745
1211.000000	0.011059
1210.000000	0.011404
1209.000000	0.011666
1208.000000	0.011952
1207.000000	0.012196
1206.000000	0.012500
1205.000000	0.012804
1204.000000	0.013272
1203.000000	0.013443
1202.000000	0.013694
1201.000000	0.014002
1200.000000	0.014240
1199.000000	0.014563
1198.000000	0.014914
1197.000000	0.015006
1196.000000	0.015249
1195.000000	0.015496
1194.000000	0.015735
1193.000000	0.015835
1192.000000	0.015962
1191.000000	0.016106
1190.000000	0.016176
1189.000000	0.016232
1188.000000	0.016279
1187.000000	0.016246
1186.000000	0.016232
1185.000000	0.016141
1184.000000	0.016128
1183.000000	0.016076
1182.000000	0.015838
1181.000000	0.015613
1180.000000	0.015347
1179.000000	0.015042
1178.000000	0.014733
1177.000000	0.014399
1176.000000	0.013900
1175.000000	0.013486
1174.000000	0.013069
1173.000000	0.012537
1172.000000	0.012123
1171.000000	0.011586
1170.000000	0.010884
1169.000000	0.010356
1168.000000	0.009849
1167.000000	0.009134
1166.000000	0.008423
1165.000000	0.007910
1164.000000	0.007289
1163.000000	0.006609
1162.000000	0.005976
1161.000000	0.005339
1160.000000	0.004700
1159.000000	0.004080
1158.000000	0.003542
1157.000000	0.002971
1156.000000	0.002350
1155.000000	0.001750
1154.000000	0.001268
1153.000000	0.000771
1152.000000	0.000173
1151.000000	-0.000302
1150.000000	-0.000672
1149.000000	-0.001027
1148.000000	-0.001533
1147.000000	-0.001989
1146.000000	-0.002363
1145.000000	-0.002792
1144.000000	-0.003147
1143.000000	-0.003529
1142.000000	-0.003913
1141.000000	-0.004302
1140.000000	-0.004711
1139.000000	-0.005092
1138.000000	-0.005415
1137.000000	-0.005811
1136.000000	-0.006168
1135.000000	-0.006396
1134.000000	-0.006691
1133.000000	-0.006995
1132.000000	-0.007320
1131.000000	-0.007661
1130.000000	-0.007866
1129.000000	-0.008183
1128.000000	-0.008288
1127.000000	-0.008369
1126.000000	-0.008696
1125.000000	-0.008914
1124.000000	-0.008914
1123.000000	-0.009080
1122.000000	-0.009258
1121.000000	-0.009370
1120.000000	-0.009517
1119.000000	-0.009574
1118.000000	-0.009656
1117.000000	-0.009694
1116.000000	-0.009740
1115.000000	-0.009807
1114.000000	-0.009914
1113.000000	-0.009949
1112.000000	-0.009933
1111.000000	-0.009960
1110.000000	-0.010065
1109.000000	-0.010016
1108.000000	-0.010076
1107.000000	-0.010078
1106.000000	-0.010022
1105.000000	-0.010054
1104.000000	-0.010140
1103.000000	-0.010039
1102.000000	-0.010031
1101.000000	-0.010089
1100.000000	-0.010133
1099.000000	-0.010232
1098.000000	-0.010169
1097.000000	-0.010166
1096.000000	-0.010146
1095.000000	-0.010227
1094.000000	-0.010209
1093.000000	-0.010129
1092.000000	-0.010151
1091.000000	-0.010133
1090.000000	-0.010142
1089.000000	-0.010164
1088.000000	-0.010189
1087.000000	-0.010044
1086.000000	-0.009955
1085.000000	-0.009926
1084.000000	-0.010062
1083.000000	-0.010098
1082.000000	-0.010010
1081.000000	-0.010023
1080.000000	-0.010055
1079.000000	-0.009818
1078.000000	-0.009844
1077.000000	-0.009766
1076.000000	-0.009784
1075.000000	-0.009746
1074.000000	-0.009572
1073.000000	-0.009466
1072.000000	-0.009563
1071.000000	-0.009451
1070.000000	-0.009390
1069.000000	-0.009400
1068.000000	-0.009357
1067.000000	-0.009338
1066.000000	-0.009225
1065.000000	-0.009020
1064.000000	-0.009108
1063.000000	-0.008977
1062.000000	-0.008934
1061.000000	-0.008970
1060.000000	-0.008893
1059.000000	-0.008824
1058.000000	-0.008789
1057.000000	-0.008553
1056.000000	-0.008516
1055.000000	-0.008534
1054.000000	-0.008399
1053.000000	-0.008388
1052.000000	-0.008220
1051.000000	-0.008162
1050.000000	-0.008236
1049.000000	-0.007987
1048.000000	-0.008121
1047.000000	-0.008052
1046.000000	-0.007962
1045.000000	-0.007883
1044.000000	-0.007834
1043.000000	-0.007703
1042.000000	-0.007811
1041.000000	-0.007749
1040.000000	-0.007675
1039.000000	-0.007630
1038.000000	-0.007582
1037.000000	-0.007557
1036.000000	-0.007588
1035.000000	-0.007501
1034.000000	-0.007398
1033.000000	-0.007298
1032.000000	-0.007301
1031.000000	-0.007371
1030.000000	-0.007268
1029.000000	-0.007155
1028.000000	-0.007203
1027.000000	-0.007189
1026.000000	-0.007177
1025.000000	-0.007071
1024.000000	-0.007157
1023.000000	-0.007059
1022.000000	-0.007208
1021.000000	-0.007144
1020.000000	-0.007042
1019.000000	-0.007112
1018.000000	-0.007077
1017.000000	-0.007183
1016.000000	-0.007171
1015.000000	-0.007212
1014.000000	-0.007283
1013.000000	-0.007319
1012.000000	-0.007340
1011.000000	-0.007357
1010.000000	-0.007394
1009.000000	-0.007441
1008.000000	-0.007415
1007.000000	-0.007492
1006.000000	-0.007578
1005.000000	-0.007601
1004.000000	-0.007769
1003.000000	-0.007830
1002.000000	-0.007780
1001.000000	-0.007807
1000.000000	-0.007838
999.000000	-0.007830
998.000000	-0.007887
997.000000	-0.007940
996.000000	-0.007965
995.000000	-0.007995
994.000000	-0.008010
993.000000	-0.008219
992.000000	-0.008182
991.000000	-0.008271
990.000000	-0.008297
989.000000	-0.008372
988.000000	-0.008275
987.000000	-0.008282
986.000000	-0.008372
985.000000	-0.008421
984.000000	-0.008509
983.000000	-0.008419
982.000000	-0.008506
981.000000	-0.008646
980.000000	-0.008756
979.000000	-0.008783
978.000000	-0.008773
977.000000	-0.008945
976.000000	-0.008976
975.000000	-0.008924
974.000000	-0.009057
973.000000	-0.009092
972.000000	-0.009193
971.000000	-0.009190
970.000000	-0.009174
969.000000	-0.009157
968.000000	-0.009277
967.000000	-0.009333
966.000000	-0.009415
965.000000	-0.009506
964.000000	-0.009521
963.000000	-0.009590
962.000000	-0.009709
961.000000	-0.009825
960.000000	-0.009766
959.000000	-0.009807
958.000000	-0.009979
957.000000	-0.010054
956.000000	-0.010061
955.000000	-0.009959
954.000000	-0.010037
953.000000	-0.010154
952.000000	-0.010246
951.000000	-0.010298
950.000000	-0.010389
949.000000	-0.010417
948.000000	-0.010308
947.000000	-0.010421
946.000000	-0.010558
945.000000	-0.010469
944.000000	-0.010500
943.000000	-0.010404
942.000000	-0.010263
941.000000	-0.010318
940.000000	-0.010379
939.000000	-0.010287
938.000000	-0.010175
937.000000	-0.010184
936.000000	-0.010380
935.000000	-0.010435
934.000000	-0.010303
933.000000	-0.010331
932.000000	-0.010229
931.000000	-0.010174
930.000000	-0.010195
929.000000	-0.010249
928.000000	-0.010176
927.000000	-0.010029
926.000000	-0.010075
925.000000	-0.010097
924.000000	-0.009882
923.000000	-0.010046
922.000000	-0.010105
921.000000	-0.009978
920.000000	-0.009914
919.000000	-0.009654
918.000000	-0.009548
917.000000	-0.009690
916.000000	-0.009672
915.000000	-0.009774
914.000000	-0.009751
913.000000	-0.009534
912.000000	-0.009437
911.000000	-0.009501
910.000000	-0.009464
909.000000	-0.009292
908.000000	-0.009389
907.000000	-0.009538
906.000000	-0.009518
905.000000	-0.009463
904.000000	-0.009449
903.000000	-0.009287
902.000000	-0.009606
901.000000	-0.009753
900.000000	-0.009510
899.000000	-0.009878
898.000000	-0.009853
897.000000	-0.009824
896.000000	-0.009654
895.000000	-0.009604
894.000000	-0.010162
893.000000	-0.010059
892.000000	-0.009827
891.000000	-0.010136
890.000000	-0.010447
889.000000	-0.010252
888.000000	-0.010376
887.000000	-0.010249
886.000000	-0.010243
885.000000	-0.010589
884.000000	-0.010172
883.000000	-0.010002
882.000000	-0.010078
881.000000	-0.010223
880.000000	-0.009674
879.000000	-0.010226
878.000000	-0.010532
877.000000	-0.010429
876.000000	-0.009911
875.000000	-0.010383
874.000000	-0.010151
873.000000	-0.010636
872.000000	-0.010456
871.000000	-0.010118
870.000000	-0.010100
869.000000	-0.010475
868.000000	-0.010146
867.000000	-0.010250
866.000000	-0.010783
865.000000	-0.010081
864.000000	-0.010485
863.000000	-0.010144
862.000000	-0.010384
861.000000	-0.010340
860.000000	-0.010295
859.000000	-0.010799
858.000000	-0.013878
857.000000	-0.010756
856.000000	-0.011763
855.000000	-0.013089
854.000000	-0.010593
853.000000	-0.010865
852.000000	-0.010039
851.000000	-0.010083
850.000000	-0.010600
849.000000	-0.009558
848.000000	-0.010906
847.000000	-0.011481
846.000000	-0.009781
845.000000	-0.009437
844.000000	-0.011097
843.000000	-0.010624
842.000000	-0.009757
841.000000	-0.011560
840.000000	-0.010006
839.000000	-0.010306
838.000000	-0.009956
837.000000	-0.010158
836.000000	-0.009926
835.000000	-0.009273
834.000000	-0.011409
833.000000	-0.009949
832.000000	-0.008962
831.000000	-0.009084
830.000000	-0.010217
829.000000	-0.009554
828.000000	-0.008272
827.000000	-0.008807
826.000000	-0.009497
825.000000	-0.008775
824.000000	-0.010028
823.000000	-0.009909
822.000000	-0.009617
821.000000	-0.009669
820.000000	-0.010391
819.000000	-0.010031
818.000000	-0.009953
817.000000	-0.009801
816.000000	-0.010136
815.000000	-0.007591
814.000000	-0.008222
813.000000	-0.008866
812.000000	-0.007855
811.000000	-0.007903
810.000000	-0.008401
809.000000	-0.009505
808.000000	-0.008174
807.000000	-0.008146
806.000000	-0.008142
805.000000	-0.008432
804.000000	-0.008134
803.000000	-0.008008
802.000000	-0.007790
801.000000	-0.009678
800.000000	-0.008428
799.000000	-0.008482
798.000000	-0.008788
797.000000	-0.008530
796.000000	-0.008508
795.000000	-0.008556
794.000000	-0.007918
793.000000	-0.008219
792.000000	-0.008420
791.000000	-0.007728
790.000000	-0.007600
789.000000	-0.007645
788.000000	-0.007496
787.000000	-0.008113
786.000000	-0.007715
785.000000	-0.007188
784.000000	-0.008039
783.000000	-0.007365
782.000000	-0.007549
781.000000	-0.007040
780.000000	-0.007790
779.000000	-0.006883
778.000000	-0.006878
777.000000	-0.006915
776.000000	-0.006340
775.000000	-0.006791
774.000000	-0.006617
773.000000	-0.006219
772.000000	-0.006653
771.000000	-0.006009
770.000000	-0.006059
769.000000	-0.005872
768.000000	-0.005544
767.000000	-0.005770
766.000000	-0.005231
765.000000	-0.006376
764.000000	-0.006170
763.000000	-0.006431
762.000000	-0.006303
761.000000	-0.006482
760.000000	-0.006055
759.000000	-0.005644
758.000000	-0.005194
757.000000	-0.005281
756.000000	-0.005007
755.000000	-0.005193
754.000000	-0.004956
753.000000	-0.005000
752.000000	-0.004566
751.000000	-0.004329
750.000000	-0.004002
749.000000	-0.004544
748.000000	-0.004621
747.000000	-0.004428
746.000000	-0.004154
745.000000	-0.004174
744.000000	-0.004158
743.000000	-0.003980
742.000000	-0.003429
741.000000	-0.003731
740.000000	-0.003723
739.000000	-0.003137
738.000000	-0.003373
737.000000	-0.003800
736.000000	-0.003419
735.000000	-0.002759
734.000000	-0.003270
733.000000	-0.003160
732.000000	-0.002977
731.000000	-0.002678
730.000000	-0.002382
729.000000	-0.002596
728.000000	-0.002955
727.000000	-0.003086
726.000000	-0.002162
725.000000	-0.001896
724.000000	-0.002306
723.000000	-0.002166
722.000000	-0.002059
721.000000	-0.002049
720.000000	-0.001941
719.000000	-0.001859
718.000000	-0.001634
717.000000	-0.001275
716.000000	-0.001376
715.000000	-0.001054
714.000000	-0.000713
713.000000	-0.000688
712.000000	-0.000939
711.000000	-0.000953
710.000000	-0.000564
709.000000	-0.000456
708.000000	-0.000206
707.000000	0.000017
706.000000	0.000194
705.000000	0.000515
704.000000	0.000592
703.000000	0.000257
702.000000	0.000240
701.000000	0.000550
700.000000	0.000758
699.000000	0.000833
698.000000	0.001312
697.000000	0.001370
696.000000	0.001587
695.000000	0.001830
694.000000	0.001765
693.000000	0.001832
692.000000	0.002150
691.000000	0.002412
690.000000	0.002392
689.000000	0.002567
688.000000	0.002908
687.000000	0.002961
686.000000	0.003024
685.000000	0.003230
684.000000	0.003672
683.000000	0.003372
682.000000	0.003621
681.000000	0.003894
680.000000	0.003874
679.000000	0.004154
678.000000	0.004342
677.000000	0.004384
676.000000	0.004890
675.000000	0.005028
674.000000	0.005137
673.000000	0.005697
672.000000	0.005400
671.000000	0.005562
670.000000	0.006142
669.000000	0.006401
668.000000	0.006478
667.000000	0.006399
666.000000	0.007090
665.000000	0.006763
664.000000	0.007039
663.000000	0.007148
662.000000	0.007075
661.000000	0.007574
660.000000	0.007680
659.000000	0.007807
658.000000	0.007920
657.000000	0.008255
656.000000	0.008786
655.000000	0.008337
654.000000	0.008778
653.000000	0.009072
652.000000	0.009309
651.000000	0.009356
650.000000	0.009946
649.000000	0.010079
648.000000	0.010490
647.000000	0.009938
646.000000	0.010090
645.000000	0.010096
644.000000	0.011258
643.000000	0.011241
642.000000	0.011470
641.000000	0.011304
640.000000	0.011683
639.000000	0.011668
638.000000	0.011905
637.000000	0.012416
636.000000	0.012772
635.000000	0.012808
634.000000	0.013149
633.000000	0.012686
632.000000	0.013250
631.000000	0.014039
630.000000	0.014433
629.000000	0.014015
628.000000	0.014432
627.000000	0.014333
626.000000	0.014978
625.000000	0.015525
624.000000	0.014775
623.000000	0.015674
622.000000	0.016373
621.000000	0.015940
620.000000	0.016235
619.000000	0.016941
618.000000	0.016612
617.000000	0.016895
616.000000	0.017789
615.000000	0.017911
614.000000	0.018313
613.000000	0.018524
612.000000	0.018716
611.000000	0.019016
610.000000	0.018786
609.000000	0.019339
608.000000	0.019589
607.000000	0.019517
606.000000	0.020225
605.000000	0.020523
604.000000	0.021150
603.000000	0.020731
602.000000	0.021141
601.000000	0.021649
600.000000	0.022128
599.000000	0.021780
598.000000	0.022542
597.000000	0.022504
596.000000	0.023324
595.000000	0.023458
594.000000	0.023729
593.000000	0.023598
592.000000	0.024379
591.000000	0.024363
590.000000	0.024566
589.000000	0.025011
588.000000	0.025287
587.000000	0.025857
586.000000	0.026119
585.000000	0.026093
584.000000	0.026762
583.000000	0.027201
582.000000	0.027396
581.000000	0.027825
580.000000	0.027910
579.000000	0.028174
578.000000	0.028529
577.000000	0.028736
576.000000	0.029538
575.000000	0.029417
574.000000	0.030112
573.000000	0.029952
572.000000	0.030495
571.000000	0.031017
570.000000	0.031323
569.000000	0.031534
568.000000	0.031892
567.000000	0.032143
566.000000	0.032918
565.000000	0.032968
564.000000	0.033458
563.000000	0.033783
562.000000	0.034179
561.000000	0.034621
560.000000	0.034954
559.000000	0.035249
558.000000	0.035256
557.000000	0.036035
556.000000	0.036336
555.000000	0.036342
554.000000	0.037107
553.000000	0.037063
552.000000	0.038113
551.000000	0.038281
550.000000	0.038356
549.000000	0.038997
548.000000	0.039517
547.000000	0.039952
546.000000	0.040188
545.000000	0.040797
544.000000	0.041042
543.000000	0.041715
542.000000	0.042277
541.000000	0.042428
540.000000	0.042949
539.000000	0.043545
538.000000	0.043835
537.000000	0.044263
536.000000	0.044917
535.000000	0.045497
534.000000	0.045573
533.000000	0.045863
532.000000	0.046168
531.000000	0.046835
530.000000	0.047520
529.000000	0.047643
528.000000	0.048540
527.000000	0.049033
526.000000	0.049110
525.000000	0.049900
524.000000	0.050484
523.000000	0.050844
522.000000	0.051343
521.000000	0.051901
520.000000	0.052471
519.000000	0.052964
518.000000	0.053187
517.000000	0.053533
516.000000	0.054370
515.000000	0.055128
514.000000	0.055141
513.000000	0.055838
512.000000	0.056832
511.000000	0.057185
510.000000	0.057675
509.000000	0.058201
508.000000	0.058657
507.000000	0.059679
506.000000	0.060343
505.000000	0.060492
504.000000	0.060988
503.000000	0.061448
502.000000	0.062285
501.000000	0.062924
500.000000	0.063890
499.000000	0.064593
498.000000	0.065097
497.000000	0.065517
496.000000	0.066188
495.000000	0.067042
494.000000	0.067607
493.000000	0.068535
492.000000	0.069554
491.000000	0.070308
490.000000	0.070499
489.000000	0.071602
488.000000	0.072364
487.000000	0.072964
486.000000	0.073921
485.000000	0.074927
484.000000	0.075685
483.000000	0.075888
482.000000	0.076472
481.000000	0.077391
480.000000	0.078157
479.000000	0.079159
478.000000	0.079724
477.000000	0.080528
476.000000	0.081657
475.000000	0.082595
474.000000	0.083148
473.000000	0.083973
472.000000	0.084930
471.000000	0.085986
470.000000	0.086708
469.000000	0.087804
468.000000	0.088852
467.000000	0.089776
466.000000	0.090721
465.000000	0.091845
464.000000	0.092883
463.000000	0.093470
462.000000	0.094334
461.000000	0.095472
460.000000	0.096588
459.000000	0.097658
458.000000	0.098811
457.000000	0.099647
456.000000	0.100784
455.000000	0.101690
454.000000	0.102329
453.000000	0.103802
452.000000	0.105541
451.000000	0.106477
450.000000	0.107281
449.000000	0.108359
448.000000	0.109568
447.000000	0.110841
446.000000	0.112122
445.000000	0.113495
444.000000	0.114294
443.000000	0.115236
442.000000	0.116654
441.000000	0.118248
440.000000	0.119488
439.000000	0.120990
438.000000	0.122437
437.000000	0.123682
436.000000	0.124696
435.000000	0.125861
434.000000	0.127111
433.000000	0.128300
432.000000	0.129529
431.000000	0.130793
430.000000	0.132309
429.000000	0.133676
428.000000	0.134639
427.000000	0.136094
426.000000	0.138012
425.000000	0.139628
424.000000	0.140606
423.000000	0.142170
422.000000	0.143788
421.000000	0.145044
420.000000	0.146278
419.000000	0.148048
418.000000	0.149282
417.000000	0.149728
416.000000	0.150981
415.000000	0.153043
414.000000	0.154254
413.000000	0.155312
412.000000	0.156740
411.000000	0.158070
410.000000	0.158860
409.000000	0.160120
408.000000	0.160983
407.000000	0.161975
406.000000	0.163307
405.000000	0.163634
404.000000	0.165154
403.000000	0.166160
402.000000	0.167138
401.000000	0.168106
400.000000	0.169179
399.000000	0.170059
398.000000	0.172183
397.000000	0.172715
396.000000	0.173666
395.000000	0.174745
394.000000	0.175882
393.000000	0.177847
392.000000	0.178337
391.000000	0.180199
390.000000	0.181242
389.000000	0.183179
388.000000	0.184400
387.000000	0.184694
386.000000	0.186838
385.000000	0.188668
384.000000	0.190071
383.000000	0.191922
382.000000	0.193428
381.000000	0.194899
380.000000	0.195590
379.000000	0.197221
378.000000	0.202494
377.000000	0.200794
376.000000	0.202509
375.000000	0.204050
374.000000	0.204743
373.000000	0.205618
372.000000	0.207615
371.000000	0.209755
370.000000	0.211470
369.000000	0.212473
368.000000	0.215068
367.000000	0.215081
366.000000	0.217296
365.000000	0.218932
364.000000	0.220052
363.000000	0.221317
362.000000	0.223055
361.000000	0.226263
360.000000	0.227245
359.000000	0.229210
358.000000	0.229717
357.000000	0.231096
356.000000	0.232969
355.000000	0.233362
354.000000	0.237478
353.000000	0.238349
352.000000	0.239351
351.000000	0.240409
350.000000	0.242081
349.000000	0.243183
348.000000	0.246129
347.000000	0.245660
346.000000	0.250750
345.000000	0.250507
344.000000	0.252172
343.000000	0.254345
342.000000	0.255755
341.000000	0.259677
340.000000	0.259961
339.000000	0.261493
338.000000	0.263967
337.000000	0.264515
336.000000	0.265641
335.000000	0.270537
334.000000	0.272354
333.000000	0.273283
332.000000	0.273027
331.000000	0.276427
330.000000	0.277031
329.000000	0.279827
328.000000	0.277825
327.000000	0.282778
326.000000	0.283191
325.000000	0.285905
324.000000	0.286674
323.000000	0.290067
322.000000	0.288738
321.000000	0.294356
320.000000	0.290698
319.000000	0.294280
318.000000	0.298446
317.000000	0.301719
316.000000	0.300913
315.000000	0.304272
314.000000	0.303459
313.000000	0.305010
312.000000	0.307157
311.000000	0.310642
310.000000	0.311363
309.000000	0.312798
308.000000	0.315396
307.000000	0.319998
306.000000	0.319569
305.000000	0.321585
304.000000	0.322335
303.000000	0.326167
302.000000	0.329374
301.000000	0.331835
300.000000	0.335921
299.000000	0.340430
298.000000	0.344555
297.000000	0.348715
296.000000	0.355310
295.000000	0.361744
294.000000	0.370435
293.000000	0.382035
292.000000	0.392688
291.000000	0.406288
290.000000	0.419382
289.000000	0.434290
288.000000	0.448667
287.000000	0.457824
286.000000	0.465186
285.000000	0.469999
284.000000	0.472566
283.000000	0.474230
282.000000	0.475834
281.000000	0.473588
280.000000	0.474610
279.000000	0.476512
278.000000	0.474112
277.000000	0.472188
276.000000	0.469716
275.000000	0.465231
274.000000	0.459219
273.000000	0.456572
272.000000	0.452526
271.000000	0.449289
270.000000	0.448531
269.000000	0.447572
268.000000	0.444143
267.000000	0.439809
266.000000	0.437604
265.000000	0.432241
264.000000	0.428861
263.000000	0.423930
262.000000	0.420355
261.000000	0.417017
260.000000	0.415329
259.000000	0.412746
258.000000	0.409389
257.000000	0.405374
256.000000	0.401809
255.000000	0.399718
254.000000	0.399756
253.000000	0.399648
252.000000	0.401968
251.000000	0.407591
250.000000	0.412066
249.000000	0.419923
248.000000	0.434504
247.000000	0.450625
246.000000	0.469089
245.000000	0.490942
244.000000	0.517860
243.000000	0.545985
242.000000	0.576025
241.000000	0.607973
240.000000	0.638110
239.000000	0.665036
238.000000	0.695168
237.000000	0.722183
236.000000	0.744571
235.000000	0.766337
234.000000	0.786932
233.000000	0.807156
232.000000	0.824615
231.000000	0.843265
230.000000	0.859592
229.000000	0.875286
228.000000	0.891579
227.000000	0.903651
226.000000	0.918932
225.000000	0.933156
224.000000	0.944902
223.000000	0.954119
222.000000	0.959874
221.000000	0.962313
220.000000	0.967127
219.000000	0.971694
218.000000	0.973670
217.000000	0.975418
216.000000	0.976097
215.000000	0.975665
214.000000	0.972113
213.000000	0.965034
212.000000	0.963533
211.000000	0.960993
210.000000	0.958382
209.000000	0.951863
208.000000	0.942377
207.000000	0.939461
206.000000	0.928125
205.000000	0.915276
204.000000	0.902044
203.000000	0.889773
202.000000	0.887902
201.000000	0.872748
200.000000	0.851692
