PE UV       SUBTECH     SPECTRUM    ASCII       PEDS        4.00        
   -1
AgVeauAl 32.Sample.asc
18/03/06
15:50:36.00
18/03/06
15:50:36.00
Administrator

200.000000
1
Lambda 750
750N8071901
PerkinElmer UV WinLab 6.0.4.0738 / 1.61.00 Lambda 900

0
0
3350/servo 860.8/2
0
0
UV/VIS
1
1
1
CommonBeamDepol,150mm sphere / downward view
0
0
0
0
Program
Program
3350/servo 860.8/2
3350/0.2 860.8/0.2
3350/0.2 860.8/0.2
0
1
 
 
 
0
 
860.8
319.2
860.8
Front
100
on
 
 
0
0
0
 
0
 
 
 
0
 
 
0
0
0
0
0
 
 
 
 
0
0


0
0
#HDR
-1
-1
#GR
nm
A
1.0
0.0
2350.000000
-1.000000
2151
8
0.935169
-0.017015
#DATA
2350.000000	0.492909
2349.000000	0.491999
2348.000000	0.493924
2347.000000	0.477740
2346.000000	0.490260
2345.000000	0.496363
2344.000000	0.499756
2343.000000	0.492650
2342.000000	0.489359
2341.000000	0.480537
2340.000000	0.484789
2339.000000	0.481607
2338.000000	0.475304
2337.000000	0.478640
2336.000000	0.473803
2335.000000	0.466860
2334.000000	0.466998
2333.000000	0.470581
2332.000000	0.465218
2331.000000	0.470904
2330.000000	0.473628
2329.000000	0.474615
2328.000000	0.471875
2327.000000	0.477262
2326.000000	0.472136
2325.000000	0.477492
2324.000000	0.485193
2323.000000	0.481952
2322.000000	0.484466
2321.000000	0.480868
2320.000000	0.491961
2319.000000	0.484292
2318.000000	0.481222
2317.000000	0.485401
2316.000000	0.486813
2315.000000	0.483323
2314.000000	0.481204
2313.000000	0.486534
2312.000000	0.496782
2311.000000	0.502509
2310.000000	0.494061
2309.000000	0.491720
2308.000000	0.492197
2307.000000	0.501019
2306.000000	0.505169
2305.000000	0.498462
2304.000000	0.498560
2303.000000	0.499041
2302.000000	0.500900
2301.000000	0.508635
2300.000000	0.511040
2299.000000	0.515268
2298.000000	0.515932
2297.000000	0.517601
2296.000000	0.517951
2295.000000	0.518085
2294.000000	0.516229
2293.000000	0.524810
2292.000000	0.531095
2291.000000	0.530171
2290.000000	0.530882
2289.000000	0.528532
2288.000000	0.525391
2287.000000	0.528098
2286.000000	0.531140
2285.000000	0.531188
2284.000000	0.531156
2283.000000	0.534072
2282.000000	0.538810
2281.000000	0.535022
2280.000000	0.535682
2279.000000	0.533487
2278.000000	0.535502
2277.000000	0.534558
2276.000000	0.531795
2275.000000	0.531452
2274.000000	0.532794
2273.000000	0.527337
2272.000000	0.522985
2271.000000	0.524331
2270.000000	0.524333
2269.000000	0.523974
2268.000000	0.519960
2267.000000	0.519866
2266.000000	0.521302
2265.000000	0.515972
2264.000000	0.513669
2263.000000	0.514218
2262.000000	0.510931
2261.000000	0.505237
2260.000000	0.501022
2259.000000	0.492875
2258.000000	0.488561
2257.000000	0.488300
2256.000000	0.484780
2255.000000	0.483664
2254.000000	0.481859
2253.000000	0.476145
2252.000000	0.469109
2251.000000	0.463215
2250.000000	0.460814
2249.000000	0.457766
2248.000000	0.455686
2247.000000	0.449879
2246.000000	0.441144
2245.000000	0.436697
2244.000000	0.434842
2243.000000	0.428787
2242.000000	0.425004
2241.000000	0.424113
2240.000000	0.422813
2239.000000	0.420740
2238.000000	0.417490
2237.000000	0.414452
2236.000000	0.413919
2235.000000	0.412877
2234.000000	0.407656
2233.000000	0.405261
2232.000000	0.405126
2231.000000	0.403842
2230.000000	0.404333
2229.000000	0.403430
2228.000000	0.403198
2227.000000	0.402479
2226.000000	0.402593
2225.000000	0.403844
2224.000000	0.403410
2223.000000	0.403497
2222.000000	0.402529
2221.000000	0.400616
2220.000000	0.403639
2219.000000	0.405174
2218.000000	0.407140
2217.000000	0.408411
2216.000000	0.407590
2215.000000	0.410374
2214.000000	0.410003
2213.000000	0.409720
2212.000000	0.413284
2211.000000	0.415583
2210.000000	0.415519
2209.000000	0.416921
2208.000000	0.417697
2207.000000	0.418066
2206.000000	0.420070
2205.000000	0.422804
2204.000000	0.422425
2203.000000	0.423610
2202.000000	0.424414
2201.000000	0.425778
2200.000000	0.428666
2199.000000	0.430652
2198.000000	0.430832
2197.000000	0.431450
2196.000000	0.434578
2195.000000	0.436754
2194.000000	0.439291
2193.000000	0.441351
2192.000000	0.444406
2191.000000	0.443922
2190.000000	0.444377
2189.000000	0.444977
2188.000000	0.448565
2187.000000	0.454049
2186.000000	0.451713
2185.000000	0.453756
2184.000000	0.452399
2183.000000	0.452655
2182.000000	0.456206
2181.000000	0.456182
2180.000000	0.455969
2179.000000	0.456574
2178.000000	0.460493
2177.000000	0.455553
2176.000000	0.456780
2175.000000	0.459165
2174.000000	0.457425
2173.000000	0.456793
2172.000000	0.454717
2171.000000	0.453299
2170.000000	0.454678
2169.000000	0.453492
2168.000000	0.449644
2167.000000	0.451234
2166.000000	0.448759
2165.000000	0.445532
2164.000000	0.446463
2163.000000	0.445532
2162.000000	0.443900
2161.000000	0.441294
2160.000000	0.437346
2159.000000	0.432655
2158.000000	0.432599
2157.000000	0.429729
2156.000000	0.428168
2155.000000	0.422921
2154.000000	0.418516
2153.000000	0.415743
2152.000000	0.415598
2151.000000	0.414577
2150.000000	0.409162
2149.000000	0.406132
2148.000000	0.404894
2147.000000	0.402569
2146.000000	0.405343
2145.000000	0.396203
2144.000000	0.390718
2143.000000	0.391844
2142.000000	0.389336
2141.000000	0.383315
2140.000000	0.382336
2139.000000	0.380059
2138.000000	0.379153
2137.000000	0.375608
2136.000000	0.374955
2135.000000	0.370994
2134.000000	0.367481
2133.000000	0.369127
2132.000000	0.365159
2131.000000	0.364591
2130.000000	0.362565
2129.000000	0.359367
2128.000000	0.362108
2127.000000	0.362876
2126.000000	0.360436
2125.000000	0.358074
2124.000000	0.356052
2123.000000	0.356308
2122.000000	0.356085
2121.000000	0.354295
2120.000000	0.352730
2119.000000	0.351777
2118.000000	0.347833
2117.000000	0.346910
2116.000000	0.347925
2115.000000	0.346500
2114.000000	0.344939
2113.000000	0.347859
2112.000000	0.345831
2111.000000	0.347211
2110.000000	0.346580
2109.000000	0.342039
2108.000000	0.345016
2107.000000	0.343349
2106.000000	0.345661
2105.000000	0.344236
2104.000000	0.341683
2103.000000	0.341446
2102.000000	0.342594
2101.000000	0.340950
2100.000000	0.340330
2099.000000	0.340790
2098.000000	0.341396
2097.000000	0.341634
2096.000000	0.341975
2095.000000	0.341133
2094.000000	0.339699
2093.000000	0.337926
2092.000000	0.338686
2091.000000	0.340600
2090.000000	0.341221
2089.000000	0.342573
2088.000000	0.341952
2087.000000	0.341552
2086.000000	0.340742
2085.000000	0.340731
2084.000000	0.343775
2083.000000	0.344198
2082.000000	0.343787
2081.000000	0.345885
2080.000000	0.348425
2079.000000	0.349779
2078.000000	0.350398
2077.000000	0.351699
2076.000000	0.354224
2075.000000	0.355200
2074.000000	0.358535
2073.000000	0.358668
2072.000000	0.361424
2071.000000	0.364022
2070.000000	0.366366
2069.000000	0.368540
2068.000000	0.370958
2067.000000	0.373578
2066.000000	0.375454
2065.000000	0.379333
2064.000000	0.381134
2063.000000	0.384338
2062.000000	0.387365
2061.000000	0.390947
2060.000000	0.393498
2059.000000	0.395629
2058.000000	0.399881
2057.000000	0.403015
2056.000000	0.405711
2055.000000	0.408264
2054.000000	0.411545
2053.000000	0.414186
2052.000000	0.416499
2051.000000	0.418647
2050.000000	0.421272
2049.000000	0.423978
2048.000000	0.425750
2047.000000	0.426279
2046.000000	0.428306
2045.000000	0.428627
2044.000000	0.429491
2043.000000	0.431590
2042.000000	0.431339
2041.000000	0.429503
2040.000000	0.428825
2039.000000	0.429520
2038.000000	0.428599
2037.000000	0.427459
2036.000000	0.425393
2035.000000	0.423237
2034.000000	0.421438
2033.000000	0.419992
2032.000000	0.417085
2031.000000	0.415708
2030.000000	0.413402
2029.000000	0.409598
2028.000000	0.406907
2027.000000	0.404639
2026.000000	0.401785
2025.000000	0.399462
2024.000000	0.397409
2023.000000	0.395692
2022.000000	0.394868
2021.000000	0.392515
2020.000000	0.390661
2019.000000	0.390609
2018.000000	0.389876
2017.000000	0.388329
2016.000000	0.388267
2015.000000	0.388488
2014.000000	0.387803
2013.000000	0.387776
2012.000000	0.387883
2011.000000	0.389323
2010.000000	0.389954
2009.000000	0.390833
2008.000000	0.392621
2007.000000	0.393283
2006.000000	0.394080
2005.000000	0.395677
2004.000000	0.397633
2003.000000	0.398268
2002.000000	0.399626
2001.000000	0.402479
2000.000000	0.404107
1999.000000	0.405979
1998.000000	0.407737
1997.000000	0.409698
1996.000000	0.411277
1995.000000	0.413619
1994.000000	0.415825
1993.000000	0.417422
1992.000000	0.420071
1991.000000	0.422668
1990.000000	0.425177
1989.000000	0.427769
1988.000000	0.429321
1987.000000	0.431282
1986.000000	0.433998
1985.000000	0.437303
1984.000000	0.439176
1983.000000	0.440382
1982.000000	0.441962
1981.000000	0.444293
1980.000000	0.447055
1979.000000	0.448967
1978.000000	0.451016
1977.000000	0.452959
1976.000000	0.456559
1975.000000	0.457898
1974.000000	0.459789
1973.000000	0.461792
1972.000000	0.464654
1971.000000	0.466134
1970.000000	0.468055
1969.000000	0.469345
1968.000000	0.471263
1967.000000	0.474654
1966.000000	0.476241
1965.000000	0.479114
1964.000000	0.482502
1963.000000	0.484397
1962.000000	0.486151
1961.000000	0.489997
1960.000000	0.491111
1959.000000	0.492903
1958.000000	0.493410
1957.000000	0.495748
1956.000000	0.498594
1955.000000	0.500344
1954.000000	0.500214
1953.000000	0.502068
1952.000000	0.504045
1951.000000	0.505648
1950.000000	0.506258
1949.000000	0.507752
1948.000000	0.510863
1947.000000	0.510356
1946.000000	0.509328
1945.000000	0.512259
1944.000000	0.510251
1943.000000	0.509237
1942.000000	0.509231
1941.000000	0.511401
1940.000000	0.509975
1939.000000	0.508059
1938.000000	0.508049
1937.000000	0.504452
1936.000000	0.503006
1935.000000	0.501812
1934.000000	0.499538
1933.000000	0.498453
1932.000000	0.495108
1931.000000	0.491503
1930.000000	0.485621
1929.000000	0.482505
1928.000000	0.477369
1927.000000	0.474502
1926.000000	0.468277
1925.000000	0.462840
1924.000000	0.459175
1923.000000	0.452861
1922.000000	0.444747
1921.000000	0.438507
1920.000000	0.436451
1919.000000	0.430322
1918.000000	0.424944
1917.000000	0.417870
1916.000000	0.411259
1915.000000	0.402837
1914.000000	0.394727
1913.000000	0.385742
1912.000000	0.381017
1911.000000	0.373770
1910.000000	0.366334
1909.000000	0.357787
1908.000000	0.349503
1907.000000	0.340163
1906.000000	0.331605
1905.000000	0.322808
1904.000000	0.314811
1903.000000	0.306672
1902.000000	0.297570
1901.000000	0.288581
1900.000000	0.280525
1899.000000	0.271892
1898.000000	0.262918
1897.000000	0.256130
1896.000000	0.248134
1895.000000	0.240478
1894.000000	0.234033
1893.000000	0.225957
1892.000000	0.218419
1891.000000	0.212157
1890.000000	0.205564
1889.000000	0.199530
1888.000000	0.193961
1887.000000	0.187902
1886.000000	0.182617
1885.000000	0.177013
1884.000000	0.172256
1883.000000	0.167123
1882.000000	0.162864
1881.000000	0.158268
1880.000000	0.153817
1879.000000	0.149985
1878.000000	0.146336
1877.000000	0.142555
1876.000000	0.139001
1875.000000	0.135800
1874.000000	0.133238
1873.000000	0.130577
1872.000000	0.127671
1871.000000	0.125048
1870.000000	0.123369
1869.000000	0.121044
1868.000000	0.119433
1867.000000	0.118361
1866.000000	0.116655
1865.000000	0.115138
1864.000000	0.114056
1863.000000	0.112875
1862.000000	0.111795
1861.000000	0.110639
1860.000000	0.110077
1859.000000	0.109482
1858.000000	0.109093
1857.000000	0.108317
1856.000000	0.107975
1855.000000	0.107351
1854.000000	0.107247
1853.000000	0.106873
1852.000000	0.107070
1851.000000	0.106694
1850.000000	0.106524
1849.000000	0.106777
1848.000000	0.106562
1847.000000	0.106402
1846.000000	0.106336
1845.000000	0.106771
1844.000000	0.107172
1843.000000	0.107416
1842.000000	0.107372
1841.000000	0.107657
1840.000000	0.107840
1839.000000	0.108065
1838.000000	0.108488
1837.000000	0.108956
1836.000000	0.109627
1835.000000	0.110092
1834.000000	0.110536
1833.000000	0.110936
1832.000000	0.111255
1831.000000	0.111879
1830.000000	0.112164
1829.000000	0.112692
1828.000000	0.113112
1827.000000	0.113207
1826.000000	0.114074
1825.000000	0.114684
1824.000000	0.114816
1823.000000	0.115258
1822.000000	0.115859
1821.000000	0.116493
1820.000000	0.117073
1819.000000	0.117337
1818.000000	0.117676
1817.000000	0.118079
1816.000000	0.118604
1815.000000	0.118936
1814.000000	0.119390
1813.000000	0.119770
1812.000000	0.120132
1811.000000	0.120774
1810.000000	0.121177
1809.000000	0.121650
1808.000000	0.122242
1807.000000	0.122707
1806.000000	0.122919
1805.000000	0.123476
1804.000000	0.124074
1803.000000	0.124380
1802.000000	0.124650
1801.000000	0.125198
1800.000000	0.125907
1799.000000	0.126464
1798.000000	0.126974
1797.000000	0.127276
1796.000000	0.127517
1795.000000	0.127905
1794.000000	0.128105
1793.000000	0.128495
1792.000000	0.129102
1791.000000	0.129364
1790.000000	0.129607
1789.000000	0.130053
1788.000000	0.130442
1787.000000	0.130995
1786.000000	0.131531
1785.000000	0.131843
1784.000000	0.132515
1783.000000	0.132635
1782.000000	0.132995
1781.000000	0.133559
1780.000000	0.134200
1779.000000	0.134637
1778.000000	0.135375
1777.000000	0.136139
1776.000000	0.136550
1775.000000	0.137296
1774.000000	0.137896
1773.000000	0.138565
1772.000000	0.139091
1771.000000	0.140054
1770.000000	0.140987
1769.000000	0.141774
1768.000000	0.142317
1767.000000	0.142959
1766.000000	0.143741
1765.000000	0.144303
1764.000000	0.144801
1763.000000	0.145802
1762.000000	0.146809
1761.000000	0.147269
1760.000000	0.148097
1759.000000	0.148854
1758.000000	0.149169
1757.000000	0.149690
1756.000000	0.150666
1755.000000	0.151332
1754.000000	0.152317
1753.000000	0.152736
1752.000000	0.153589
1751.000000	0.154080
1750.000000	0.155087
1749.000000	0.155824
1748.000000	0.156640
1747.000000	0.157464
1746.000000	0.158404
1745.000000	0.159146
1744.000000	0.159646
1743.000000	0.160261
1742.000000	0.161585
1741.000000	0.162287
1740.000000	0.162994
1739.000000	0.163917
1738.000000	0.164422
1737.000000	0.165164
1736.000000	0.165668
1735.000000	0.166076
1734.000000	0.166179
1733.000000	0.166729
1732.000000	0.166390
1731.000000	0.166307
1730.000000	0.166205
1729.000000	0.166280
1728.000000	0.165530
1727.000000	0.164876
1726.000000	0.164419
1725.000000	0.163243
1724.000000	0.162544
1723.000000	0.161670
1722.000000	0.160246
1721.000000	0.158840
1720.000000	0.157532
1719.000000	0.155984
1718.000000	0.154878
1717.000000	0.153516
1716.000000	0.151976
1715.000000	0.151019
1714.000000	0.149673
1713.000000	0.148149
1712.000000	0.147454
1711.000000	0.146564
1710.000000	0.145244
1709.000000	0.144590
1708.000000	0.143756
1707.000000	0.142983
1706.000000	0.142693
1705.000000	0.142225
1704.000000	0.141440
1703.000000	0.141230
1702.000000	0.140835
1701.000000	0.140575
1700.000000	0.140366
1699.000000	0.140067
1698.000000	0.140084
1697.000000	0.139442
1696.000000	0.138638
1695.000000	0.138402
1694.000000	0.138119
1693.000000	0.137353
1692.000000	0.136378
1691.000000	0.135861
1690.000000	0.134572
1689.000000	0.133801
1688.000000	0.132397
1687.000000	0.131021
1686.000000	0.129338
1685.000000	0.128008
1684.000000	0.126145
1683.000000	0.124253
1682.000000	0.122377
1681.000000	0.120375
1680.000000	0.118389
1679.000000	0.116032
1678.000000	0.113987
1677.000000	0.111833
1676.000000	0.109853
1675.000000	0.107484
1674.000000	0.105685
1673.000000	0.103622
1672.000000	0.101657
1671.000000	0.099671
1670.000000	0.097910
1669.000000	0.095961
1668.000000	0.094468
1667.000000	0.092789
1666.000000	0.091594
1665.000000	0.090296
1664.000000	0.089215
1663.000000	0.088323
1662.000000	0.087127
1661.000000	0.086255
1660.000000	0.085546
1659.000000	0.084588
1658.000000	0.084081
1657.000000	0.083465
1656.000000	0.083330
1655.000000	0.083112
1654.000000	0.082628
1653.000000	0.082431
1652.000000	0.082255
1651.000000	0.082068
1650.000000	0.081937
1649.000000	0.081860
1648.000000	0.082103
1647.000000	0.082063
1646.000000	0.082357
1645.000000	0.082235
1644.000000	0.082238
1643.000000	0.082656
1642.000000	0.082882
1641.000000	0.083082
1640.000000	0.083290
1639.000000	0.083590
1638.000000	0.084006
1637.000000	0.084198
1636.000000	0.084709
1635.000000	0.085173
1634.000000	0.085578
1633.000000	0.085899
1632.000000	0.086325
1631.000000	0.086650
1630.000000	0.087317
1629.000000	0.087737
1628.000000	0.088466
1627.000000	0.088786
1626.000000	0.089336
1625.000000	0.089960
1624.000000	0.090350
1623.000000	0.090864
1622.000000	0.091480
1621.000000	0.092123
1620.000000	0.092586
1619.000000	0.093232
1618.000000	0.093938
1617.000000	0.094595
1616.000000	0.095109
1615.000000	0.095801
1614.000000	0.096631
1613.000000	0.097298
1612.000000	0.097797
1611.000000	0.098439
1610.000000	0.099249
1609.000000	0.100090
1608.000000	0.100875
1607.000000	0.101555
1606.000000	0.102303
1605.000000	0.103002
1604.000000	0.103961
1603.000000	0.104696
1602.000000	0.105315
1601.000000	0.106182
1600.000000	0.106991
1599.000000	0.107656
1598.000000	0.108377
1597.000000	0.109263
1596.000000	0.110021
1595.000000	0.110678
1594.000000	0.111199
1593.000000	0.111949
1592.000000	0.112757
1591.000000	0.113412
1590.000000	0.114117
1589.000000	0.114781
1588.000000	0.115320
1587.000000	0.115901
1586.000000	0.116696
1585.000000	0.117437
1584.000000	0.118012
1583.000000	0.118488
1582.000000	0.119060
1581.000000	0.119709
1580.000000	0.120280
1579.000000	0.120911
1578.000000	0.121494
1577.000000	0.122101
1576.000000	0.122739
1575.000000	0.123251
1574.000000	0.123833
1573.000000	0.124471
1572.000000	0.125064
1571.000000	0.125746
1570.000000	0.126325
1569.000000	0.126830
1568.000000	0.127336
1567.000000	0.127886
1566.000000	0.128215
1565.000000	0.128483
1564.000000	0.128886
1563.000000	0.129266
1562.000000	0.129620
1561.000000	0.130005
1560.000000	0.130332
1559.000000	0.130565
1558.000000	0.130834
1557.000000	0.131175
1556.000000	0.131529
1555.000000	0.131804
1554.000000	0.132003
1553.000000	0.132334
1552.000000	0.132765
1551.000000	0.132999
1550.000000	0.133406
1549.000000	0.133996
1548.000000	0.134319
1547.000000	0.134946
1546.000000	0.135725
1545.000000	0.136417
1544.000000	0.137434
1543.000000	0.138177
1542.000000	0.138886
1541.000000	0.140101
1540.000000	0.141070
1539.000000	0.142216
1538.000000	0.143224
1537.000000	0.144356
1536.000000	0.145537
1535.000000	0.146652
1534.000000	0.147737
1533.000000	0.148795
1532.000000	0.149932
1531.000000	0.151218
1530.000000	0.152268
1529.000000	0.153569
1528.000000	0.154602
1527.000000	0.155618
1526.000000	0.156625
1525.000000	0.157550
1524.000000	0.158358
1523.000000	0.159300
1522.000000	0.160079
1521.000000	0.160908
1520.000000	0.161366
1519.000000	0.161949
1518.000000	0.162633
1517.000000	0.163276
1516.000000	0.163755
1515.000000	0.164170
1514.000000	0.164847
1513.000000	0.165255
1512.000000	0.165479
1511.000000	0.166052
1510.000000	0.166312
1509.000000	0.166608
1508.000000	0.166855
1507.000000	0.167174
1506.000000	0.167403
1505.000000	0.167651
1504.000000	0.167830
1503.000000	0.167784
1502.000000	0.168095
1501.000000	0.168059
1500.000000	0.168173
1499.000000	0.168514
1498.000000	0.168258
1497.000000	0.167968
1496.000000	0.167912
1495.000000	0.167664
1494.000000	0.167483
1493.000000	0.167276
1492.000000	0.166849
1491.000000	0.166570
1490.000000	0.165850
1489.000000	0.165649
1488.000000	0.164873
1487.000000	0.164689
1486.000000	0.164002
1485.000000	0.163160
1484.000000	0.162651
1483.000000	0.161925
1482.000000	0.161229
1481.000000	0.160602
1480.000000	0.159813
1479.000000	0.159082
1478.000000	0.158556
1477.000000	0.157526
1476.000000	0.156989
1475.000000	0.156260
1474.000000	0.155552
1473.000000	0.154806
1472.000000	0.154133
1471.000000	0.153509
1470.000000	0.152846
1469.000000	0.152242
1468.000000	0.151491
1467.000000	0.150879
1466.000000	0.150255
1465.000000	0.149687
1464.000000	0.149045
1463.000000	0.148601
1462.000000	0.147916
1461.000000	0.147310
1460.000000	0.146598
1459.000000	0.145869
1458.000000	0.145399
1457.000000	0.144669
1456.000000	0.143796
1455.000000	0.143023
1454.000000	0.142276
1453.000000	0.141536
1452.000000	0.140761
1451.000000	0.139858
1450.000000	0.139021
1449.000000	0.138165
1448.000000	0.137252
1447.000000	0.136199
1446.000000	0.135372
1445.000000	0.134383
1444.000000	0.133238
1443.000000	0.132343
1442.000000	0.131324
1441.000000	0.130190
1440.000000	0.129115
1439.000000	0.128068
1438.000000	0.126864
1437.000000	0.125582
1436.000000	0.124315
1435.000000	0.123027
1434.000000	0.121730
1433.000000	0.120324
1432.000000	0.118947
1431.000000	0.117554
1430.000000	0.116037
1429.000000	0.114444
1428.000000	0.112950
1427.000000	0.111358
1426.000000	0.109578
1425.000000	0.107843
1424.000000	0.106070
1423.000000	0.104271
1422.000000	0.102475
1421.000000	0.100299
1420.000000	0.098334
1419.000000	0.096555
1418.000000	0.094434
1417.000000	0.092279
1416.000000	0.090300
1415.000000	0.088093
1414.000000	0.085895
1413.000000	0.083904
1412.000000	0.081854
1411.000000	0.079602
1410.000000	0.077555
1409.000000	0.075496
1408.000000	0.073316
1407.000000	0.071251
1406.000000	0.069160
1405.000000	0.067120
1404.000000	0.065212
1403.000000	0.063288
1402.000000	0.061295
1401.000000	0.059420
1400.000000	0.057735
1399.000000	0.055908
1398.000000	0.054112
1397.000000	0.052524
1396.000000	0.050845
1395.000000	0.049223
1394.000000	0.047743
1393.000000	0.046130
1392.000000	0.044716
1391.000000	0.043294
1390.000000	0.041960
1389.000000	0.040725
1388.000000	0.039410
1387.000000	0.038204
1386.000000	0.037008
1385.000000	0.035860
1384.000000	0.034852
1383.000000	0.033945
1382.000000	0.033057
1381.000000	0.032203
1380.000000	0.031459
1379.000000	0.030655
1378.000000	0.029805
1377.000000	0.029208
1376.000000	0.028582
1375.000000	0.027978
1374.000000	0.027449
1373.000000	0.026821
1372.000000	0.026295
1371.000000	0.025825
1370.000000	0.025258
1369.000000	0.024709
1368.000000	0.024202
1367.000000	0.023814
1366.000000	0.023349
1365.000000	0.022845
1364.000000	0.022324
1363.000000	0.021790
1362.000000	0.021245
1361.000000	0.020659
1360.000000	0.020144
1359.000000	0.019693
1358.000000	0.019213
1357.000000	0.018656
1356.000000	0.018208
1355.000000	0.017772
1354.000000	0.017178
1353.000000	0.016579
1352.000000	0.016010
1351.000000	0.015540
1350.000000	0.015077
1349.000000	0.014594
1348.000000	0.014024
1347.000000	0.013464
1346.000000	0.012995
1345.000000	0.012583
1344.000000	0.012154
1343.000000	0.011712
1342.000000	0.011224
1341.000000	0.010958
1340.000000	0.010587
1339.000000	0.010050
1338.000000	0.009590
1337.000000	0.009164
1336.000000	0.008862
1335.000000	0.008489
1334.000000	0.008128
1333.000000	0.007734
1332.000000	0.007430
1331.000000	0.007116
1330.000000	0.006868
1329.000000	0.006638
1328.000000	0.006374
1327.000000	0.006119
1326.000000	0.005910
1325.000000	0.005527
1324.000000	0.005510
1323.000000	0.005418
1322.000000	0.005107
1321.000000	0.004910
1320.000000	0.004729
1319.000000	0.004558
1318.000000	0.004598
1317.000000	0.004206
1316.000000	0.004142
1315.000000	0.004142
1314.000000	0.004177
1313.000000	0.003867
1312.000000	0.003600
1311.000000	0.003574
1310.000000	0.003505
1309.000000	0.003283
1308.000000	0.003300
1307.000000	0.003261
1306.000000	0.002950
1305.000000	0.002921
1304.000000	0.002836
1303.000000	0.002781
1302.000000	0.002715
1301.000000	0.002640
1300.000000	0.002690
1299.000000	0.002690
1298.000000	0.002627
1297.000000	0.002542
1296.000000	0.002641
1295.000000	0.002590
1294.000000	0.002583
1293.000000	0.002567
1292.000000	0.002632
1291.000000	0.002598
1290.000000	0.002764
1289.000000	0.002876
1288.000000	0.002745
1287.000000	0.002832
1286.000000	0.002867
1285.000000	0.003044
1284.000000	0.003027
1283.000000	0.003014
1282.000000	0.002960
1281.000000	0.003034
1280.000000	0.003116
1279.000000	0.003063
1278.000000	0.003051
1277.000000	0.003034
1276.000000	0.002992
1275.000000	0.002987
1274.000000	0.003085
1273.000000	0.002999
1272.000000	0.002965
1271.000000	0.002992
1270.000000	0.002934
1269.000000	0.002830
1268.000000	0.002894
1267.000000	0.002763
1266.000000	0.002642
1265.000000	0.002606
1264.000000	0.002599
1263.000000	0.002299
1262.000000	0.002459
1261.000000	0.002439
1260.000000	0.002256
1259.000000	0.002263
1258.000000	0.002200
1257.000000	0.002010
1256.000000	0.002068
1255.000000	0.002169
1254.000000	0.001968
1253.000000	0.001949
1252.000000	0.001964
1251.000000	0.002081
1250.000000	0.002086
1249.000000	0.002125
1248.000000	0.002171
1247.000000	0.002191
1246.000000	0.002326
1245.000000	0.002394
1244.000000	0.002513
1243.000000	0.002650
1242.000000	0.002802
1241.000000	0.002939
1240.000000	0.003179
1239.000000	0.003261
1238.000000	0.003533
1237.000000	0.003559
1236.000000	0.003867
1235.000000	0.004028
1234.000000	0.004221
1233.000000	0.004437
1232.000000	0.004589
1231.000000	0.004745
1230.000000	0.004957
1229.000000	0.005150
1228.000000	0.005362
1227.000000	0.005508
1226.000000	0.005735
1225.000000	0.005911
1224.000000	0.006011
1223.000000	0.006217
1222.000000	0.006467
1221.000000	0.006651
1220.000000	0.006955
1219.000000	0.007164
1218.000000	0.007309
1217.000000	0.007565
1216.000000	0.007792
1215.000000	0.008029
1214.000000	0.008242
1213.000000	0.008522
1212.000000	0.008682
1211.000000	0.009034
1210.000000	0.009357
1209.000000	0.009648
1208.000000	0.009880
1207.000000	0.010104
1206.000000	0.010509
1205.000000	0.010840
1204.000000	0.011099
1203.000000	0.011383
1202.000000	0.011635
1201.000000	0.012052
1200.000000	0.012353
1199.000000	0.012565
1198.000000	0.012839
1197.000000	0.013032
1196.000000	0.013239
1195.000000	0.013499
1194.000000	0.013750
1193.000000	0.013867
1192.000000	0.014002
1191.000000	0.014230
1190.000000	0.014334
1189.000000	0.014487
1188.000000	0.014530
1187.000000	0.014511
1186.000000	0.014552
1185.000000	0.014532
1184.000000	0.014437
1183.000000	0.014398
1182.000000	0.014293
1181.000000	0.014109
1180.000000	0.013862
1179.000000	0.013601
1178.000000	0.013349
1177.000000	0.013029
1176.000000	0.012629
1175.000000	0.012204
1174.000000	0.011794
1173.000000	0.011397
1172.000000	0.010977
1171.000000	0.010414
1170.000000	0.009832
1169.000000	0.009320
1168.000000	0.008767
1167.000000	0.008121
1166.000000	0.007481
1165.000000	0.006846
1164.000000	0.006203
1163.000000	0.005648
1162.000000	0.005068
1161.000000	0.004496
1160.000000	0.003860
1159.000000	0.003216
1158.000000	0.002668
1157.000000	0.002115
1156.000000	0.001520
1155.000000	0.000901
1154.000000	0.000409
1153.000000	-0.000060
1152.000000	-0.000587
1151.000000	-0.000960
1150.000000	-0.001348
1149.000000	-0.001836
1148.000000	-0.002273
1147.000000	-0.002667
1146.000000	-0.003028
1145.000000	-0.003424
1144.000000	-0.003800
1143.000000	-0.004166
1142.000000	-0.004551
1141.000000	-0.004897
1140.000000	-0.005246
1139.000000	-0.005594
1138.000000	-0.005907
1137.000000	-0.006285
1136.000000	-0.006620
1135.000000	-0.006865
1134.000000	-0.007158
1133.000000	-0.007426
1132.000000	-0.007724
1131.000000	-0.008022
1130.000000	-0.008189
1129.000000	-0.008470
1128.000000	-0.008617
1127.000000	-0.008714
1126.000000	-0.008982
1125.000000	-0.009194
1124.000000	-0.009257
1123.000000	-0.009360
1122.000000	-0.009529
1121.000000	-0.009671
1120.000000	-0.009779
1119.000000	-0.009854
1118.000000	-0.009907
1117.000000	-0.010020
1116.000000	-0.009992
1115.000000	-0.010085
1114.000000	-0.010248
1113.000000	-0.010181
1112.000000	-0.010128
1111.000000	-0.010240
1110.000000	-0.010339
1109.000000	-0.010352
1108.000000	-0.010405
1107.000000	-0.010329
1106.000000	-0.010304
1105.000000	-0.010322
1104.000000	-0.010373
1103.000000	-0.010367
1102.000000	-0.010336
1101.000000	-0.010291
1100.000000	-0.010411
1099.000000	-0.010379
1098.000000	-0.010444
1097.000000	-0.010403
1096.000000	-0.010486
1095.000000	-0.010533
1094.000000	-0.010449
1093.000000	-0.010457
1092.000000	-0.010429
1091.000000	-0.010379
1090.000000	-0.010451
1089.000000	-0.010492
1088.000000	-0.010562
1087.000000	-0.010389
1086.000000	-0.010297
1085.000000	-0.010292
1084.000000	-0.010454
1083.000000	-0.010518
1082.000000	-0.010445
1081.000000	-0.010408
1080.000000	-0.010401
1079.000000	-0.010253
1078.000000	-0.010150
1077.000000	-0.010322
1076.000000	-0.010208
1075.000000	-0.010205
1074.000000	-0.010029
1073.000000	-0.009997
1072.000000	-0.010027
1071.000000	-0.010033
1070.000000	-0.009987
1069.000000	-0.009896
1068.000000	-0.009811
1067.000000	-0.009793
1066.000000	-0.009714
1065.000000	-0.009623
1064.000000	-0.009661
1063.000000	-0.009510
1062.000000	-0.009594
1061.000000	-0.009557
1060.000000	-0.009553
1059.000000	-0.009379
1058.000000	-0.009365
1057.000000	-0.009228
1056.000000	-0.009250
1055.000000	-0.009127
1054.000000	-0.009062
1053.000000	-0.009122
1052.000000	-0.008939
1051.000000	-0.008991
1050.000000	-0.009008
1049.000000	-0.008856
1048.000000	-0.008852
1047.000000	-0.008709
1046.000000	-0.008705
1045.000000	-0.008769
1044.000000	-0.008792
1043.000000	-0.008479
1042.000000	-0.008600
1041.000000	-0.008642
1040.000000	-0.008509
1039.000000	-0.008412
1038.000000	-0.008460
1037.000000	-0.008406
1036.000000	-0.008472
1035.000000	-0.008381
1034.000000	-0.008320
1033.000000	-0.008332
1032.000000	-0.008260
1031.000000	-0.008319
1030.000000	-0.008332
1029.000000	-0.008197
1028.000000	-0.008145
1027.000000	-0.008212
1026.000000	-0.008230
1025.000000	-0.008111
1024.000000	-0.008179
1023.000000	-0.008207
1022.000000	-0.008230
1021.000000	-0.008166
1020.000000	-0.008110
1019.000000	-0.008146
1018.000000	-0.008230
1017.000000	-0.008250
1016.000000	-0.008291
1015.000000	-0.008336
1014.000000	-0.008392
1013.000000	-0.008349
1012.000000	-0.008399
1011.000000	-0.008414
1010.000000	-0.008470
1009.000000	-0.008515
1008.000000	-0.008488
1007.000000	-0.008602
1006.000000	-0.008696
1005.000000	-0.008691
1004.000000	-0.008845
1003.000000	-0.008879
1002.000000	-0.008917
1001.000000	-0.008910
1000.000000	-0.008920
999.000000	-0.008919
998.000000	-0.008995
997.000000	-0.009089
996.000000	-0.009187
995.000000	-0.009170
994.000000	-0.009168
993.000000	-0.009370
992.000000	-0.009329
991.000000	-0.009432
990.000000	-0.009368
989.000000	-0.009460
988.000000	-0.009348
987.000000	-0.009449
986.000000	-0.009541
985.000000	-0.009564
984.000000	-0.009682
983.000000	-0.009707
982.000000	-0.009729
981.000000	-0.009849
980.000000	-0.009938
979.000000	-0.010017
978.000000	-0.010111
977.000000	-0.010175
976.000000	-0.010237
975.000000	-0.010206
974.000000	-0.010249
973.000000	-0.010258
972.000000	-0.010414
971.000000	-0.010501
970.000000	-0.010566
969.000000	-0.010529
968.000000	-0.010609
967.000000	-0.010662
966.000000	-0.010791
965.000000	-0.010935
964.000000	-0.010916
963.000000	-0.011043
962.000000	-0.011184
961.000000	-0.011224
960.000000	-0.011245
959.000000	-0.011296
958.000000	-0.011334
957.000000	-0.011454
956.000000	-0.011512
955.000000	-0.011385
954.000000	-0.011524
953.000000	-0.011724
952.000000	-0.011780
951.000000	-0.011825
950.000000	-0.011936
949.000000	-0.011922
948.000000	-0.011917
947.000000	-0.011990
946.000000	-0.012095
945.000000	-0.012199
944.000000	-0.012188
943.000000	-0.012067
942.000000	-0.012124
941.000000	-0.012211
940.000000	-0.012214
939.000000	-0.012199
938.000000	-0.012212
937.000000	-0.012271
936.000000	-0.012529
935.000000	-0.012574
934.000000	-0.012506
933.000000	-0.012600
932.000000	-0.012523
931.000000	-0.012469
930.000000	-0.012374
929.000000	-0.012495
928.000000	-0.012414
927.000000	-0.012333
926.000000	-0.012316
925.000000	-0.012224
924.000000	-0.012156
923.000000	-0.012300
922.000000	-0.012368
921.000000	-0.012282
920.000000	-0.012367
919.000000	-0.012198
918.000000	-0.012177
917.000000	-0.012161
916.000000	-0.012292
915.000000	-0.012499
914.000000	-0.012408
913.000000	-0.012333
912.000000	-0.012146
911.000000	-0.012084
910.000000	-0.012090
909.000000	-0.011972
908.000000	-0.012188
907.000000	-0.012312
906.000000	-0.012287
905.000000	-0.012274
904.000000	-0.012301
903.000000	-0.012315
902.000000	-0.012456
901.000000	-0.012336
900.000000	-0.012088
899.000000	-0.012525
898.000000	-0.012709
897.000000	-0.012966
896.000000	-0.012801
895.000000	-0.012785
894.000000	-0.013132
893.000000	-0.012922
892.000000	-0.012755
891.000000	-0.013330
890.000000	-0.013487
889.000000	-0.013412
888.000000	-0.013454
887.000000	-0.013331
886.000000	-0.013495
885.000000	-0.013846
884.000000	-0.013390
883.000000	-0.013634
882.000000	-0.013776
881.000000	-0.013440
880.000000	-0.013630
879.000000	-0.013645
878.000000	-0.013740
877.000000	-0.014391
876.000000	-0.014262
875.000000	-0.014291
874.000000	-0.013870
873.000000	-0.014755
872.000000	-0.014385
871.000000	-0.014245
870.000000	-0.014561
869.000000	-0.014496
868.000000	-0.013781
867.000000	-0.014250
866.000000	-0.014552
865.000000	-0.014081
864.000000	-0.014008
863.000000	-0.014021
862.000000	-0.014789
861.000000	-0.014346
860.000000	-0.014309
859.000000	-0.014209
858.000000	-0.014101
857.000000	-0.014661
856.000000	-0.014004
855.000000	-0.017015
854.000000	-0.014273
853.000000	-0.014586
852.000000	-0.015739
851.000000	-0.015936
850.000000	-0.015154
849.000000	-0.013532
848.000000	-0.014569
847.000000	-0.016169
846.000000	-0.015310
845.000000	-0.015662
844.000000	-0.015825
843.000000	-0.012725
842.000000	-0.014857
841.000000	-0.015170
840.000000	-0.015411
839.000000	-0.015247
838.000000	-0.014864
837.000000	-0.014860
836.000000	-0.014769
835.000000	-0.014480
834.000000	-0.015236
833.000000	-0.014400
832.000000	-0.014301
831.000000	-0.015141
830.000000	-0.015190
829.000000	-0.014145
828.000000	-0.015430
827.000000	-0.014191
826.000000	-0.013914
825.000000	-0.014468
824.000000	-0.014653
823.000000	-0.016189
822.000000	-0.015343
821.000000	-0.015060
820.000000	-0.016411
819.000000	-0.016366
818.000000	-0.015269
817.000000	-0.015314
816.000000	-0.016332
815.000000	-0.013791
814.000000	-0.014100
813.000000	-0.014493
812.000000	-0.014135
811.000000	-0.013993
810.000000	-0.016343
809.000000	-0.015792
808.000000	-0.014892
807.000000	-0.014755
806.000000	-0.015577
805.000000	-0.015642
804.000000	-0.015100
803.000000	-0.015075
802.000000	-0.014350
801.000000	-0.016055
800.000000	-0.014122
799.000000	-0.015350
798.000000	-0.015277
797.000000	-0.015056
796.000000	-0.015237
795.000000	-0.015310
794.000000	-0.014874
793.000000	-0.015322
792.000000	-0.015555
791.000000	-0.015125
790.000000	-0.014408
789.000000	-0.014685
788.000000	-0.015044
787.000000	-0.014449
786.000000	-0.015195
785.000000	-0.015263
784.000000	-0.015129
783.000000	-0.015659
782.000000	-0.015541
781.000000	-0.015959
780.000000	-0.015555
779.000000	-0.015395
778.000000	-0.015089
777.000000	-0.015072
776.000000	-0.015471
775.000000	-0.015623
774.000000	-0.015701
773.000000	-0.015423
772.000000	-0.015573
771.000000	-0.015202
770.000000	-0.014799
769.000000	-0.015108
768.000000	-0.014880
767.000000	-0.015366
766.000000	-0.015328
765.000000	-0.015373
764.000000	-0.015304
763.000000	-0.015450
762.000000	-0.015678
761.000000	-0.015421
760.000000	-0.015267
759.000000	-0.015039
758.000000	-0.015212
757.000000	-0.015221
756.000000	-0.015185
755.000000	-0.015162
754.000000	-0.015734
753.000000	-0.015783
752.000000	-0.015427
751.000000	-0.015126
750.000000	-0.015114
749.000000	-0.015107
748.000000	-0.015191
747.000000	-0.015348
746.000000	-0.015335
745.000000	-0.015330
744.000000	-0.015138
743.000000	-0.015101
742.000000	-0.014640
741.000000	-0.014748
740.000000	-0.014799
739.000000	-0.015195
738.000000	-0.015299
737.000000	-0.015547
736.000000	-0.015397
735.000000	-0.014742
734.000000	-0.015055
733.000000	-0.015202
732.000000	-0.015183
731.000000	-0.015165
730.000000	-0.015226
729.000000	-0.015704
728.000000	-0.015528
727.000000	-0.015667
726.000000	-0.015158
725.000000	-0.015260
724.000000	-0.015497
723.000000	-0.015231
722.000000	-0.015215
721.000000	-0.015312
720.000000	-0.015348
719.000000	-0.015604
718.000000	-0.015540
717.000000	-0.015228
716.000000	-0.015437
715.000000	-0.015363
714.000000	-0.015271
713.000000	-0.015223
712.000000	-0.015601
711.000000	-0.015834
710.000000	-0.015638
709.000000	-0.015489
708.000000	-0.014992
707.000000	-0.015004
706.000000	-0.015088
705.000000	-0.015101
704.000000	-0.015273
703.000000	-0.015592
702.000000	-0.015814
701.000000	-0.015502
700.000000	-0.015240
699.000000	-0.015642
698.000000	-0.015629
697.000000	-0.015467
696.000000	-0.015362
695.000000	-0.015054
694.000000	-0.015082
693.000000	-0.015055
692.000000	-0.015119
691.000000	-0.015111
690.000000	-0.015154
689.000000	-0.014898
688.000000	-0.014735
687.000000	-0.014940
686.000000	-0.014761
685.000000	-0.014356
684.000000	-0.014550
683.000000	-0.014903
682.000000	-0.014649
681.000000	-0.014665
680.000000	-0.014727
679.000000	-0.014561
678.000000	-0.014718
677.000000	-0.014606
676.000000	-0.014325
675.000000	-0.014082
674.000000	-0.014141
673.000000	-0.014384
672.000000	-0.014712
671.000000	-0.014290
670.000000	-0.013933
669.000000	-0.014062
668.000000	-0.013739
667.000000	-0.013918
666.000000	-0.013955
665.000000	-0.014094
664.000000	-0.013780
663.000000	-0.013824
662.000000	-0.013961
661.000000	-0.013865
660.000000	-0.013795
659.000000	-0.013789
658.000000	-0.013876
657.000000	-0.013670
656.000000	-0.013150
655.000000	-0.013725
654.000000	-0.013836
653.000000	-0.013393
652.000000	-0.013210
651.000000	-0.013167
650.000000	-0.013063
649.000000	-0.013459
648.000000	-0.013318
647.000000	-0.013571
646.000000	-0.013268
645.000000	-0.013401
644.000000	-0.012835
643.000000	-0.013119
642.000000	-0.013000
641.000000	-0.012615
640.000000	-0.013057
639.000000	-0.012919
638.000000	-0.012694
637.000000	-0.012489
636.000000	-0.012205
635.000000	-0.012157
634.000000	-0.012345
633.000000	-0.012929
632.000000	-0.012420
631.000000	-0.012233
630.000000	-0.012382
629.000000	-0.012248
628.000000	-0.012171
627.000000	-0.012384
626.000000	-0.011804
625.000000	-0.011697
624.000000	-0.012088
623.000000	-0.011909
622.000000	-0.011273
621.000000	-0.011709
620.000000	-0.011107
619.000000	-0.010872
618.000000	-0.011042
617.000000	-0.011167
616.000000	-0.010292
615.000000	-0.010610
614.000000	-0.010502
613.000000	-0.010639
612.000000	-0.010828
611.000000	-0.010267
610.000000	-0.010360
609.000000	-0.010195
608.000000	-0.009800
607.000000	-0.010064
606.000000	-0.009630
605.000000	-0.009422
604.000000	-0.009500
603.000000	-0.009466
602.000000	-0.009365
601.000000	-0.009302
600.000000	-0.008983
599.000000	-0.009052
598.000000	-0.008565
597.000000	-0.008682
596.000000	-0.008260
595.000000	-0.008375
594.000000	-0.008031
593.000000	-0.008277
592.000000	-0.007913
591.000000	-0.007695
590.000000	-0.007649
589.000000	-0.007585
588.000000	-0.007369
587.000000	-0.006821
586.000000	-0.006744
585.000000	-0.006808
584.000000	-0.005960
583.000000	-0.005789
582.000000	-0.005859
581.000000	-0.005814
580.000000	-0.005665
579.000000	-0.005893
578.000000	-0.005152
577.000000	-0.004916
576.000000	-0.004951
575.000000	-0.005090
574.000000	-0.004470
573.000000	-0.004199
572.000000	-0.004139
571.000000	-0.004179
570.000000	-0.003632
569.000000	-0.004079
568.000000	-0.003384
567.000000	-0.003708
566.000000	-0.002853
565.000000	-0.002559
564.000000	-0.002597
563.000000	-0.002482
562.000000	-0.002080
561.000000	-0.002628
560.000000	-0.002068
559.000000	-0.002111
558.000000	-0.002023
557.000000	-0.001203
556.000000	-0.001070
555.000000	-0.000979
554.000000	-0.000384
553.000000	-0.000690
552.000000	0.000017
551.000000	0.000026
550.000000	0.000346
549.000000	0.000733
548.000000	0.000798
547.000000	0.000779
546.000000	0.001417
545.000000	0.001691
544.000000	0.002178
543.000000	0.002582
542.000000	0.002973
541.000000	0.003227
540.000000	0.003782
539.000000	0.003747
538.000000	0.004048
537.000000	0.004621
536.000000	0.004872
535.000000	0.005051
534.000000	0.005548
533.000000	0.006114
532.000000	0.006187
531.000000	0.006591
530.000000	0.007045
529.000000	0.007569
528.000000	0.008074
527.000000	0.008329
526.000000	0.008445
525.000000	0.009061
524.000000	0.009695
523.000000	0.009759
522.000000	0.010187
521.000000	0.010554
520.000000	0.011260
519.000000	0.011763
518.000000	0.011967
517.000000	0.012268
516.000000	0.013502
515.000000	0.013799
514.000000	0.013688
513.000000	0.014211
512.000000	0.015272
511.000000	0.015185
510.000000	0.016004
509.000000	0.016588
508.000000	0.016881
507.000000	0.017726
506.000000	0.018373
505.000000	0.018686
504.000000	0.019226
503.000000	0.019417
502.000000	0.020120
501.000000	0.020687
500.000000	0.021619
499.000000	0.022342
498.000000	0.022767
497.000000	0.023399
496.000000	0.024230
495.000000	0.024605
494.000000	0.025287
493.000000	0.026042
492.000000	0.026809
491.000000	0.027174
490.000000	0.027893
489.000000	0.028749
488.000000	0.029280
487.000000	0.030062
486.000000	0.031200
485.000000	0.032067
484.000000	0.032725
483.000000	0.033205
482.000000	0.033691
481.000000	0.034450
480.000000	0.035147
479.000000	0.036020
478.000000	0.036762
477.000000	0.037779
476.000000	0.038766
475.000000	0.039707
474.000000	0.040487
473.000000	0.041395
472.000000	0.042512
471.000000	0.043304
470.000000	0.044105
469.000000	0.045378
468.000000	0.046358
467.000000	0.047387
466.000000	0.048608
465.000000	0.049577
464.000000	0.050497
463.000000	0.051576
462.000000	0.052655
461.000000	0.053883
460.000000	0.055226
459.000000	0.056380
458.000000	0.057904
457.000000	0.059366
456.000000	0.060606
455.000000	0.061207
454.000000	0.062629
453.000000	0.064534
452.000000	0.066348
451.000000	0.067844
450.000000	0.069199
449.000000	0.071087
448.000000	0.072606
447.000000	0.073582
446.000000	0.074815
445.000000	0.076695
444.000000	0.078252
443.000000	0.079988
442.000000	0.081819
441.000000	0.083456
440.000000	0.085344
439.000000	0.087036
438.000000	0.088464
437.000000	0.090529
436.000000	0.092396
435.000000	0.094095
434.000000	0.096005
433.000000	0.097670
432.000000	0.099763
431.000000	0.101762
430.000000	0.103368
429.000000	0.105626
428.000000	0.107838
427.000000	0.109997
426.000000	0.112492
425.000000	0.114284
424.000000	0.116254
423.000000	0.118825
422.000000	0.121164
421.000000	0.123374
420.000000	0.125701
419.000000	0.128576
418.000000	0.130637
417.000000	0.133097
416.000000	0.136180
415.000000	0.138603
414.000000	0.140722
413.000000	0.142815
412.000000	0.145728
411.000000	0.149313
410.000000	0.151859
409.000000	0.153740
408.000000	0.156934
407.000000	0.159504
406.000000	0.162499
405.000000	0.165933
404.000000	0.168925
403.000000	0.170721
402.000000	0.174213
401.000000	0.177539
400.000000	0.180348
399.000000	0.183203
398.000000	0.186404
397.000000	0.189383
396.000000	0.192944
395.000000	0.195364
394.000000	0.199238
393.000000	0.202824
392.000000	0.205535
391.000000	0.209426
390.000000	0.211887
389.000000	0.216317
388.000000	0.219719
387.000000	0.222810
386.000000	0.227447
385.000000	0.230644
384.000000	0.234765
383.000000	0.238678
382.000000	0.241691
381.000000	0.245103
380.000000	0.250011
379.000000	0.253575
378.000000	0.258582
377.000000	0.263179
376.000000	0.266140
375.000000	0.269912
374.000000	0.274486
373.000000	0.278452
372.000000	0.284402
371.000000	0.288380
370.000000	0.292383
369.000000	0.298903
368.000000	0.303056
367.000000	0.306792
366.000000	0.311385
365.000000	0.317153
364.000000	0.322735
363.000000	0.326349
362.000000	0.331690
361.000000	0.337720
360.000000	0.342689
359.000000	0.348449
358.000000	0.353456
357.000000	0.358876
356.000000	0.363872
355.000000	0.370030
354.000000	0.374008
353.000000	0.380317
352.000000	0.387090
351.000000	0.392513
350.000000	0.398323
349.000000	0.401872
348.000000	0.409431
347.000000	0.413853
346.000000	0.421957
345.000000	0.425704
344.000000	0.432462
343.000000	0.439539
342.000000	0.443190
341.000000	0.450944
340.000000	0.457309
339.000000	0.465713
338.000000	0.471689
337.000000	0.478977
336.000000	0.481584
335.000000	0.490397
334.000000	0.498358
333.000000	0.506912
332.000000	0.512492
331.000000	0.520428
330.000000	0.530387
329.000000	0.537966
328.000000	0.550559
327.000000	0.556086
326.000000	0.562943
325.000000	0.572825
324.000000	0.578333
323.000000	0.588795
322.000000	0.597084
321.000000	0.608703
320.000000	0.615330
319.000000	0.627878
318.000000	0.635139
317.000000	0.643738
316.000000	0.653965
315.000000	0.663266
314.000000	0.673305
313.000000	0.680520
312.000000	0.688765
311.000000	0.697361
310.000000	0.706970
309.000000	0.716096
308.000000	0.725667
307.000000	0.733979
306.000000	0.739509
305.000000	0.749741
304.000000	0.756547
303.000000	0.766886
302.000000	0.774229
301.000000	0.781959
300.000000	0.788709
299.000000	0.799614
298.000000	0.809671
297.000000	0.820617
296.000000	0.834299
295.000000	0.845010
294.000000	0.859699
293.000000	0.873696
292.000000	0.886159
291.000000	0.898407
290.000000	0.907938
289.000000	0.915874
288.000000	0.924769
287.000000	0.928122
286.000000	0.931737
285.000000	0.935169
284.000000	0.933685
283.000000	0.933591
282.000000	0.933941
281.000000	0.933716
280.000000	0.932530
279.000000	0.930188
278.000000	0.931345
277.000000	0.930953
276.000000	0.926798
275.000000	0.924829
274.000000	0.923853
273.000000	0.920948
272.000000	0.916484
271.000000	0.913800
270.000000	0.912375
269.000000	0.908136
268.000000	0.903216
267.000000	0.901318
266.000000	0.897799
265.000000	0.892871
264.000000	0.890936
263.000000	0.884164
262.000000	0.878553
261.000000	0.871654
260.000000	0.866914
259.000000	0.863085
258.000000	0.858399
257.000000	0.853212
256.000000	0.849916
255.000000	0.842586
254.000000	0.837595
253.000000	0.835254
252.000000	0.831436
251.000000	0.829922
250.000000	0.824695
249.000000	0.820023
248.000000	0.818526
247.000000	0.816965
246.000000	0.814258
245.000000	0.810792
244.000000	0.807833
243.000000	0.809518
242.000000	0.812472
241.000000	0.811805
240.000000	0.808897
239.000000	0.807416
238.000000	0.807658
237.000000	0.808813
236.000000	0.806884
235.000000	0.804551
234.000000	0.803619
233.000000	0.803958
232.000000	0.803204
231.000000	0.804570
230.000000	0.804037
229.000000	0.803358
228.000000	0.802582
227.000000	0.799351
226.000000	0.796020
225.000000	0.793804
224.000000	0.791476
223.000000	0.784793
222.000000	0.780385
221.000000	0.776602
220.000000	0.772554
219.000000	0.767049
218.000000	0.758869
217.000000	0.751504
216.000000	0.743701
215.000000	0.739706
214.000000	0.736565
213.000000	0.724787
212.000000	0.714429
211.000000	0.703864
210.000000	0.694620
209.000000	0.685412
208.000000	0.675136
207.000000	0.662148
206.000000	0.648612
205.000000	0.645491
204.000000	0.637938
203.000000	0.622934
202.000000	0.608043
201.000000	0.601424
200.000000	0.594113
