PE UV       SUBTECH     SPECTRUM    ASCII       PEDS        4.00        
   -1
AgVeauUK 22.Sample.asc
18/03/06
14:35:02.00
18/03/06
14:35:02.00
Administrator

200.000000
1
Lambda 750
750N8071901
PerkinElmer UV WinLab 6.0.4.0738 / 1.61.00 Lambda 900

0
0
3350/servo 860.8/2
0
0
UV/VIS
1
1
1
CommonBeamDepol,150mm sphere / downward view
0
0
0
0
Program
Program
3350/servo 860.8/2
3350/0.2 860.8/0.2
3350/0.2 860.8/0.2
0
1
 
 
 
0
 
860.8
319.2
860.8
Front
100
on
 
 
0
0
0
 
0
 
 
 
0
 
 
0
0
0
0
0
 
 
 
 
0
0


0
0
#HDR
-1
-1
#GR
nm
A
1.0
0.0
2350.000000
-1.000000
2151
8
0.896148
-0.014248
#DATA
2350.000000	0.392713
2349.000000	0.393355
2348.000000	0.397496
2347.000000	0.388970
2346.000000	0.391529
2345.000000	0.394275
2344.000000	0.393867
2343.000000	0.400841
2342.000000	0.395177
2341.000000	0.394530
2340.000000	0.390380
2339.000000	0.384334
2338.000000	0.386136
2337.000000	0.387443
2336.000000	0.384444
2335.000000	0.379614
2334.000000	0.378212
2333.000000	0.383115
2332.000000	0.379222
2331.000000	0.376675
2330.000000	0.384681
2329.000000	0.379653
2328.000000	0.384754
2327.000000	0.385038
2326.000000	0.378161
2325.000000	0.383672
2324.000000	0.378133
2323.000000	0.380843
2322.000000	0.380764
2321.000000	0.387541
2320.000000	0.384860
2319.000000	0.385286
2318.000000	0.387878
2317.000000	0.386685
2316.000000	0.386991
2315.000000	0.387690
2314.000000	0.392498
2313.000000	0.395408
2312.000000	0.398556
2311.000000	0.393718
2310.000000	0.390856
2309.000000	0.395586
2308.000000	0.395818
2307.000000	0.398137
2306.000000	0.399803
2305.000000	0.402748
2304.000000	0.401984
2303.000000	0.403390
2302.000000	0.404284
2301.000000	0.408638
2300.000000	0.408809
2299.000000	0.416251
2298.000000	0.420273
2297.000000	0.420125
2296.000000	0.423130
2295.000000	0.421337
2294.000000	0.416572
2293.000000	0.422564
2292.000000	0.426456
2291.000000	0.428798
2290.000000	0.431218
2289.000000	0.429469
2288.000000	0.427925
2287.000000	0.426481
2286.000000	0.433314
2285.000000	0.432177
2284.000000	0.431636
2283.000000	0.434778
2282.000000	0.435042
2281.000000	0.435401
2280.000000	0.437630
2279.000000	0.435484
2278.000000	0.433139
2277.000000	0.436169
2276.000000	0.432438
2275.000000	0.428265
2274.000000	0.428856
2273.000000	0.429112
2272.000000	0.432185
2271.000000	0.431610
2270.000000	0.429401
2269.000000	0.428595
2268.000000	0.426027
2267.000000	0.421904
2266.000000	0.420302
2265.000000	0.419196
2264.000000	0.417442
2263.000000	0.417274
2262.000000	0.414789
2261.000000	0.409345
2260.000000	0.407338
2259.000000	0.404703
2258.000000	0.396620
2257.000000	0.395116
2256.000000	0.395734
2255.000000	0.394548
2254.000000	0.390146
2253.000000	0.384494
2252.000000	0.379252
2251.000000	0.375565
2250.000000	0.373190
2249.000000	0.368309
2248.000000	0.366468
2247.000000	0.362562
2246.000000	0.358736
2245.000000	0.356068
2244.000000	0.352932
2243.000000	0.349652
2242.000000	0.345308
2241.000000	0.343421
2240.000000	0.341698
2239.000000	0.339845
2238.000000	0.338646
2237.000000	0.336407
2236.000000	0.334333
2235.000000	0.332249
2234.000000	0.330146
2233.000000	0.331061
2232.000000	0.331650
2231.000000	0.329955
2230.000000	0.327817
2229.000000	0.326249
2228.000000	0.324925
2227.000000	0.325259
2226.000000	0.326008
2225.000000	0.327241
2224.000000	0.327909
2223.000000	0.327601
2222.000000	0.326770
2221.000000	0.326360
2220.000000	0.328318
2219.000000	0.328342
2218.000000	0.330076
2217.000000	0.331307
2216.000000	0.328586
2215.000000	0.328267
2214.000000	0.330931
2213.000000	0.331566
2212.000000	0.332467
2211.000000	0.335302
2210.000000	0.336631
2209.000000	0.338064
2208.000000	0.338800
2207.000000	0.338204
2206.000000	0.337696
2205.000000	0.338669
2204.000000	0.339073
2203.000000	0.341260
2202.000000	0.342497
2201.000000	0.344090
2200.000000	0.346850
2199.000000	0.346845
2198.000000	0.349660
2197.000000	0.352209
2196.000000	0.354596
2195.000000	0.356981
2194.000000	0.355611
2193.000000	0.358853
2192.000000	0.357286
2191.000000	0.358238
2190.000000	0.360234
2189.000000	0.360651
2188.000000	0.361926
2187.000000	0.363935
2186.000000	0.364444
2185.000000	0.364816
2184.000000	0.366633
2183.000000	0.366602
2182.000000	0.367195
2181.000000	0.367881
2180.000000	0.368371
2179.000000	0.370280
2178.000000	0.369869
2177.000000	0.367538
2176.000000	0.368980
2175.000000	0.367548
2174.000000	0.367505
2173.000000	0.367609
2172.000000	0.368900
2171.000000	0.368395
2170.000000	0.366471
2169.000000	0.364324
2168.000000	0.363332
2167.000000	0.361416
2166.000000	0.359569
2165.000000	0.358406
2164.000000	0.358727
2163.000000	0.356328
2162.000000	0.355499
2161.000000	0.351719
2160.000000	0.348736
2159.000000	0.348650
2158.000000	0.345002
2157.000000	0.345397
2156.000000	0.342300
2155.000000	0.337436
2154.000000	0.338405
2153.000000	0.334717
2152.000000	0.331950
2151.000000	0.331321
2150.000000	0.325101
2149.000000	0.325980
2148.000000	0.325484
2147.000000	0.318439
2146.000000	0.318482
2145.000000	0.316880
2144.000000	0.315465
2143.000000	0.311182
2142.000000	0.309357
2141.000000	0.306568
2140.000000	0.304927
2139.000000	0.303808
2138.000000	0.302917
2137.000000	0.300261
2136.000000	0.299512
2135.000000	0.296309
2134.000000	0.294823
2133.000000	0.294317
2132.000000	0.293763
2131.000000	0.292019
2130.000000	0.288750
2129.000000	0.287749
2128.000000	0.288128
2127.000000	0.287913
2126.000000	0.285683
2125.000000	0.285551
2124.000000	0.286138
2123.000000	0.282605
2122.000000	0.281216
2121.000000	0.281960
2120.000000	0.284284
2119.000000	0.281430
2118.000000	0.279971
2117.000000	0.278970
2116.000000	0.277498
2115.000000	0.276345
2114.000000	0.277042
2113.000000	0.277611
2112.000000	0.276953
2111.000000	0.276572
2110.000000	0.275949
2109.000000	0.274758
2108.000000	0.276006
2107.000000	0.274748
2106.000000	0.275283
2105.000000	0.275327
2104.000000	0.275857
2103.000000	0.274549
2102.000000	0.274466
2101.000000	0.272916
2100.000000	0.272484
2099.000000	0.273150
2098.000000	0.273547
2097.000000	0.273360
2096.000000	0.274903
2095.000000	0.273735
2094.000000	0.273890
2093.000000	0.275103
2092.000000	0.275299
2091.000000	0.275822
2090.000000	0.274422
2089.000000	0.275784
2088.000000	0.274856
2087.000000	0.276575
2086.000000	0.276610
2085.000000	0.277124
2084.000000	0.278745
2083.000000	0.279083
2082.000000	0.279419
2081.000000	0.280838
2080.000000	0.282334
2079.000000	0.283242
2078.000000	0.283458
2077.000000	0.284878
2076.000000	0.287304
2075.000000	0.288190
2074.000000	0.290091
2073.000000	0.290456
2072.000000	0.292460
2071.000000	0.293647
2070.000000	0.295316
2069.000000	0.298025
2068.000000	0.299069
2067.000000	0.300362
2066.000000	0.303147
2065.000000	0.307046
2064.000000	0.309124
2063.000000	0.310582
2062.000000	0.312624
2061.000000	0.315863
2060.000000	0.318266
2059.000000	0.319167
2058.000000	0.321182
2057.000000	0.324447
2056.000000	0.326551
2055.000000	0.328539
2054.000000	0.331105
2053.000000	0.334335
2052.000000	0.336651
2051.000000	0.337721
2050.000000	0.340381
2049.000000	0.342073
2048.000000	0.343770
2047.000000	0.344492
2046.000000	0.345438
2045.000000	0.347302
2044.000000	0.346975
2043.000000	0.347345
2042.000000	0.348038
2041.000000	0.347444
2040.000000	0.347114
2039.000000	0.346973
2038.000000	0.346538
2037.000000	0.346046
2036.000000	0.345402
2035.000000	0.343564
2034.000000	0.341354
2033.000000	0.339468
2032.000000	0.337971
2031.000000	0.336473
2030.000000	0.334100
2029.000000	0.332226
2028.000000	0.330308
2027.000000	0.328096
2026.000000	0.326061
2025.000000	0.324156
2024.000000	0.322399
2023.000000	0.321182
2022.000000	0.320403
2021.000000	0.319499
2020.000000	0.318941
2019.000000	0.318303
2018.000000	0.317426
2017.000000	0.317176
2016.000000	0.316105
2015.000000	0.315373
2014.000000	0.316261
2013.000000	0.316783
2012.000000	0.316591
2011.000000	0.316625
2010.000000	0.317940
2009.000000	0.318915
2008.000000	0.319747
2007.000000	0.320793
2006.000000	0.321732
2005.000000	0.323528
2004.000000	0.325730
2003.000000	0.326683
2002.000000	0.327570
2001.000000	0.329512
2000.000000	0.330762
1999.000000	0.332081
1998.000000	0.333431
1997.000000	0.334796
1996.000000	0.336503
1995.000000	0.338418
1994.000000	0.340357
1993.000000	0.342154
1992.000000	0.343683
1991.000000	0.345531
1990.000000	0.347747
1989.000000	0.349413
1988.000000	0.350932
1987.000000	0.352759
1986.000000	0.355225
1985.000000	0.356803
1984.000000	0.358042
1983.000000	0.359428
1982.000000	0.361287
1981.000000	0.363208
1980.000000	0.365445
1979.000000	0.366867
1978.000000	0.368251
1977.000000	0.370590
1976.000000	0.373663
1975.000000	0.375477
1974.000000	0.377103
1973.000000	0.378222
1972.000000	0.379857
1971.000000	0.382486
1970.000000	0.383903
1969.000000	0.384683
1968.000000	0.386159
1967.000000	0.388225
1966.000000	0.390258
1965.000000	0.391938
1964.000000	0.393215
1963.000000	0.395686
1962.000000	0.397057
1961.000000	0.398735
1960.000000	0.400095
1959.000000	0.402107
1958.000000	0.404142
1957.000000	0.404482
1956.000000	0.406031
1955.000000	0.407677
1954.000000	0.407878
1953.000000	0.408476
1952.000000	0.410620
1951.000000	0.410062
1950.000000	0.412400
1949.000000	0.412952
1948.000000	0.413762
1947.000000	0.413374
1946.000000	0.413073
1945.000000	0.413266
1944.000000	0.414518
1943.000000	0.412724
1942.000000	0.411556
1941.000000	0.412461
1940.000000	0.411416
1939.000000	0.407861
1938.000000	0.406025
1937.000000	0.406252
1936.000000	0.404204
1935.000000	0.402168
1934.000000	0.400796
1933.000000	0.396482
1932.000000	0.395135
1931.000000	0.392668
1930.000000	0.389364
1929.000000	0.385865
1928.000000	0.380343
1927.000000	0.377449
1926.000000	0.375033
1925.000000	0.369648
1924.000000	0.365060
1923.000000	0.360635
1922.000000	0.355671
1921.000000	0.350475
1920.000000	0.345974
1919.000000	0.341489
1918.000000	0.336460
1917.000000	0.330421
1916.000000	0.325270
1915.000000	0.319268
1914.000000	0.314176
1913.000000	0.307023
1912.000000	0.301302
1911.000000	0.295619
1910.000000	0.291207
1909.000000	0.284006
1908.000000	0.278567
1907.000000	0.270985
1906.000000	0.264892
1905.000000	0.258381
1904.000000	0.252241
1903.000000	0.246822
1902.000000	0.240081
1901.000000	0.232952
1900.000000	0.226930
1899.000000	0.220057
1898.000000	0.214843
1897.000000	0.207623
1896.000000	0.202556
1895.000000	0.196308
1894.000000	0.191565
1893.000000	0.186371
1892.000000	0.179343
1891.000000	0.175734
1890.000000	0.170626
1889.000000	0.166040
1888.000000	0.162102
1887.000000	0.157436
1886.000000	0.152955
1885.000000	0.149527
1884.000000	0.146093
1883.000000	0.141680
1882.000000	0.138785
1881.000000	0.135421
1880.000000	0.131835
1879.000000	0.128771
1878.000000	0.126435
1877.000000	0.123335
1876.000000	0.121138
1875.000000	0.118202
1874.000000	0.115875
1873.000000	0.114131
1872.000000	0.111926
1871.000000	0.110005
1870.000000	0.108412
1869.000000	0.106889
1868.000000	0.105269
1867.000000	0.104653
1866.000000	0.103604
1865.000000	0.102385
1864.000000	0.101245
1863.000000	0.100488
1862.000000	0.099675
1861.000000	0.099012
1860.000000	0.098492
1859.000000	0.097773
1858.000000	0.097773
1857.000000	0.097387
1856.000000	0.096998
1855.000000	0.096725
1854.000000	0.095955
1853.000000	0.095856
1852.000000	0.096039
1851.000000	0.095690
1850.000000	0.095865
1849.000000	0.096162
1848.000000	0.095754
1847.000000	0.095548
1846.000000	0.095593
1845.000000	0.095952
1844.000000	0.096597
1843.000000	0.096529
1842.000000	0.096538
1841.000000	0.096984
1840.000000	0.097017
1839.000000	0.097126
1838.000000	0.097352
1837.000000	0.097946
1836.000000	0.098589
1835.000000	0.098704
1834.000000	0.099199
1833.000000	0.099549
1832.000000	0.100069
1831.000000	0.100836
1830.000000	0.100686
1829.000000	0.100947
1828.000000	0.101489
1827.000000	0.101499
1826.000000	0.102157
1825.000000	0.102779
1824.000000	0.103045
1823.000000	0.103619
1822.000000	0.103914
1821.000000	0.104210
1820.000000	0.104666
1819.000000	0.105012
1818.000000	0.105539
1817.000000	0.105901
1816.000000	0.106277
1815.000000	0.106498
1814.000000	0.106732
1813.000000	0.107304
1812.000000	0.107646
1811.000000	0.107968
1810.000000	0.108377
1809.000000	0.108559
1808.000000	0.109053
1807.000000	0.109562
1806.000000	0.109860
1805.000000	0.110291
1804.000000	0.110731
1803.000000	0.111039
1802.000000	0.111410
1801.000000	0.111815
1800.000000	0.112134
1799.000000	0.112685
1798.000000	0.113141
1797.000000	0.113218
1796.000000	0.113445
1795.000000	0.113672
1794.000000	0.113832
1793.000000	0.114154
1792.000000	0.114524
1791.000000	0.114711
1790.000000	0.114952
1789.000000	0.115328
1788.000000	0.115627
1787.000000	0.115926
1786.000000	0.116132
1785.000000	0.116464
1784.000000	0.116984
1783.000000	0.117226
1782.000000	0.117579
1781.000000	0.117973
1780.000000	0.118272
1779.000000	0.118306
1778.000000	0.118877
1777.000000	0.119522
1776.000000	0.119911
1775.000000	0.120391
1774.000000	0.120877
1773.000000	0.121298
1772.000000	0.121946
1771.000000	0.122332
1770.000000	0.123074
1769.000000	0.123707
1768.000000	0.124195
1767.000000	0.124730
1766.000000	0.125322
1765.000000	0.125606
1764.000000	0.126034
1763.000000	0.126614
1762.000000	0.127179
1761.000000	0.127762
1760.000000	0.128358
1759.000000	0.128997
1758.000000	0.129607
1757.000000	0.129874
1756.000000	0.130387
1755.000000	0.131022
1754.000000	0.132195
1753.000000	0.132465
1752.000000	0.132952
1751.000000	0.133279
1750.000000	0.133899
1749.000000	0.134677
1748.000000	0.135505
1747.000000	0.136108
1746.000000	0.136436
1745.000000	0.137091
1744.000000	0.137651
1743.000000	0.138098
1742.000000	0.138996
1741.000000	0.139789
1740.000000	0.140148
1739.000000	0.140709
1738.000000	0.141097
1737.000000	0.141610
1736.000000	0.141818
1735.000000	0.141646
1734.000000	0.141755
1733.000000	0.141980
1732.000000	0.141747
1731.000000	0.141961
1730.000000	0.141760
1729.000000	0.141868
1728.000000	0.141153
1727.000000	0.140325
1726.000000	0.140069
1725.000000	0.139106
1724.000000	0.138846
1723.000000	0.138025
1722.000000	0.136805
1721.000000	0.135909
1720.000000	0.134671
1719.000000	0.133640
1718.000000	0.133168
1717.000000	0.132171
1716.000000	0.131245
1715.000000	0.130378
1714.000000	0.129151
1713.000000	0.128336
1712.000000	0.127916
1711.000000	0.126874
1710.000000	0.126381
1709.000000	0.125755
1708.000000	0.125195
1707.000000	0.125203
1706.000000	0.124597
1705.000000	0.124473
1704.000000	0.123803
1703.000000	0.123722
1702.000000	0.123662
1701.000000	0.123494
1700.000000	0.123473
1699.000000	0.123108
1698.000000	0.123185
1697.000000	0.122828
1696.000000	0.122213
1695.000000	0.122357
1694.000000	0.122048
1693.000000	0.121146
1692.000000	0.120880
1691.000000	0.120138
1690.000000	0.119328
1689.000000	0.118644
1688.000000	0.117782
1687.000000	0.116698
1686.000000	0.115272
1685.000000	0.114267
1684.000000	0.112785
1683.000000	0.111415
1682.000000	0.109650
1681.000000	0.108209
1680.000000	0.106722
1679.000000	0.104839
1678.000000	0.103255
1677.000000	0.101607
1676.000000	0.099867
1675.000000	0.097979
1674.000000	0.096300
1673.000000	0.094988
1672.000000	0.093431
1671.000000	0.091766
1670.000000	0.090427
1669.000000	0.088912
1668.000000	0.087369
1667.000000	0.086220
1666.000000	0.085314
1665.000000	0.084270
1664.000000	0.083312
1663.000000	0.082399
1662.000000	0.081755
1661.000000	0.080958
1660.000000	0.080469
1659.000000	0.079751
1658.000000	0.079272
1657.000000	0.078666
1656.000000	0.078624
1655.000000	0.078182
1654.000000	0.078097
1653.000000	0.077972
1652.000000	0.077809
1651.000000	0.077685
1650.000000	0.077647
1649.000000	0.077429
1648.000000	0.077723
1647.000000	0.077717
1646.000000	0.077892
1645.000000	0.078016
1644.000000	0.077985
1643.000000	0.078322
1642.000000	0.078562
1641.000000	0.078858
1640.000000	0.079012
1639.000000	0.079281
1638.000000	0.079467
1637.000000	0.079814
1636.000000	0.080298
1635.000000	0.080640
1634.000000	0.080997
1633.000000	0.081271
1632.000000	0.081525
1631.000000	0.081917
1630.000000	0.082441
1629.000000	0.082805
1628.000000	0.083397
1627.000000	0.083759
1626.000000	0.084311
1625.000000	0.084674
1624.000000	0.085160
1623.000000	0.085487
1622.000000	0.085974
1621.000000	0.086526
1620.000000	0.086919
1619.000000	0.087540
1618.000000	0.088032
1617.000000	0.088529
1616.000000	0.089097
1615.000000	0.089664
1614.000000	0.090128
1613.000000	0.090683
1612.000000	0.091303
1611.000000	0.091747
1610.000000	0.092384
1609.000000	0.093108
1608.000000	0.093705
1607.000000	0.094310
1606.000000	0.094853
1605.000000	0.095458
1604.000000	0.096234
1603.000000	0.096852
1602.000000	0.097522
1601.000000	0.098168
1600.000000	0.098657
1599.000000	0.099297
1598.000000	0.099957
1597.000000	0.100620
1596.000000	0.101195
1595.000000	0.101799
1594.000000	0.102357
1593.000000	0.102882
1592.000000	0.103476
1591.000000	0.104006
1590.000000	0.104455
1589.000000	0.104984
1588.000000	0.105544
1587.000000	0.106028
1586.000000	0.106568
1585.000000	0.107059
1584.000000	0.107535
1583.000000	0.108061
1582.000000	0.108584
1581.000000	0.109126
1580.000000	0.109517
1579.000000	0.109937
1578.000000	0.110482
1577.000000	0.111000
1576.000000	0.111450
1575.000000	0.111855
1574.000000	0.112373
1573.000000	0.112874
1572.000000	0.113328
1571.000000	0.113815
1570.000000	0.114195
1569.000000	0.114535
1568.000000	0.114931
1567.000000	0.115510
1566.000000	0.115822
1565.000000	0.116150
1564.000000	0.116349
1563.000000	0.116648
1562.000000	0.117002
1561.000000	0.117316
1560.000000	0.117592
1559.000000	0.117721
1558.000000	0.117850
1557.000000	0.118204
1556.000000	0.118486
1555.000000	0.118816
1554.000000	0.119090
1553.000000	0.119139
1552.000000	0.119396
1551.000000	0.119846
1550.000000	0.120107
1549.000000	0.120367
1548.000000	0.120806
1547.000000	0.121343
1546.000000	0.121734
1545.000000	0.122356
1544.000000	0.123122
1543.000000	0.123765
1542.000000	0.124342
1541.000000	0.125124
1540.000000	0.125882
1539.000000	0.126760
1538.000000	0.127612
1537.000000	0.128487
1536.000000	0.129274
1535.000000	0.130102
1534.000000	0.130925
1533.000000	0.131732
1532.000000	0.132685
1531.000000	0.133694
1530.000000	0.134358
1529.000000	0.135414
1528.000000	0.136161
1527.000000	0.136825
1526.000000	0.137456
1525.000000	0.138255
1524.000000	0.138870
1523.000000	0.139642
1522.000000	0.140194
1521.000000	0.140632
1520.000000	0.141218
1519.000000	0.141704
1518.000000	0.142042
1517.000000	0.142583
1516.000000	0.143133
1515.000000	0.143350
1514.000000	0.143823
1513.000000	0.144335
1512.000000	0.144605
1511.000000	0.144934
1510.000000	0.145179
1509.000000	0.145565
1508.000000	0.145878
1507.000000	0.145922
1506.000000	0.146025
1505.000000	0.146156
1504.000000	0.146437
1503.000000	0.146399
1502.000000	0.146737
1501.000000	0.146776
1500.000000	0.146791
1499.000000	0.147017
1498.000000	0.146712
1497.000000	0.146850
1496.000000	0.146485
1495.000000	0.146560
1494.000000	0.146463
1493.000000	0.146139
1492.000000	0.145917
1491.000000	0.145578
1490.000000	0.145277
1489.000000	0.144920
1488.000000	0.144390
1487.000000	0.144077
1486.000000	0.143541
1485.000000	0.142957
1484.000000	0.142624
1483.000000	0.142251
1482.000000	0.141751
1481.000000	0.141076
1480.000000	0.140401
1479.000000	0.140010
1478.000000	0.139440
1477.000000	0.138504
1476.000000	0.138180
1475.000000	0.137606
1474.000000	0.136959
1473.000000	0.136624
1472.000000	0.136108
1471.000000	0.135465
1470.000000	0.135006
1469.000000	0.134400
1468.000000	0.134083
1467.000000	0.133543
1466.000000	0.132994
1465.000000	0.132519
1464.000000	0.132025
1463.000000	0.131459
1462.000000	0.131166
1461.000000	0.130775
1460.000000	0.130164
1459.000000	0.129493
1458.000000	0.129145
1457.000000	0.128733
1456.000000	0.127911
1455.000000	0.127379
1454.000000	0.126865
1453.000000	0.126085
1452.000000	0.125561
1451.000000	0.124713
1450.000000	0.124119
1449.000000	0.123572
1448.000000	0.122703
1447.000000	0.121873
1446.000000	0.121125
1445.000000	0.120574
1444.000000	0.119674
1443.000000	0.118903
1442.000000	0.118217
1441.000000	0.117213
1440.000000	0.116335
1439.000000	0.115350
1438.000000	0.114496
1437.000000	0.113467
1436.000000	0.112436
1435.000000	0.111453
1434.000000	0.110452
1433.000000	0.109355
1432.000000	0.108153
1431.000000	0.107037
1430.000000	0.105845
1429.000000	0.104539
1428.000000	0.103397
1427.000000	0.102059
1426.000000	0.100697
1425.000000	0.099298
1424.000000	0.097758
1423.000000	0.096318
1422.000000	0.094813
1421.000000	0.093183
1420.000000	0.091550
1419.000000	0.090113
1418.000000	0.088441
1417.000000	0.086607
1416.000000	0.084893
1415.000000	0.083160
1414.000000	0.081488
1413.000000	0.079741
1412.000000	0.077935
1411.000000	0.076185
1410.000000	0.074438
1409.000000	0.072685
1408.000000	0.070792
1407.000000	0.069067
1406.000000	0.067383
1405.000000	0.065568
1404.000000	0.064047
1403.000000	0.062406
1402.000000	0.060681
1401.000000	0.059127
1400.000000	0.057551
1399.000000	0.055963
1398.000000	0.054451
1397.000000	0.053027
1396.000000	0.051632
1395.000000	0.050234
1394.000000	0.048837
1393.000000	0.047378
1392.000000	0.046083
1391.000000	0.044747
1390.000000	0.043577
1389.000000	0.042540
1388.000000	0.041302
1387.000000	0.040236
1386.000000	0.039240
1385.000000	0.038160
1384.000000	0.037239
1383.000000	0.036390
1382.000000	0.035450
1381.000000	0.034641
1380.000000	0.034048
1379.000000	0.033349
1378.000000	0.032597
1377.000000	0.031993
1376.000000	0.031366
1375.000000	0.030719
1374.000000	0.030182
1373.000000	0.029695
1372.000000	0.029320
1371.000000	0.028906
1370.000000	0.028295
1369.000000	0.027766
1368.000000	0.027268
1367.000000	0.026815
1366.000000	0.026400
1365.000000	0.025972
1364.000000	0.025522
1363.000000	0.024926
1362.000000	0.024336
1361.000000	0.023813
1360.000000	0.023263
1359.000000	0.022812
1358.000000	0.022340
1357.000000	0.021694
1356.000000	0.021227
1355.000000	0.020831
1354.000000	0.020280
1353.000000	0.019730
1352.000000	0.019168
1351.000000	0.018640
1350.000000	0.018163
1349.000000	0.017614
1348.000000	0.017071
1347.000000	0.016494
1346.000000	0.016113
1345.000000	0.015708
1344.000000	0.015280
1343.000000	0.014713
1342.000000	0.014182
1341.000000	0.013886
1340.000000	0.013394
1339.000000	0.012953
1338.000000	0.012517
1337.000000	0.012096
1336.000000	0.011765
1335.000000	0.011364
1334.000000	0.011070
1333.000000	0.010686
1332.000000	0.010396
1331.000000	0.010139
1330.000000	0.009821
1329.000000	0.009572
1328.000000	0.009222
1327.000000	0.009090
1326.000000	0.008818
1325.000000	0.008426
1324.000000	0.008264
1323.000000	0.008167
1322.000000	0.007864
1321.000000	0.007852
1320.000000	0.007701
1319.000000	0.007353
1318.000000	0.007322
1317.000000	0.007063
1316.000000	0.006951
1315.000000	0.006848
1314.000000	0.006786
1313.000000	0.006636
1312.000000	0.006444
1311.000000	0.006305
1310.000000	0.006204
1309.000000	0.006080
1308.000000	0.005965
1307.000000	0.006023
1306.000000	0.005785
1305.000000	0.005694
1304.000000	0.005759
1303.000000	0.005545
1302.000000	0.005462
1301.000000	0.005378
1300.000000	0.005409
1299.000000	0.005479
1298.000000	0.005306
1297.000000	0.005326
1296.000000	0.005260
1295.000000	0.005297
1294.000000	0.005248
1293.000000	0.005287
1292.000000	0.005316
1291.000000	0.005291
1290.000000	0.005471
1289.000000	0.005503
1288.000000	0.005431
1287.000000	0.005627
1286.000000	0.005647
1285.000000	0.005765
1284.000000	0.005786
1283.000000	0.005709
1282.000000	0.005706
1281.000000	0.005703
1280.000000	0.005771
1279.000000	0.005707
1278.000000	0.005695
1277.000000	0.005718
1276.000000	0.005720
1275.000000	0.005760
1274.000000	0.005780
1273.000000	0.005700
1272.000000	0.005683
1271.000000	0.005785
1270.000000	0.005685
1269.000000	0.005562
1268.000000	0.005502
1267.000000	0.005521
1266.000000	0.005557
1265.000000	0.005459
1264.000000	0.005356
1263.000000	0.005112
1262.000000	0.005200
1261.000000	0.005009
1260.000000	0.005167
1259.000000	0.005029
1258.000000	0.004911
1257.000000	0.004817
1256.000000	0.004772
1255.000000	0.004735
1254.000000	0.004712
1253.000000	0.004765
1252.000000	0.004890
1251.000000	0.004837
1250.000000	0.004776
1249.000000	0.004933
1248.000000	0.004812
1247.000000	0.004816
1246.000000	0.005024
1245.000000	0.005106
1244.000000	0.005177
1243.000000	0.005244
1242.000000	0.005548
1241.000000	0.005634
1240.000000	0.005750
1239.000000	0.005852
1238.000000	0.006045
1237.000000	0.006213
1236.000000	0.006470
1235.000000	0.006562
1234.000000	0.006762
1233.000000	0.006962
1232.000000	0.007096
1231.000000	0.007314
1230.000000	0.007531
1229.000000	0.007593
1228.000000	0.007677
1227.000000	0.007987
1226.000000	0.008174
1225.000000	0.008388
1224.000000	0.008423
1223.000000	0.008576
1222.000000	0.008828
1221.000000	0.008969
1220.000000	0.009145
1219.000000	0.009431
1218.000000	0.009675
1217.000000	0.009854
1216.000000	0.010087
1215.000000	0.010265
1214.000000	0.010510
1213.000000	0.010761
1212.000000	0.010897
1211.000000	0.011289
1210.000000	0.011659
1209.000000	0.011743
1208.000000	0.012100
1207.000000	0.012369
1206.000000	0.012756
1205.000000	0.013139
1204.000000	0.013422
1203.000000	0.013741
1202.000000	0.014002
1201.000000	0.014337
1200.000000	0.014632
1199.000000	0.014986
1198.000000	0.015194
1197.000000	0.015429
1196.000000	0.015751
1195.000000	0.016022
1194.000000	0.016258
1193.000000	0.016424
1192.000000	0.016564
1191.000000	0.016729
1190.000000	0.016847
1189.000000	0.016922
1188.000000	0.017027
1187.000000	0.017021
1186.000000	0.017078
1185.000000	0.017062
1184.000000	0.017056
1183.000000	0.017031
1182.000000	0.016918
1181.000000	0.016719
1180.000000	0.016545
1179.000000	0.016314
1178.000000	0.015992
1177.000000	0.015608
1176.000000	0.015246
1175.000000	0.014854
1174.000000	0.014426
1173.000000	0.013948
1172.000000	0.013558
1171.000000	0.013091
1170.000000	0.012449
1169.000000	0.011909
1168.000000	0.011374
1167.000000	0.010634
1166.000000	0.009977
1165.000000	0.009426
1164.000000	0.008902
1163.000000	0.008357
1162.000000	0.007603
1161.000000	0.007000
1160.000000	0.006371
1159.000000	0.005699
1158.000000	0.005181
1157.000000	0.004659
1156.000000	0.004035
1155.000000	0.003421
1154.000000	0.002928
1153.000000	0.002472
1152.000000	0.001918
1151.000000	0.001518
1150.000000	0.001117
1149.000000	0.000576
1148.000000	0.000139
1147.000000	-0.000253
1146.000000	-0.000619
1145.000000	-0.001053
1144.000000	-0.001458
1143.000000	-0.001752
1142.000000	-0.002089
1141.000000	-0.002547
1140.000000	-0.002949
1139.000000	-0.003241
1138.000000	-0.003520
1137.000000	-0.003934
1136.000000	-0.004345
1135.000000	-0.004617
1134.000000	-0.004890
1133.000000	-0.005195
1132.000000	-0.005507
1131.000000	-0.005826
1130.000000	-0.005999
1129.000000	-0.006282
1128.000000	-0.006498
1127.000000	-0.006625
1126.000000	-0.006880
1125.000000	-0.007147
1124.000000	-0.007206
1123.000000	-0.007285
1122.000000	-0.007458
1121.000000	-0.007650
1120.000000	-0.007854
1119.000000	-0.007922
1118.000000	-0.007951
1117.000000	-0.007913
1116.000000	-0.008030
1115.000000	-0.008097
1114.000000	-0.008158
1113.000000	-0.008181
1112.000000	-0.008195
1111.000000	-0.008222
1110.000000	-0.008348
1109.000000	-0.008332
1108.000000	-0.008436
1107.000000	-0.008448
1106.000000	-0.008434
1105.000000	-0.008392
1104.000000	-0.008473
1103.000000	-0.008403
1102.000000	-0.008403
1101.000000	-0.008405
1100.000000	-0.008433
1099.000000	-0.008494
1098.000000	-0.008519
1097.000000	-0.008382
1096.000000	-0.008543
1095.000000	-0.008634
1094.000000	-0.008593
1093.000000	-0.008588
1092.000000	-0.008569
1091.000000	-0.008504
1090.000000	-0.008551
1089.000000	-0.008590
1088.000000	-0.008588
1087.000000	-0.008524
1086.000000	-0.008352
1085.000000	-0.008414
1084.000000	-0.008427
1083.000000	-0.008514
1082.000000	-0.008463
1081.000000	-0.008429
1080.000000	-0.008463
1079.000000	-0.008357
1078.000000	-0.008179
1077.000000	-0.008227
1076.000000	-0.008306
1075.000000	-0.008214
1074.000000	-0.008078
1073.000000	-0.008001
1072.000000	-0.007915
1071.000000	-0.007958
1070.000000	-0.007974
1069.000000	-0.007985
1068.000000	-0.007786
1067.000000	-0.007754
1066.000000	-0.007631
1065.000000	-0.007504
1064.000000	-0.007586
1063.000000	-0.007521
1062.000000	-0.007501
1061.000000	-0.007497
1060.000000	-0.007383
1059.000000	-0.007329
1058.000000	-0.007271
1057.000000	-0.007180
1056.000000	-0.007127
1055.000000	-0.007018
1054.000000	-0.007074
1053.000000	-0.006982
1052.000000	-0.006822
1051.000000	-0.006819
1050.000000	-0.006902
1049.000000	-0.006661
1048.000000	-0.006658
1047.000000	-0.006663
1046.000000	-0.006613
1045.000000	-0.006587
1044.000000	-0.006512
1043.000000	-0.006350
1042.000000	-0.006437
1041.000000	-0.006532
1040.000000	-0.006319
1039.000000	-0.006269
1038.000000	-0.006340
1037.000000	-0.006252
1036.000000	-0.006257
1035.000000	-0.006150
1034.000000	-0.006142
1033.000000	-0.006100
1032.000000	-0.006114
1031.000000	-0.006069
1030.000000	-0.006028
1029.000000	-0.006029
1028.000000	-0.005957
1027.000000	-0.005938
1026.000000	-0.005900
1025.000000	-0.005862
1024.000000	-0.005888
1023.000000	-0.005937
1022.000000	-0.006011
1021.000000	-0.005882
1020.000000	-0.005864
1019.000000	-0.005872
1018.000000	-0.005937
1017.000000	-0.006097
1016.000000	-0.006006
1015.000000	-0.006099
1014.000000	-0.006091
1013.000000	-0.006072
1012.000000	-0.006068
1011.000000	-0.006095
1010.000000	-0.006191
1009.000000	-0.006128
1008.000000	-0.006203
1007.000000	-0.006334
1006.000000	-0.006325
1005.000000	-0.006331
1004.000000	-0.006541
1003.000000	-0.006547
1002.000000	-0.006511
1001.000000	-0.006613
1000.000000	-0.006541
999.000000	-0.006643
998.000000	-0.006745
997.000000	-0.006861
996.000000	-0.006834
995.000000	-0.006895
994.000000	-0.006907
993.000000	-0.007079
992.000000	-0.007080
991.000000	-0.007121
990.000000	-0.007096
989.000000	-0.007202
988.000000	-0.007087
987.000000	-0.007199
986.000000	-0.007245
985.000000	-0.007267
984.000000	-0.007386
983.000000	-0.007424
982.000000	-0.007510
981.000000	-0.007578
980.000000	-0.007661
979.000000	-0.007683
978.000000	-0.007772
977.000000	-0.007891
976.000000	-0.007957
975.000000	-0.007990
974.000000	-0.007945
973.000000	-0.007986
972.000000	-0.008226
971.000000	-0.008259
970.000000	-0.008213
969.000000	-0.008275
968.000000	-0.008341
967.000000	-0.008315
966.000000	-0.008476
965.000000	-0.008663
964.000000	-0.008614
963.000000	-0.008709
962.000000	-0.008883
961.000000	-0.008880
960.000000	-0.008772
959.000000	-0.008944
958.000000	-0.009070
957.000000	-0.009141
956.000000	-0.009163
955.000000	-0.009154
954.000000	-0.009231
953.000000	-0.009346
952.000000	-0.009458
951.000000	-0.009551
950.000000	-0.009616
949.000000	-0.009558
948.000000	-0.009485
947.000000	-0.009581
946.000000	-0.009745
945.000000	-0.009752
944.000000	-0.009788
943.000000	-0.009746
942.000000	-0.009747
941.000000	-0.009898
940.000000	-0.009985
939.000000	-0.009940
938.000000	-0.009785
937.000000	-0.009809
936.000000	-0.010029
935.000000	-0.010128
934.000000	-0.010082
933.000000	-0.010076
932.000000	-0.009994
931.000000	-0.009794
930.000000	-0.009841
929.000000	-0.009944
928.000000	-0.009855
927.000000	-0.009788
926.000000	-0.009710
925.000000	-0.009633
924.000000	-0.009683
923.000000	-0.009763
922.000000	-0.009722
921.000000	-0.009844
920.000000	-0.009690
919.000000	-0.009501
918.000000	-0.009610
917.000000	-0.009521
916.000000	-0.009399
915.000000	-0.009620
914.000000	-0.009647
913.000000	-0.009281
912.000000	-0.009326
911.000000	-0.009188
910.000000	-0.009227
909.000000	-0.009294
908.000000	-0.009368
907.000000	-0.009490
906.000000	-0.009787
905.000000	-0.009564
904.000000	-0.009278
903.000000	-0.009313
902.000000	-0.009572
901.000000	-0.009642
900.000000	-0.009390
899.000000	-0.009654
898.000000	-0.009726
897.000000	-0.009736
896.000000	-0.009567
895.000000	-0.010019
894.000000	-0.010348
893.000000	-0.009909
892.000000	-0.009708
891.000000	-0.010134
890.000000	-0.010452
889.000000	-0.010332
888.000000	-0.010133
887.000000	-0.010399
886.000000	-0.010252
885.000000	-0.010668
884.000000	-0.010786
883.000000	-0.010672
882.000000	-0.010577
881.000000	-0.010104
880.000000	-0.010229
879.000000	-0.010528
878.000000	-0.010599
877.000000	-0.010665
876.000000	-0.010702
875.000000	-0.010915
874.000000	-0.010698
873.000000	-0.010969
872.000000	-0.010726
871.000000	-0.010882
870.000000	-0.010892
869.000000	-0.010554
868.000000	-0.010758
867.000000	-0.011066
866.000000	-0.010577
865.000000	-0.010831
864.000000	-0.010242
863.000000	-0.010789
862.000000	-0.010636
861.000000	-0.011107
860.000000	-0.010696
859.000000	-0.012422
858.000000	-0.012296
857.000000	-0.011638
856.000000	-0.011329
855.000000	-0.014248
854.000000	-0.012196
853.000000	-0.012247
852.000000	-0.011279
851.000000	-0.010170
850.000000	-0.012037
849.000000	-0.010131
848.000000	-0.009142
847.000000	-0.010976
846.000000	-0.011080
845.000000	-0.010403
844.000000	-0.012308
843.000000	-0.009507
842.000000	-0.010405
841.000000	-0.011260
840.000000	-0.011527
839.000000	-0.011564
838.000000	-0.011942
837.000000	-0.010029
836.000000	-0.011535
835.000000	-0.010394
834.000000	-0.012216
833.000000	-0.010698
832.000000	-0.011104
831.000000	-0.011222
830.000000	-0.011136
829.000000	-0.009836
828.000000	-0.011438
827.000000	-0.010209
826.000000	-0.010789
825.000000	-0.009971
824.000000	-0.010735
823.000000	-0.011950
822.000000	-0.011327
821.000000	-0.011443
820.000000	-0.011188
819.000000	-0.011310
818.000000	-0.010803
817.000000	-0.011524
816.000000	-0.011500
815.000000	-0.010419
814.000000	-0.009825
813.000000	-0.010262
812.000000	-0.010215
811.000000	-0.010387
810.000000	-0.011044
809.000000	-0.010507
808.000000	-0.009810
807.000000	-0.010399
806.000000	-0.011063
805.000000	-0.009611
804.000000	-0.009720
803.000000	-0.010543
802.000000	-0.010467
801.000000	-0.011649
800.000000	-0.009902
799.000000	-0.010177
798.000000	-0.010793
797.000000	-0.009895
796.000000	-0.009628
795.000000	-0.010511
794.000000	-0.009928
793.000000	-0.009699
792.000000	-0.010443
791.000000	-0.009600
790.000000	-0.009703
789.000000	-0.009158
788.000000	-0.009809
787.000000	-0.009399
786.000000	-0.009958
785.000000	-0.010204
784.000000	-0.009807
783.000000	-0.009804
782.000000	-0.009427
781.000000	-0.009644
780.000000	-0.009854
779.000000	-0.009638
778.000000	-0.009142
777.000000	-0.009644
776.000000	-0.009181
775.000000	-0.009771
774.000000	-0.009555
773.000000	-0.009390
772.000000	-0.008718
771.000000	-0.008338
770.000000	-0.008850
769.000000	-0.008922
768.000000	-0.008796
767.000000	-0.009221
766.000000	-0.008864
765.000000	-0.008515
764.000000	-0.009095
763.000000	-0.008944
762.000000	-0.008961
761.000000	-0.008989
760.000000	-0.008518
759.000000	-0.007795
758.000000	-0.008058
757.000000	-0.008677
756.000000	-0.007775
755.000000	-0.007928
754.000000	-0.008323
753.000000	-0.007979
752.000000	-0.007994
751.000000	-0.007685
750.000000	-0.007599
749.000000	-0.007542
748.000000	-0.007541
747.000000	-0.007228
746.000000	-0.007222
745.000000	-0.007281
744.000000	-0.007256
743.000000	-0.006992
742.000000	-0.006509
741.000000	-0.006775
740.000000	-0.006389
739.000000	-0.006876
738.000000	-0.006967
737.000000	-0.006331
736.000000	-0.006433
735.000000	-0.005853
734.000000	-0.006077
733.000000	-0.006098
732.000000	-0.006052
731.000000	-0.006122
730.000000	-0.005621
729.000000	-0.005803
728.000000	-0.006117
727.000000	-0.006101
726.000000	-0.005426
725.000000	-0.005529
724.000000	-0.005776
723.000000	-0.005327
722.000000	-0.005425
721.000000	-0.005540
720.000000	-0.005194
719.000000	-0.005168
718.000000	-0.004789
717.000000	-0.004562
716.000000	-0.004843
715.000000	-0.004483
714.000000	-0.004283
713.000000	-0.004431
712.000000	-0.004591
711.000000	-0.004322
710.000000	-0.003784
709.000000	-0.003510
708.000000	-0.003355
707.000000	-0.003345
706.000000	-0.003281
705.000000	-0.003019
704.000000	-0.002862
703.000000	-0.003013
702.000000	-0.003066
701.000000	-0.002823
700.000000	-0.002499
699.000000	-0.002423
698.000000	-0.002017
697.000000	-0.002000
696.000000	-0.001862
695.000000	-0.000897
694.000000	-0.001053
693.000000	-0.001172
692.000000	-0.001025
691.000000	-0.000790
690.000000	-0.000667
689.000000	-0.000617
688.000000	-0.000424
687.000000	-0.000761
686.000000	-0.000169
685.000000	0.000516
684.000000	0.000844
683.000000	0.000814
682.000000	0.000917
681.000000	0.000933
680.000000	0.000946
679.000000	0.000970
678.000000	0.001357
677.000000	0.001787
676.000000	0.002115
675.000000	0.002230
674.000000	0.002389
673.000000	0.002924
672.000000	0.003018
671.000000	0.003036
670.000000	0.003761
669.000000	0.004212
668.000000	0.004017
667.000000	0.004179
666.000000	0.004840
665.000000	0.004943
664.000000	0.005259
663.000000	0.005407
662.000000	0.005466
661.000000	0.005632
660.000000	0.006284
659.000000	0.006429
658.000000	0.006699
657.000000	0.007064
656.000000	0.007541
655.000000	0.007206
654.000000	0.007862
653.000000	0.008131
652.000000	0.008649
651.000000	0.008931
650.000000	0.009331
649.000000	0.009264
648.000000	0.009715
647.000000	0.010162
646.000000	0.010381
645.000000	0.010484
644.000000	0.010986
643.000000	0.011121
642.000000	0.011620
641.000000	0.011732
640.000000	0.011809
639.000000	0.012174
638.000000	0.012672
637.000000	0.012899
636.000000	0.013665
635.000000	0.014114
634.000000	0.014294
633.000000	0.014062
632.000000	0.015070
631.000000	0.015213
630.000000	0.015749
629.000000	0.015851
628.000000	0.015965
627.000000	0.016171
626.000000	0.017009
625.000000	0.017608
624.000000	0.017115
623.000000	0.017933
622.000000	0.018342
621.000000	0.018316
620.000000	0.018958
619.000000	0.019490
618.000000	0.019357
617.000000	0.019757
616.000000	0.020565
615.000000	0.020444
614.000000	0.021162
613.000000	0.021175
612.000000	0.021516
611.000000	0.021660
610.000000	0.022075
609.000000	0.022448
608.000000	0.022881
607.000000	0.023208
606.000000	0.023472
605.000000	0.023763
604.000000	0.024007
603.000000	0.024207
602.000000	0.024627
601.000000	0.024822
600.000000	0.025419
599.000000	0.025807
598.000000	0.026287
597.000000	0.026221
596.000000	0.026448
595.000000	0.027393
594.000000	0.027114
593.000000	0.027577
592.000000	0.027889
591.000000	0.028159
590.000000	0.028339
589.000000	0.028995
588.000000	0.029307
587.000000	0.029772
586.000000	0.029772
585.000000	0.029974
584.000000	0.030853
583.000000	0.031045
582.000000	0.031159
581.000000	0.032049
580.000000	0.031744
579.000000	0.032281
578.000000	0.032942
577.000000	0.033396
576.000000	0.033580
575.000000	0.033595
574.000000	0.034423
573.000000	0.034489
572.000000	0.035022
571.000000	0.034966
570.000000	0.035552
569.000000	0.036152
568.000000	0.036233
567.000000	0.036453
566.000000	0.036960
565.000000	0.037643
564.000000	0.037764
563.000000	0.038086
562.000000	0.038451
561.000000	0.038628
560.000000	0.039147
559.000000	0.039316
558.000000	0.039184
557.000000	0.040151
556.000000	0.040433
555.000000	0.040748
554.000000	0.041294
553.000000	0.041369
552.000000	0.041953
551.000000	0.042179
550.000000	0.042565
549.000000	0.043197
548.000000	0.043722
547.000000	0.043963
546.000000	0.044355
545.000000	0.044768
544.000000	0.045181
543.000000	0.045829
542.000000	0.046299
541.000000	0.046930
540.000000	0.047139
539.000000	0.047689
538.000000	0.047866
537.000000	0.048543
536.000000	0.049049
535.000000	0.049512
534.000000	0.049639
533.000000	0.050059
532.000000	0.050200
531.000000	0.050951
530.000000	0.051529
529.000000	0.052040
528.000000	0.052496
527.000000	0.052830
526.000000	0.052957
525.000000	0.053360
524.000000	0.053945
523.000000	0.054182
522.000000	0.054845
521.000000	0.055391
520.000000	0.055905
519.000000	0.056539
518.000000	0.056782
517.000000	0.057201
516.000000	0.058166
515.000000	0.058496
514.000000	0.058502
513.000000	0.059169
512.000000	0.060116
511.000000	0.060224
510.000000	0.060908
509.000000	0.061569
508.000000	0.062105
507.000000	0.062988
506.000000	0.063455
505.000000	0.063849
504.000000	0.064528
503.000000	0.064984
502.000000	0.065722
501.000000	0.066536
500.000000	0.067519
499.000000	0.068320
498.000000	0.068874
497.000000	0.069307
496.000000	0.070172
495.000000	0.071144
494.000000	0.072256
493.000000	0.073139
492.000000	0.073775
491.000000	0.074510
490.000000	0.075344
489.000000	0.076229
488.000000	0.076614
487.000000	0.077828
486.000000	0.079048
485.000000	0.079614
484.000000	0.080747
483.000000	0.081516
482.000000	0.082175
481.000000	0.083004
480.000000	0.084277
479.000000	0.085385
478.000000	0.086046
477.000000	0.087020
476.000000	0.088273
475.000000	0.089566
474.000000	0.090587
473.000000	0.091317
472.000000	0.092498
471.000000	0.093847
470.000000	0.094954
469.000000	0.096445
468.000000	0.097799
467.000000	0.099023
466.000000	0.100110
465.000000	0.101259
464.000000	0.102835
463.000000	0.104213
462.000000	0.105330
461.000000	0.106715
460.000000	0.108141
459.000000	0.109589
458.000000	0.111271
457.000000	0.112900
456.000000	0.114300
455.000000	0.115355
454.000000	0.117012
453.000000	0.118963
452.000000	0.121008
451.000000	0.122459
450.000000	0.124049
449.000000	0.125849
448.000000	0.127573
447.000000	0.129368
446.000000	0.130964
445.000000	0.132689
444.000000	0.134714
443.000000	0.136853
442.000000	0.138975
441.000000	0.140994
440.000000	0.142897
439.000000	0.144944
438.000000	0.146844
437.000000	0.149132
436.000000	0.151229
435.000000	0.153122
434.000000	0.155264
433.000000	0.157446
432.000000	0.159760
431.000000	0.161695
430.000000	0.163962
429.000000	0.166655
428.000000	0.168810
427.000000	0.171144
426.000000	0.173986
425.000000	0.176470
424.000000	0.179044
423.000000	0.181503
422.000000	0.184267
421.000000	0.186784
420.000000	0.189212
419.000000	0.191765
418.000000	0.194398
417.000000	0.196812
416.000000	0.199461
415.000000	0.201597
414.000000	0.203232
413.000000	0.204500
412.000000	0.206521
411.000000	0.208593
410.000000	0.209977
409.000000	0.210458
408.000000	0.211878
407.000000	0.212350
406.000000	0.213630
405.000000	0.214305
404.000000	0.214983
403.000000	0.214633
402.000000	0.215122
401.000000	0.215272
400.000000	0.216228
399.000000	0.216776
398.000000	0.217489
397.000000	0.217713
396.000000	0.218108
395.000000	0.218264
394.000000	0.219516
393.000000	0.220163
392.000000	0.220329
391.000000	0.220585
390.000000	0.221626
389.000000	0.222714
388.000000	0.223265
387.000000	0.224147
386.000000	0.225834
385.000000	0.226999
384.000000	0.228110
383.000000	0.229194
382.000000	0.230235
381.000000	0.232527
380.000000	0.234310
379.000000	0.234988
378.000000	0.238178
377.000000	0.240369
376.000000	0.241511
375.000000	0.242856
374.000000	0.243004
373.000000	0.244736
372.000000	0.247205
371.000000	0.250037
370.000000	0.251675
369.000000	0.253045
368.000000	0.256262
367.000000	0.256207
366.000000	0.258385
365.000000	0.260682
364.000000	0.262665
363.000000	0.263634
362.000000	0.266488
361.000000	0.270091
360.000000	0.269653
359.000000	0.273225
358.000000	0.275906
357.000000	0.276409
356.000000	0.279503
355.000000	0.281537
354.000000	0.283413
353.000000	0.284783
352.000000	0.287499
351.000000	0.290101
350.000000	0.292989
349.000000	0.292888
348.000000	0.296634
347.000000	0.298109
346.000000	0.300701
345.000000	0.299075
344.000000	0.303365
343.000000	0.303740
342.000000	0.307384
341.000000	0.307743
340.000000	0.309803
339.000000	0.312069
338.000000	0.314537
337.000000	0.314526
336.000000	0.318711
335.000000	0.317091
334.000000	0.318097
333.000000	0.323144
332.000000	0.323713
331.000000	0.324677
330.000000	0.326473
329.000000	0.328321
328.000000	0.331122
327.000000	0.332165
326.000000	0.333108
325.000000	0.333612
324.000000	0.333611
323.000000	0.337663
322.000000	0.336733
321.000000	0.340930
320.000000	0.338034
319.000000	0.341567
318.000000	0.342427
317.000000	0.345059
316.000000	0.348629
315.000000	0.349254
314.000000	0.352529
313.000000	0.354048
312.000000	0.356929
311.000000	0.358449
310.000000	0.360441
309.000000	0.362315
308.000000	0.365997
307.000000	0.368940
306.000000	0.370339
305.000000	0.373090
304.000000	0.375103
303.000000	0.378898
302.000000	0.381937
301.000000	0.386125
300.000000	0.391275
299.000000	0.395772
298.000000	0.398364
297.000000	0.404190
296.000000	0.411957
295.000000	0.421988
294.000000	0.432309
293.000000	0.443388
292.000000	0.457192
291.000000	0.469506
290.000000	0.485023
289.000000	0.499416
288.000000	0.510272
287.000000	0.518936
286.000000	0.525836
285.000000	0.531302
284.000000	0.530416
283.000000	0.529734
282.000000	0.529836
281.000000	0.526715
280.000000	0.528082
279.000000	0.527592
278.000000	0.526132
277.000000	0.521889
276.000000	0.521060
275.000000	0.515728
274.000000	0.510756
273.000000	0.506935
272.000000	0.503517
271.000000	0.499861
270.000000	0.498700
269.000000	0.495951
268.000000	0.491506
267.000000	0.485864
266.000000	0.483857
265.000000	0.481407
264.000000	0.478538
263.000000	0.472725
262.000000	0.467535
261.000000	0.465895
260.000000	0.461508
259.000000	0.457386
258.000000	0.453457
257.000000	0.447318
256.000000	0.445254
255.000000	0.443614
254.000000	0.443130
253.000000	0.443270
252.000000	0.445632
251.000000	0.449612
250.000000	0.453147
249.000000	0.460647
248.000000	0.472943
247.000000	0.487273
246.000000	0.504666
245.000000	0.522864
244.000000	0.544876
243.000000	0.567912
242.000000	0.594395
241.000000	0.617961
240.000000	0.642017
239.000000	0.663556
238.000000	0.685935
237.000000	0.707728
236.000000	0.723069
235.000000	0.740013
234.000000	0.755948
233.000000	0.770247
232.000000	0.784213
231.000000	0.798617
230.000000	0.815542
229.000000	0.827217
228.000000	0.840953
227.000000	0.853463
226.000000	0.860115
225.000000	0.867902
224.000000	0.876192
223.000000	0.882906
222.000000	0.888505
221.000000	0.891761
220.000000	0.894003
219.000000	0.895300
218.000000	0.894703
217.000000	0.895827
216.000000	0.896148
215.000000	0.894916
214.000000	0.894245
213.000000	0.890653
212.000000	0.883520
211.000000	0.877428
210.000000	0.874889
209.000000	0.866770
208.000000	0.860594
207.000000	0.857725
206.000000	0.849498
205.000000	0.840962
204.000000	0.832761
203.000000	0.820216
202.000000	0.807473
201.000000	0.786983
200.000000	0.770263
