PE UV       SUBTECH     SPECTRUM    ASCII       PEDS        4.00        
   -1
AgVeauUK 62.Sample.asc
18/03/06
15:16:58.00
18/03/06
15:16:58.00
Administrator

200.000000
1
Lambda 750
750N8071901
PerkinElmer UV WinLab 6.0.4.0738 / 1.61.00 Lambda 900

0
0
3350/servo 860.8/2
0
0
UV/VIS
1
1
1
CommonBeamDepol,150mm sphere / downward view
0
0
0
0
Program
Program
3350/servo 860.8/2
3350/0.2 860.8/0.2
3350/0.2 860.8/0.2
0
1
 
 
 
0
 
860.8
319.2
860.8
Front
100
on
 
 
0
0
0
 
0
 
 
 
0
 
 
0
0
0
0
0
 
 
 
 
0
0


0
0
#HDR
-1
-1
#GR
nm
A
1.0
0.0
2350.000000
-1.000000
2151
8
0.905717
-0.006520
#DATA
2350.000000	0.467305
2349.000000	0.474226
2348.000000	0.474527
2347.000000	0.451683
2346.000000	0.470566
2345.000000	0.470377
2344.000000	0.469330
2343.000000	0.480579
2342.000000	0.465277
2341.000000	0.465599
2340.000000	0.465319
2339.000000	0.453369
2338.000000	0.457297
2337.000000	0.461916
2336.000000	0.457824
2335.000000	0.455870
2334.000000	0.450475
2333.000000	0.447699
2332.000000	0.447636
2331.000000	0.452437
2330.000000	0.450469
2329.000000	0.452863
2328.000000	0.457241
2327.000000	0.459178
2326.000000	0.455846
2325.000000	0.456049
2324.000000	0.451860
2323.000000	0.460734
2322.000000	0.464174
2321.000000	0.454994
2320.000000	0.456077
2319.000000	0.460070
2318.000000	0.453522
2317.000000	0.454914
2316.000000	0.463986
2315.000000	0.465345
2314.000000	0.467474
2313.000000	0.465587
2312.000000	0.467711
2311.000000	0.467814
2310.000000	0.461886
2309.000000	0.465043
2308.000000	0.467841
2307.000000	0.471314
2306.000000	0.473270
2305.000000	0.470906
2304.000000	0.475000
2303.000000	0.475668
2302.000000	0.477365
2301.000000	0.489883
2300.000000	0.494959
2299.000000	0.492740
2298.000000	0.496736
2297.000000	0.500943
2296.000000	0.497870
2295.000000	0.493879
2294.000000	0.492029
2293.000000	0.494954
2292.000000	0.497133
2291.000000	0.502824
2290.000000	0.505587
2289.000000	0.506685
2288.000000	0.506123
2287.000000	0.503119
2286.000000	0.509670
2285.000000	0.510935
2284.000000	0.507614
2283.000000	0.506952
2282.000000	0.508501
2281.000000	0.506891
2280.000000	0.506846
2279.000000	0.511665
2278.000000	0.513146
2277.000000	0.509262
2276.000000	0.508272
2275.000000	0.503859
2274.000000	0.504366
2273.000000	0.503448
2272.000000	0.505380
2271.000000	0.506994
2270.000000	0.507088
2269.000000	0.506215
2268.000000	0.501693
2267.000000	0.499793
2266.000000	0.496550
2265.000000	0.490664
2264.000000	0.487187
2263.000000	0.490265
2262.000000	0.487677
2261.000000	0.484078
2260.000000	0.486316
2259.000000	0.483757
2258.000000	0.475053
2257.000000	0.466638
2256.000000	0.466988
2255.000000	0.466003
2254.000000	0.462083
2253.000000	0.457339
2252.000000	0.453497
2251.000000	0.446551
2250.000000	0.443440
2249.000000	0.439452
2248.000000	0.434940
2247.000000	0.434145
2246.000000	0.429229
2245.000000	0.424225
2244.000000	0.419900
2243.000000	0.414684
2242.000000	0.412597
2241.000000	0.413806
2240.000000	0.410633
2239.000000	0.406225
2238.000000	0.405074
2237.000000	0.405388
2236.000000	0.402626
2235.000000	0.400585
2234.000000	0.398382
2233.000000	0.397143
2232.000000	0.396387
2231.000000	0.394763
2230.000000	0.393817
2229.000000	0.392802
2228.000000	0.391224
2227.000000	0.392312
2226.000000	0.394462
2225.000000	0.395401
2224.000000	0.395948
2223.000000	0.397420
2222.000000	0.396690
2221.000000	0.394002
2220.000000	0.394446
2219.000000	0.393645
2218.000000	0.395483
2217.000000	0.397778
2216.000000	0.400150
2215.000000	0.398353
2214.000000	0.395896
2213.000000	0.395692
2212.000000	0.399524
2211.000000	0.399306
2210.000000	0.401368
2209.000000	0.405939
2208.000000	0.408570
2207.000000	0.407568
2206.000000	0.407417
2205.000000	0.408928
2204.000000	0.410169
2203.000000	0.412033
2202.000000	0.414961
2201.000000	0.415936
2200.000000	0.415052
2199.000000	0.416557
2198.000000	0.418559
2197.000000	0.419632
2196.000000	0.420815
2195.000000	0.421861
2194.000000	0.424868
2193.000000	0.428693
2192.000000	0.427023
2191.000000	0.426601
2190.000000	0.429147
2189.000000	0.429971
2188.000000	0.435089
2187.000000	0.436096
2186.000000	0.438116
2185.000000	0.436613
2184.000000	0.439504
2183.000000	0.437674
2182.000000	0.438788
2181.000000	0.439606
2180.000000	0.440283
2179.000000	0.440664
2178.000000	0.439805
2177.000000	0.441570
2176.000000	0.439670
2175.000000	0.437704
2174.000000	0.438076
2173.000000	0.441907
2172.000000	0.440326
2171.000000	0.439604
2170.000000	0.439208
2169.000000	0.433787
2168.000000	0.430940
2167.000000	0.433170
2166.000000	0.432587
2165.000000	0.430544
2164.000000	0.422819
2163.000000	0.425664
2162.000000	0.421372
2161.000000	0.422756
2160.000000	0.421141
2159.000000	0.417963
2158.000000	0.414644
2157.000000	0.415459
2156.000000	0.411360
2155.000000	0.405767
2154.000000	0.404811
2153.000000	0.400306
2152.000000	0.399612
2151.000000	0.395827
2150.000000	0.394319
2149.000000	0.393268
2148.000000	0.392951
2147.000000	0.386191
2146.000000	0.386112
2145.000000	0.379899
2144.000000	0.378698
2143.000000	0.376901
2142.000000	0.374382
2141.000000	0.371675
2140.000000	0.368216
2139.000000	0.366463
2138.000000	0.364317
2137.000000	0.365049
2136.000000	0.363793
2135.000000	0.359083
2134.000000	0.359876
2133.000000	0.357237
2132.000000	0.355670
2131.000000	0.354873
2130.000000	0.352693
2129.000000	0.353770
2128.000000	0.351046
2127.000000	0.351463
2126.000000	0.353104
2125.000000	0.350916
2124.000000	0.346565
2123.000000	0.347137
2122.000000	0.346187
2121.000000	0.345151
2120.000000	0.343760
2119.000000	0.341301
2118.000000	0.341552
2117.000000	0.340709
2116.000000	0.340738
2115.000000	0.339211
2114.000000	0.341191
2113.000000	0.340250
2112.000000	0.336928
2111.000000	0.338037
2110.000000	0.337042
2109.000000	0.337587
2108.000000	0.337392
2107.000000	0.338105
2106.000000	0.336107
2105.000000	0.337876
2104.000000	0.336764
2103.000000	0.337200
2102.000000	0.335713
2101.000000	0.334808
2100.000000	0.333960
2099.000000	0.334638
2098.000000	0.337057
2097.000000	0.337994
2096.000000	0.337770
2095.000000	0.335335
2094.000000	0.334361
2093.000000	0.335327
2092.000000	0.335515
2091.000000	0.336041
2090.000000	0.337473
2089.000000	0.336049
2088.000000	0.337368
2087.000000	0.337518
2086.000000	0.337718
2085.000000	0.337167
2084.000000	0.338652
2083.000000	0.341905
2082.000000	0.341901
2081.000000	0.343247
2080.000000	0.344632
2079.000000	0.345902
2078.000000	0.346781
2077.000000	0.346513
2076.000000	0.348501
2075.000000	0.350673
2074.000000	0.352306
2073.000000	0.353245
2072.000000	0.355072
2071.000000	0.357016
2070.000000	0.359493
2069.000000	0.361019
2068.000000	0.364811
2067.000000	0.366886
2066.000000	0.368996
2065.000000	0.370932
2064.000000	0.372803
2063.000000	0.376078
2062.000000	0.378467
2061.000000	0.380912
2060.000000	0.384663
2059.000000	0.386947
2058.000000	0.388885
2057.000000	0.391537
2056.000000	0.394056
2055.000000	0.396352
2054.000000	0.399787
2053.000000	0.401690
2052.000000	0.404980
2051.000000	0.407745
2050.000000	0.408169
2049.000000	0.409866
2048.000000	0.411576
2047.000000	0.413804
2046.000000	0.415668
2045.000000	0.415560
2044.000000	0.415573
2043.000000	0.416895
2042.000000	0.417430
2041.000000	0.416831
2040.000000	0.416296
2039.000000	0.416248
2038.000000	0.415087
2037.000000	0.414428
2036.000000	0.413911
2035.000000	0.412057
2034.000000	0.409521
2033.000000	0.407489
2032.000000	0.405874
2031.000000	0.404788
2030.000000	0.402664
2029.000000	0.400304
2028.000000	0.398562
2027.000000	0.395977
2026.000000	0.392717
2025.000000	0.391570
2024.000000	0.390916
2023.000000	0.389102
2022.000000	0.387515
2021.000000	0.386404
2020.000000	0.385499
2019.000000	0.384941
2018.000000	0.384815
2017.000000	0.384520
2016.000000	0.383281
2015.000000	0.382958
2014.000000	0.383448
2013.000000	0.383857
2012.000000	0.384367
2011.000000	0.384395
2010.000000	0.385096
2009.000000	0.386645
2008.000000	0.388007
2007.000000	0.389232
2006.000000	0.390948
2005.000000	0.392482
2004.000000	0.393360
2003.000000	0.394394
2002.000000	0.396462
2001.000000	0.398523
2000.000000	0.400136
1999.000000	0.401234
1998.000000	0.402370
1997.000000	0.404124
1996.000000	0.406312
1995.000000	0.408577
1994.000000	0.410436
1993.000000	0.412257
1992.000000	0.414874
1991.000000	0.417153
1990.000000	0.417667
1989.000000	0.420017
1988.000000	0.423226
1987.000000	0.424699
1986.000000	0.426540
1985.000000	0.428607
1984.000000	0.429278
1983.000000	0.431502
1982.000000	0.433161
1981.000000	0.435475
1980.000000	0.437187
1979.000000	0.439775
1978.000000	0.441638
1977.000000	0.442934
1976.000000	0.446212
1975.000000	0.447573
1974.000000	0.449570
1973.000000	0.451199
1972.000000	0.453405
1971.000000	0.455444
1970.000000	0.457418
1969.000000	0.459921
1968.000000	0.461458
1967.000000	0.462013
1966.000000	0.464098
1965.000000	0.466643
1964.000000	0.467334
1963.000000	0.469402
1962.000000	0.471042
1961.000000	0.473186
1960.000000	0.475136
1959.000000	0.475854
1958.000000	0.478742
1957.000000	0.480992
1956.000000	0.481380
1955.000000	0.482933
1954.000000	0.482568
1953.000000	0.482353
1952.000000	0.484804
1951.000000	0.484832
1950.000000	0.486757
1949.000000	0.488752
1948.000000	0.489930
1947.000000	0.489943
1946.000000	0.489935
1945.000000	0.488684
1944.000000	0.488188
1943.000000	0.488887
1942.000000	0.489288
1941.000000	0.487685
1940.000000	0.486752
1939.000000	0.486291
1938.000000	0.481992
1937.000000	0.481854
1936.000000	0.478581
1935.000000	0.474488
1934.000000	0.477328
1933.000000	0.473823
1932.000000	0.470524
1931.000000	0.467702
1930.000000	0.462966
1929.000000	0.459789
1928.000000	0.457310
1927.000000	0.452140
1926.000000	0.449330
1925.000000	0.442058
1924.000000	0.438452
1923.000000	0.431627
1922.000000	0.428807
1921.000000	0.422984
1920.000000	0.417382
1919.000000	0.411503
1918.000000	0.406555
1917.000000	0.398444
1916.000000	0.396196
1915.000000	0.387072
1914.000000	0.381262
1913.000000	0.374450
1912.000000	0.368599
1911.000000	0.362206
1910.000000	0.353480
1909.000000	0.346882
1908.000000	0.341334
1907.000000	0.331733
1906.000000	0.326306
1905.000000	0.317424
1904.000000	0.310346
1903.000000	0.302251
1902.000000	0.295187
1901.000000	0.287465
1900.000000	0.279857
1899.000000	0.272059
1898.000000	0.264842
1897.000000	0.258142
1896.000000	0.251880
1895.000000	0.244630
1894.000000	0.238074
1893.000000	0.231357
1892.000000	0.224439
1891.000000	0.218975
1890.000000	0.212426
1889.000000	0.207033
1888.000000	0.201965
1887.000000	0.196096
1886.000000	0.190534
1885.000000	0.186152
1884.000000	0.182170
1883.000000	0.177373
1882.000000	0.173289
1881.000000	0.168674
1880.000000	0.164392
1879.000000	0.160985
1878.000000	0.157923
1877.000000	0.154905
1876.000000	0.151239
1875.000000	0.147325
1874.000000	0.144651
1873.000000	0.142368
1872.000000	0.139619
1871.000000	0.136889
1870.000000	0.135431
1869.000000	0.133764
1868.000000	0.131821
1867.000000	0.130787
1866.000000	0.128975
1865.000000	0.127896
1864.000000	0.126596
1863.000000	0.125726
1862.000000	0.124583
1861.000000	0.123445
1860.000000	0.122666
1859.000000	0.122422
1858.000000	0.122028
1857.000000	0.121395
1856.000000	0.121174
1855.000000	0.120647
1854.000000	0.120350
1853.000000	0.120009
1852.000000	0.120275
1851.000000	0.119846
1850.000000	0.119753
1849.000000	0.119980
1848.000000	0.119844
1847.000000	0.119564
1846.000000	0.119927
1845.000000	0.120308
1844.000000	0.120438
1843.000000	0.120636
1842.000000	0.120869
1841.000000	0.121187
1840.000000	0.121450
1839.000000	0.121568
1838.000000	0.121641
1837.000000	0.122678
1836.000000	0.123236
1835.000000	0.123462
1834.000000	0.124198
1833.000000	0.124629
1832.000000	0.125044
1831.000000	0.125508
1830.000000	0.125762
1829.000000	0.126335
1828.000000	0.127014
1827.000000	0.127574
1826.000000	0.128096
1825.000000	0.128469
1824.000000	0.128683
1823.000000	0.129145
1822.000000	0.129873
1821.000000	0.130357
1820.000000	0.130733
1819.000000	0.131314
1818.000000	0.131757
1817.000000	0.131911
1816.000000	0.132458
1815.000000	0.132954
1814.000000	0.133325
1813.000000	0.133985
1812.000000	0.134311
1811.000000	0.134665
1810.000000	0.135193
1809.000000	0.135628
1808.000000	0.136183
1807.000000	0.136692
1806.000000	0.137096
1805.000000	0.137404
1804.000000	0.137872
1803.000000	0.138413
1802.000000	0.138872
1801.000000	0.139263
1800.000000	0.139859
1799.000000	0.140444
1798.000000	0.140703
1797.000000	0.141004
1796.000000	0.141305
1795.000000	0.141545
1794.000000	0.141578
1793.000000	0.142305
1792.000000	0.142951
1791.000000	0.142910
1790.000000	0.143300
1789.000000	0.143563
1788.000000	0.143782
1787.000000	0.144343
1786.000000	0.144668
1785.000000	0.144939
1784.000000	0.145349
1783.000000	0.145799
1782.000000	0.146293
1781.000000	0.146647
1780.000000	0.147216
1779.000000	0.147328
1778.000000	0.147858
1777.000000	0.148811
1776.000000	0.149355
1775.000000	0.149891
1774.000000	0.150533
1773.000000	0.151160
1772.000000	0.151644
1771.000000	0.152091
1770.000000	0.152750
1769.000000	0.153477
1768.000000	0.154090
1767.000000	0.154708
1766.000000	0.155466
1765.000000	0.156290
1764.000000	0.156815
1763.000000	0.157558
1762.000000	0.158367
1761.000000	0.158877
1760.000000	0.159605
1759.000000	0.160460
1758.000000	0.160840
1757.000000	0.161240
1756.000000	0.162191
1755.000000	0.162981
1754.000000	0.164144
1753.000000	0.164702
1752.000000	0.165400
1751.000000	0.165740
1750.000000	0.166584
1749.000000	0.167145
1748.000000	0.168333
1747.000000	0.168872
1746.000000	0.169670
1745.000000	0.170571
1744.000000	0.171374
1743.000000	0.171651
1742.000000	0.172541
1741.000000	0.173395
1740.000000	0.173922
1739.000000	0.174542
1738.000000	0.174961
1737.000000	0.175459
1736.000000	0.175757
1735.000000	0.176067
1734.000000	0.176209
1733.000000	0.176272
1732.000000	0.176234
1731.000000	0.176195
1730.000000	0.176259
1729.000000	0.175670
1728.000000	0.175116
1727.000000	0.174455
1726.000000	0.173715
1725.000000	0.172558
1724.000000	0.171942
1723.000000	0.171258
1722.000000	0.170057
1721.000000	0.168339
1720.000000	0.167063
1719.000000	0.165768
1718.000000	0.165136
1717.000000	0.163949
1716.000000	0.162639
1715.000000	0.161497
1714.000000	0.160535
1713.000000	0.159065
1712.000000	0.158726
1711.000000	0.157670
1710.000000	0.157308
1709.000000	0.156299
1708.000000	0.155711
1707.000000	0.155307
1706.000000	0.154594
1705.000000	0.154501
1704.000000	0.153922
1703.000000	0.153348
1702.000000	0.153596
1701.000000	0.153467
1700.000000	0.153662
1699.000000	0.153152
1698.000000	0.152906
1697.000000	0.152579
1696.000000	0.151680
1695.000000	0.151685
1694.000000	0.151452
1693.000000	0.150665
1692.000000	0.150181
1691.000000	0.148896
1690.000000	0.148187
1689.000000	0.147293
1688.000000	0.146307
1687.000000	0.144806
1686.000000	0.143193
1685.000000	0.141693
1684.000000	0.139965
1683.000000	0.138032
1682.000000	0.135996
1681.000000	0.134226
1680.000000	0.131922
1679.000000	0.129806
1678.000000	0.127573
1677.000000	0.126045
1676.000000	0.123739
1675.000000	0.121559
1674.000000	0.119503
1673.000000	0.117547
1672.000000	0.115598
1671.000000	0.113662
1670.000000	0.111704
1669.000000	0.109834
1668.000000	0.108220
1667.000000	0.106760
1666.000000	0.105785
1665.000000	0.104459
1664.000000	0.103192
1663.000000	0.102353
1662.000000	0.101418
1661.000000	0.100429
1660.000000	0.099689
1659.000000	0.099095
1658.000000	0.098548
1657.000000	0.097861
1656.000000	0.097659
1655.000000	0.097382
1654.000000	0.096998
1653.000000	0.096720
1652.000000	0.096573
1651.000000	0.096561
1650.000000	0.096599
1649.000000	0.096485
1648.000000	0.096512
1647.000000	0.096675
1646.000000	0.096809
1645.000000	0.097176
1644.000000	0.097282
1643.000000	0.097585
1642.000000	0.097827
1641.000000	0.098069
1640.000000	0.098360
1639.000000	0.098495
1638.000000	0.098793
1637.000000	0.099185
1636.000000	0.099787
1635.000000	0.100383
1634.000000	0.100833
1633.000000	0.101241
1632.000000	0.101691
1631.000000	0.102139
1630.000000	0.102585
1629.000000	0.103225
1628.000000	0.103822
1627.000000	0.104438
1626.000000	0.105008
1625.000000	0.105630
1624.000000	0.106152
1623.000000	0.106500
1622.000000	0.107146
1621.000000	0.107812
1620.000000	0.108380
1619.000000	0.109124
1618.000000	0.109868
1617.000000	0.110489
1616.000000	0.111103
1615.000000	0.111829
1614.000000	0.112493
1613.000000	0.113043
1612.000000	0.113772
1611.000000	0.114599
1610.000000	0.115301
1609.000000	0.116078
1608.000000	0.116914
1607.000000	0.117560
1606.000000	0.118451
1605.000000	0.119433
1604.000000	0.120256
1603.000000	0.120947
1602.000000	0.121699
1601.000000	0.122465
1600.000000	0.123184
1599.000000	0.124046
1598.000000	0.124894
1597.000000	0.125596
1596.000000	0.126292
1595.000000	0.127020
1594.000000	0.127681
1593.000000	0.128353
1592.000000	0.129136
1591.000000	0.129868
1590.000000	0.130493
1589.000000	0.131058
1588.000000	0.131781
1587.000000	0.132561
1586.000000	0.133052
1585.000000	0.133597
1584.000000	0.134321
1583.000000	0.134864
1582.000000	0.135498
1581.000000	0.136103
1580.000000	0.136646
1579.000000	0.137245
1578.000000	0.137773
1577.000000	0.138459
1576.000000	0.139148
1575.000000	0.139759
1574.000000	0.140475
1573.000000	0.141019
1572.000000	0.141513
1571.000000	0.142181
1570.000000	0.142737
1569.000000	0.143176
1568.000000	0.143758
1567.000000	0.144288
1566.000000	0.144549
1565.000000	0.144947
1564.000000	0.145284
1563.000000	0.145784
1562.000000	0.146264
1561.000000	0.146570
1560.000000	0.146855
1559.000000	0.147158
1558.000000	0.147369
1557.000000	0.147598
1556.000000	0.148004
1555.000000	0.148265
1554.000000	0.148508
1553.000000	0.148868
1552.000000	0.149290
1551.000000	0.149862
1550.000000	0.150208
1549.000000	0.150589
1548.000000	0.151036
1547.000000	0.151763
1546.000000	0.152526
1545.000000	0.153018
1544.000000	0.153792
1543.000000	0.154686
1542.000000	0.155436
1541.000000	0.156663
1540.000000	0.157642
1539.000000	0.158588
1538.000000	0.159671
1537.000000	0.160760
1536.000000	0.161854
1535.000000	0.162891
1534.000000	0.164096
1533.000000	0.164874
1532.000000	0.165991
1531.000000	0.167195
1530.000000	0.168220
1529.000000	0.169482
1528.000000	0.170423
1527.000000	0.171342
1526.000000	0.172322
1525.000000	0.173265
1524.000000	0.174011
1523.000000	0.174532
1522.000000	0.175426
1521.000000	0.176242
1520.000000	0.176745
1519.000000	0.177332
1518.000000	0.177575
1517.000000	0.178330
1516.000000	0.178932
1515.000000	0.179273
1514.000000	0.179982
1513.000000	0.180320
1512.000000	0.180487
1511.000000	0.181064
1510.000000	0.181374
1509.000000	0.181559
1508.000000	0.181899
1507.000000	0.182282
1506.000000	0.182558
1505.000000	0.182606
1504.000000	0.182803
1503.000000	0.182841
1502.000000	0.183213
1501.000000	0.183221
1500.000000	0.183198
1499.000000	0.183546
1498.000000	0.183307
1497.000000	0.183236
1496.000000	0.183131
1495.000000	0.182964
1494.000000	0.182734
1493.000000	0.182442
1492.000000	0.182170
1491.000000	0.181919
1490.000000	0.181397
1489.000000	0.181087
1488.000000	0.180389
1487.000000	0.179985
1486.000000	0.179355
1485.000000	0.178804
1484.000000	0.178260
1483.000000	0.177774
1482.000000	0.177198
1481.000000	0.176233
1480.000000	0.175529
1479.000000	0.174848
1478.000000	0.174375
1477.000000	0.173701
1476.000000	0.173258
1475.000000	0.172412
1474.000000	0.171628
1473.000000	0.170976
1472.000000	0.170559
1471.000000	0.169816
1470.000000	0.169183
1469.000000	0.168651
1468.000000	0.167890
1467.000000	0.167496
1466.000000	0.166889
1465.000000	0.166229
1464.000000	0.165708
1463.000000	0.165140
1462.000000	0.164413
1461.000000	0.163886
1460.000000	0.163291
1459.000000	0.162553
1458.000000	0.161781
1457.000000	0.161181
1456.000000	0.160473
1455.000000	0.159835
1454.000000	0.159202
1453.000000	0.158284
1452.000000	0.157518
1451.000000	0.156532
1450.000000	0.155811
1449.000000	0.155032
1448.000000	0.154085
1447.000000	0.153162
1446.000000	0.152296
1445.000000	0.151308
1444.000000	0.150377
1443.000000	0.149306
1442.000000	0.148318
1441.000000	0.147190
1440.000000	0.146109
1439.000000	0.145087
1438.000000	0.143634
1437.000000	0.142362
1436.000000	0.141185
1435.000000	0.139955
1434.000000	0.138706
1433.000000	0.137163
1432.000000	0.135642
1431.000000	0.134317
1430.000000	0.132710
1429.000000	0.131173
1428.000000	0.129573
1427.000000	0.127883
1426.000000	0.126171
1425.000000	0.124389
1424.000000	0.122485
1423.000000	0.120693
1422.000000	0.118748
1421.000000	0.116644
1420.000000	0.114665
1419.000000	0.112662
1418.000000	0.110499
1417.000000	0.108343
1416.000000	0.106247
1415.000000	0.104083
1414.000000	0.101848
1413.000000	0.099724
1412.000000	0.097501
1411.000000	0.095124
1410.000000	0.093020
1409.000000	0.090951
1408.000000	0.088614
1407.000000	0.086309
1406.000000	0.084013
1405.000000	0.081965
1404.000000	0.079955
1403.000000	0.077946
1402.000000	0.075869
1401.000000	0.073883
1400.000000	0.071932
1399.000000	0.069930
1398.000000	0.068039
1397.000000	0.066326
1396.000000	0.064447
1395.000000	0.062668
1394.000000	0.060939
1393.000000	0.059193
1392.000000	0.057595
1391.000000	0.055932
1390.000000	0.054546
1389.000000	0.053152
1388.000000	0.051623
1387.000000	0.050363
1386.000000	0.049060
1385.000000	0.047763
1384.000000	0.046653
1383.000000	0.045618
1382.000000	0.044546
1381.000000	0.043513
1380.000000	0.042732
1379.000000	0.041873
1378.000000	0.040933
1377.000000	0.040253
1376.000000	0.039562
1375.000000	0.038845
1374.000000	0.038220
1373.000000	0.037538
1372.000000	0.036979
1371.000000	0.036411
1370.000000	0.035733
1369.000000	0.035098
1368.000000	0.034535
1367.000000	0.034036
1366.000000	0.033474
1365.000000	0.032865
1364.000000	0.032284
1363.000000	0.031603
1362.000000	0.030889
1361.000000	0.030244
1360.000000	0.029690
1359.000000	0.029128
1358.000000	0.028477
1357.000000	0.027825
1356.000000	0.027205
1355.000000	0.026605
1354.000000	0.025986
1353.000000	0.025271
1352.000000	0.024547
1351.000000	0.023996
1350.000000	0.023407
1349.000000	0.022780
1348.000000	0.022080
1347.000000	0.021439
1346.000000	0.020946
1345.000000	0.020437
1344.000000	0.019821
1343.000000	0.019197
1342.000000	0.018627
1341.000000	0.018193
1340.000000	0.017671
1339.000000	0.017186
1338.000000	0.016691
1337.000000	0.016122
1336.000000	0.015632
1335.000000	0.015240
1334.000000	0.014784
1333.000000	0.014304
1332.000000	0.013957
1331.000000	0.013706
1330.000000	0.013392
1329.000000	0.013045
1328.000000	0.012596
1327.000000	0.012390
1326.000000	0.012137
1325.000000	0.011792
1324.000000	0.011687
1323.000000	0.011337
1322.000000	0.011011
1321.000000	0.010853
1320.000000	0.010691
1319.000000	0.010537
1318.000000	0.010265
1317.000000	0.010062
1316.000000	0.009964
1315.000000	0.009936
1314.000000	0.009761
1313.000000	0.009472
1312.000000	0.009386
1311.000000	0.009190
1310.000000	0.009129
1309.000000	0.009034
1308.000000	0.008832
1307.000000	0.008684
1306.000000	0.008450
1305.000000	0.008522
1304.000000	0.008430
1303.000000	0.008308
1302.000000	0.008228
1301.000000	0.008166
1300.000000	0.008177
1299.000000	0.008253
1298.000000	0.008086
1297.000000	0.008057
1296.000000	0.008064
1295.000000	0.008106
1294.000000	0.008079
1293.000000	0.008101
1292.000000	0.008168
1291.000000	0.008128
1290.000000	0.008226
1289.000000	0.008342
1288.000000	0.008439
1287.000000	0.008485
1286.000000	0.008414
1285.000000	0.008603
1284.000000	0.008629
1283.000000	0.008555
1282.000000	0.008608
1281.000000	0.008674
1280.000000	0.008724
1279.000000	0.008724
1278.000000	0.008727
1277.000000	0.008817
1276.000000	0.008699
1275.000000	0.008635
1274.000000	0.008619
1273.000000	0.008553
1272.000000	0.008605
1271.000000	0.008616
1270.000000	0.008542
1269.000000	0.008651
1268.000000	0.008530
1267.000000	0.008440
1266.000000	0.008371
1265.000000	0.008368
1264.000000	0.008183
1263.000000	0.007950
1262.000000	0.008251
1261.000000	0.007983
1260.000000	0.007826
1259.000000	0.007851
1258.000000	0.007815
1257.000000	0.007635
1256.000000	0.007777
1255.000000	0.007690
1254.000000	0.007686
1253.000000	0.007727
1252.000000	0.007646
1251.000000	0.007684
1250.000000	0.007715
1249.000000	0.007863
1248.000000	0.007789
1247.000000	0.007847
1246.000000	0.007981
1245.000000	0.008082
1244.000000	0.008279
1243.000000	0.008467
1242.000000	0.008619
1241.000000	0.008847
1240.000000	0.009066
1239.000000	0.009197
1238.000000	0.009385
1237.000000	0.009619
1236.000000	0.009825
1235.000000	0.010053
1234.000000	0.010242
1233.000000	0.010516
1232.000000	0.010619
1231.000000	0.010874
1230.000000	0.011148
1229.000000	0.011349
1228.000000	0.011551
1227.000000	0.011723
1226.000000	0.011963
1225.000000	0.012185
1224.000000	0.012416
1223.000000	0.012623
1222.000000	0.012838
1221.000000	0.013097
1220.000000	0.013349
1219.000000	0.013562
1218.000000	0.013807
1217.000000	0.014048
1216.000000	0.014324
1215.000000	0.014556
1214.000000	0.014905
1213.000000	0.015366
1212.000000	0.015596
1211.000000	0.015919
1210.000000	0.016244
1209.000000	0.016544
1208.000000	0.017004
1207.000000	0.017395
1206.000000	0.017878
1205.000000	0.018101
1204.000000	0.018587
1203.000000	0.018962
1202.000000	0.019278
1201.000000	0.019750
1200.000000	0.020023
1199.000000	0.020366
1198.000000	0.020751
1197.000000	0.021015
1196.000000	0.021387
1195.000000	0.021678
1194.000000	0.022020
1193.000000	0.022209
1192.000000	0.022333
1191.000000	0.022596
1190.000000	0.022683
1189.000000	0.022861
1188.000000	0.022993
1187.000000	0.022991
1186.000000	0.022980
1185.000000	0.022936
1184.000000	0.022915
1183.000000	0.022919
1182.000000	0.022753
1181.000000	0.022473
1180.000000	0.022191
1179.000000	0.021907
1178.000000	0.021585
1177.000000	0.021255
1176.000000	0.020795
1175.000000	0.020242
1174.000000	0.019744
1173.000000	0.019267
1172.000000	0.018766
1171.000000	0.018050
1170.000000	0.017343
1169.000000	0.016725
1168.000000	0.016054
1167.000000	0.015269
1166.000000	0.014586
1165.000000	0.013903
1164.000000	0.013111
1163.000000	0.012413
1162.000000	0.011673
1161.000000	0.010972
1160.000000	0.010278
1159.000000	0.009503
1158.000000	0.008822
1157.000000	0.008215
1156.000000	0.007539
1155.000000	0.006839
1154.000000	0.006227
1153.000000	0.005769
1152.000000	0.005158
1151.000000	0.004533
1150.000000	0.004042
1149.000000	0.003488
1148.000000	0.002922
1147.000000	0.002451
1146.000000	0.002051
1145.000000	0.001543
1144.000000	0.001156
1143.000000	0.000793
1142.000000	0.000302
1141.000000	-0.000150
1140.000000	-0.000551
1139.000000	-0.001019
1138.000000	-0.001338
1137.000000	-0.001705
1136.000000	-0.002166
1135.000000	-0.002456
1134.000000	-0.002819
1133.000000	-0.003193
1132.000000	-0.003545
1131.000000	-0.003903
1130.000000	-0.004097
1129.000000	-0.004407
1128.000000	-0.004602
1127.000000	-0.004681
1126.000000	-0.004989
1125.000000	-0.005291
1124.000000	-0.005336
1123.000000	-0.005407
1122.000000	-0.005613
1121.000000	-0.005755
1120.000000	-0.005926
1119.000000	-0.006007
1118.000000	-0.006037
1117.000000	-0.006015
1116.000000	-0.006145
1115.000000	-0.006237
1114.000000	-0.006336
1113.000000	-0.006280
1112.000000	-0.006244
1111.000000	-0.006272
1110.000000	-0.006344
1109.000000	-0.006433
1108.000000	-0.006501
1107.000000	-0.006426
1106.000000	-0.006368
1105.000000	-0.006398
1104.000000	-0.006483
1103.000000	-0.006341
1102.000000	-0.006390
1101.000000	-0.006443
1100.000000	-0.006520
1099.000000	-0.006446
1098.000000	-0.006401
1097.000000	-0.006383
1096.000000	-0.006425
1095.000000	-0.006458
1094.000000	-0.006454
1093.000000	-0.006381
1092.000000	-0.006379
1091.000000	-0.006277
1090.000000	-0.006267
1089.000000	-0.006250
1088.000000	-0.006245
1087.000000	-0.006224
1086.000000	-0.006076
1085.000000	-0.006137
1084.000000	-0.006162
1083.000000	-0.006165
1082.000000	-0.006072
1081.000000	-0.006030
1080.000000	-0.006067
1079.000000	-0.005917
1078.000000	-0.005782
1077.000000	-0.005751
1076.000000	-0.005689
1075.000000	-0.005604
1074.000000	-0.005516
1073.000000	-0.005462
1072.000000	-0.005366
1071.000000	-0.005314
1070.000000	-0.005177
1069.000000	-0.005073
1068.000000	-0.005183
1067.000000	-0.005067
1066.000000	-0.004872
1065.000000	-0.004738
1064.000000	-0.004663
1063.000000	-0.004707
1062.000000	-0.004536
1061.000000	-0.004545
1060.000000	-0.004445
1059.000000	-0.004317
1058.000000	-0.004210
1057.000000	-0.004084
1056.000000	-0.004091
1055.000000	-0.003889
1054.000000	-0.003773
1053.000000	-0.003790
1052.000000	-0.003648
1051.000000	-0.003551
1050.000000	-0.003538
1049.000000	-0.003362
1048.000000	-0.003335
1047.000000	-0.003282
1046.000000	-0.003160
1045.000000	-0.003082
1044.000000	-0.003081
1043.000000	-0.002805
1042.000000	-0.002959
1041.000000	-0.002876
1040.000000	-0.002732
1039.000000	-0.002607
1038.000000	-0.002576
1037.000000	-0.002543
1036.000000	-0.002469
1035.000000	-0.002366
1034.000000	-0.002273
1033.000000	-0.002238
1032.000000	-0.002171
1031.000000	-0.002184
1030.000000	-0.002120
1029.000000	-0.001987
1028.000000	-0.001987
1027.000000	-0.001941
1026.000000	-0.001886
1025.000000	-0.001821
1024.000000	-0.001831
1023.000000	-0.001807
1022.000000	-0.001813
1021.000000	-0.001706
1020.000000	-0.001732
1019.000000	-0.001656
1018.000000	-0.001597
1017.000000	-0.001641
1016.000000	-0.001701
1015.000000	-0.001653
1014.000000	-0.001789
1013.000000	-0.001712
1012.000000	-0.001717
1011.000000	-0.001740
1010.000000	-0.001727
1009.000000	-0.001677
1008.000000	-0.001758
1007.000000	-0.001846
1006.000000	-0.001784
1005.000000	-0.001864
1004.000000	-0.002023
1003.000000	-0.001994
1002.000000	-0.001914
1001.000000	-0.001942
1000.000000	-0.001905
999.000000	-0.001989
998.000000	-0.002001
997.000000	-0.002007
996.000000	-0.002043
995.000000	-0.002111
994.000000	-0.002160
993.000000	-0.002268
992.000000	-0.002213
991.000000	-0.002243
990.000000	-0.002220
989.000000	-0.002266
988.000000	-0.002139
987.000000	-0.002204
986.000000	-0.002262
985.000000	-0.002327
984.000000	-0.002408
983.000000	-0.002392
982.000000	-0.002416
981.000000	-0.002533
980.000000	-0.002436
979.000000	-0.002471
978.000000	-0.002536
977.000000	-0.002682
976.000000	-0.002692
975.000000	-0.002656
974.000000	-0.002754
973.000000	-0.002744
972.000000	-0.002857
971.000000	-0.002816
970.000000	-0.002789
969.000000	-0.002868
968.000000	-0.002855
967.000000	-0.002845
966.000000	-0.002917
965.000000	-0.003136
964.000000	-0.003124
963.000000	-0.003148
962.000000	-0.003262
961.000000	-0.003308
960.000000	-0.003273
959.000000	-0.003261
958.000000	-0.003271
957.000000	-0.003431
956.000000	-0.003439
955.000000	-0.003387
954.000000	-0.003481
953.000000	-0.003465
952.000000	-0.003571
951.000000	-0.003666
950.000000	-0.003645
949.000000	-0.003647
948.000000	-0.003612
947.000000	-0.003710
946.000000	-0.003727
945.000000	-0.003698
944.000000	-0.003834
943.000000	-0.003685
942.000000	-0.003566
941.000000	-0.003631
940.000000	-0.003732
939.000000	-0.003719
938.000000	-0.003449
937.000000	-0.003424
936.000000	-0.003748
935.000000	-0.003764
934.000000	-0.003549
933.000000	-0.003568
932.000000	-0.003497
931.000000	-0.003401
930.000000	-0.003343
929.000000	-0.003251
928.000000	-0.003088
927.000000	-0.002865
926.000000	-0.002864
925.000000	-0.002930
924.000000	-0.002884
923.000000	-0.002908
922.000000	-0.002869
921.000000	-0.002687
920.000000	-0.002477
919.000000	-0.002356
918.000000	-0.002474
917.000000	-0.002388
916.000000	-0.002229
915.000000	-0.002288
914.000000	-0.002299
913.000000	-0.002193
912.000000	-0.001941
911.000000	-0.001786
910.000000	-0.001863
909.000000	-0.001902
908.000000	-0.001842
907.000000	-0.001786
906.000000	-0.001921
905.000000	-0.001664
904.000000	-0.001533
903.000000	-0.001739
902.000000	-0.001817
901.000000	-0.001835
900.000000	-0.001588
899.000000	-0.001966
898.000000	-0.002006
897.000000	-0.002274
896.000000	-0.002030
895.000000	-0.001706
894.000000	-0.002198
893.000000	-0.001680
892.000000	-0.001515
891.000000	-0.001987
890.000000	-0.002280
889.000000	-0.001971
888.000000	-0.002106
887.000000	-0.002124
886.000000	-0.002061
885.000000	-0.002364
884.000000	-0.002120
883.000000	-0.002211
882.000000	-0.002194
881.000000	-0.001569
880.000000	-0.001683
879.000000	-0.001888
878.000000	-0.001664
877.000000	-0.002149
876.000000	-0.001829
875.000000	-0.001925
874.000000	-0.001362
873.000000	-0.001850
872.000000	-0.001751
871.000000	-0.001690
870.000000	-0.001963
869.000000	-0.001853
868.000000	-0.001774
867.000000	-0.002188
866.000000	-0.002039
865.000000	-0.001743
864.000000	-0.001355
863.000000	-0.001379
862.000000	-0.001852
861.000000	-0.001494
860.000000	-0.001113
859.000000	-0.001268
858.000000	-0.002414
857.000000	-0.001225
856.000000	-0.000220
855.000000	-0.003802
854.000000	-0.002360
853.000000	-0.000933
852.000000	-0.002691
851.000000	-0.000848
850.000000	-0.001185
849.000000	-0.000661
848.000000	-0.001145
847.000000	-0.001969
846.000000	-0.000783
845.000000	0.000227
844.000000	-0.000689
843.000000	0.000322
842.000000	-0.000939
841.000000	-0.000736
840.000000	0.000557
839.000000	-0.000660
838.000000	0.000534
837.000000	0.001173
836.000000	0.000215
835.000000	0.000846
834.000000	0.000303
833.000000	0.000013
832.000000	0.000310
831.000000	0.001025
830.000000	0.001040
829.000000	0.001629
828.000000	-0.000365
827.000000	0.001407
826.000000	0.001557
825.000000	0.001164
824.000000	0.001616
823.000000	0.001284
822.000000	0.001299
821.000000	0.000729
820.000000	0.001110
819.000000	0.001136
818.000000	0.001301
817.000000	0.000823
816.000000	0.000243
815.000000	0.002113
814.000000	0.002400
813.000000	0.002496
812.000000	0.002279
811.000000	0.002437
810.000000	0.002346
809.000000	0.002933
808.000000	0.003230
807.000000	0.002115
806.000000	0.002510
805.000000	0.003342
804.000000	0.003144
803.000000	0.002944
802.000000	0.003510
801.000000	0.002324
800.000000	0.003776
799.000000	0.002820
798.000000	0.002543
797.000000	0.003209
796.000000	0.002849
795.000000	0.003425
794.000000	0.004167
793.000000	0.003260
792.000000	0.002098
791.000000	0.003691
790.000000	0.004362
789.000000	0.004335
788.000000	0.003812
787.000000	0.004199
786.000000	0.004553
785.000000	0.003795
784.000000	0.004063
783.000000	0.004244
782.000000	0.004921
781.000000	0.004861
780.000000	0.005214
779.000000	0.005285
778.000000	0.005555
777.000000	0.005755
776.000000	0.005787
775.000000	0.005550
774.000000	0.006078
773.000000	0.005854
772.000000	0.005829
771.000000	0.006048
770.000000	0.005910
769.000000	0.006304
768.000000	0.006132
767.000000	0.005787
766.000000	0.006072
765.000000	0.006684
764.000000	0.006460
763.000000	0.006807
762.000000	0.006543
761.000000	0.006691
760.000000	0.007038
759.000000	0.007410
758.000000	0.007932
757.000000	0.007733
756.000000	0.008109
755.000000	0.007829
754.000000	0.007899
753.000000	0.008138
752.000000	0.008413
751.000000	0.008337
750.000000	0.008745
749.000000	0.008832
748.000000	0.008778
747.000000	0.009230
746.000000	0.009358
745.000000	0.009425
744.000000	0.009683
743.000000	0.009990
742.000000	0.010331
741.000000	0.010257
740.000000	0.009946
739.000000	0.010094
738.000000	0.010674
737.000000	0.010450
736.000000	0.011080
735.000000	0.011657
734.000000	0.011613
733.000000	0.011803
732.000000	0.011850
731.000000	0.011875
730.000000	0.012143
729.000000	0.011960
728.000000	0.012209
727.000000	0.012472
726.000000	0.013168
725.000000	0.013180
724.000000	0.012659
723.000000	0.012927
722.000000	0.013132
721.000000	0.013773
720.000000	0.014430
719.000000	0.014408
718.000000	0.014185
717.000000	0.014478
716.000000	0.014475
715.000000	0.014674
714.000000	0.015036
713.000000	0.015325
712.000000	0.015400
711.000000	0.015688
710.000000	0.016408
709.000000	0.016559
708.000000	0.016618
707.000000	0.016831
706.000000	0.017393
705.000000	0.017653
704.000000	0.017746
703.000000	0.017740
702.000000	0.017503
701.000000	0.018147
700.000000	0.018722
699.000000	0.018695
698.000000	0.019049
697.000000	0.019424
696.000000	0.020143
695.000000	0.020336
694.000000	0.020196
693.000000	0.020546
692.000000	0.020898
691.000000	0.021254
690.000000	0.021643
689.000000	0.021939
688.000000	0.022052
687.000000	0.022181
686.000000	0.022740
685.000000	0.023500
684.000000	0.023778
683.000000	0.023815
682.000000	0.024324
681.000000	0.024362
680.000000	0.024590
679.000000	0.024697
678.000000	0.025191
677.000000	0.025700
676.000000	0.026085
675.000000	0.026383
674.000000	0.026683
673.000000	0.027146
672.000000	0.027413
671.000000	0.028095
670.000000	0.028707
669.000000	0.029307
668.000000	0.029692
667.000000	0.029808
666.000000	0.030524
665.000000	0.030544
664.000000	0.031011
663.000000	0.031285
662.000000	0.031601
661.000000	0.032003
660.000000	0.032651
659.000000	0.033570
658.000000	0.034290
657.000000	0.033733
656.000000	0.035155
655.000000	0.035641
654.000000	0.036008
653.000000	0.036574
652.000000	0.037053
651.000000	0.037604
650.000000	0.038459
649.000000	0.039030
648.000000	0.039495
647.000000	0.039934
646.000000	0.040503
645.000000	0.041154
644.000000	0.042122
643.000000	0.042216
642.000000	0.042994
641.000000	0.043558
640.000000	0.044150
639.000000	0.044687
638.000000	0.045176
637.000000	0.045925
636.000000	0.046784
635.000000	0.047107
634.000000	0.047586
633.000000	0.047946
632.000000	0.048613
631.000000	0.049665
630.000000	0.050532
629.000000	0.050948
628.000000	0.051435
627.000000	0.051909
626.000000	0.052719
625.000000	0.053410
624.000000	0.053373
623.000000	0.054694
622.000000	0.055018
621.000000	0.055169
620.000000	0.055882
619.000000	0.056957
618.000000	0.056550
617.000000	0.057224
616.000000	0.058496
615.000000	0.058955
614.000000	0.059476
613.000000	0.059916
612.000000	0.060566
611.000000	0.061301
610.000000	0.061199
609.000000	0.061908
608.000000	0.062728
607.000000	0.063038
606.000000	0.063532
605.000000	0.063539
604.000000	0.064568
603.000000	0.064386
602.000000	0.065321
601.000000	0.065936
600.000000	0.066549
599.000000	0.066599
598.000000	0.067221
597.000000	0.067885
596.000000	0.068489
595.000000	0.068519
594.000000	0.069398
593.000000	0.069482
592.000000	0.070128
591.000000	0.070741
590.000000	0.070750
589.000000	0.071378
588.000000	0.072303
587.000000	0.072354
586.000000	0.073427
585.000000	0.073299
584.000000	0.074022
583.000000	0.074457
582.000000	0.075023
581.000000	0.075670
580.000000	0.076151
579.000000	0.076821
578.000000	0.077256
577.000000	0.078004
576.000000	0.078299
575.000000	0.078544
574.000000	0.079194
573.000000	0.079568
572.000000	0.080256
571.000000	0.080842
570.000000	0.081205
569.000000	0.081768
568.000000	0.081988
567.000000	0.082476
566.000000	0.083054
565.000000	0.083444
564.000000	0.083979
563.000000	0.084349
562.000000	0.085075
561.000000	0.085221
560.000000	0.085759
559.000000	0.086455
558.000000	0.086111
557.000000	0.087162
556.000000	0.087916
555.000000	0.088012
554.000000	0.088823
553.000000	0.089009
552.000000	0.089572
551.000000	0.089969
550.000000	0.090579
549.000000	0.091173
548.000000	0.091695
547.000000	0.092122
546.000000	0.092599
545.000000	0.093130
544.000000	0.093888
543.000000	0.094590
542.000000	0.095215
541.000000	0.095916
540.000000	0.096205
539.000000	0.096737
538.000000	0.097262
537.000000	0.097986
536.000000	0.098703
535.000000	0.099000
534.000000	0.099495
533.000000	0.100057
532.000000	0.100597
531.000000	0.100903
530.000000	0.101800
529.000000	0.101962
528.000000	0.102838
527.000000	0.103113
526.000000	0.103438
525.000000	0.103709
524.000000	0.104444
523.000000	0.104839
522.000000	0.105390
521.000000	0.105907
520.000000	0.106494
519.000000	0.106902
518.000000	0.107348
517.000000	0.107838
516.000000	0.109014
515.000000	0.109338
514.000000	0.109319
513.000000	0.110008
512.000000	0.111007
511.000000	0.111102
510.000000	0.112055
509.000000	0.112906
508.000000	0.113435
507.000000	0.114370
506.000000	0.115042
505.000000	0.115551
504.000000	0.116416
503.000000	0.117095
502.000000	0.118015
501.000000	0.118891
500.000000	0.120028
499.000000	0.120821
498.000000	0.121786
497.000000	0.122666
496.000000	0.123714
495.000000	0.124960
494.000000	0.125854
493.000000	0.126728
492.000000	0.127685
491.000000	0.128759
490.000000	0.129840
489.000000	0.131447
488.000000	0.132399
487.000000	0.133347
486.000000	0.134758
485.000000	0.136198
484.000000	0.137097
483.000000	0.137857
482.000000	0.138898
481.000000	0.140577
480.000000	0.141747
479.000000	0.142789
478.000000	0.143911
477.000000	0.145339
476.000000	0.146789
475.000000	0.148356
474.000000	0.149480
473.000000	0.150714
472.000000	0.152384
471.000000	0.154021
470.000000	0.155132
469.000000	0.156755
468.000000	0.158696
467.000000	0.160328
466.000000	0.161868
465.000000	0.163407
464.000000	0.165286
463.000000	0.167102
462.000000	0.168612
461.000000	0.170467
460.000000	0.173069
459.000000	0.175081
458.000000	0.176948
457.000000	0.179385
456.000000	0.181427
455.000000	0.182711
454.000000	0.184823
453.000000	0.187567
452.000000	0.190287
451.000000	0.192380
450.000000	0.194537
449.000000	0.197148
448.000000	0.199602
447.000000	0.202289
446.000000	0.204487
445.000000	0.206750
444.000000	0.209169
443.000000	0.211936
442.000000	0.214405
441.000000	0.217125
440.000000	0.219844
439.000000	0.222448
438.000000	0.225368
437.000000	0.228774
436.000000	0.232065
435.000000	0.234349
434.000000	0.237110
433.000000	0.240240
432.000000	0.243617
431.000000	0.246481
430.000000	0.249340
429.000000	0.252767
428.000000	0.255918
427.000000	0.259561
426.000000	0.263039
425.000000	0.266772
424.000000	0.269761
423.000000	0.272932
422.000000	0.276607
421.000000	0.279765
420.000000	0.282839
419.000000	0.286077
418.000000	0.289202
417.000000	0.292733
416.000000	0.295782
415.000000	0.298603
414.000000	0.301259
413.000000	0.302617
412.000000	0.304962
411.000000	0.306432
410.000000	0.307293
409.000000	0.307723
408.000000	0.308364
407.000000	0.308604
406.000000	0.308757
405.000000	0.309575
404.000000	0.309055
403.000000	0.308432
402.000000	0.308084
401.000000	0.307532
400.000000	0.307079
399.000000	0.306550
398.000000	0.306373
397.000000	0.305991
396.000000	0.305643
395.000000	0.305796
394.000000	0.305877
393.000000	0.305460
392.000000	0.305365
391.000000	0.305673
390.000000	0.305278
389.000000	0.306060
388.000000	0.305703
387.000000	0.305909
386.000000	0.306394
385.000000	0.306847
384.000000	0.307270
383.000000	0.307457
382.000000	0.307824
381.000000	0.309624
380.000000	0.310683
379.000000	0.311109
378.000000	0.314377
377.000000	0.314849
376.000000	0.315229
375.000000	0.316815
374.000000	0.316964
373.000000	0.319621
372.000000	0.321377
371.000000	0.321759
370.000000	0.323790
369.000000	0.324421
368.000000	0.326861
367.000000	0.327993
366.000000	0.328553
365.000000	0.331691
364.000000	0.334312
363.000000	0.333370
362.000000	0.334657
361.000000	0.337770
360.000000	0.338676
359.000000	0.342813
358.000000	0.343146
357.000000	0.344399
356.000000	0.347362
355.000000	0.348151
354.000000	0.350173
353.000000	0.350104
352.000000	0.352506
351.000000	0.356117
350.000000	0.357367
349.000000	0.355523
348.000000	0.357806
347.000000	0.358505
346.000000	0.361100
345.000000	0.364662
344.000000	0.366524
343.000000	0.367079
342.000000	0.369948
341.000000	0.369141
340.000000	0.369710
339.000000	0.374068
338.000000	0.373184
337.000000	0.374293
336.000000	0.374176
335.000000	0.377221
334.000000	0.377959
333.000000	0.381610
332.000000	0.381039
331.000000	0.379664
330.000000	0.379349
329.000000	0.381177
328.000000	0.386339
327.000000	0.385556
326.000000	0.387449
325.000000	0.385197
324.000000	0.386679
323.000000	0.385727
322.000000	0.389341
321.000000	0.392911
320.000000	0.390624
319.000000	0.393662
318.000000	0.395612
317.000000	0.395074
316.000000	0.397561
315.000000	0.397062
314.000000	0.396999
313.000000	0.401763
312.000000	0.402713
311.000000	0.403045
310.000000	0.402385
309.000000	0.404820
308.000000	0.408833
307.000000	0.411011
306.000000	0.411725
305.000000	0.412870
304.000000	0.413861
303.000000	0.415875
302.000000	0.418074
301.000000	0.420795
300.000000	0.423306
299.000000	0.427267
298.000000	0.431401
297.000000	0.435003
296.000000	0.442263
295.000000	0.449483
294.000000	0.457877
293.000000	0.466397
292.000000	0.477952
291.000000	0.490579
290.000000	0.504883
289.000000	0.518747
288.000000	0.529935
287.000000	0.536132
286.000000	0.541614
285.000000	0.546280
284.000000	0.545831
283.000000	0.548013
282.000000	0.547311
281.000000	0.545272
280.000000	0.545204
279.000000	0.546013
278.000000	0.542708
277.000000	0.540368
276.000000	0.535877
275.000000	0.531449
274.000000	0.525682
273.000000	0.522265
272.000000	0.516802
271.000000	0.515738
270.000000	0.514829
269.000000	0.512071
268.000000	0.507960
267.000000	0.502375
266.000000	0.499964
265.000000	0.496678
264.000000	0.493670
263.000000	0.487520
262.000000	0.482008
261.000000	0.478796
260.000000	0.476186
259.000000	0.473852
258.000000	0.470375
257.000000	0.463285
256.000000	0.459044
255.000000	0.458444
254.000000	0.459467
253.000000	0.459475
252.000000	0.462676
251.000000	0.467903
250.000000	0.473747
249.000000	0.482191
248.000000	0.495315
247.000000	0.513032
246.000000	0.530414
245.000000	0.549899
244.000000	0.573739
243.000000	0.598274
242.000000	0.624815
241.000000	0.652022
240.000000	0.674435
239.000000	0.697371
238.000000	0.720576
237.000000	0.740307
236.000000	0.756501
235.000000	0.774126
234.000000	0.788964
233.000000	0.802014
232.000000	0.815493
231.000000	0.828381
230.000000	0.840635
229.000000	0.852929
228.000000	0.865214
227.000000	0.874125
226.000000	0.881445
225.000000	0.886597
224.000000	0.894905
223.000000	0.902216
222.000000	0.902273
221.000000	0.900113
220.000000	0.902723
219.000000	0.905717
218.000000	0.902970
217.000000	0.900076
216.000000	0.898204
215.000000	0.894744
214.000000	0.896627
213.000000	0.892667
212.000000	0.883143
211.000000	0.876048
210.000000	0.869326
209.000000	0.860568
208.000000	0.850776
207.000000	0.846353
206.000000	0.837312
205.000000	0.824966
204.000000	0.813089
203.000000	0.800091
202.000000	0.787789
201.000000	0.778477
200.000000	0.760387
