PE UV       SUBTECH     SPECTRUM    ASCII       PEDS        4.00        
   -1
AgVeauAl 22.Sample.asc
18/03/06
15:39:56.00
18/03/06
15:39:56.00
Administrator

200.000000
1
Lambda 750
750N8071901
PerkinElmer UV WinLab 6.0.4.0738 / 1.61.00 Lambda 900

0
0
3350/servo 860.8/2
0
0
UV/VIS
1
1
1
CommonBeamDepol,150mm sphere / downward view
0
0
0
0
Program
Program
3350/servo 860.8/2
3350/0.2 860.8/0.2
3350/0.2 860.8/0.2
0
1
 
 
 
0
 
860.8
319.2
860.8
Front
100
on
 
 
0
0
0
 
0
 
 
 
0
 
 
0
0
0
0
0
 
 
 
 
0
0


0
0
#HDR
-1
-1
#GR
nm
A
1.0
0.0
2350.000000
-1.000000
2151
8
1.010502
-0.017505
#DATA
2350.000000	0.545881
2349.000000	0.545675
2348.000000	0.552057
2347.000000	0.533952
2346.000000	0.550108
2345.000000	0.544792
2344.000000	0.547722
2343.000000	0.551242
2342.000000	0.546412
2341.000000	0.537117
2340.000000	0.538935
2339.000000	0.533321
2338.000000	0.523841
2337.000000	0.525467
2336.000000	0.519714
2335.000000	0.526069
2334.000000	0.518128
2333.000000	0.525154
2332.000000	0.522688
2331.000000	0.517963
2330.000000	0.522260
2329.000000	0.521856
2328.000000	0.532031
2327.000000	0.531506
2326.000000	0.524137
2325.000000	0.525815
2324.000000	0.522407
2323.000000	0.530214
2322.000000	0.537042
2321.000000	0.536287
2320.000000	0.537145
2319.000000	0.532281
2318.000000	0.537542
2317.000000	0.538842
2316.000000	0.532761
2315.000000	0.540745
2314.000000	0.542817
2313.000000	0.545228
2312.000000	0.551758
2311.000000	0.545458
2310.000000	0.546855
2309.000000	0.553481
2308.000000	0.545967
2307.000000	0.544968
2306.000000	0.549325
2305.000000	0.549668
2304.000000	0.552103
2303.000000	0.549588
2302.000000	0.554742
2301.000000	0.561712
2300.000000	0.560693
2299.000000	0.564435
2298.000000	0.572936
2297.000000	0.572851
2296.000000	0.568185
2295.000000	0.574439
2294.000000	0.570204
2293.000000	0.573350
2292.000000	0.581222
2291.000000	0.576390
2290.000000	0.578358
2289.000000	0.580699
2288.000000	0.580057
2287.000000	0.579345
2286.000000	0.582716
2285.000000	0.585553
2284.000000	0.583655
2283.000000	0.589449
2282.000000	0.595201
2281.000000	0.586268
2280.000000	0.586514
2279.000000	0.593140
2278.000000	0.589335
2277.000000	0.588006
2276.000000	0.583377
2275.000000	0.584401
2274.000000	0.586469
2273.000000	0.583032
2272.000000	0.579042
2271.000000	0.582330
2270.000000	0.581143
2269.000000	0.576792
2268.000000	0.572591
2267.000000	0.571368
2266.000000	0.573439
2265.000000	0.573264
2264.000000	0.569293
2263.000000	0.563482
2262.000000	0.561794
2261.000000	0.559809
2260.000000	0.556862
2259.000000	0.551511
2258.000000	0.546974
2257.000000	0.545346
2256.000000	0.541030
2255.000000	0.533515
2254.000000	0.529374
2253.000000	0.525411
2252.000000	0.521470
2251.000000	0.519049
2250.000000	0.514410
2249.000000	0.508632
2248.000000	0.504438
2247.000000	0.499719
2246.000000	0.497651
2245.000000	0.494677
2244.000000	0.487925
2243.000000	0.480427
2242.000000	0.477801
2241.000000	0.476218
2240.000000	0.472315
2239.000000	0.470660
2238.000000	0.472573
2237.000000	0.469191
2236.000000	0.464133
2235.000000	0.461562
2234.000000	0.457973
2233.000000	0.456565
2232.000000	0.455907
2231.000000	0.456801
2230.000000	0.456210
2229.000000	0.452378
2228.000000	0.451056
2227.000000	0.451102
2226.000000	0.450182
2225.000000	0.450177
2224.000000	0.452305
2223.000000	0.453999
2222.000000	0.451139
2221.000000	0.453118
2220.000000	0.454716
2219.000000	0.454737
2218.000000	0.456178
2217.000000	0.459135
2216.000000	0.458992
2215.000000	0.457904
2214.000000	0.457207
2213.000000	0.460090
2212.000000	0.463155
2211.000000	0.465180
2210.000000	0.465325
2209.000000	0.465472
2208.000000	0.469765
2207.000000	0.469852
2206.000000	0.468109
2205.000000	0.467117
2204.000000	0.472901
2203.000000	0.477824
2202.000000	0.476895
2201.000000	0.477075
2200.000000	0.479782
2199.000000	0.481396
2198.000000	0.482092
2197.000000	0.483254
2196.000000	0.487225
2195.000000	0.489275
2194.000000	0.492342
2193.000000	0.491812
2192.000000	0.491634
2191.000000	0.495377
2190.000000	0.495221
2189.000000	0.498044
2188.000000	0.503004
2187.000000	0.501154
2186.000000	0.503873
2185.000000	0.503663
2184.000000	0.506919
2183.000000	0.506901
2182.000000	0.507371
2181.000000	0.512825
2180.000000	0.510210
2179.000000	0.511670
2178.000000	0.509552
2177.000000	0.507708
2176.000000	0.506605
2175.000000	0.507831
2174.000000	0.510213
2173.000000	0.510679
2172.000000	0.511107
2171.000000	0.510217
2170.000000	0.506840
2169.000000	0.505131
2168.000000	0.502267
2167.000000	0.506017
2166.000000	0.501794
2165.000000	0.498561
2164.000000	0.498038
2163.000000	0.498125
2162.000000	0.491820
2161.000000	0.489012
2160.000000	0.486339
2159.000000	0.484835
2158.000000	0.481984
2157.000000	0.482432
2156.000000	0.478474
2155.000000	0.474182
2154.000000	0.471110
2153.000000	0.469309
2152.000000	0.464579
2151.000000	0.463171
2150.000000	0.461937
2149.000000	0.455380
2148.000000	0.452413
2147.000000	0.450212
2146.000000	0.451254
2145.000000	0.448862
2144.000000	0.443689
2143.000000	0.441013
2142.000000	0.436321
2141.000000	0.432300
2140.000000	0.434138
2139.000000	0.430337
2138.000000	0.426375
2137.000000	0.422914
2136.000000	0.423505
2135.000000	0.418972
2134.000000	0.419183
2133.000000	0.419110
2132.000000	0.414533
2131.000000	0.414660
2130.000000	0.411435
2129.000000	0.410161
2128.000000	0.409827
2127.000000	0.409978
2126.000000	0.406589
2125.000000	0.405189
2124.000000	0.406584
2123.000000	0.401752
2122.000000	0.400319
2121.000000	0.399631
2120.000000	0.401413
2119.000000	0.400906
2118.000000	0.396372
2117.000000	0.396751
2116.000000	0.396207
2115.000000	0.393488
2114.000000	0.395062
2113.000000	0.394289
2112.000000	0.394301
2111.000000	0.391433
2110.000000	0.391487
2109.000000	0.392029
2108.000000	0.392751
2107.000000	0.391831
2106.000000	0.391787
2105.000000	0.391302
2104.000000	0.390501
2103.000000	0.389902
2102.000000	0.390133
2101.000000	0.387834
2100.000000	0.387322
2099.000000	0.387979
2098.000000	0.389233
2097.000000	0.388009
2096.000000	0.389972
2095.000000	0.388554
2094.000000	0.386453
2093.000000	0.387440
2092.000000	0.386754
2091.000000	0.387232
2090.000000	0.387849
2089.000000	0.386983
2088.000000	0.387469
2087.000000	0.390192
2086.000000	0.389662
2085.000000	0.390718
2084.000000	0.390855
2083.000000	0.391874
2082.000000	0.393739
2081.000000	0.393597
2080.000000	0.396266
2079.000000	0.397391
2078.000000	0.398651
2077.000000	0.398995
2076.000000	0.400893
2075.000000	0.403260
2074.000000	0.404287
2073.000000	0.406939
2072.000000	0.409648
2071.000000	0.411168
2070.000000	0.413443
2069.000000	0.417283
2068.000000	0.418713
2067.000000	0.421810
2066.000000	0.424925
2065.000000	0.427751
2064.000000	0.431741
2063.000000	0.435280
2062.000000	0.438011
2061.000000	0.440086
2060.000000	0.443854
2059.000000	0.445739
2058.000000	0.449715
2057.000000	0.454136
2056.000000	0.456450
2055.000000	0.459075
2054.000000	0.463583
2053.000000	0.466832
2052.000000	0.468358
2051.000000	0.470255
2050.000000	0.473035
2049.000000	0.476099
2048.000000	0.478420
2047.000000	0.480330
2046.000000	0.482791
2045.000000	0.484235
2044.000000	0.484885
2043.000000	0.485233
2042.000000	0.483982
2041.000000	0.482376
2040.000000	0.482499
2039.000000	0.482550
2038.000000	0.480964
2037.000000	0.479691
2036.000000	0.478725
2035.000000	0.476126
2034.000000	0.474510
2033.000000	0.472176
2032.000000	0.468766
2031.000000	0.465746
2030.000000	0.463792
2029.000000	0.461336
2028.000000	0.457914
2027.000000	0.454792
2026.000000	0.451517
2025.000000	0.448903
2024.000000	0.446898
2023.000000	0.445693
2022.000000	0.444500
2021.000000	0.443326
2020.000000	0.441862
2019.000000	0.439850
2018.000000	0.438200
2017.000000	0.437485
2016.000000	0.437459
2015.000000	0.437199
2014.000000	0.436762
2013.000000	0.436184
2012.000000	0.436925
2011.000000	0.438792
2010.000000	0.438740
2009.000000	0.439279
2008.000000	0.440744
2007.000000	0.441648
2006.000000	0.443891
2005.000000	0.445344
2004.000000	0.447350
2003.000000	0.448041
2002.000000	0.448850
2001.000000	0.451527
2000.000000	0.453924
1999.000000	0.454695
1998.000000	0.456152
1997.000000	0.458691
1996.000000	0.460561
1995.000000	0.463278
1994.000000	0.466027
1993.000000	0.468641
1992.000000	0.470174
1991.000000	0.472282
1990.000000	0.474076
1989.000000	0.476555
1988.000000	0.478941
1987.000000	0.480658
1986.000000	0.483541
1985.000000	0.485997
1984.000000	0.488234
1983.000000	0.491298
1982.000000	0.492181
1981.000000	0.493333
1980.000000	0.496146
1979.000000	0.498866
1978.000000	0.502085
1977.000000	0.504156
1976.000000	0.506933
1975.000000	0.509763
1974.000000	0.511267
1973.000000	0.512404
1972.000000	0.516023
1971.000000	0.517973
1970.000000	0.520270
1969.000000	0.522520
1968.000000	0.525338
1967.000000	0.526902
1966.000000	0.528993
1965.000000	0.531206
1964.000000	0.534340
1963.000000	0.534123
1962.000000	0.536598
1961.000000	0.540032
1960.000000	0.541241
1959.000000	0.542063
1958.000000	0.546491
1957.000000	0.548652
1956.000000	0.550345
1955.000000	0.551011
1954.000000	0.552395
1953.000000	0.553163
1952.000000	0.557498
1951.000000	0.556381
1950.000000	0.558931
1949.000000	0.560075
1948.000000	0.562237
1947.000000	0.562528
1946.000000	0.565782
1945.000000	0.563567
1944.000000	0.562455
1943.000000	0.563611
1942.000000	0.561531
1941.000000	0.563798
1940.000000	0.563370
1939.000000	0.563122
1938.000000	0.557910
1937.000000	0.557575
1936.000000	0.554428
1935.000000	0.551286
1934.000000	0.549816
1933.000000	0.549908
1932.000000	0.544094
1931.000000	0.539221
1930.000000	0.537056
1929.000000	0.533045
1928.000000	0.530670
1927.000000	0.526031
1926.000000	0.521531
1925.000000	0.513451
1924.000000	0.508538
1923.000000	0.502762
1922.000000	0.497929
1921.000000	0.489013
1920.000000	0.485724
1919.000000	0.479149
1918.000000	0.473400
1917.000000	0.466861
1916.000000	0.459538
1915.000000	0.451101
1914.000000	0.443501
1913.000000	0.435035
1912.000000	0.427759
1911.000000	0.420176
1910.000000	0.412305
1909.000000	0.403807
1908.000000	0.394956
1907.000000	0.385296
1906.000000	0.376352
1905.000000	0.367124
1904.000000	0.357528
1903.000000	0.349834
1902.000000	0.340760
1901.000000	0.331913
1900.000000	0.322147
1899.000000	0.313203
1898.000000	0.303634
1897.000000	0.294951
1896.000000	0.287325
1895.000000	0.278648
1894.000000	0.270505
1893.000000	0.263445
1892.000000	0.255229
1891.000000	0.248246
1890.000000	0.240932
1889.000000	0.233672
1888.000000	0.227561
1887.000000	0.221559
1886.000000	0.215308
1885.000000	0.209874
1884.000000	0.204632
1883.000000	0.199320
1882.000000	0.193974
1881.000000	0.188950
1880.000000	0.184190
1879.000000	0.179837
1878.000000	0.176163
1877.000000	0.171576
1876.000000	0.167870
1875.000000	0.164218
1874.000000	0.160554
1873.000000	0.158024
1872.000000	0.154461
1871.000000	0.151961
1870.000000	0.149578
1869.000000	0.146916
1868.000000	0.144465
1867.000000	0.143213
1866.000000	0.141983
1865.000000	0.140490
1864.000000	0.139061
1863.000000	0.138200
1862.000000	0.136497
1861.000000	0.135460
1860.000000	0.134614
1859.000000	0.133851
1858.000000	0.133220
1857.000000	0.132614
1856.000000	0.132309
1855.000000	0.131789
1854.000000	0.131240
1853.000000	0.130729
1852.000000	0.131022
1851.000000	0.130765
1850.000000	0.130400
1849.000000	0.130656
1848.000000	0.129782
1847.000000	0.130019
1846.000000	0.130464
1845.000000	0.130987
1844.000000	0.131161
1843.000000	0.131433
1842.000000	0.131413
1841.000000	0.131891
1840.000000	0.132266
1839.000000	0.132077
1838.000000	0.132443
1837.000000	0.133049
1836.000000	0.133752
1835.000000	0.134358
1834.000000	0.134914
1833.000000	0.135345
1832.000000	0.135791
1831.000000	0.136269
1830.000000	0.136709
1829.000000	0.137734
1828.000000	0.138018
1827.000000	0.138059
1826.000000	0.138849
1825.000000	0.139412
1824.000000	0.139742
1823.000000	0.140331
1822.000000	0.140883
1821.000000	0.141404
1820.000000	0.141993
1819.000000	0.142801
1818.000000	0.143093
1817.000000	0.143274
1816.000000	0.143951
1815.000000	0.144484
1814.000000	0.144912
1813.000000	0.145405
1812.000000	0.145899
1811.000000	0.146366
1810.000000	0.146785
1809.000000	0.147313
1808.000000	0.148009
1807.000000	0.148689
1806.000000	0.149195
1805.000000	0.149411
1804.000000	0.150062
1803.000000	0.150788
1802.000000	0.151160
1801.000000	0.151599
1800.000000	0.152148
1799.000000	0.152737
1798.000000	0.153125
1797.000000	0.153623
1796.000000	0.154173
1795.000000	0.154569
1794.000000	0.154796
1793.000000	0.155315
1792.000000	0.155905
1791.000000	0.156472
1790.000000	0.156754
1789.000000	0.157142
1788.000000	0.157450
1787.000000	0.157997
1786.000000	0.158384
1785.000000	0.158771
1784.000000	0.159414
1783.000000	0.159841
1782.000000	0.160179
1781.000000	0.160859
1780.000000	0.161599
1779.000000	0.162086
1778.000000	0.163014
1777.000000	0.163916
1776.000000	0.164243
1775.000000	0.164841
1774.000000	0.165756
1773.000000	0.166588
1772.000000	0.167375
1771.000000	0.168196
1770.000000	0.169217
1769.000000	0.169831
1768.000000	0.170582
1767.000000	0.171361
1766.000000	0.172069
1765.000000	0.173080
1764.000000	0.173820
1763.000000	0.174513
1762.000000	0.175367
1761.000000	0.176045
1760.000000	0.176969
1759.000000	0.178069
1758.000000	0.178429
1757.000000	0.179106
1756.000000	0.179886
1755.000000	0.180369
1754.000000	0.181657
1753.000000	0.182372
1752.000000	0.183075
1751.000000	0.184016
1750.000000	0.184569
1749.000000	0.185407
1748.000000	0.186823
1747.000000	0.187472
1746.000000	0.188322
1745.000000	0.189478
1744.000000	0.190525
1743.000000	0.191180
1742.000000	0.192339
1741.000000	0.193165
1740.000000	0.193770
1739.000000	0.194843
1738.000000	0.195356
1737.000000	0.196080
1736.000000	0.196501
1735.000000	0.197010
1734.000000	0.197316
1733.000000	0.197601
1732.000000	0.197878
1731.000000	0.197574
1730.000000	0.197328
1729.000000	0.197322
1728.000000	0.196772
1727.000000	0.195799
1726.000000	0.194728
1725.000000	0.193710
1724.000000	0.192861
1723.000000	0.191821
1722.000000	0.190331
1721.000000	0.188851
1720.000000	0.187542
1719.000000	0.185643
1718.000000	0.184637
1717.000000	0.182701
1716.000000	0.181544
1715.000000	0.180195
1714.000000	0.178856
1713.000000	0.177585
1712.000000	0.176057
1711.000000	0.175180
1710.000000	0.173936
1709.000000	0.173423
1708.000000	0.172446
1707.000000	0.171637
1706.000000	0.170769
1705.000000	0.170668
1704.000000	0.169817
1703.000000	0.169489
1702.000000	0.169264
1701.000000	0.168587
1700.000000	0.168695
1699.000000	0.168505
1698.000000	0.168192
1697.000000	0.167448
1696.000000	0.166687
1695.000000	0.166764
1694.000000	0.166269
1693.000000	0.165151
1692.000000	0.164636
1691.000000	0.163598
1690.000000	0.162423
1689.000000	0.161229
1688.000000	0.159794
1687.000000	0.158324
1686.000000	0.156682
1685.000000	0.154832
1684.000000	0.152704
1683.000000	0.150537
1682.000000	0.148269
1681.000000	0.146205
1680.000000	0.143524
1679.000000	0.141156
1678.000000	0.138842
1677.000000	0.136361
1676.000000	0.134051
1675.000000	0.131661
1674.000000	0.129203
1673.000000	0.127005
1672.000000	0.124636
1671.000000	0.122337
1670.000000	0.120563
1669.000000	0.118153
1668.000000	0.116392
1667.000000	0.114349
1666.000000	0.113140
1665.000000	0.111739
1664.000000	0.110453
1663.000000	0.109087
1662.000000	0.108047
1661.000000	0.107053
1660.000000	0.106047
1659.000000	0.105193
1658.000000	0.104524
1657.000000	0.103809
1656.000000	0.103371
1655.000000	0.103189
1654.000000	0.102623
1653.000000	0.102427
1652.000000	0.102108
1651.000000	0.102037
1650.000000	0.101941
1649.000000	0.101728
1648.000000	0.101923
1647.000000	0.101797
1646.000000	0.102088
1645.000000	0.102209
1644.000000	0.102196
1643.000000	0.102710
1642.000000	0.102910
1641.000000	0.103084
1640.000000	0.103458
1639.000000	0.103599
1638.000000	0.103914
1637.000000	0.104380
1636.000000	0.105013
1635.000000	0.105480
1634.000000	0.105966
1633.000000	0.106311
1632.000000	0.106846
1631.000000	0.107355
1630.000000	0.107868
1629.000000	0.108293
1628.000000	0.109119
1627.000000	0.109556
1626.000000	0.110212
1625.000000	0.110786
1624.000000	0.111346
1623.000000	0.111871
1622.000000	0.112647
1621.000000	0.113453
1620.000000	0.114030
1619.000000	0.114717
1618.000000	0.115613
1617.000000	0.116360
1616.000000	0.116986
1615.000000	0.117724
1614.000000	0.118421
1613.000000	0.119194
1612.000000	0.119890
1611.000000	0.120609
1610.000000	0.121545
1609.000000	0.122577
1608.000000	0.123487
1607.000000	0.124281
1606.000000	0.125096
1605.000000	0.125918
1604.000000	0.126966
1603.000000	0.127911
1602.000000	0.128845
1601.000000	0.129725
1600.000000	0.130534
1599.000000	0.131401
1598.000000	0.132284
1597.000000	0.133181
1596.000000	0.133986
1595.000000	0.134916
1594.000000	0.135643
1593.000000	0.136239
1592.000000	0.137139
1591.000000	0.138028
1590.000000	0.138817
1589.000000	0.139642
1588.000000	0.140327
1587.000000	0.141103
1586.000000	0.141916
1585.000000	0.142482
1584.000000	0.143164
1583.000000	0.143893
1582.000000	0.144447
1581.000000	0.145172
1580.000000	0.145917
1579.000000	0.146424
1578.000000	0.146984
1577.000000	0.147884
1576.000000	0.148635
1575.000000	0.149299
1574.000000	0.150094
1573.000000	0.150679
1572.000000	0.151142
1571.000000	0.151867
1570.000000	0.152561
1569.000000	0.153110
1568.000000	0.153648
1567.000000	0.154321
1566.000000	0.154815
1565.000000	0.155255
1564.000000	0.155800
1563.000000	0.156222
1562.000000	0.156480
1561.000000	0.156824
1560.000000	0.157166
1559.000000	0.157650
1558.000000	0.157815
1557.000000	0.157994
1556.000000	0.158509
1555.000000	0.158919
1554.000000	0.159275
1553.000000	0.159405
1552.000000	0.159735
1551.000000	0.160066
1550.000000	0.160585
1549.000000	0.161292
1548.000000	0.161838
1547.000000	0.162659
1546.000000	0.163286
1545.000000	0.164144
1544.000000	0.165030
1543.000000	0.165888
1542.000000	0.166961
1541.000000	0.168219
1540.000000	0.169396
1539.000000	0.170561
1538.000000	0.171683
1537.000000	0.172830
1536.000000	0.174450
1535.000000	0.175708
1534.000000	0.176856
1533.000000	0.178048
1532.000000	0.179362
1531.000000	0.180815
1530.000000	0.182103
1529.000000	0.183467
1528.000000	0.184588
1527.000000	0.185766
1526.000000	0.186824
1525.000000	0.187802
1524.000000	0.188853
1523.000000	0.189698
1522.000000	0.190514
1521.000000	0.191375
1520.000000	0.192172
1519.000000	0.192886
1518.000000	0.193414
1517.000000	0.194320
1516.000000	0.194995
1515.000000	0.195279
1514.000000	0.195957
1513.000000	0.196407
1512.000000	0.196931
1511.000000	0.197535
1510.000000	0.197928
1509.000000	0.198252
1508.000000	0.198348
1507.000000	0.198918
1506.000000	0.199194
1505.000000	0.199007
1504.000000	0.199464
1503.000000	0.199619
1502.000000	0.200125
1501.000000	0.200059
1500.000000	0.200078
1499.000000	0.200207
1498.000000	0.200044
1497.000000	0.200077
1496.000000	0.199839
1495.000000	0.199485
1494.000000	0.199426
1493.000000	0.199075
1492.000000	0.198707
1491.000000	0.198137
1490.000000	0.197706
1489.000000	0.197446
1488.000000	0.196498
1487.000000	0.195738
1486.000000	0.195084
1485.000000	0.194530
1484.000000	0.193969
1483.000000	0.193021
1482.000000	0.192417
1481.000000	0.191532
1480.000000	0.190744
1479.000000	0.189905
1478.000000	0.189176
1477.000000	0.188215
1476.000000	0.187354
1475.000000	0.186728
1474.000000	0.185643
1473.000000	0.185127
1472.000000	0.184421
1471.000000	0.183565
1470.000000	0.182826
1469.000000	0.182173
1468.000000	0.181454
1467.000000	0.180580
1466.000000	0.179994
1465.000000	0.179286
1464.000000	0.178422
1463.000000	0.177917
1462.000000	0.177315
1461.000000	0.176557
1460.000000	0.175756
1459.000000	0.174974
1458.000000	0.174232
1457.000000	0.173396
1456.000000	0.172512
1455.000000	0.171831
1454.000000	0.170844
1453.000000	0.169924
1452.000000	0.169102
1451.000000	0.168133
1450.000000	0.167125
1449.000000	0.166232
1448.000000	0.165171
1447.000000	0.164187
1446.000000	0.163179
1445.000000	0.161908
1444.000000	0.160672
1443.000000	0.159715
1442.000000	0.158542
1441.000000	0.157178
1440.000000	0.155996
1439.000000	0.154655
1438.000000	0.153341
1437.000000	0.151946
1436.000000	0.150387
1435.000000	0.148934
1434.000000	0.147538
1433.000000	0.145851
1432.000000	0.144223
1431.000000	0.142584
1430.000000	0.140857
1429.000000	0.139056
1428.000000	0.137321
1427.000000	0.135456
1426.000000	0.133485
1425.000000	0.131475
1424.000000	0.129480
1423.000000	0.127510
1422.000000	0.125358
1421.000000	0.122974
1420.000000	0.120721
1419.000000	0.118684
1418.000000	0.116223
1417.000000	0.113697
1416.000000	0.111292
1415.000000	0.108771
1414.000000	0.106351
1413.000000	0.103927
1412.000000	0.101526
1411.000000	0.099035
1410.000000	0.096591
1409.000000	0.094097
1408.000000	0.091614
1407.000000	0.089225
1406.000000	0.086821
1405.000000	0.084404
1404.000000	0.082161
1403.000000	0.079821
1402.000000	0.077538
1401.000000	0.075341
1400.000000	0.073268
1399.000000	0.071157
1398.000000	0.069096
1397.000000	0.067166
1396.000000	0.065223
1395.000000	0.063308
1394.000000	0.061394
1393.000000	0.059500
1392.000000	0.057875
1391.000000	0.056148
1390.000000	0.054470
1389.000000	0.052999
1388.000000	0.051420
1387.000000	0.050045
1386.000000	0.048706
1385.000000	0.047295
1384.000000	0.046116
1383.000000	0.044988
1382.000000	0.043878
1381.000000	0.042807
1380.000000	0.041915
1379.000000	0.041047
1378.000000	0.040125
1377.000000	0.039314
1376.000000	0.038590
1375.000000	0.037903
1374.000000	0.037234
1373.000000	0.036557
1372.000000	0.035960
1371.000000	0.035390
1370.000000	0.034655
1369.000000	0.034018
1368.000000	0.033461
1367.000000	0.032937
1366.000000	0.032286
1365.000000	0.031650
1364.000000	0.031095
1363.000000	0.030436
1362.000000	0.029699
1361.000000	0.029079
1360.000000	0.028480
1359.000000	0.027942
1358.000000	0.027297
1357.000000	0.026595
1356.000000	0.025984
1355.000000	0.025400
1354.000000	0.024732
1353.000000	0.024004
1352.000000	0.023359
1351.000000	0.022797
1350.000000	0.022127
1349.000000	0.021515
1348.000000	0.020894
1347.000000	0.020210
1346.000000	0.019609
1345.000000	0.019107
1344.000000	0.018524
1343.000000	0.017901
1342.000000	0.017306
1341.000000	0.016918
1340.000000	0.016400
1339.000000	0.015913
1338.000000	0.015373
1337.000000	0.014856
1336.000000	0.014380
1335.000000	0.013937
1334.000000	0.013573
1333.000000	0.013112
1332.000000	0.012678
1331.000000	0.012331
1330.000000	0.011905
1329.000000	0.011573
1328.000000	0.011293
1327.000000	0.011032
1326.000000	0.010716
1325.000000	0.010427
1324.000000	0.010309
1323.000000	0.009990
1322.000000	0.009725
1321.000000	0.009553
1320.000000	0.009391
1319.000000	0.009019
1318.000000	0.009045
1317.000000	0.008657
1316.000000	0.008515
1315.000000	0.008607
1314.000000	0.008397
1313.000000	0.008176
1312.000000	0.007889
1311.000000	0.007719
1310.000000	0.007874
1309.000000	0.007536
1308.000000	0.007429
1307.000000	0.007381
1306.000000	0.007211
1305.000000	0.007022
1304.000000	0.006949
1303.000000	0.006797
1302.000000	0.006823
1301.000000	0.006739
1300.000000	0.006751
1299.000000	0.006727
1298.000000	0.006622
1297.000000	0.006591
1296.000000	0.006604
1295.000000	0.006652
1294.000000	0.006596
1293.000000	0.006628
1292.000000	0.006660
1291.000000	0.006650
1290.000000	0.006812
1289.000000	0.006895
1288.000000	0.006925
1287.000000	0.007015
1286.000000	0.007086
1285.000000	0.007210
1284.000000	0.007227
1283.000000	0.007141
1282.000000	0.007103
1281.000000	0.007201
1280.000000	0.007332
1279.000000	0.007287
1278.000000	0.007242
1277.000000	0.007286
1276.000000	0.007184
1275.000000	0.007219
1274.000000	0.007286
1273.000000	0.007160
1272.000000	0.007093
1271.000000	0.007247
1270.000000	0.007141
1269.000000	0.006979
1268.000000	0.006905
1267.000000	0.006881
1266.000000	0.006780
1265.000000	0.006798
1264.000000	0.006688
1263.000000	0.006610
1262.000000	0.006512
1261.000000	0.006325
1260.000000	0.006255
1259.000000	0.006263
1258.000000	0.006303
1257.000000	0.006034
1256.000000	0.006033
1255.000000	0.005953
1254.000000	0.006014
1253.000000	0.005941
1252.000000	0.005919
1251.000000	0.005974
1250.000000	0.006058
1249.000000	0.006139
1248.000000	0.006067
1247.000000	0.006195
1246.000000	0.006325
1245.000000	0.006317
1244.000000	0.006574
1243.000000	0.006629
1242.000000	0.006939
1241.000000	0.007178
1240.000000	0.007261
1239.000000	0.007418
1238.000000	0.007702
1237.000000	0.007901
1236.000000	0.008093
1235.000000	0.008337
1234.000000	0.008554
1233.000000	0.008777
1232.000000	0.009032
1231.000000	0.009208
1230.000000	0.009526
1229.000000	0.009704
1228.000000	0.009934
1227.000000	0.010219
1226.000000	0.010443
1225.000000	0.010614
1224.000000	0.010738
1223.000000	0.010982
1222.000000	0.011214
1221.000000	0.011478
1220.000000	0.011735
1219.000000	0.012001
1218.000000	0.012242
1217.000000	0.012517
1216.000000	0.012779
1215.000000	0.012964
1214.000000	0.013302
1213.000000	0.013696
1212.000000	0.013923
1211.000000	0.014336
1210.000000	0.014761
1209.000000	0.014888
1208.000000	0.015342
1207.000000	0.015709
1206.000000	0.016186
1205.000000	0.016430
1204.000000	0.016867
1203.000000	0.017181
1202.000000	0.017540
1201.000000	0.017989
1200.000000	0.018324
1199.000000	0.018600
1198.000000	0.019013
1197.000000	0.019334
1196.000000	0.019629
1195.000000	0.019994
1194.000000	0.020277
1193.000000	0.020470
1192.000000	0.020653
1191.000000	0.020842
1190.000000	0.020968
1189.000000	0.021150
1188.000000	0.021272
1187.000000	0.021316
1186.000000	0.021318
1185.000000	0.021300
1184.000000	0.021239
1183.000000	0.021182
1182.000000	0.021022
1181.000000	0.020848
1180.000000	0.020557
1179.000000	0.020284
1178.000000	0.019903
1177.000000	0.019533
1176.000000	0.019098
1175.000000	0.018570
1174.000000	0.018103
1173.000000	0.017526
1172.000000	0.016935
1171.000000	0.016393
1170.000000	0.015697
1169.000000	0.015083
1168.000000	0.014378
1167.000000	0.013487
1166.000000	0.012745
1165.000000	0.012047
1164.000000	0.011346
1163.000000	0.010646
1162.000000	0.009817
1161.000000	0.009076
1160.000000	0.008304
1159.000000	0.007512
1158.000000	0.006801
1157.000000	0.006130
1156.000000	0.005527
1155.000000	0.004787
1154.000000	0.004166
1153.000000	0.003598
1152.000000	0.002926
1151.000000	0.002377
1150.000000	0.001794
1149.000000	0.001221
1148.000000	0.000703
1147.000000	0.000282
1146.000000	-0.000168
1145.000000	-0.000704
1144.000000	-0.001190
1143.000000	-0.001679
1142.000000	-0.002007
1141.000000	-0.002399
1140.000000	-0.002893
1139.000000	-0.003301
1138.000000	-0.003724
1137.000000	-0.004199
1136.000000	-0.004569
1135.000000	-0.004850
1134.000000	-0.005214
1133.000000	-0.005582
1132.000000	-0.005932
1131.000000	-0.006292
1130.000000	-0.006573
1129.000000	-0.006928
1128.000000	-0.007136
1127.000000	-0.007246
1126.000000	-0.007551
1125.000000	-0.007837
1124.000000	-0.007926
1123.000000	-0.008079
1122.000000	-0.008307
1121.000000	-0.008423
1120.000000	-0.008589
1119.000000	-0.008641
1118.000000	-0.008790
1117.000000	-0.008837
1116.000000	-0.008952
1115.000000	-0.009054
1114.000000	-0.009134
1113.000000	-0.009097
1112.000000	-0.009105
1111.000000	-0.009139
1110.000000	-0.009215
1109.000000	-0.009264
1108.000000	-0.009349
1107.000000	-0.009332
1106.000000	-0.009284
1105.000000	-0.009281
1104.000000	-0.009406
1103.000000	-0.009320
1102.000000	-0.009353
1101.000000	-0.009365
1100.000000	-0.009407
1099.000000	-0.009565
1098.000000	-0.009480
1097.000000	-0.009439
1096.000000	-0.009593
1095.000000	-0.009504
1094.000000	-0.009487
1093.000000	-0.009491
1092.000000	-0.009441
1091.000000	-0.009399
1090.000000	-0.009501
1089.000000	-0.009516
1088.000000	-0.009491
1087.000000	-0.009456
1086.000000	-0.009341
1085.000000	-0.009408
1084.000000	-0.009452
1083.000000	-0.009512
1082.000000	-0.009347
1081.000000	-0.009307
1080.000000	-0.009385
1079.000000	-0.009245
1078.000000	-0.009230
1077.000000	-0.009217
1076.000000	-0.009215
1075.000000	-0.009194
1074.000000	-0.009006
1073.000000	-0.008919
1072.000000	-0.008832
1071.000000	-0.008842
1070.000000	-0.008819
1069.000000	-0.008845
1068.000000	-0.008720
1067.000000	-0.008686
1066.000000	-0.008576
1065.000000	-0.008532
1064.000000	-0.008536
1063.000000	-0.008414
1062.000000	-0.008384
1061.000000	-0.008359
1060.000000	-0.008213
1059.000000	-0.008226
1058.000000	-0.008167
1057.000000	-0.007959
1056.000000	-0.007891
1055.000000	-0.007858
1054.000000	-0.007889
1053.000000	-0.007750
1052.000000	-0.007647
1051.000000	-0.007568
1050.000000	-0.007551
1049.000000	-0.007365
1048.000000	-0.007398
1047.000000	-0.007316
1046.000000	-0.007187
1045.000000	-0.007292
1044.000000	-0.007287
1043.000000	-0.007019
1042.000000	-0.007154
1041.000000	-0.007194
1040.000000	-0.006980
1039.000000	-0.006890
1038.000000	-0.006940
1037.000000	-0.006986
1036.000000	-0.006950
1035.000000	-0.006847
1034.000000	-0.006890
1033.000000	-0.006759
1032.000000	-0.006720
1031.000000	-0.006766
1030.000000	-0.006764
1029.000000	-0.006702
1028.000000	-0.006759
1027.000000	-0.006701
1026.000000	-0.006649
1025.000000	-0.006543
1024.000000	-0.006575
1023.000000	-0.006688
1022.000000	-0.006740
1021.000000	-0.006684
1020.000000	-0.006633
1019.000000	-0.006711
1018.000000	-0.006697
1017.000000	-0.006756
1016.000000	-0.006766
1015.000000	-0.006857
1014.000000	-0.006880
1013.000000	-0.006882
1012.000000	-0.006827
1011.000000	-0.006964
1010.000000	-0.007048
1009.000000	-0.007110
1008.000000	-0.007136
1007.000000	-0.007202
1006.000000	-0.007267
1005.000000	-0.007309
1004.000000	-0.007469
1003.000000	-0.007518
1002.000000	-0.007483
1001.000000	-0.007584
1000.000000	-0.007538
999.000000	-0.007614
998.000000	-0.007685
997.000000	-0.007716
996.000000	-0.007851
995.000000	-0.007876
994.000000	-0.007985
993.000000	-0.008178
992.000000	-0.008175
991.000000	-0.008277
990.000000	-0.008211
989.000000	-0.008318
988.000000	-0.008216
987.000000	-0.008300
986.000000	-0.008291
985.000000	-0.008462
984.000000	-0.008566
983.000000	-0.008592
982.000000	-0.008706
981.000000	-0.008783
980.000000	-0.008876
979.000000	-0.008926
978.000000	-0.009013
977.000000	-0.009159
976.000000	-0.009217
975.000000	-0.009248
974.000000	-0.009325
973.000000	-0.009342
972.000000	-0.009472
971.000000	-0.009498
970.000000	-0.009522
969.000000	-0.009626
968.000000	-0.009660
967.000000	-0.009767
966.000000	-0.009914
965.000000	-0.010099
964.000000	-0.010155
963.000000	-0.010222
962.000000	-0.010314
961.000000	-0.010379
960.000000	-0.010424
959.000000	-0.010472
958.000000	-0.010650
957.000000	-0.010770
956.000000	-0.010760
955.000000	-0.010741
954.000000	-0.010881
953.000000	-0.010999
952.000000	-0.011051
951.000000	-0.011214
950.000000	-0.011347
949.000000	-0.011256
948.000000	-0.011212
947.000000	-0.011450
946.000000	-0.011589
945.000000	-0.011495
944.000000	-0.011615
943.000000	-0.011517
942.000000	-0.011378
941.000000	-0.011505
940.000000	-0.011645
939.000000	-0.011770
938.000000	-0.011699
937.000000	-0.011684
936.000000	-0.012002
935.000000	-0.012069
934.000000	-0.011954
933.000000	-0.011989
932.000000	-0.011951
931.000000	-0.011969
930.000000	-0.012016
929.000000	-0.012040
928.000000	-0.011959
927.000000	-0.011853
926.000000	-0.011771
925.000000	-0.011763
924.000000	-0.011748
923.000000	-0.011898
922.000000	-0.011975
921.000000	-0.011899
920.000000	-0.011836
919.000000	-0.011748
918.000000	-0.011754
917.000000	-0.011810
916.000000	-0.011762
915.000000	-0.011703
914.000000	-0.011833
913.000000	-0.011732
912.000000	-0.011515
911.000000	-0.011482
910.000000	-0.011599
909.000000	-0.011510
908.000000	-0.011618
907.000000	-0.011562
906.000000	-0.011738
905.000000	-0.011874
904.000000	-0.011765
903.000000	-0.011745
902.000000	-0.011945
901.000000	-0.012151
900.000000	-0.011906
899.000000	-0.012155
898.000000	-0.012118
897.000000	-0.012380
896.000000	-0.012206
895.000000	-0.012280
894.000000	-0.012770
893.000000	-0.012688
892.000000	-0.012607
891.000000	-0.012796
890.000000	-0.013256
889.000000	-0.013325
888.000000	-0.012995
887.000000	-0.013050
886.000000	-0.013575
885.000000	-0.013742
884.000000	-0.013537
883.000000	-0.013579
882.000000	-0.013641
881.000000	-0.013257
880.000000	-0.013379
879.000000	-0.013318
878.000000	-0.013225
877.000000	-0.014072
876.000000	-0.014219
875.000000	-0.014309
874.000000	-0.013605
873.000000	-0.014000
872.000000	-0.014262
871.000000	-0.014334
870.000000	-0.014217
869.000000	-0.014025
868.000000	-0.013791
867.000000	-0.014424
866.000000	-0.014498
865.000000	-0.014125
864.000000	-0.013991
863.000000	-0.013820
862.000000	-0.014450
861.000000	-0.014234
860.000000	-0.014225
859.000000	-0.014786
858.000000	-0.015641
857.000000	-0.012951
856.000000	-0.013578
855.000000	-0.016208
854.000000	-0.017505
853.000000	-0.014127
852.000000	-0.014448
851.000000	-0.014154
850.000000	-0.015794
849.000000	-0.013564
848.000000	-0.014758
847.000000	-0.016331
846.000000	-0.016116
845.000000	-0.014237
844.000000	-0.015655
843.000000	-0.015287
842.000000	-0.014420
841.000000	-0.014513
840.000000	-0.015249
839.000000	-0.014520
838.000000	-0.014591
837.000000	-0.015071
836.000000	-0.015286
835.000000	-0.014508
834.000000	-0.015675
833.000000	-0.015097
832.000000	-0.015397
831.000000	-0.014439
830.000000	-0.015064
829.000000	-0.014446
828.000000	-0.015303
827.000000	-0.013522
826.000000	-0.014320
825.000000	-0.013806
824.000000	-0.015893
823.000000	-0.015378
822.000000	-0.015512
821.000000	-0.015520
820.000000	-0.015264
819.000000	-0.015365
818.000000	-0.014689
817.000000	-0.015694
816.000000	-0.016508
815.000000	-0.013775
814.000000	-0.014334
813.000000	-0.015630
812.000000	-0.013700
811.000000	-0.014309
810.000000	-0.015792
809.000000	-0.015376
808.000000	-0.015778
807.000000	-0.014487
806.000000	-0.015151
805.000000	-0.015082
804.000000	-0.015381
803.000000	-0.015424
802.000000	-0.014800
801.000000	-0.015283
800.000000	-0.014905
799.000000	-0.014940
798.000000	-0.015676
797.000000	-0.015434
796.000000	-0.015426
795.000000	-0.015476
794.000000	-0.015232
793.000000	-0.015829
792.000000	-0.016400
791.000000	-0.015171
790.000000	-0.014116
789.000000	-0.014954
788.000000	-0.015336
787.000000	-0.014777
786.000000	-0.014820
785.000000	-0.015581
784.000000	-0.016111
783.000000	-0.016058
782.000000	-0.015730
781.000000	-0.016233
780.000000	-0.015938
779.000000	-0.014541
778.000000	-0.015190
777.000000	-0.015791
776.000000	-0.015350
775.000000	-0.016202
774.000000	-0.015334
773.000000	-0.015080
772.000000	-0.015491
771.000000	-0.015177
770.000000	-0.014878
769.000000	-0.015346
768.000000	-0.015714
767.000000	-0.015743
766.000000	-0.015635
765.000000	-0.015741
764.000000	-0.015662
763.000000	-0.015402
762.000000	-0.016153
761.000000	-0.016012
760.000000	-0.015508
759.000000	-0.015386
758.000000	-0.015319
757.000000	-0.015243
756.000000	-0.015311
755.000000	-0.014874
754.000000	-0.015228
753.000000	-0.015998
752.000000	-0.015751
751.000000	-0.015310
750.000000	-0.015318
749.000000	-0.015958
748.000000	-0.015642
747.000000	-0.015399
746.000000	-0.015564
745.000000	-0.015407
744.000000	-0.015768
743.000000	-0.015568
742.000000	-0.015228
741.000000	-0.015389
740.000000	-0.015294
739.000000	-0.015877
738.000000	-0.016038
737.000000	-0.015782
736.000000	-0.015549
735.000000	-0.015229
734.000000	-0.015545
733.000000	-0.015838
732.000000	-0.016129
731.000000	-0.016034
730.000000	-0.015984
729.000000	-0.016382
728.000000	-0.016102
727.000000	-0.016333
726.000000	-0.015808
725.000000	-0.015882
724.000000	-0.016231
723.000000	-0.016352
722.000000	-0.016164
721.000000	-0.015958
720.000000	-0.016368
719.000000	-0.016439
718.000000	-0.016218
717.000000	-0.016041
716.000000	-0.016395
715.000000	-0.016752
714.000000	-0.016626
713.000000	-0.016243
712.000000	-0.016553
711.000000	-0.016790
710.000000	-0.016541
709.000000	-0.016257
708.000000	-0.016010
707.000000	-0.015898
706.000000	-0.015836
705.000000	-0.015822
704.000000	-0.015933
703.000000	-0.016356
702.000000	-0.016507
701.000000	-0.016483
700.000000	-0.016502
699.000000	-0.016404
698.000000	-0.016564
697.000000	-0.016542
696.000000	-0.016196
695.000000	-0.016117
694.000000	-0.016181
693.000000	-0.016115
692.000000	-0.016207
691.000000	-0.016364
690.000000	-0.016294
689.000000	-0.015944
688.000000	-0.015851
687.000000	-0.016068
686.000000	-0.015798
685.000000	-0.015543
684.000000	-0.015582
683.000000	-0.015779
682.000000	-0.015570
681.000000	-0.015917
680.000000	-0.015951
679.000000	-0.015897
678.000000	-0.015734
677.000000	-0.015802
676.000000	-0.015704
675.000000	-0.015459
674.000000	-0.015769
673.000000	-0.015668
672.000000	-0.015851
671.000000	-0.015719
670.000000	-0.015208
669.000000	-0.015290
668.000000	-0.015508
667.000000	-0.015478
666.000000	-0.015314
665.000000	-0.015547
664.000000	-0.015512
663.000000	-0.015563
662.000000	-0.015456
661.000000	-0.015248
660.000000	-0.015181
659.000000	-0.015381
658.000000	-0.015397
657.000000	-0.015447
656.000000	-0.015013
655.000000	-0.015340
654.000000	-0.015447
653.000000	-0.015231
652.000000	-0.015148
651.000000	-0.015206
650.000000	-0.015136
649.000000	-0.015173
648.000000	-0.015027
647.000000	-0.015154
646.000000	-0.015225
645.000000	-0.015284
644.000000	-0.014925
643.000000	-0.015247
642.000000	-0.015017
641.000000	-0.014828
640.000000	-0.014934
639.000000	-0.015074
638.000000	-0.015138
637.000000	-0.014706
636.000000	-0.014544
635.000000	-0.014300
634.000000	-0.014554
633.000000	-0.015251
632.000000	-0.014713
631.000000	-0.014407
630.000000	-0.013985
629.000000	-0.014346
628.000000	-0.014259
627.000000	-0.014664
626.000000	-0.014341
625.000000	-0.014035
624.000000	-0.014574
623.000000	-0.014058
622.000000	-0.013935
621.000000	-0.014364
620.000000	-0.013544
619.000000	-0.013538
618.000000	-0.013618
617.000000	-0.013777
616.000000	-0.013228
615.000000	-0.012890
614.000000	-0.013088
613.000000	-0.013257
612.000000	-0.012847
611.000000	-0.013027
610.000000	-0.013068
609.000000	-0.013004
608.000000	-0.012748
607.000000	-0.012878
606.000000	-0.012587
605.000000	-0.012328
604.000000	-0.012576
603.000000	-0.012617
602.000000	-0.012263
601.000000	-0.012331
600.000000	-0.011906
599.000000	-0.011857
598.000000	-0.011556
597.000000	-0.011750
596.000000	-0.011254
595.000000	-0.011592
594.000000	-0.011358
593.000000	-0.011178
592.000000	-0.011234
591.000000	-0.011101
590.000000	-0.010965
589.000000	-0.010916
588.000000	-0.010776
587.000000	-0.010353
586.000000	-0.010560
585.000000	-0.010384
584.000000	-0.009731
583.000000	-0.009634
582.000000	-0.009921
581.000000	-0.009434
580.000000	-0.009189
579.000000	-0.009075
578.000000	-0.008999
577.000000	-0.008584
576.000000	-0.008698
575.000000	-0.008797
574.000000	-0.008264
573.000000	-0.008289
572.000000	-0.008099
571.000000	-0.008002
570.000000	-0.007808
569.000000	-0.007456
568.000000	-0.007598
567.000000	-0.007327
566.000000	-0.006533
565.000000	-0.006440
564.000000	-0.006346
563.000000	-0.006785
562.000000	-0.006008
561.000000	-0.006918
560.000000	-0.006154
559.000000	-0.006238
558.000000	-0.006273
557.000000	-0.006042
556.000000	-0.005759
555.000000	-0.005333
554.000000	-0.004929
553.000000	-0.004943
552.000000	-0.004379
551.000000	-0.004638
550.000000	-0.004383
549.000000	-0.003887
548.000000	-0.003622
547.000000	-0.003529
546.000000	-0.002872
545.000000	-0.002656
544.000000	-0.002518
543.000000	-0.002052
542.000000	-0.001663
541.000000	-0.001480
540.000000	-0.000887
539.000000	-0.000778
538.000000	-0.000797
537.000000	-0.000209
536.000000	0.000118
535.000000	0.000439
534.000000	0.000604
533.000000	0.000929
532.000000	0.001127
531.000000	0.001613
530.000000	0.002132
529.000000	0.002453
528.000000	0.003237
527.000000	0.003495
526.000000	0.003614
525.000000	0.004134
524.000000	0.004704
523.000000	0.004929
522.000000	0.005226
521.000000	0.005759
520.000000	0.006368
519.000000	0.006733
518.000000	0.007125
517.000000	0.007516
516.000000	0.008428
515.000000	0.009071
514.000000	0.008933
513.000000	0.009136
512.000000	0.009914
511.000000	0.010294
510.000000	0.011128
509.000000	0.011819
508.000000	0.012140
507.000000	0.012884
506.000000	0.013403
505.000000	0.013912
504.000000	0.014223
503.000000	0.014725
502.000000	0.015486
501.000000	0.016121
500.000000	0.017075
499.000000	0.017533
498.000000	0.018024
497.000000	0.018876
496.000000	0.019596
495.000000	0.020255
494.000000	0.020830
493.000000	0.021383
492.000000	0.022031
491.000000	0.022729
490.000000	0.023521
489.000000	0.024122
488.000000	0.024718
487.000000	0.025374
486.000000	0.026559
485.000000	0.027393
484.000000	0.028189
483.000000	0.028480
482.000000	0.028736
481.000000	0.029939
480.000000	0.030780
479.000000	0.031458
478.000000	0.032117
477.000000	0.033088
476.000000	0.034051
475.000000	0.034885
474.000000	0.035744
473.000000	0.036549
472.000000	0.037332
471.000000	0.038451
470.000000	0.039507
469.000000	0.040488
468.000000	0.041390
467.000000	0.042555
466.000000	0.043584
465.000000	0.044510
464.000000	0.045483
463.000000	0.046579
462.000000	0.047805
461.000000	0.049108
460.000000	0.050564
459.000000	0.051855
458.000000	0.053154
457.000000	0.054311
456.000000	0.055870
455.000000	0.056998
454.000000	0.058137
453.000000	0.059911
452.000000	0.062052
451.000000	0.063515
450.000000	0.064954
449.000000	0.066719
448.000000	0.068123
447.000000	0.069697
446.000000	0.071267
445.000000	0.072804
444.000000	0.074020
443.000000	0.075549
442.000000	0.077369
441.000000	0.079391
440.000000	0.081175
439.000000	0.082744
438.000000	0.084458
437.000000	0.086459
436.000000	0.088231
435.000000	0.089415
434.000000	0.091354
433.000000	0.092846
432.000000	0.094451
431.000000	0.096287
430.000000	0.098112
429.000000	0.100260
428.000000	0.102001
427.000000	0.104036
426.000000	0.105651
425.000000	0.108053
424.000000	0.110013
423.000000	0.111929
422.000000	0.114320
421.000000	0.116113
420.000000	0.118341
419.000000	0.120410
418.000000	0.122147
417.000000	0.123976
416.000000	0.126726
415.000000	0.129396
414.000000	0.131304
413.000000	0.133251
412.000000	0.136100
411.000000	0.138558
410.000000	0.140933
409.000000	0.143272
408.000000	0.145732
407.000000	0.147669
406.000000	0.150863
405.000000	0.153155
404.000000	0.156058
403.000000	0.158122
402.000000	0.161168
401.000000	0.163759
400.000000	0.165610
399.000000	0.168157
398.000000	0.171736
397.000000	0.173265
396.000000	0.175968
395.000000	0.178598
394.000000	0.181316
393.000000	0.184098
392.000000	0.186338
391.000000	0.188630
390.000000	0.191711
389.000000	0.194323
388.000000	0.196274
387.000000	0.199399
386.000000	0.203245
385.000000	0.205779
384.000000	0.208422
383.000000	0.211198
382.000000	0.213660
381.000000	0.217292
380.000000	0.219619
379.000000	0.222604
378.000000	0.227808
377.000000	0.229716
376.000000	0.232977
375.000000	0.233552
374.000000	0.237218
373.000000	0.241461
372.000000	0.245668
371.000000	0.248975
370.000000	0.253826
369.000000	0.255175
368.000000	0.259524
367.000000	0.261873
366.000000	0.266073
365.000000	0.270092
364.000000	0.274579
363.000000	0.276928
362.000000	0.280441
361.000000	0.286295
360.000000	0.290709
359.000000	0.297112
358.000000	0.299767
357.000000	0.303827
356.000000	0.308464
355.000000	0.314813
354.000000	0.318480
353.000000	0.322963
352.000000	0.328630
351.000000	0.334264
350.000000	0.338740
349.000000	0.342960
348.000000	0.348053
347.000000	0.355022
346.000000	0.360093
345.000000	0.364843
344.000000	0.370604
343.000000	0.376344
342.000000	0.382615
341.000000	0.390092
340.000000	0.394384
339.000000	0.401627
338.000000	0.409203
337.000000	0.413519
336.000000	0.417611
335.000000	0.426483
334.000000	0.434707
333.000000	0.442135
332.000000	0.449245
331.000000	0.458757
330.000000	0.461077
329.000000	0.469896
328.000000	0.481012
327.000000	0.489628
326.000000	0.498161
325.000000	0.507139
324.000000	0.516503
323.000000	0.525017
322.000000	0.536470
321.000000	0.539903
320.000000	0.551299
319.000000	0.567204
318.000000	0.573449
317.000000	0.583012
316.000000	0.591262
315.000000	0.603185
314.000000	0.613137
313.000000	0.622486
312.000000	0.634910
311.000000	0.644378
310.000000	0.654145
309.000000	0.666209
308.000000	0.679536
307.000000	0.693094
306.000000	0.704520
305.000000	0.720562
304.000000	0.733121
303.000000	0.752376
302.000000	0.769285
301.000000	0.783811
300.000000	0.805369
299.000000	0.825713
298.000000	0.843716
297.000000	0.867288
296.000000	0.886986
295.000000	0.908090
294.000000	0.924202
293.000000	0.944329
292.000000	0.959023
291.000000	0.971081
290.000000	0.981390
289.000000	0.986921
288.000000	0.991046
287.000000	0.996103
286.000000	0.997632
285.000000	1.002471
284.000000	1.003851
283.000000	1.005192
282.000000	1.005258
281.000000	1.005520
280.000000	1.007649
279.000000	1.008808
278.000000	1.010502
277.000000	1.007064
276.000000	1.008816
275.000000	1.009106
274.000000	1.005517
273.000000	1.003396
272.000000	1.005525
271.000000	0.999597
270.000000	0.997706
269.000000	0.997887
268.000000	0.995273
267.000000	0.992935
266.000000	0.991878
265.000000	0.988879
264.000000	0.984817
263.000000	0.979655
262.000000	0.973911
261.000000	0.969843
260.000000	0.962828
259.000000	0.956675
258.000000	0.953515
257.000000	0.948386
256.000000	0.942047
255.000000	0.933845
254.000000	0.926464
253.000000	0.918858
252.000000	0.913939
251.000000	0.907092
250.000000	0.896669
249.000000	0.885772
248.000000	0.878297
247.000000	0.870822
246.000000	0.861295
245.000000	0.854488
244.000000	0.846590
243.000000	0.841633
242.000000	0.838187
241.000000	0.830271
240.000000	0.824299
239.000000	0.821430
238.000000	0.817663
237.000000	0.813748
236.000000	0.810772
235.000000	0.809489
234.000000	0.805567
233.000000	0.803599
232.000000	0.806132
231.000000	0.805809
230.000000	0.803533
229.000000	0.800694
228.000000	0.798037
227.000000	0.794599
226.000000	0.792373
225.000000	0.790294
224.000000	0.786971
223.000000	0.780595
222.000000	0.778157
221.000000	0.774475
220.000000	0.768429
219.000000	0.760541
218.000000	0.750981
217.000000	0.746059
216.000000	0.741196
215.000000	0.736659
214.000000	0.728033
213.000000	0.716640
212.000000	0.710602
211.000000	0.702100
210.000000	0.695031
209.000000	0.687189
208.000000	0.673178
207.000000	0.664713
206.000000	0.653740
205.000000	0.645235
204.000000	0.639330
203.000000	0.628446
202.000000	0.619302
201.000000	0.610487
200.000000	0.596383
