PE IR       SUBTECH     SPECTRUM    ASCII       PEDS        4.00        
   -1
3G-H10-C006_1.ASC
22/02/23
14:32:41.00
22/02/23
15:10:46.00
uco
Sample 006 By uco Date Wednesday, February 23 2022
450.000000
#HDR
-1
-1
#GR
cm-1
A
1.0
0.0
4000.000000
-1.000000
3551
8
0.043145
0.004107
#DATA
4000.000000	0.004292
3999.000000	0.004295
3998.000000	0.004304
3997.000000	0.004314
3996.000000	0.004323
3995.000000	0.004332
3994.000000	0.004342
3993.000000	0.004354
3992.000000	0.004366
3991.000000	0.004373
3990.000000	0.004371
3989.000000	0.004364
3988.000000	0.004363
3987.000000	0.004377
3986.000000	0.004406
3985.000000	0.004440
3984.000000	0.004471
3983.000000	0.004497
3982.000000	0.004515
3981.000000	0.004523
3980.000000	0.004517
3979.000000	0.004497
3978.000000	0.004473
3977.000000	0.004453
3976.000000	0.004442
3975.000000	0.004442
3974.000000	0.004450
3973.000000	0.004460
3972.000000	0.004468
3971.000000	0.004475
3970.000000	0.004481
3969.000000	0.004485
3968.000000	0.004483
3967.000000	0.004475
3966.000000	0.004464
3965.000000	0.004450
3964.000000	0.004434
3963.000000	0.004417
3962.000000	0.004404
3961.000000	0.004404
3960.000000	0.004421
3959.000000	0.004450
3958.000000	0.004481
3957.000000	0.004505
3956.000000	0.004518
3955.000000	0.004525
3954.000000	0.004529
3953.000000	0.004530
3952.000000	0.004528
3951.000000	0.004524
3950.000000	0.004517
3949.000000	0.004508
3948.000000	0.004497
3947.000000	0.004485
3946.000000	0.004477
3945.000000	0.004476
3944.000000	0.004482
3943.000000	0.004491
3942.000000	0.004499
3941.000000	0.004506
3940.000000	0.004516
3939.000000	0.004528
3938.000000	0.004538
3937.000000	0.004540
3936.000000	0.004534
3935.000000	0.004526
3934.000000	0.004525
3933.000000	0.004540
3932.000000	0.004565
3931.000000	0.004588
3930.000000	0.004595
3929.000000	0.004587
3928.000000	0.004569
3927.000000	0.004552
3926.000000	0.004538
3925.000000	0.004532
3924.000000	0.004533
3923.000000	0.004540
3922.000000	0.004551
3921.000000	0.004559
3920.000000	0.004557
3919.000000	0.004544
3918.000000	0.004524
3917.000000	0.004505
3916.000000	0.004495
3915.000000	0.004494
3914.000000	0.004500
3913.000000	0.004511
3912.000000	0.004523
3911.000000	0.004531
3910.000000	0.004531
3909.000000	0.004528
3908.000000	0.004532
3907.000000	0.004551
3906.000000	0.004579
3905.000000	0.004602
3904.000000	0.004606
3903.000000	0.004592
3902.000000	0.004572
3901.000000	0.004560
3900.000000	0.004560
3899.000000	0.004568
3898.000000	0.004578
3897.000000	0.004584
3896.000000	0.004584
3895.000000	0.004574
3894.000000	0.004560
3893.000000	0.004550
3892.000000	0.004550
3891.000000	0.004557
3890.000000	0.004564
3889.000000	0.004569
3888.000000	0.004576
3887.000000	0.004587
3886.000000	0.004597
3885.000000	0.004600
3884.000000	0.004593
3883.000000	0.004582
3882.000000	0.004569
3881.000000	0.004553
3880.000000	0.004528
3879.000000	0.004498
3878.000000	0.004476
3877.000000	0.004471
3876.000000	0.004485
3875.000000	0.004509
3874.000000	0.004534
3873.000000	0.004560
3872.000000	0.004591
3871.000000	0.004628
3870.000000	0.004660
3869.000000	0.004672
3868.000000	0.004664
3867.000000	0.004646
3866.000000	0.004629
3865.000000	0.004622
3864.000000	0.004625
3863.000000	0.004637
3862.000000	0.004655
3861.000000	0.004672
3860.000000	0.004684
3859.000000	0.004692
3858.000000	0.004699
3857.000000	0.004702
3856.000000	0.004692
3855.000000	0.004660
3854.000000	0.004608
3853.000000	0.004553
3852.000000	0.004515
3851.000000	0.004506
3850.000000	0.004522
3849.000000	0.004550
3848.000000	0.004580
3847.000000	0.004600
3846.000000	0.004607
3845.000000	0.004604
3844.000000	0.004596
3843.000000	0.004594
3842.000000	0.004599
3841.000000	0.004611
3840.000000	0.004629
3839.000000	0.004650
3838.000000	0.004671
3837.000000	0.004689
3836.000000	0.004698
3835.000000	0.004694
3834.000000	0.004674
3833.000000	0.004641
3832.000000	0.004605
3831.000000	0.004574
3830.000000	0.004553
3829.000000	0.004545
3828.000000	0.004551
3827.000000	0.004569
3826.000000	0.004591
3825.000000	0.004606
3824.000000	0.004605
3823.000000	0.004591
3822.000000	0.004576
3821.000000	0.004568
3820.000000	0.004562
3819.000000	0.004550
3818.000000	0.004533
3817.000000	0.004517
3816.000000	0.004513
3815.000000	0.004522
3814.000000	0.004535
3813.000000	0.004546
3812.000000	0.004552
3811.000000	0.004555
3810.000000	0.004558
3809.000000	0.004561
3808.000000	0.004558
3807.000000	0.004550
3806.000000	0.004544
3805.000000	0.004548
3804.000000	0.004557
3803.000000	0.004560
3802.000000	0.004549
3801.000000	0.004528
3800.000000	0.004511
3799.000000	0.004511
3798.000000	0.004527
3797.000000	0.004550
3796.000000	0.004568
3795.000000	0.004573
3794.000000	0.004563
3793.000000	0.004549
3792.000000	0.004538
3791.000000	0.004536
3790.000000	0.004538
3789.000000	0.004538
3788.000000	0.004533
3787.000000	0.004528
3786.000000	0.004530
3785.000000	0.004540
3784.000000	0.004552
3783.000000	0.004562
3782.000000	0.004561
3781.000000	0.004550
3780.000000	0.004530
3779.000000	0.004511
3778.000000	0.004504
3777.000000	0.004511
3776.000000	0.004526
3775.000000	0.004543
3774.000000	0.004556
3773.000000	0.004565
3772.000000	0.004568
3771.000000	0.004567
3770.000000	0.004562
3769.000000	0.004555
3768.000000	0.004540
3767.000000	0.004513
3766.000000	0.004476
3765.000000	0.004441
3764.000000	0.004422
3763.000000	0.004419
3762.000000	0.004425
3761.000000	0.004435
3760.000000	0.004447
3759.000000	0.004462
3758.000000	0.004482
3757.000000	0.004504
3756.000000	0.004521
3755.000000	0.004528
3754.000000	0.004523
3753.000000	0.004514
3752.000000	0.004513
3751.000000	0.004519
3750.000000	0.004518
3749.000000	0.004506
3748.000000	0.004494
3747.000000	0.004492
3746.000000	0.004503
3745.000000	0.004524
3744.000000	0.004539
3743.000000	0.004536
3742.000000	0.004523
3741.000000	0.004505
3740.000000	0.004480
3739.000000	0.004448
3738.000000	0.004415
3737.000000	0.004391
3736.000000	0.004378
3735.000000	0.004370
3734.000000	0.004358
3733.000000	0.004343
3732.000000	0.004332
3731.000000	0.004330
3730.000000	0.004341
3729.000000	0.004360
3728.000000	0.004380
3727.000000	0.004395
3726.000000	0.004404
3725.000000	0.004406
3724.000000	0.004401
3723.000000	0.004386
3722.000000	0.004364
3721.000000	0.004347
3720.000000	0.004345
3719.000000	0.004357
3718.000000	0.004375
3717.000000	0.004390
3716.000000	0.004396
3715.000000	0.004394
3714.000000	0.004384
3713.000000	0.004367
3712.000000	0.004348
3711.000000	0.004325
3710.000000	0.004298
3709.000000	0.004274
3708.000000	0.004259
3707.000000	0.004256
3706.000000	0.004267
3705.000000	0.004290
3704.000000	0.004322
3703.000000	0.004356
3702.000000	0.004379
3701.000000	0.004378
3700.000000	0.004359
3699.000000	0.004335
3698.000000	0.004324
3697.000000	0.004332
3696.000000	0.004352
3695.000000	0.004365
3694.000000	0.004356
3693.000000	0.004324
3692.000000	0.004281
3691.000000	0.004246
3690.000000	0.004236
3689.000000	0.004255
3688.000000	0.004291
3687.000000	0.004329
3686.000000	0.004361
3685.000000	0.004386
3684.000000	0.004401
3683.000000	0.004402
3682.000000	0.004392
3681.000000	0.004382
3680.000000	0.004382
3679.000000	0.004392
3678.000000	0.004397
3677.000000	0.004392
3676.000000	0.004390
3675.000000	0.004401
3674.000000	0.004417
3673.000000	0.004425
3672.000000	0.004422
3671.000000	0.004416
3670.000000	0.004421
3669.000000	0.004439
3668.000000	0.004464
3667.000000	0.004492
3666.000000	0.004516
3665.000000	0.004533
3664.000000	0.004544
3663.000000	0.004549
3662.000000	0.004553
3661.000000	0.004558
3660.000000	0.004567
3659.000000	0.004581
3658.000000	0.004601
3657.000000	0.004622
3656.000000	0.004636
3655.000000	0.004642
3654.000000	0.004643
3653.000000	0.004644
3652.000000	0.004649
3651.000000	0.004669
3650.000000	0.004713
3649.000000	0.004769
3648.000000	0.004810
3647.000000	0.004822
3646.000000	0.004809
3645.000000	0.004791
3644.000000	0.004783
3643.000000	0.004793
3642.000000	0.004816
3641.000000	0.004844
3640.000000	0.004868
3639.000000	0.004886
3638.000000	0.004907
3637.000000	0.004943
3636.000000	0.004996
3635.000000	0.005056
3634.000000	0.005110
3633.000000	0.005152
3632.000000	0.005185
3631.000000	0.005214
3630.000000	0.005234
3629.000000	0.005237
3628.000000	0.005220
3627.000000	0.005197
3626.000000	0.005184
3625.000000	0.005184
3624.000000	0.005192
3623.000000	0.005204
3622.000000	0.005222
3621.000000	0.005248
3620.000000	0.005281
3619.000000	0.005320
3618.000000	0.005361
3617.000000	0.005403
3616.000000	0.005445
3615.000000	0.005484
3614.000000	0.005518
3613.000000	0.005543
3612.000000	0.005558
3611.000000	0.005566
3610.000000	0.005581
3609.000000	0.005616
3608.000000	0.005666
3607.000000	0.005711
3606.000000	0.005732
3605.000000	0.005733
3604.000000	0.005733
3603.000000	0.005750
3602.000000	0.005787
3601.000000	0.005834
3600.000000	0.005877
3599.000000	0.005911
3598.000000	0.005944
3597.000000	0.005984
3596.000000	0.006029
3595.000000	0.006071
3594.000000	0.006105
3593.000000	0.006131
3592.000000	0.006154
3591.000000	0.006173
3590.000000	0.006189
3589.000000	0.006208
3588.000000	0.006243
3587.000000	0.006295
3586.000000	0.006352
3585.000000	0.006401
3584.000000	0.006439
3583.000000	0.006470
3582.000000	0.006502
3581.000000	0.006540
3580.000000	0.006580
3579.000000	0.006617
3578.000000	0.006650
3577.000000	0.006685
3576.000000	0.006727
3575.000000	0.006776
3574.000000	0.006827
3573.000000	0.006874
3572.000000	0.006916
3571.000000	0.006956
3570.000000	0.006996
3569.000000	0.007040
3568.000000	0.007086
3567.000000	0.007131
3566.000000	0.007177
3565.000000	0.007233
3564.000000	0.007300
3563.000000	0.007372
3562.000000	0.007430
3561.000000	0.007467
3560.000000	0.007487
3559.000000	0.007507
3558.000000	0.007542
3557.000000	0.007599
3556.000000	0.007670
3555.000000	0.007736
3554.000000	0.007783
3553.000000	0.007812
3552.000000	0.007835
3551.000000	0.007867
3550.000000	0.007909
3549.000000	0.007958
3548.000000	0.008007
3547.000000	0.008053
3546.000000	0.008091
3545.000000	0.008128
3544.000000	0.008172
3543.000000	0.008232
3542.000000	0.008304
3541.000000	0.008375
3540.000000	0.008432
3539.000000	0.008474
3538.000000	0.008507
3537.000000	0.008536
3536.000000	0.008558
3535.000000	0.008574
3534.000000	0.008587
3533.000000	0.008610
3532.000000	0.008646
3531.000000	0.008693
3530.000000	0.008740
3529.000000	0.008780
3528.000000	0.008815
3527.000000	0.008856
3526.000000	0.008907
3525.000000	0.008962
3524.000000	0.009019
3523.000000	0.009079
3522.000000	0.009149
3521.000000	0.009226
3520.000000	0.009295
3519.000000	0.009342
3518.000000	0.009364
3517.000000	0.009374
3516.000000	0.009390
3515.000000	0.009417
3514.000000	0.009449
3513.000000	0.009479
3512.000000	0.009507
3511.000000	0.009540
3510.000000	0.009581
3509.000000	0.009623
3508.000000	0.009660
3507.000000	0.009696
3506.000000	0.009739
3505.000000	0.009791
3504.000000	0.009848
3503.000000	0.009903
3502.000000	0.009954
3501.000000	0.010004
3500.000000	0.010051
3499.000000	0.010089
3498.000000	0.010113
3497.000000	0.010128
3496.000000	0.010143
3495.000000	0.010169
3494.000000	0.010211
3493.000000	0.010261
3492.000000	0.010312
3491.000000	0.010359
3490.000000	0.010400
3489.000000	0.010438
3488.000000	0.010471
3487.000000	0.010500
3486.000000	0.010524
3485.000000	0.010545
3484.000000	0.010563
3483.000000	0.010582
3482.000000	0.010607
3481.000000	0.010644
3480.000000	0.010691
3479.000000	0.010735
3478.000000	0.010766
3477.000000	0.010782
3476.000000	0.010790
3475.000000	0.010802
3474.000000	0.010828
3473.000000	0.010870
3472.000000	0.010924
3471.000000	0.010978
3470.000000	0.011023
3469.000000	0.011059
3468.000000	0.011094
3467.000000	0.011128
3466.000000	0.011157
3465.000000	0.011175
3464.000000	0.011181
3463.000000	0.011189
3462.000000	0.011213
3461.000000	0.011254
3460.000000	0.011304
3459.000000	0.011350
3458.000000	0.011391
3457.000000	0.011428
3456.000000	0.011458
3455.000000	0.011473
3454.000000	0.011474
3453.000000	0.011476
3452.000000	0.011492
3451.000000	0.011527
3450.000000	0.011574
3449.000000	0.011622
3448.000000	0.011666
3447.000000	0.011707
3446.000000	0.011750
3445.000000	0.011798
3444.000000	0.011846
3443.000000	0.011891
3442.000000	0.011929
3441.000000	0.011961
3440.000000	0.011986
3439.000000	0.012009
3438.000000	0.012032
3437.000000	0.012063
3436.000000	0.012104
3435.000000	0.012154
3434.000000	0.012207
3433.000000	0.012258
3432.000000	0.012296
3431.000000	0.012312
3430.000000	0.012310
3429.000000	0.012310
3428.000000	0.012334
3427.000000	0.012386
3426.000000	0.012452
3425.000000	0.012510
3424.000000	0.012545
3423.000000	0.012561
3422.000000	0.012571
3421.000000	0.012588
3420.000000	0.012620
3419.000000	0.012663
3418.000000	0.012709
3417.000000	0.012748
3416.000000	0.012774
3415.000000	0.012786
3414.000000	0.012788
3413.000000	0.012784
3412.000000	0.012779
3411.000000	0.012782
3410.000000	0.012803
3409.000000	0.012848
3408.000000	0.012908
3407.000000	0.012970
3406.000000	0.013022
3405.000000	0.013062
3404.000000	0.013093
3403.000000	0.013118
3402.000000	0.013136
3401.000000	0.013145
3400.000000	0.013146
3399.000000	0.013146
3398.000000	0.013153
3397.000000	0.013178
3396.000000	0.013221
3395.000000	0.013276
3394.000000	0.013337
3393.000000	0.013400
3392.000000	0.013463
3391.000000	0.013520
3390.000000	0.013558
3389.000000	0.013573
3388.000000	0.013573
3387.000000	0.013573
3386.000000	0.013585
3385.000000	0.013603
3384.000000	0.013619
3383.000000	0.013635
3382.000000	0.013659
3381.000000	0.013700
3380.000000	0.013757
3379.000000	0.013818
3378.000000	0.013869
3377.000000	0.013906
3376.000000	0.013932
3375.000000	0.013958
3374.000000	0.013996
3373.000000	0.014050
3372.000000	0.014115
3371.000000	0.014185
3370.000000	0.014256
3369.000000	0.014323
3368.000000	0.014382
3367.000000	0.014435
3366.000000	0.014484
3365.000000	0.014535
3364.000000	0.014591
3363.000000	0.014651
3362.000000	0.014709
3361.000000	0.014761
3360.000000	0.014804
3359.000000	0.014848
3358.000000	0.014911
3357.000000	0.015003
3356.000000	0.015120
3355.000000	0.015238
3354.000000	0.015339
3353.000000	0.015415
3352.000000	0.015472
3351.000000	0.015524
3350.000000	0.015581
3349.000000	0.015644
3348.000000	0.015710
3347.000000	0.015781
3346.000000	0.015864
3345.000000	0.015959
3344.000000	0.016061
3343.000000	0.016153
3342.000000	0.016225
3341.000000	0.016278
3340.000000	0.016320
3339.000000	0.016366
3338.000000	0.016426
3337.000000	0.016503
3336.000000	0.016592
3335.000000	0.016679
3334.000000	0.016756
3333.000000	0.016823
3332.000000	0.016887
3331.000000	0.016950
3330.000000	0.017008
3329.000000	0.017052
3328.000000	0.017079
3327.000000	0.017104
3326.000000	0.017146
3325.000000	0.017214
3324.000000	0.017300
3323.000000	0.017384
3322.000000	0.017457
3321.000000	0.017518
3320.000000	0.017567
3319.000000	0.017603
3318.000000	0.017627
3317.000000	0.017642
3316.000000	0.017653
3315.000000	0.017663
3314.000000	0.017681
3313.000000	0.017714
3312.000000	0.017757
3311.000000	0.017795
3310.000000	0.017811
3309.000000	0.017806
3308.000000	0.017796
3307.000000	0.017800
3306.000000	0.017821
3305.000000	0.017856
3304.000000	0.017896
3303.000000	0.017937
3302.000000	0.017973
3301.000000	0.018002
3300.000000	0.018027
3299.000000	0.018052
3298.000000	0.018074
3297.000000	0.018093
3296.000000	0.018112
3295.000000	0.018134
3294.000000	0.018152
3293.000000	0.018154
3292.000000	0.018136
3291.000000	0.018115
3290.000000	0.018111
3289.000000	0.018131
3288.000000	0.018160
3287.000000	0.018179
3286.000000	0.018179
3285.000000	0.018166
3284.000000	0.018152
3283.000000	0.018147
3282.000000	0.018148
3281.000000	0.018145
3280.000000	0.018131
3279.000000	0.018111
3278.000000	0.018093
3277.000000	0.018080
3276.000000	0.018059
3275.000000	0.018019
3274.000000	0.017962
3273.000000	0.017905
3272.000000	0.017861
3271.000000	0.017836
3270.000000	0.017823
3269.000000	0.017811
3268.000000	0.017786
3267.000000	0.017747
3266.000000	0.017699
3265.000000	0.017658
3264.000000	0.017631
3263.000000	0.017620
3262.000000	0.017614
3261.000000	0.017601
3260.000000	0.017571
3259.000000	0.017522
3258.000000	0.017465
3257.000000	0.017412
3256.000000	0.017375
3255.000000	0.017354
3254.000000	0.017339
3253.000000	0.017318
3252.000000	0.017283
3251.000000	0.017238
3250.000000	0.017188
3249.000000	0.017138
3248.000000	0.017087
3247.000000	0.017044
3246.000000	0.017020
3245.000000	0.017021
3244.000000	0.017040
3243.000000	0.017058
3242.000000	0.017063
3241.000000	0.017049
3240.000000	0.017018
3239.000000	0.016976
3238.000000	0.016927
3237.000000	0.016881
3236.000000	0.016845
3235.000000	0.016819
3234.000000	0.016798
3233.000000	0.016776
3232.000000	0.016746
3231.000000	0.016706
3230.000000	0.016664
3229.000000	0.016630
3228.000000	0.016612
3227.000000	0.016607
3226.000000	0.016605
3225.000000	0.016599
3224.000000	0.016585
3223.000000	0.016561
3222.000000	0.016532
3221.000000	0.016500
3220.000000	0.016473
3219.000000	0.016455
3218.000000	0.016439
3217.000000	0.016413
3216.000000	0.016372
3215.000000	0.016322
3214.000000	0.016277
3213.000000	0.016243
3212.000000	0.016213
3211.000000	0.016180
3210.000000	0.016147
3209.000000	0.016121
3208.000000	0.016103
3207.000000	0.016087
3206.000000	0.016069
3205.000000	0.016049
3204.000000	0.016029
3203.000000	0.016006
3202.000000	0.015971
3201.000000	0.015923
3200.000000	0.015867
3199.000000	0.015817
3198.000000	0.015783
3197.000000	0.015765
3196.000000	0.015753
3195.000000	0.015736
3194.000000	0.015711
3193.000000	0.015680
3192.000000	0.015645
3191.000000	0.015608
3190.000000	0.015568
3189.000000	0.015526
3188.000000	0.015478
3187.000000	0.015425
3186.000000	0.015375
3185.000000	0.015334
3184.000000	0.015302
3183.000000	0.015271
3182.000000	0.015232
3181.000000	0.015184
3180.000000	0.015129
3179.000000	0.015072
3178.000000	0.015017
3177.000000	0.014971
3176.000000	0.014938
3175.000000	0.014916
3174.000000	0.014896
3173.000000	0.014866
3172.000000	0.014821
3171.000000	0.014762
3170.000000	0.014695
3169.000000	0.014628
3168.000000	0.014570
3167.000000	0.014525
3166.000000	0.014487
3165.000000	0.014447
3164.000000	0.014403
3163.000000	0.014360
3162.000000	0.014327
3161.000000	0.014301
3160.000000	0.014274
3159.000000	0.014237
3158.000000	0.014189
3157.000000	0.014133
3156.000000	0.014074
3155.000000	0.014020
3154.000000	0.013973
3153.000000	0.013934
3152.000000	0.013897
3151.000000	0.013863
3150.000000	0.013834
3149.000000	0.013807
3148.000000	0.013779
3147.000000	0.013748
3146.000000	0.013715
3145.000000	0.013684
3144.000000	0.013650
3143.000000	0.013607
3142.000000	0.013557
3141.000000	0.013513
3140.000000	0.013483
3139.000000	0.013468
3138.000000	0.013458
3137.000000	0.013444
3136.000000	0.013422
3135.000000	0.013396
3134.000000	0.013372
3133.000000	0.013351
3132.000000	0.013332
3131.000000	0.013311
3130.000000	0.013292
3129.000000	0.013273
3128.000000	0.013253
3127.000000	0.013231
3126.000000	0.013212
3125.000000	0.013198
3124.000000	0.013186
3123.000000	0.013167
3122.000000	0.013140
3121.000000	0.013109
3120.000000	0.013075
3119.000000	0.013038
3118.000000	0.013000
3117.000000	0.012972
3116.000000	0.012964
3115.000000	0.012977
3114.000000	0.013007
3113.000000	0.013047
3112.000000	0.013084
3111.000000	0.013110
3110.000000	0.013129
3109.000000	0.013151
3108.000000	0.013180
3107.000000	0.013207
3106.000000	0.013224
3105.000000	0.013234
3104.000000	0.013239
3103.000000	0.013236
3102.000000	0.013220
3101.000000	0.013199
3100.000000	0.013187
3099.000000	0.013197
3098.000000	0.013229
3097.000000	0.013275
3096.000000	0.013324
3095.000000	0.013366
3094.000000	0.013394
3093.000000	0.013410
3092.000000	0.013418
3091.000000	0.013421
3090.000000	0.013420
3089.000000	0.013418
3088.000000	0.013422
3087.000000	0.013437
3086.000000	0.013457
3085.000000	0.013481
3084.000000	0.013506
3083.000000	0.013532
3082.000000	0.013553
3081.000000	0.013560
3080.000000	0.013550
3079.000000	0.013531
3078.000000	0.013514
3077.000000	0.013510
3076.000000	0.013523
3075.000000	0.013550
3074.000000	0.013583
3073.000000	0.013609
3072.000000	0.013622
3071.000000	0.013622
3070.000000	0.013611
3069.000000	0.013593
3068.000000	0.013568
3067.000000	0.013542
3066.000000	0.013522
3065.000000	0.013516
3064.000000	0.013518
3063.000000	0.013514
3062.000000	0.013492
3061.000000	0.013454
3060.000000	0.013412
3059.000000	0.013375
3058.000000	0.013344
3057.000000	0.013314
3056.000000	0.013281
3055.000000	0.013239
3054.000000	0.013184
3053.000000	0.013119
3052.000000	0.013061
3051.000000	0.013024
3050.000000	0.013006
3049.000000	0.012992
3048.000000	0.012966
3047.000000	0.012921
3046.000000	0.012861
3045.000000	0.012799
3044.000000	0.012743
3043.000000	0.012698
3042.000000	0.012661
3041.000000	0.012624
3040.000000	0.012581
3039.000000	0.012527
3038.000000	0.012462
3037.000000	0.012391
3036.000000	0.012330
3035.000000	0.012288
3034.000000	0.012262
3033.000000	0.012237
3032.000000	0.012201
3031.000000	0.012159
3030.000000	0.012122
3029.000000	0.012094
3028.000000	0.012068
3027.000000	0.012038
3026.000000	0.012001
3025.000000	0.011963
3024.000000	0.011927
3023.000000	0.011895
3022.000000	0.011868
3021.000000	0.011842
3020.000000	0.011815
3019.000000	0.011785
3018.000000	0.011751
3017.000000	0.011716
3016.000000	0.011684
3015.000000	0.011656
3014.000000	0.011627
3013.000000	0.011595
3012.000000	0.011559
3011.000000	0.011529
3010.000000	0.011509
3009.000000	0.011498
3008.000000	0.011485
3007.000000	0.011469
3006.000000	0.011454
3005.000000	0.011449
3004.000000	0.011455
3003.000000	0.011463
3002.000000	0.011462
3001.000000	0.011448
3000.000000	0.011429
2999.000000	0.011421
2998.000000	0.011429
2997.000000	0.011451
2996.000000	0.011479
2995.000000	0.011513
2994.000000	0.011554
2993.000000	0.011600
2992.000000	0.011640
2991.000000	0.011666
2990.000000	0.011681
2989.000000	0.011701
2988.000000	0.011738
2987.000000	0.011794
2986.000000	0.011861
2985.000000	0.011926
2984.000000	0.011981
2983.000000	0.012020
2982.000000	0.012042
2981.000000	0.012054
2980.000000	0.012067
2979.000000	0.012089
2978.000000	0.012122
2977.000000	0.012158
2976.000000	0.012187
2975.000000	0.012202
2974.000000	0.012208
2973.000000	0.012211
2972.000000	0.012220
2971.000000	0.012242
2970.000000	0.012277
2969.000000	0.012324
2968.000000	0.012376
2967.000000	0.012425
2966.000000	0.012463
2965.000000	0.012489
2964.000000	0.012509
2963.000000	0.012536
2962.000000	0.012580
2961.000000	0.012636
2960.000000	0.012689
2959.000000	0.012725
2958.000000	0.012746
2957.000000	0.012760
2956.000000	0.012775
2955.000000	0.012792
2954.000000	0.012804
2953.000000	0.012801
2952.000000	0.012784
2951.000000	0.012760
2950.000000	0.012746
2949.000000	0.012753
2948.000000	0.012781
2947.000000	0.012823
2946.000000	0.012865
2945.000000	0.012895
2944.000000	0.012912
2943.000000	0.012923
2942.000000	0.012942
2941.000000	0.012975
2940.000000	0.013019
2939.000000	0.013068
2938.000000	0.013116
2937.000000	0.013163
2936.000000	0.013211
2935.000000	0.013264
2934.000000	0.013322
2933.000000	0.013380
2932.000000	0.013434
2931.000000	0.013483
2930.000000	0.013534
2929.000000	0.013589
2928.000000	0.013646
2927.000000	0.013696
2926.000000	0.013742
2925.000000	0.013782
2924.000000	0.013812
2923.000000	0.013833
2922.000000	0.013853
2921.000000	0.013880
2920.000000	0.013907
2919.000000	0.013915
2918.000000	0.013890
2917.000000	0.013831
2916.000000	0.013746
2915.000000	0.013635
2914.000000	0.013500
2913.000000	0.013347
2912.000000	0.013186
2911.000000	0.013026
2910.000000	0.012879
2909.000000	0.012748
2908.000000	0.012632
2907.000000	0.012527
2906.000000	0.012434
2905.000000	0.012360
2904.000000	0.012303
2903.000000	0.012255
2902.000000	0.012209
2901.000000	0.012169
2900.000000	0.012134
2899.000000	0.012097
2898.000000	0.012050
2897.000000	0.011994
2896.000000	0.011942
2895.000000	0.011905
2894.000000	0.011883
2893.000000	0.011870
2892.000000	0.011861
2891.000000	0.011860
2890.000000	0.011870
2889.000000	0.011887
2888.000000	0.011896
2887.000000	0.011884
2886.000000	0.011855
2885.000000	0.011824
2884.000000	0.011806
2883.000000	0.011801
2882.000000	0.011804
2881.000000	0.011810
2880.000000	0.011818
2879.000000	0.011827
2878.000000	0.011831
2877.000000	0.011822
2876.000000	0.011803
2875.000000	0.011780
2874.000000	0.011764
2873.000000	0.011756
2872.000000	0.011752
2871.000000	0.011743
2870.000000	0.011722
2869.000000	0.011688
2868.000000	0.011642
2867.000000	0.011589
2866.000000	0.011537
2865.000000	0.011493
2864.000000	0.011458
2863.000000	0.011432
2862.000000	0.011420
2861.000000	0.011427
2860.000000	0.011454
2859.000000	0.011485
2858.000000	0.011506
2857.000000	0.011517
2856.000000	0.011537
2855.000000	0.011585
2854.000000	0.011660
2853.000000	0.011746
2852.000000	0.011817
2851.000000	0.011853
2850.000000	0.011842
2849.000000	0.011781
2848.000000	0.011677
2847.000000	0.011541
2846.000000	0.011394
2845.000000	0.011255
2844.000000	0.011138
2843.000000	0.011045
2842.000000	0.010970
2841.000000	0.010903
2840.000000	0.010839
2839.000000	0.010775
2838.000000	0.010714
2837.000000	0.010657
2836.000000	0.010607
2835.000000	0.010565
2834.000000	0.010529
2833.000000	0.010495
2832.000000	0.010462
2831.000000	0.010430
2830.000000	0.010400
2829.000000	0.010376
2828.000000	0.010363
2827.000000	0.010356
2826.000000	0.010347
2825.000000	0.010329
2824.000000	0.010305
2823.000000	0.010285
2822.000000	0.010270
2821.000000	0.010256
2820.000000	0.010234
2819.000000	0.010209
2818.000000	0.010186
2817.000000	0.010167
2816.000000	0.010142
2815.000000	0.010107
2814.000000	0.010073
2813.000000	0.010055
2812.000000	0.010058
2811.000000	0.010065
2810.000000	0.010061
2809.000000	0.010041
2808.000000	0.010013
2807.000000	0.009986
2806.000000	0.009967
2805.000000	0.009958
2804.000000	0.009958
2803.000000	0.009959
2802.000000	0.009956
2801.000000	0.009943
2800.000000	0.009922
2799.000000	0.009898
2798.000000	0.009878
2797.000000	0.009868
2796.000000	0.009865
2795.000000	0.009862
2794.000000	0.009848
2793.000000	0.009823
2792.000000	0.009794
2791.000000	0.009773
2790.000000	0.009761
2789.000000	0.009754
2788.000000	0.009741
2787.000000	0.009722
2786.000000	0.009706
2785.000000	0.009701
2784.000000	0.009703
2783.000000	0.009704
2782.000000	0.009698
2781.000000	0.009686
2780.000000	0.009673
2779.000000	0.009655
2778.000000	0.009629
2777.000000	0.009596
2776.000000	0.009564
2775.000000	0.009537
2774.000000	0.009519
2773.000000	0.009508
2772.000000	0.009502
2771.000000	0.009499
2770.000000	0.009493
2769.000000	0.009478
2768.000000	0.009455
2767.000000	0.009432
2766.000000	0.009417
2765.000000	0.009411
2764.000000	0.009412
2763.000000	0.009413
2762.000000	0.009408
2761.000000	0.009393
2760.000000	0.009371
2759.000000	0.009350
2758.000000	0.009335
2757.000000	0.009326
2756.000000	0.009317
2755.000000	0.009306
2754.000000	0.009292
2753.000000	0.009274
2752.000000	0.009254
2751.000000	0.009236
2750.000000	0.009228
2749.000000	0.009230
2748.000000	0.009231
2747.000000	0.009222
2746.000000	0.009205
2745.000000	0.009185
2744.000000	0.009165
2743.000000	0.009146
2742.000000	0.009130
2741.000000	0.009117
2740.000000	0.009109
2739.000000	0.009101
2738.000000	0.009092
2737.000000	0.009083
2736.000000	0.009072
2735.000000	0.009059
2734.000000	0.009044
2733.000000	0.009025
2732.000000	0.009002
2731.000000	0.008973
2730.000000	0.008947
2729.000000	0.008932
2728.000000	0.008931
2727.000000	0.008937
2726.000000	0.008940
2725.000000	0.008937
2724.000000	0.008927
2723.000000	0.008916
2722.000000	0.008906
2721.000000	0.008897
2720.000000	0.008886
2719.000000	0.008870
2718.000000	0.008850
2717.000000	0.008834
2716.000000	0.008825
2715.000000	0.008814
2714.000000	0.008794
2713.000000	0.008765
2712.000000	0.008740
2711.000000	0.008731
2710.000000	0.008739
2709.000000	0.008752
2708.000000	0.008757
2707.000000	0.008745
2706.000000	0.008724
2705.000000	0.008709
2704.000000	0.008708
2703.000000	0.008715
2702.000000	0.008717
2701.000000	0.008710
2700.000000	0.008698
2699.000000	0.008687
2698.000000	0.008677
2697.000000	0.008665
2696.000000	0.008653
2695.000000	0.008644
2694.000000	0.008639
2693.000000	0.008636
2692.000000	0.008638
2691.000000	0.008646
2690.000000	0.008660
2689.000000	0.008675
2688.000000	0.008680
2687.000000	0.008669
2686.000000	0.008649
2685.000000	0.008629
2684.000000	0.008617
2683.000000	0.008611
2682.000000	0.008609
2681.000000	0.008613
2680.000000	0.008622
2679.000000	0.008627
2678.000000	0.008620
2677.000000	0.008596
2676.000000	0.008565
2675.000000	0.008539
2674.000000	0.008527
2673.000000	0.008528
2672.000000	0.008536
2671.000000	0.008539
2670.000000	0.008534
2669.000000	0.008525
2668.000000	0.008521
2667.000000	0.008530
2666.000000	0.008545
2665.000000	0.008556
2664.000000	0.008557
2663.000000	0.008547
2662.000000	0.008532
2661.000000	0.008517
2660.000000	0.008507
2659.000000	0.008504
2658.000000	0.008503
2657.000000	0.008497
2656.000000	0.008480
2655.000000	0.008456
2654.000000	0.008432
2653.000000	0.008413
2652.000000	0.008396
2651.000000	0.008376
2650.000000	0.008351
2649.000000	0.008322
2648.000000	0.008295
2647.000000	0.008269
2646.000000	0.008244
2645.000000	0.008222
2644.000000	0.008209
2643.000000	0.008203
2642.000000	0.008197
2641.000000	0.008182
2640.000000	0.008155
2639.000000	0.008123
2638.000000	0.008089
2637.000000	0.008057
2636.000000	0.008033
2635.000000	0.008027
2634.000000	0.008037
2633.000000	0.008049
2632.000000	0.008048
2631.000000	0.008036
2630.000000	0.008019
2629.000000	0.007988
2628.000000	0.007938
2627.000000	0.007879
2626.000000	0.007836
2625.000000	0.007824
2624.000000	0.007829
2623.000000	0.007829
2622.000000	0.007818
2621.000000	0.007799
2620.000000	0.007776
2619.000000	0.007747
2618.000000	0.007715
2617.000000	0.007688
2616.000000	0.007669
2615.000000	0.007662
2614.000000	0.007670
2613.000000	0.007689
2612.000000	0.007704
2611.000000	0.007700
2610.000000	0.007678
2609.000000	0.007654
2608.000000	0.007638
2607.000000	0.007627
2606.000000	0.007610
2605.000000	0.007583
2604.000000	0.007550
2603.000000	0.007522
2602.000000	0.007510
2601.000000	0.007518
2600.000000	0.007539
2599.000000	0.007561
2598.000000	0.007573
2597.000000	0.007565
2596.000000	0.007529
2595.000000	0.007471
2594.000000	0.007416
2593.000000	0.007393
2592.000000	0.007411
2591.000000	0.007444
2590.000000	0.007459
2589.000000	0.007444
2588.000000	0.007412
2587.000000	0.007387
2586.000000	0.007382
2585.000000	0.007388
2584.000000	0.007386
2583.000000	0.007365
2582.000000	0.007333
2581.000000	0.007304
2580.000000	0.007285
2579.000000	0.007266
2578.000000	0.007237
2577.000000	0.007191
2576.000000	0.007136
2575.000000	0.007089
2574.000000	0.007071
2573.000000	0.007092
2572.000000	0.007141
2571.000000	0.007194
2570.000000	0.007231
2569.000000	0.007243
2568.000000	0.007234
2567.000000	0.007206
2566.000000	0.007166
2565.000000	0.007127
2564.000000	0.007103
2563.000000	0.007103
2562.000000	0.007127
2561.000000	0.007164
2560.000000	0.007192
2559.000000	0.007196
2558.000000	0.007177
2557.000000	0.007148
2556.000000	0.007120
2555.000000	0.007094
2554.000000	0.007074
2553.000000	0.007072
2552.000000	0.007094
2551.000000	0.007129
2550.000000	0.007157
2549.000000	0.007163
2548.000000	0.007149
2547.000000	0.007128
2546.000000	0.007107
2545.000000	0.007082
2544.000000	0.007047
2543.000000	0.007007
2542.000000	0.006979
2541.000000	0.006971
2540.000000	0.006981
2539.000000	0.006997
2538.000000	0.007013
2537.000000	0.007027
2536.000000	0.007034
2535.000000	0.007028
2534.000000	0.007010
2533.000000	0.006996
2532.000000	0.007000
2531.000000	0.007019
2530.000000	0.007042
2529.000000	0.007055
2528.000000	0.007049
2527.000000	0.007026
2526.000000	0.006996
2525.000000	0.006972
2524.000000	0.006967
2523.000000	0.006982
2522.000000	0.007010
2521.000000	0.007040
2520.000000	0.007060
2519.000000	0.007059
2518.000000	0.007032
2517.000000	0.006985
2516.000000	0.006936
2515.000000	0.006914
2514.000000	0.006931
2513.000000	0.006971
2512.000000	0.006998
2511.000000	0.006985
2510.000000	0.006939
2509.000000	0.006884
2508.000000	0.006841
2507.000000	0.006819
2506.000000	0.006819
2505.000000	0.006843
2504.000000	0.006883
2503.000000	0.006923
2502.000000	0.006953
2501.000000	0.006962
2500.000000	0.006946
2499.000000	0.006907
2498.000000	0.006862
2497.000000	0.006827
2496.000000	0.006808
2495.000000	0.006804
2494.000000	0.006812
2493.000000	0.006831
2492.000000	0.006853
2491.000000	0.006868
2490.000000	0.006876
2489.000000	0.006885
2488.000000	0.006888
2487.000000	0.006870
2486.000000	0.006828
2485.000000	0.006785
2484.000000	0.006771
2483.000000	0.006791
2482.000000	0.006822
2481.000000	0.006835
2480.000000	0.006818
2479.000000	0.006786
2478.000000	0.006764
2477.000000	0.006767
2476.000000	0.006781
2475.000000	0.006779
2474.000000	0.006750
2473.000000	0.006707
2472.000000	0.006671
2471.000000	0.006652
2470.000000	0.006654
2469.000000	0.006682
2468.000000	0.006729
2467.000000	0.006772
2466.000000	0.006794
2465.000000	0.006794
2464.000000	0.006791
2463.000000	0.006793
2462.000000	0.006792
2461.000000	0.006781
2460.000000	0.006761
2459.000000	0.006738
2458.000000	0.006712
2457.000000	0.006684
2456.000000	0.006664
2455.000000	0.006663
2454.000000	0.006681
2453.000000	0.006705
2452.000000	0.006725
2451.000000	0.006742
2450.000000	0.006757
2449.000000	0.006765
2448.000000	0.006760
2447.000000	0.006746
2446.000000	0.006732
2445.000000	0.006721
2444.000000	0.006716
2443.000000	0.006722
2442.000000	0.006741
2441.000000	0.006755
2440.000000	0.006748
2439.000000	0.006726
2438.000000	0.006714
2437.000000	0.006722
2436.000000	0.006734
2435.000000	0.006729
2434.000000	0.006707
2433.000000	0.006682
2432.000000	0.006664
2431.000000	0.006652
2430.000000	0.006638
2429.000000	0.006615
2428.000000	0.006585
2427.000000	0.006571
2426.000000	0.006599
2425.000000	0.006664
2424.000000	0.006722
2423.000000	0.006730
2422.000000	0.006684
2421.000000	0.006620
2420.000000	0.006575
2419.000000	0.006562
2418.000000	0.006579
2417.000000	0.006611
2416.000000	0.006640
2415.000000	0.006650
2414.000000	0.006642
2413.000000	0.006629
2412.000000	0.006618
2411.000000	0.006612
2410.000000	0.006608
2409.000000	0.006608
2408.000000	0.006603
2407.000000	0.006584
2406.000000	0.006551
2405.000000	0.006523
2404.000000	0.006514
2403.000000	0.006528
2402.000000	0.006555
2401.000000	0.006579
2400.000000	0.006586
2399.000000	0.006575
2398.000000	0.006557
2397.000000	0.006549
2396.000000	0.006550
2395.000000	0.006549
2394.000000	0.006544
2393.000000	0.006548
2392.000000	0.006570
2391.000000	0.006596
2390.000000	0.006602
2389.000000	0.006579
2388.000000	0.006541
2387.000000	0.006508
2386.000000	0.006495
2385.000000	0.006498
2384.000000	0.006506
2383.000000	0.006512
2382.000000	0.006512
2381.000000	0.006506
2380.000000	0.006492
2379.000000	0.006475
2378.000000	0.006469
2377.000000	0.006484
2376.000000	0.006509
2375.000000	0.006520
2374.000000	0.006504
2373.000000	0.006475
2372.000000	0.006452
2371.000000	0.006442
2370.000000	0.006440
2369.000000	0.006435
2368.000000	0.006425
2367.000000	0.006418
2366.000000	0.006421
2365.000000	0.006434
2364.000000	0.006447
2363.000000	0.006455
2362.000000	0.006462
2361.000000	0.006465
2360.000000	0.006468
2359.000000	0.006474
2358.000000	0.006475
2357.000000	0.006465
2356.000000	0.006440
2355.000000	0.006425
2354.000000	0.006440
2353.000000	0.006469
2352.000000	0.006475
2351.000000	0.006451
2350.000000	0.006430
2349.000000	0.006440
2348.000000	0.006482
2347.000000	0.006524
2346.000000	0.006525
2345.000000	0.006489
2344.000000	0.006453
2343.000000	0.006453
2342.000000	0.006481
2341.000000	0.006518
2340.000000	0.006560
2339.000000	0.006600
2338.000000	0.006618
2337.000000	0.006594
2336.000000	0.006538
2335.000000	0.006481
2334.000000	0.006456
2333.000000	0.006458
2332.000000	0.006475
2331.000000	0.006480
2330.000000	0.006477
2329.000000	0.006469
2328.000000	0.006491
2327.000000	0.006558
2326.000000	0.006663
2325.000000	0.006753
2324.000000	0.006777
2323.000000	0.006734
2322.000000	0.006676
2321.000000	0.006645
2320.000000	0.006632
2319.000000	0.006591
2318.000000	0.006516
2317.000000	0.006440
2316.000000	0.006413
2315.000000	0.006438
2314.000000	0.006499
2313.000000	0.006559
2312.000000	0.006598
2311.000000	0.006591
2310.000000	0.006540
2309.000000	0.006465
2308.000000	0.006406
2307.000000	0.006390
2306.000000	0.006418
2305.000000	0.006466
2304.000000	0.006507
2303.000000	0.006525
2302.000000	0.006527
2301.000000	0.006517
2300.000000	0.006497
2299.000000	0.006463
2298.000000	0.006433
2297.000000	0.006424
2296.000000	0.006438
2295.000000	0.006453
2294.000000	0.006457
2293.000000	0.006467
2292.000000	0.006507
2291.000000	0.006568
2290.000000	0.006615
2289.000000	0.006617
2288.000000	0.006581
2287.000000	0.006542
2286.000000	0.006525
2285.000000	0.006521
2284.000000	0.006511
2283.000000	0.006503
2282.000000	0.006519
2281.000000	0.006565
2280.000000	0.006608
2279.000000	0.006612
2278.000000	0.006574
2277.000000	0.006524
2276.000000	0.006485
2275.000000	0.006462
2274.000000	0.006464
2273.000000	0.006495
2272.000000	0.006540
2271.000000	0.006563
2270.000000	0.006543
2269.000000	0.006488
2268.000000	0.006412
2267.000000	0.006321
2266.000000	0.006219
2265.000000	0.006126
2264.000000	0.006075
2263.000000	0.006092
2262.000000	0.006175
2261.000000	0.006284
2260.000000	0.006356
2259.000000	0.006355
2258.000000	0.006307
2257.000000	0.006272
2256.000000	0.006276
2255.000000	0.006296
2254.000000	0.006295
2253.000000	0.006273
2252.000000	0.006258
2251.000000	0.006278
2250.000000	0.006337
2249.000000	0.006404
2248.000000	0.006427
2247.000000	0.006376
2246.000000	0.006283
2245.000000	0.006219
2244.000000	0.006239
2243.000000	0.006331
2242.000000	0.006430
2241.000000	0.006470
2240.000000	0.006421
2239.000000	0.006318
2238.000000	0.006245
2237.000000	0.006268
2236.000000	0.006369
2235.000000	0.006451
2234.000000	0.006426
2233.000000	0.006289
2232.000000	0.006112
2231.000000	0.005982
2230.000000	0.005953
2229.000000	0.006022
2228.000000	0.006141
2227.000000	0.006236
2226.000000	0.006245
2225.000000	0.006157
2224.000000	0.006012
2223.000000	0.005883
2222.000000	0.005825
2221.000000	0.005847
2220.000000	0.005916
2219.000000	0.006010
2218.000000	0.006125
2217.000000	0.006243
2216.000000	0.006311
2215.000000	0.006285
2214.000000	0.006192
2213.000000	0.006114
2212.000000	0.006112
2211.000000	0.006183
2210.000000	0.006280
2209.000000	0.006354
2208.000000	0.006366
2207.000000	0.006297
2206.000000	0.006154
2205.000000	0.005982
2204.000000	0.005846
2203.000000	0.005795
2202.000000	0.005836
2201.000000	0.005925
2200.000000	0.006004
2199.000000	0.006050
2198.000000	0.006092
2197.000000	0.006156
2196.000000	0.006217
2195.000000	0.006216
2194.000000	0.006129
2193.000000	0.006000
2192.000000	0.005925
2191.000000	0.005978
2190.000000	0.006138
2189.000000	0.006269
2188.000000	0.006226
2187.000000	0.005998
2186.000000	0.005722
2185.000000	0.005552
2184.000000	0.005513
2183.000000	0.005528
2182.000000	0.005528
2181.000000	0.005506
2180.000000	0.005496
2179.000000	0.005533
2178.000000	0.005624
2177.000000	0.005733
2176.000000	0.005801
2175.000000	0.005823
2174.000000	0.005848
2173.000000	0.005902
2172.000000	0.005954
2171.000000	0.005984
2170.000000	0.006019
2169.000000	0.006064
2168.000000	0.006058
2167.000000	0.005955
2166.000000	0.005800
2165.000000	0.005664
2164.000000	0.005542
2163.000000	0.005398
2162.000000	0.005263
2161.000000	0.005184
2160.000000	0.005119
2159.000000	0.004990
2158.000000	0.004833
2157.000000	0.004749
2156.000000	0.004750
2155.000000	0.004778
2154.000000	0.004830
2153.000000	0.004946
2152.000000	0.005115
2151.000000	0.005289
2150.000000	0.005452
2149.000000	0.005595
2148.000000	0.005661
2147.000000	0.005604
2146.000000	0.005475
2145.000000	0.005379
2144.000000	0.005348
2143.000000	0.005324
2142.000000	0.005273
2141.000000	0.005233
2140.000000	0.005244
2139.000000	0.005298
2138.000000	0.005367
2137.000000	0.005430
2136.000000	0.005463
2135.000000	0.005444
2134.000000	0.005388
2133.000000	0.005340
2132.000000	0.005337
2131.000000	0.005379
2130.000000	0.005452
2129.000000	0.005533
2128.000000	0.005594
2127.000000	0.005620
2126.000000	0.005629
2125.000000	0.005650
2124.000000	0.005687
2123.000000	0.005726
2122.000000	0.005769
2121.000000	0.005826
2120.000000	0.005878
2119.000000	0.005894
2118.000000	0.005871
2117.000000	0.005845
2116.000000	0.005860
2115.000000	0.005930
2114.000000	0.006036
2113.000000	0.006132
2112.000000	0.006172
2111.000000	0.006157
2110.000000	0.006138
2109.000000	0.006150
2108.000000	0.006153
2107.000000	0.006080
2106.000000	0.005938
2105.000000	0.005814
2104.000000	0.005787
2103.000000	0.005860
2102.000000	0.005990
2101.000000	0.006128
2100.000000	0.006227
2099.000000	0.006250
2098.000000	0.006199
2097.000000	0.006120
2096.000000	0.006056
2095.000000	0.006020
2094.000000	0.006000
2093.000000	0.005980
2092.000000	0.005948
2091.000000	0.005911
2090.000000	0.005902
2089.000000	0.005939
2088.000000	0.005986
2087.000000	0.005991
2086.000000	0.005942
2085.000000	0.005862
2084.000000	0.005765
2083.000000	0.005649
2082.000000	0.005547
2081.000000	0.005515
2080.000000	0.005565
2079.000000	0.005657
2078.000000	0.005749
2077.000000	0.005832
2076.000000	0.005886
2075.000000	0.005873
2074.000000	0.005785
2073.000000	0.005677
2072.000000	0.005618
2071.000000	0.005626
2070.000000	0.005680
2069.000000	0.005746
2068.000000	0.005781
2067.000000	0.005753
2066.000000	0.005674
2065.000000	0.005600
2064.000000	0.005562
2063.000000	0.005533
2062.000000	0.005479
2061.000000	0.005416
2060.000000	0.005389
2059.000000	0.005420
2058.000000	0.005500
2057.000000	0.005613
2056.000000	0.005744
2055.000000	0.005873
2054.000000	0.005974
2053.000000	0.006011
2052.000000	0.005946
2051.000000	0.005771
2050.000000	0.005536
2049.000000	0.005331
2048.000000	0.005215
2047.000000	0.005195
2046.000000	0.005262
2045.000000	0.005407
2044.000000	0.005581
2043.000000	0.005694
2042.000000	0.005693
2041.000000	0.005592
2040.000000	0.005428
2039.000000	0.005235
2038.000000	0.005055
2037.000000	0.004932
2036.000000	0.004861
2035.000000	0.004802
2034.000000	0.004750
2033.000000	0.004737
2032.000000	0.004767
2031.000000	0.004822
2030.000000	0.004924
2029.000000	0.005110
2028.000000	0.005331
2027.000000	0.005461
2026.000000	0.005426
2025.000000	0.005253
2024.000000	0.004992
2023.000000	0.004676
2022.000000	0.004382
2021.000000	0.004242
2020.000000	0.004324
2019.000000	0.004556
2018.000000	0.004784
2017.000000	0.004882
2016.000000	0.004818
2015.000000	0.004652
2014.000000	0.004497
2013.000000	0.004447
2012.000000	0.004522
2011.000000	0.004694
2010.000000	0.004938
2009.000000	0.005215
2008.000000	0.005421
2007.000000	0.005457
2006.000000	0.005316
2005.000000	0.005080
2004.000000	0.004828
2003.000000	0.004608
2002.000000	0.004470
2001.000000	0.004440
2000.000000	0.004477
1999.000000	0.004516
1998.000000	0.004560
1997.000000	0.004653
1996.000000	0.004774
1995.000000	0.004837
1994.000000	0.004808
1993.000000	0.004760
1992.000000	0.004776
1991.000000	0.004860
1990.000000	0.004958
1989.000000	0.005032
1988.000000	0.005082
1987.000000	0.005115
1986.000000	0.005137
1985.000000	0.005133
1984.000000	0.005072
1983.000000	0.004954
1982.000000	0.004838
1981.000000	0.004781
1980.000000	0.004768
1979.000000	0.004748
1978.000000	0.004735
1977.000000	0.004785
1976.000000	0.004879
1975.000000	0.004918
1974.000000	0.004838
1973.000000	0.004663
1972.000000	0.004463
1971.000000	0.004310
1970.000000	0.004264
1969.000000	0.004330
1968.000000	0.004426
1967.000000	0.004463
1966.000000	0.004455
1965.000000	0.004469
1964.000000	0.004525
1963.000000	0.004586
1962.000000	0.004635
1961.000000	0.004691
1960.000000	0.004761
1959.000000	0.004828
1958.000000	0.004887
1957.000000	0.004929
1956.000000	0.004937
1955.000000	0.004922
1954.000000	0.004934
1953.000000	0.004981
1952.000000	0.004986
1951.000000	0.004886
1950.000000	0.004746
1949.000000	0.004686
1948.000000	0.004727
1947.000000	0.004785
1946.000000	0.004810
1945.000000	0.004847
1944.000000	0.004940
1943.000000	0.005052
1942.000000	0.005097
1941.000000	0.005033
1940.000000	0.004888
1939.000000	0.004731
1938.000000	0.004632
1937.000000	0.004618
1936.000000	0.004658
1935.000000	0.004702
1934.000000	0.004740
1933.000000	0.004779
1932.000000	0.004808
1931.000000	0.004820
1930.000000	0.004842
1929.000000	0.004906
1928.000000	0.004993
1927.000000	0.005051
1926.000000	0.005068
1925.000000	0.005075
1924.000000	0.005083
1923.000000	0.005072
1922.000000	0.005039
1921.000000	0.005012
1920.000000	0.005013
1919.000000	0.005035
1918.000000	0.005063
1917.000000	0.005079
1916.000000	0.005067
1915.000000	0.005034
1914.000000	0.005015
1913.000000	0.005041
1912.000000	0.005092
1911.000000	0.005125
1910.000000	0.005127
1909.000000	0.005111
1908.000000	0.005075
1907.000000	0.005015
1906.000000	0.004958
1905.000000	0.004938
1904.000000	0.004939
1903.000000	0.004911
1902.000000	0.004851
1901.000000	0.004806
1900.000000	0.004813
1899.000000	0.004861
1898.000000	0.004932
1897.000000	0.005014
1896.000000	0.005081
1895.000000	0.005099
1894.000000	0.005071
1893.000000	0.005033
1892.000000	0.005009
1891.000000	0.004991
1890.000000	0.004977
1889.000000	0.004976
1888.000000	0.004981
1887.000000	0.004970
1886.000000	0.004934
1885.000000	0.004887
1884.000000	0.004841
1883.000000	0.004803
1882.000000	0.004791
1881.000000	0.004817
1880.000000	0.004858
1879.000000	0.004875
1878.000000	0.004860
1877.000000	0.004846
1876.000000	0.004855
1875.000000	0.004875
1874.000000	0.004891
1873.000000	0.004898
1872.000000	0.004890
1871.000000	0.004860
1870.000000	0.004823
1869.000000	0.004806
1868.000000	0.004805
1867.000000	0.004794
1866.000000	0.004785
1865.000000	0.004809
1864.000000	0.004855
1863.000000	0.004879
1862.000000	0.004867
1861.000000	0.004848
1860.000000	0.004844
1859.000000	0.004839
1858.000000	0.004819
1857.000000	0.004800
1856.000000	0.004802
1855.000000	0.004826
1854.000000	0.004858
1853.000000	0.004881
1852.000000	0.004874
1851.000000	0.004830
1850.000000	0.004768
1849.000000	0.004727
1848.000000	0.004718
1847.000000	0.004726
1846.000000	0.004744
1845.000000	0.004788
1844.000000	0.004865
1843.000000	0.004940
1842.000000	0.004983
1841.000000	0.004988
1840.000000	0.004953
1839.000000	0.004877
1838.000000	0.004792
1837.000000	0.004743
1836.000000	0.004731
1835.000000	0.004723
1834.000000	0.004704
1833.000000	0.004690
1832.000000	0.004696
1831.000000	0.004708
1830.000000	0.004718
1829.000000	0.004731
1828.000000	0.004747
1827.000000	0.004767
1826.000000	0.004792
1825.000000	0.004823
1824.000000	0.004845
1823.000000	0.004841
1822.000000	0.004825
1821.000000	0.004820
1820.000000	0.004816
1819.000000	0.004783
1818.000000	0.004728
1817.000000	0.004697
1816.000000	0.004715
1815.000000	0.004759
1814.000000	0.004797
1813.000000	0.004820
1812.000000	0.004827
1811.000000	0.004808
1810.000000	0.004769
1809.000000	0.004738
1808.000000	0.004735
1807.000000	0.004750
1806.000000	0.004766
1805.000000	0.004768
1804.000000	0.004750
1803.000000	0.004717
1802.000000	0.004694
1801.000000	0.004710
1800.000000	0.004754
1799.000000	0.004791
1798.000000	0.004808
1797.000000	0.004818
1796.000000	0.004825
1795.000000	0.004813
1794.000000	0.004775
1793.000000	0.004728
1792.000000	0.004694
1791.000000	0.004667
1790.000000	0.004644
1789.000000	0.004639
1788.000000	0.004656
1787.000000	0.004674
1786.000000	0.004681
1785.000000	0.004681
1784.000000	0.004667
1783.000000	0.004629
1782.000000	0.004575
1781.000000	0.004538
1780.000000	0.004536
1779.000000	0.004549
1778.000000	0.004555
1777.000000	0.004550
1776.000000	0.004538
1775.000000	0.004517
1774.000000	0.004488
1773.000000	0.004463
1772.000000	0.004452
1771.000000	0.004438
1770.000000	0.004416
1769.000000	0.004413
1768.000000	0.004436
1767.000000	0.004454
1766.000000	0.004443
1765.000000	0.004418
1764.000000	0.004398
1763.000000	0.004385
1762.000000	0.004380
1761.000000	0.004387
1760.000000	0.004396
1759.000000	0.004393
1758.000000	0.004381
1757.000000	0.004375
1756.000000	0.004374
1755.000000	0.004363
1754.000000	0.004345
1753.000000	0.004339
1752.000000	0.004348
1751.000000	0.004348
1750.000000	0.004330
1749.000000	0.004319
1748.000000	0.004334
1747.000000	0.004362
1746.000000	0.004373
1745.000000	0.004364
1744.000000	0.004350
1743.000000	0.004342
1742.000000	0.004345
1741.000000	0.004355
1740.000000	0.004352
1739.000000	0.004320
1738.000000	0.004278
1737.000000	0.004261
1736.000000	0.004273
1735.000000	0.004287
1734.000000	0.004319
1733.000000	0.004367
1732.000000	0.004376
1731.000000	0.004346
1730.000000	0.004325
1729.000000	0.004352
1728.000000	0.004405
1727.000000	0.004434
1726.000000	0.004416
1725.000000	0.004375
1724.000000	0.004332
1723.000000	0.004283
1722.000000	0.004231
1721.000000	0.004204
1720.000000	0.004205
1719.000000	0.004207
1718.000000	0.004222
1717.000000	0.004303
1716.000000	0.004431
1715.000000	0.004543
1714.000000	0.004652
1713.000000	0.004799
1712.000000	0.004980
1711.000000	0.005166
1710.000000	0.005363
1709.000000	0.005609
1708.000000	0.005912
1707.000000	0.006249
1706.000000	0.006620
1705.000000	0.007034
1704.000000	0.007451
1703.000000	0.007847
1702.000000	0.008275
1701.000000	0.008831
1700.000000	0.009483
1699.000000	0.010013
1698.000000	0.010407
1697.000000	0.010856
1696.000000	0.011433
1695.000000	0.011991
1694.000000	0.012410
1693.000000	0.012772
1692.000000	0.013175
1691.000000	0.013627
1690.000000	0.014104
1689.000000	0.014599
1688.000000	0.015102
1687.000000	0.015588
1686.000000	0.016081
1685.000000	0.016690
1684.000000	0.017467
1683.000000	0.018208
1682.000000	0.018799
1681.000000	0.019368
1680.000000	0.020000
1679.000000	0.020667
1678.000000	0.021346
1677.000000	0.022101
1676.000000	0.022980
1675.000000	0.023897
1674.000000	0.024707
1673.000000	0.025415
1672.000000	0.026132
1671.000000	0.026931
1670.000000	0.027838
1669.000000	0.028814
1668.000000	0.029747
1667.000000	0.030550
1666.000000	0.031256
1665.000000	0.031971
1664.000000	0.032759
1663.000000	0.033579
1662.000000	0.034336
1661.000000	0.034996
1660.000000	0.035598
1659.000000	0.036161
1658.000000	0.036684
1657.000000	0.037180
1656.000000	0.037672
1655.000000	0.038161
1654.000000	0.038678
1653.000000	0.039280
1652.000000	0.039747
1651.000000	0.039914
1650.000000	0.039958
1649.000000	0.040054
1648.000000	0.040276
1647.000000	0.040588
1646.000000	0.040894
1645.000000	0.041136
1644.000000	0.041330
1643.000000	0.041502
1642.000000	0.041674
1641.000000	0.041863
1640.000000	0.042070
1639.000000	0.042273
1638.000000	0.042460
1637.000000	0.042652
1636.000000	0.042869
1635.000000	0.043057
1634.000000	0.043140
1633.000000	0.043145
1632.000000	0.043125
1631.000000	0.043074
1630.000000	0.042954
1629.000000	0.042745
1628.000000	0.042455
1627.000000	0.042093
1626.000000	0.041658
1625.000000	0.041129
1624.000000	0.040495
1623.000000	0.039789
1622.000000	0.039086
1621.000000	0.038434
1620.000000	0.037821
1619.000000	0.037181
1618.000000	0.036420
1617.000000	0.035502
1616.000000	0.034537
1615.000000	0.033659
1614.000000	0.032884
1613.000000	0.032150
1612.000000	0.031403
1611.000000	0.030643
1610.000000	0.029906
1609.000000	0.029203
1608.000000	0.028527
1607.000000	0.027888
1606.000000	0.027298
1605.000000	0.026744
1604.000000	0.026212
1603.000000	0.025720
1602.000000	0.025283
1601.000000	0.024884
1600.000000	0.024504
1599.000000	0.024158
1598.000000	0.023867
1597.000000	0.023617
1596.000000	0.023386
1595.000000	0.023190
1594.000000	0.023049
1593.000000	0.022943
1592.000000	0.022844
1591.000000	0.022763
1590.000000	0.022736
1589.000000	0.022765
1588.000000	0.022827
1587.000000	0.022918
1586.000000	0.023049
1585.000000	0.023204
1584.000000	0.023369
1583.000000	0.023563
1582.000000	0.023807
1581.000000	0.024081
1580.000000	0.024356
1579.000000	0.024653
1578.000000	0.025017
1577.000000	0.025454
1576.000000	0.025900
1575.000000	0.026272
1574.000000	0.026570
1573.000000	0.026867
1572.000000	0.027229
1571.000000	0.027692
1570.000000	0.028250
1569.000000	0.028816
1568.000000	0.029303
1567.000000	0.029753
1566.000000	0.030257
1565.000000	0.030840
1564.000000	0.031443
1563.000000	0.032011
1562.000000	0.032547
1561.000000	0.033063
1560.000000	0.033597
1559.000000	0.034272
1558.000000	0.034983
1557.000000	0.035497
1556.000000	0.035900
1555.000000	0.036307
1554.000000	0.036717
1553.000000	0.037070
1552.000000	0.037355
1551.000000	0.037610
1550.000000	0.037866
1549.000000	0.038105
1548.000000	0.038302
1547.000000	0.038454
1546.000000	0.038580
1545.000000	0.038695
1544.000000	0.038802
1543.000000	0.038884
1542.000000	0.038920
1541.000000	0.038911
1540.000000	0.038887
1539.000000	0.038835
1538.000000	0.038714
1537.000000	0.038551
1536.000000	0.038375
1535.000000	0.038162
1534.000000	0.037882
1533.000000	0.037571
1532.000000	0.037275
1531.000000	0.036988
1530.000000	0.036694
1529.000000	0.036397
1528.000000	0.036098
1527.000000	0.035781
1526.000000	0.035445
1525.000000	0.035124
1524.000000	0.034844
1523.000000	0.034568
1522.000000	0.034243
1521.000000	0.033880
1520.000000	0.033519
1519.000000	0.033154
1518.000000	0.032771
1517.000000	0.032385
1516.000000	0.032027
1515.000000	0.031690
1514.000000	0.031337
1513.000000	0.030948
1512.000000	0.030525
1511.000000	0.030098
1510.000000	0.029694
1509.000000	0.029302
1508.000000	0.028849
1507.000000	0.028279
1506.000000	0.027677
1505.000000	0.027151
1504.000000	0.026711
1503.000000	0.026309
1502.000000	0.025901
1501.000000	0.025477
1500.000000	0.025059
1499.000000	0.024656
1498.000000	0.024245
1497.000000	0.023810
1496.000000	0.023359
1495.000000	0.022908
1494.000000	0.022484
1493.000000	0.022119
1492.000000	0.021797
1491.000000	0.021464
1490.000000	0.021105
1489.000000	0.020785
1488.000000	0.020548
1487.000000	0.020366
1486.000000	0.020217
1485.000000	0.020108
1484.000000	0.020044
1483.000000	0.020007
1482.000000	0.019997
1481.000000	0.020041
1480.000000	0.020151
1479.000000	0.020292
1478.000000	0.020440
1477.000000	0.020607
1476.000000	0.020812
1475.000000	0.021052
1474.000000	0.021330
1473.000000	0.021672
1472.000000	0.022051
1471.000000	0.022383
1470.000000	0.022653
1469.000000	0.022917
1468.000000	0.023205
1467.000000	0.023509
1466.000000	0.023834
1465.000000	0.024202
1464.000000	0.024587
1463.000000	0.024922
1462.000000	0.025198
1461.000000	0.025465
1460.000000	0.025776
1459.000000	0.026158
1458.000000	0.026640
1457.000000	0.027208
1456.000000	0.027696
1455.000000	0.027983
1454.000000	0.028158
1453.000000	0.028323
1452.000000	0.028484
1451.000000	0.028595
1450.000000	0.028639
1449.000000	0.028641
1448.000000	0.028616
1447.000000	0.028566
1446.000000	0.028490
1445.000000	0.028398
1444.000000	0.028290
1443.000000	0.028160
1442.000000	0.028007
1441.000000	0.027845
1440.000000	0.027683
1439.000000	0.027510
1438.000000	0.027285
1437.000000	0.026985
1436.000000	0.026651
1435.000000	0.026333
1434.000000	0.026051
1433.000000	0.025800
1432.000000	0.025560
1431.000000	0.025319
1430.000000	0.025088
1429.000000	0.024902
1428.000000	0.024779
1427.000000	0.024702
1426.000000	0.024637
1425.000000	0.024569
1424.000000	0.024514
1423.000000	0.024485
1422.000000	0.024474
1421.000000	0.024453
1420.000000	0.024404
1419.000000	0.024344
1418.000000	0.024295
1417.000000	0.024260
1416.000000	0.024240
1415.000000	0.024235
1414.000000	0.024234
1413.000000	0.024243
1412.000000	0.024285
1411.000000	0.024371
1410.000000	0.024487
1409.000000	0.024615
1408.000000	0.024743
1407.000000	0.024870
1406.000000	0.025000
1405.000000	0.025136
1404.000000	0.025272
1403.000000	0.025387
1402.000000	0.025465
1401.000000	0.025505
1400.000000	0.025509
1399.000000	0.025479
1398.000000	0.025426
1397.000000	0.025362
1396.000000	0.025285
1395.000000	0.025185
1394.000000	0.025061
1393.000000	0.024916
1392.000000	0.024761
1391.000000	0.024602
1390.000000	0.024443
1389.000000	0.024281
1388.000000	0.024109
1387.000000	0.023925
1386.000000	0.023733
1385.000000	0.023540
1384.000000	0.023350
1383.000000	0.023165
1382.000000	0.022983
1381.000000	0.022803
1380.000000	0.022613
1379.000000	0.022407
1378.000000	0.022189
1377.000000	0.021966
1376.000000	0.021734
1375.000000	0.021482
1374.000000	0.021216
1373.000000	0.020953
1372.000000	0.020697
1371.000000	0.020439
1370.000000	0.020163
1369.000000	0.019858
1368.000000	0.019533
1367.000000	0.019210
1366.000000	0.018908
1365.000000	0.018620
1364.000000	0.018334
1363.000000	0.018056
1362.000000	0.017812
1361.000000	0.017616
1360.000000	0.017463
1359.000000	0.017346
1358.000000	0.017265
1357.000000	0.017226
1356.000000	0.017228
1355.000000	0.017270
1354.000000	0.017346
1353.000000	0.017456
1352.000000	0.017599
1351.000000	0.017775
1350.000000	0.017984
1349.000000	0.018216
1348.000000	0.018451
1347.000000	0.018674
1346.000000	0.018886
1345.000000	0.019104
1344.000000	0.019334
1343.000000	0.019571
1342.000000	0.019800
1341.000000	0.020015
1340.000000	0.020218
1339.000000	0.020401
1338.000000	0.020550
1337.000000	0.020647
1336.000000	0.020682
1335.000000	0.020656
1334.000000	0.020583
1333.000000	0.020473
1332.000000	0.020328
1331.000000	0.020147
1330.000000	0.019939
1329.000000	0.019731
1328.000000	0.019544
1327.000000	0.019383
1326.000000	0.019243
1325.000000	0.019117
1324.000000	0.019009
1323.000000	0.018927
1322.000000	0.018872
1321.000000	0.018838
1320.000000	0.018808
1319.000000	0.018770
1318.000000	0.018721
1317.000000	0.018664
1316.000000	0.018593
1315.000000	0.018496
1314.000000	0.018370
1313.000000	0.018236
1312.000000	0.018113
1311.000000	0.018001
1310.000000	0.017879
1309.000000	0.017736
1308.000000	0.017587
1307.000000	0.017458
1306.000000	0.017361
1305.000000	0.017284
1304.000000	0.017205
1303.000000	0.017109
1302.000000	0.017000
1301.000000	0.016891
1300.000000	0.016794
1299.000000	0.016712
1298.000000	0.016648
1297.000000	0.016607
1296.000000	0.016597
1295.000000	0.016624
1294.000000	0.016685
1293.000000	0.016773
1292.000000	0.016883
1291.000000	0.017007
1290.000000	0.017146
1289.000000	0.017302
1288.000000	0.017470
1287.000000	0.017635
1286.000000	0.017788
1285.000000	0.017932
1284.000000	0.018077
1283.000000	0.018217
1282.000000	0.018330
1281.000000	0.018398
1280.000000	0.018421
1279.000000	0.018412
1278.000000	0.018385
1277.000000	0.018348
1276.000000	0.018302
1275.000000	0.018252
1274.000000	0.018203
1273.000000	0.018159
1272.000000	0.018128
1271.000000	0.018117
1270.000000	0.018134
1269.000000	0.018177
1268.000000	0.018230
1267.000000	0.018279
1266.000000	0.018328
1265.000000	0.018399
1264.000000	0.018511
1263.000000	0.018656
1262.000000	0.018813
1261.000000	0.018959
1260.000000	0.019088
1259.000000	0.019215
1258.000000	0.019362
1257.000000	0.019548
1256.000000	0.019772
1255.000000	0.020015
1254.000000	0.020260
1253.000000	0.020502
1252.000000	0.020747
1251.000000	0.020994
1250.000000	0.021245
1249.000000	0.021506
1248.000000	0.021785
1247.000000	0.022086
1246.000000	0.022400
1245.000000	0.022716
1244.000000	0.023017
1243.000000	0.023297
1242.000000	0.023560
1241.000000	0.023807
1240.000000	0.024023
1239.000000	0.024185
1238.000000	0.024293
1237.000000	0.024368
1236.000000	0.024422
1235.000000	0.024433
1234.000000	0.024376
1233.000000	0.024249
1232.000000	0.024070
1231.000000	0.023842
1230.000000	0.023561
1229.000000	0.023220
1228.000000	0.022825
1227.000000	0.022387
1226.000000	0.021915
1225.000000	0.021423
1224.000000	0.020923
1223.000000	0.020422
1222.000000	0.019923
1221.000000	0.019427
1220.000000	0.018947
1219.000000	0.018505
1218.000000	0.018135
1217.000000	0.017870
1216.000000	0.017723
1215.000000	0.017670
1214.000000	0.017671
1213.000000	0.017689
1212.000000	0.017712
1211.000000	0.017748
1210.000000	0.017813
1209.000000	0.017921
1208.000000	0.018067
1207.000000	0.018230
1206.000000	0.018383
1205.000000	0.018508
1204.000000	0.018597
1203.000000	0.018640
1202.000000	0.018626
1201.000000	0.018548
1200.000000	0.018409
1199.000000	0.018216
1198.000000	0.017976
1197.000000	0.017703
1196.000000	0.017409
1195.000000	0.017108
1194.000000	0.016810
1193.000000	0.016524
1192.000000	0.016248
1191.000000	0.015968
1190.000000	0.015676
1189.000000	0.015384
1188.000000	0.015111
1187.000000	0.014867
1186.000000	0.014645
1185.000000	0.014432
1184.000000	0.014229
1183.000000	0.014046
1182.000000	0.013891
1181.000000	0.013767
1180.000000	0.013672
1179.000000	0.013601
1178.000000	0.013546
1177.000000	0.013500
1176.000000	0.013462
1175.000000	0.013434
1174.000000	0.013417
1173.000000	0.013410
1172.000000	0.013407
1171.000000	0.013396
1170.000000	0.013376
1169.000000	0.013361
1168.000000	0.013369
1167.000000	0.013403
1166.000000	0.013446
1165.000000	0.013484
1164.000000	0.013518
1163.000000	0.013555
1162.000000	0.013588
1161.000000	0.013601
1160.000000	0.013579
1159.000000	0.013514
1158.000000	0.013400
1157.000000	0.013249
1156.000000	0.013088
1155.000000	0.012934
1154.000000	0.012784
1153.000000	0.012620
1152.000000	0.012440
1151.000000	0.012261
1150.000000	0.012091
1149.000000	0.011920
1148.000000	0.011740
1147.000000	0.011558
1146.000000	0.011393
1145.000000	0.011255
1144.000000	0.011137
1143.000000	0.011029
1142.000000	0.010924
1141.000000	0.010819
1140.000000	0.010711
1139.000000	0.010606
1138.000000	0.010512
1137.000000	0.010438
1136.000000	0.010390
1135.000000	0.010364
1134.000000	0.010353
1133.000000	0.010341
1132.000000	0.010318
1131.000000	0.010280
1130.000000	0.010237
1129.000000	0.010203
1128.000000	0.010176
1127.000000	0.010150
1126.000000	0.010123
1125.000000	0.010107
1124.000000	0.010118
1123.000000	0.010152
1122.000000	0.010188
1121.000000	0.010200
1120.000000	0.010188
1119.000000	0.010170
1118.000000	0.010172
1117.000000	0.010206
1116.000000	0.010264
1115.000000	0.010324
1114.000000	0.010365
1113.000000	0.010387
1112.000000	0.010410
1111.000000	0.010457
1110.000000	0.010532
1109.000000	0.010616
1108.000000	0.010682
1107.000000	0.010718
1106.000000	0.010734
1105.000000	0.010752
1104.000000	0.010788
1103.000000	0.010845
1102.000000	0.010919
1101.000000	0.010998
1100.000000	0.011066
1099.000000	0.011115
1098.000000	0.011150
1097.000000	0.011188
1096.000000	0.011242
1095.000000	0.011315
1094.000000	0.011413
1093.000000	0.011550
1092.000000	0.011740
1091.000000	0.011979
1090.000000	0.012251
1089.000000	0.012538
1088.000000	0.012831
1087.000000	0.013116
1086.000000	0.013386
1085.000000	0.013632
1084.000000	0.013845
1083.000000	0.014010
1082.000000	0.014113
1081.000000	0.014162
1080.000000	0.014167
1079.000000	0.014128
1078.000000	0.014035
1077.000000	0.013885
1076.000000	0.013691
1075.000000	0.013484
1074.000000	0.013292
1073.000000	0.013131
1072.000000	0.012992
1071.000000	0.012860
1070.000000	0.012735
1069.000000	0.012639
1068.000000	0.012586
1067.000000	0.012565
1066.000000	0.012554
1065.000000	0.012552
1064.000000	0.012580
1063.000000	0.012637
1062.000000	0.012690
1061.000000	0.012704
1060.000000	0.012675
1059.000000	0.012627
1058.000000	0.012581
1057.000000	0.012529
1056.000000	0.012460
1055.000000	0.012373
1054.000000	0.012285
1053.000000	0.012214
1052.000000	0.012155
1051.000000	0.012083
1050.000000	0.011988
1049.000000	0.011892
1048.000000	0.011824
1047.000000	0.011791
1046.000000	0.011771
1045.000000	0.011744
1044.000000	0.011708
1043.000000	0.011681
1042.000000	0.011683
1041.000000	0.011727
1040.000000	0.011818
1039.000000	0.011949
1038.000000	0.012110
1037.000000	0.012295
1036.000000	0.012492
1035.000000	0.012685
1034.000000	0.012849
1033.000000	0.012972
1032.000000	0.013052
1031.000000	0.013094
1030.000000	0.013096
1029.000000	0.013058
1028.000000	0.012975
1027.000000	0.012850
1026.000000	0.012692
1025.000000	0.012520
1024.000000	0.012351
1023.000000	0.012194
1022.000000	0.012049
1021.000000	0.011916
1020.000000	0.011794
1019.000000	0.011680
1018.000000	0.011573
1017.000000	0.011479
1016.000000	0.011398
1015.000000	0.011315
1014.000000	0.011214
1013.000000	0.011092
1012.000000	0.010952
1011.000000	0.010789
1010.000000	0.010602
1009.000000	0.010411
1008.000000	0.010242
1007.000000	0.010095
1006.000000	0.009941
1005.000000	0.009759
1004.000000	0.009572
1003.000000	0.009413
1002.000000	0.009288
1001.000000	0.009176
1000.000000	0.009053
999.000000	0.008918
998.000000	0.008775
997.000000	0.008625
996.000000	0.008462
995.000000	0.008291
994.000000	0.008128
993.000000	0.007993
992.000000	0.007884
991.000000	0.007784
990.000000	0.007681
989.000000	0.007589
988.000000	0.007529
987.000000	0.007487
986.000000	0.007427
985.000000	0.007339
984.000000	0.007262
983.000000	0.007238
982.000000	0.007272
981.000000	0.007332
980.000000	0.007392
979.000000	0.007442
978.000000	0.007478
977.000000	0.007496
976.000000	0.007505
975.000000	0.007519
974.000000	0.007538
973.000000	0.007541
972.000000	0.007509
971.000000	0.007445
970.000000	0.007366
969.000000	0.007286
968.000000	0.007204
967.000000	0.007117
966.000000	0.007021
965.000000	0.006925
964.000000	0.006839
963.000000	0.006767
962.000000	0.006701
961.000000	0.006634
960.000000	0.006570
959.000000	0.006505
958.000000	0.006427
957.000000	0.006325
956.000000	0.006216
955.000000	0.006131
954.000000	0.006078
953.000000	0.006042
952.000000	0.006004
951.000000	0.005965
950.000000	0.005937
949.000000	0.005932
948.000000	0.005951
947.000000	0.005988
946.000000	0.006030
945.000000	0.006061
944.000000	0.006074
943.000000	0.006070
942.000000	0.006059
941.000000	0.006048
940.000000	0.006041
939.000000	0.006032
938.000000	0.006017
937.000000	0.005993
936.000000	0.005968
935.000000	0.005944
934.000000	0.005917
933.000000	0.005877
932.000000	0.005824
931.000000	0.005761
930.000000	0.005692
929.000000	0.005619
928.000000	0.005558
927.000000	0.005525
926.000000	0.005521
925.000000	0.005530
924.000000	0.005534
923.000000	0.005523
922.000000	0.005493
921.000000	0.005447
920.000000	0.005396
919.000000	0.005351
918.000000	0.005305
917.000000	0.005244
916.000000	0.005166
915.000000	0.005084
914.000000	0.005012
913.000000	0.004938
912.000000	0.004846
911.000000	0.004734
910.000000	0.004621
909.000000	0.004538
908.000000	0.004506
907.000000	0.004527
906.000000	0.004569
905.000000	0.004584
904.000000	0.004548
903.000000	0.004477
902.000000	0.004408
901.000000	0.004362
900.000000	0.004339
899.000000	0.004331
898.000000	0.004334
897.000000	0.004342
896.000000	0.004347
895.000000	0.004346
894.000000	0.004343
893.000000	0.004332
892.000000	0.004298
891.000000	0.004235
890.000000	0.004165
889.000000	0.004126
888.000000	0.004151
887.000000	0.004243
886.000000	0.004390
885.000000	0.004566
884.000000	0.004746
883.000000	0.004915
882.000000	0.005088
881.000000	0.005309
880.000000	0.005632
879.000000	0.006064
878.000000	0.006545
877.000000	0.006968
876.000000	0.007237
875.000000	0.007319
874.000000	0.007240
873.000000	0.007050
872.000000	0.006786
871.000000	0.006474
870.000000	0.006142
869.000000	0.005826
868.000000	0.005557
867.000000	0.005347
866.000000	0.005188
865.000000	0.005064
864.000000	0.004962
863.000000	0.004876
862.000000	0.004808
861.000000	0.004757
860.000000	0.004726
859.000000	0.004722
858.000000	0.004760
857.000000	0.004841
856.000000	0.004934
855.000000	0.005000
854.000000	0.005022
853.000000	0.005020
852.000000	0.005023
851.000000	0.005045
850.000000	0.005076
849.000000	0.005097
848.000000	0.005090
847.000000	0.005039
846.000000	0.004941
845.000000	0.004806
844.000000	0.004659
843.000000	0.004531
842.000000	0.004446
841.000000	0.004412
840.000000	0.004418
839.000000	0.004442
838.000000	0.004458
837.000000	0.004455
836.000000	0.004434
835.000000	0.004403
834.000000	0.004368
833.000000	0.004328
832.000000	0.004277
831.000000	0.004225
830.000000	0.004190
829.000000	0.004190
828.000000	0.004217
827.000000	0.004249
826.000000	0.004268
825.000000	0.004273
824.000000	0.004266
823.000000	0.004263
822.000000	0.004282
821.000000	0.004326
820.000000	0.004369
819.000000	0.004384
818.000000	0.004389
817.000000	0.004422
816.000000	0.004485
815.000000	0.004531
814.000000	0.004519
813.000000	0.004465
812.000000	0.004413
811.000000	0.004378
810.000000	0.004347
809.000000	0.004306
808.000000	0.004262
807.000000	0.004229
806.000000	0.004235
805.000000	0.004304
804.000000	0.004419
803.000000	0.004515
802.000000	0.004531
801.000000	0.004474
800.000000	0.004411
799.000000	0.004403
798.000000	0.004464
797.000000	0.004573
796.000000	0.004694
795.000000	0.004795
794.000000	0.004852
793.000000	0.004871
792.000000	0.004873
791.000000	0.004869
790.000000	0.004863
789.000000	0.004871
788.000000	0.004905
787.000000	0.004946
786.000000	0.004957
785.000000	0.004926
784.000000	0.004886
783.000000	0.004880
782.000000	0.004918
781.000000	0.004981
780.000000	0.005045
779.000000	0.005095
778.000000	0.005130
777.000000	0.005157
776.000000	0.005191
775.000000	0.005243
774.000000	0.005318
773.000000	0.005413
772.000000	0.005509
771.000000	0.005577
770.000000	0.005594
769.000000	0.005571
768.000000	0.005545
767.000000	0.005539
766.000000	0.005552
765.000000	0.005573
764.000000	0.005597
763.000000	0.005622
762.000000	0.005636
761.000000	0.005635
760.000000	0.005630
759.000000	0.005637
758.000000	0.005659
757.000000	0.005695
756.000000	0.005752
755.000000	0.005835
754.000000	0.005921
753.000000	0.005969
752.000000	0.005950
751.000000	0.005886
750.000000	0.005841
749.000000	0.005868
748.000000	0.005971
747.000000	0.006104
746.000000	0.006215
745.000000	0.006289
744.000000	0.006345
743.000000	0.006406
742.000000	0.006479
741.000000	0.006563
740.000000	0.006656
739.000000	0.006753
738.000000	0.006835
737.000000	0.006892
736.000000	0.006940
735.000000	0.007007
734.000000	0.007111
733.000000	0.007249
732.000000	0.007407
731.000000	0.007575
730.000000	0.007734
729.000000	0.007857
728.000000	0.007933
727.000000	0.007978
726.000000	0.008022
725.000000	0.008084
724.000000	0.008169
723.000000	0.008291
722.000000	0.008463
721.000000	0.008668
720.000000	0.008847
719.000000	0.008948
718.000000	0.008979
717.000000	0.008992
716.000000	0.009038
715.000000	0.009138
714.000000	0.009287
713.000000	0.009460
712.000000	0.009610
711.000000	0.009704
710.000000	0.009758
709.000000	0.009819
708.000000	0.009915
707.000000	0.010016
706.000000	0.010082
705.000000	0.010104
704.000000	0.010110
703.000000	0.010120
702.000000	0.010129
701.000000	0.010121
700.000000	0.010101
699.000000	0.010099
698.000000	0.010139
697.000000	0.010215
696.000000	0.010286
695.000000	0.010332
694.000000	0.010377
693.000000	0.010453
692.000000	0.010552
691.000000	0.010634
690.000000	0.010692
689.000000	0.010752
688.000000	0.010829
687.000000	0.010891
686.000000	0.010911
685.000000	0.010912
684.000000	0.010950
683.000000	0.011044
682.000000	0.011155
681.000000	0.011227
680.000000	0.011261
679.000000	0.011304
678.000000	0.011399
677.000000	0.011532
676.000000	0.011652
675.000000	0.011728
674.000000	0.011785
673.000000	0.011850
672.000000	0.011906
671.000000	0.011914
670.000000	0.011876
669.000000	0.011858
668.000000	0.011963
667.000000	0.012186
666.000000	0.012348
665.000000	0.012460
664.000000	0.012578
663.000000	0.012672
662.000000	0.012726
661.000000	0.012784
660.000000	0.012878
659.000000	0.012955
658.000000	0.012950
657.000000	0.012888
656.000000	0.012842
655.000000	0.012849
654.000000	0.012912
653.000000	0.013024
652.000000	0.013145
651.000000	0.013203
650.000000	0.013173
649.000000	0.013121
648.000000	0.013115
647.000000	0.013156
646.000000	0.013212
645.000000	0.013279
644.000000	0.013343
643.000000	0.013354
642.000000	0.013289
641.000000	0.013203
640.000000	0.013164
639.000000	0.013179
638.000000	0.013208
637.000000	0.013225
636.000000	0.013229
635.000000	0.013218
634.000000	0.013199
633.000000	0.013195
632.000000	0.013209
631.000000	0.013219
630.000000	0.013219
629.000000	0.013240
628.000000	0.013305
627.000000	0.013384
626.000000	0.013441
625.000000	0.013466
624.000000	0.013462
623.000000	0.013421
622.000000	0.013371
621.000000	0.013373
620.000000	0.013447
619.000000	0.013526
618.000000	0.013547
617.000000	0.013520
616.000000	0.013484
615.000000	0.013437
614.000000	0.013378
613.000000	0.013369
612.000000	0.013468
611.000000	0.013632
610.000000	0.013749
609.000000	0.013760
608.000000	0.013698
607.000000	0.013616
606.000000	0.013535
605.000000	0.013468
604.000000	0.013419
603.000000	0.013369
602.000000	0.013293
601.000000	0.013215
600.000000	0.013199
599.000000	0.013279
598.000000	0.013427
597.000000	0.013569
596.000000	0.013628
595.000000	0.013567
594.000000	0.013432
593.000000	0.013344
592.000000	0.013392
591.000000	0.013532
590.000000	0.013629
589.000000	0.013598
588.000000	0.013474
587.000000	0.013344
586.000000	0.013275
585.000000	0.013283
584.000000	0.013331
583.000000	0.013355
582.000000	0.013306
581.000000	0.013193
580.000000	0.013081
579.000000	0.013042
578.000000	0.013109
577.000000	0.013270
576.000000	0.013474
575.000000	0.013653
574.000000	0.013766
573.000000	0.013830
572.000000	0.013884
571.000000	0.013945
570.000000	0.014005
569.000000	0.014051
568.000000	0.014080
567.000000	0.014095
566.000000	0.014119
565.000000	0.014194
564.000000	0.014341
563.000000	0.014535
562.000000	0.014735
561.000000	0.014907
560.000000	0.015032
559.000000	0.015094
558.000000	0.015088
557.000000	0.015019
556.000000	0.014882
555.000000	0.014675
554.000000	0.014444
553.000000	0.014280
552.000000	0.014235
551.000000	0.014265
550.000000	0.014278
549.000000	0.014216
548.000000	0.014081
547.000000	0.013916
546.000000	0.013770
545.000000	0.013652
544.000000	0.013521
543.000000	0.013357
542.000000	0.013222
541.000000	0.013199
540.000000	0.013290
539.000000	0.013418
538.000000	0.013531
537.000000	0.013632
536.000000	0.013731
535.000000	0.013826
534.000000	0.013937
533.000000	0.014070
532.000000	0.014141
531.000000	0.014048
530.000000	0.013849
529.000000	0.013730
528.000000	0.013776
527.000000	0.013878
526.000000	0.013891
525.000000	0.013795
524.000000	0.013618
523.000000	0.013350
522.000000	0.013023
521.000000	0.012765
520.000000	0.012669
519.000000	0.012678
518.000000	0.012683
517.000000	0.012658
516.000000	0.012585
515.000000	0.012376
514.000000	0.011990
513.000000	0.011564
512.000000	0.011295
511.000000	0.011242
510.000000	0.011319
509.000000	0.011410
508.000000	0.011416
507.000000	0.011269
506.000000	0.011016
505.000000	0.010825
504.000000	0.010787
503.000000	0.010797
502.000000	0.010694
501.000000	0.010496
500.000000	0.010328
499.000000	0.010218
498.000000	0.010094
497.000000	0.009941
496.000000	0.009817
495.000000	0.009722
494.000000	0.009591
493.000000	0.009405
492.000000	0.009229
491.000000	0.009112
490.000000	0.009057
489.000000	0.009066
488.000000	0.009134
487.000000	0.009198
486.000000	0.009189
485.000000	0.009122
484.000000	0.009056
483.000000	0.008973
482.000000	0.008798
481.000000	0.008539
480.000000	0.008283
479.000000	0.008087
478.000000	0.007915
477.000000	0.007713
476.000000	0.007477
475.000000	0.007252
474.000000	0.007115
473.000000	0.007156
472.000000	0.007392
471.000000	0.007685
470.000000	0.007855
469.000000	0.007838
468.000000	0.007666
467.000000	0.007390
466.000000	0.007073
465.000000	0.006812
464.000000	0.006668
463.000000	0.006603
462.000000	0.006536
461.000000	0.006431
460.000000	0.006273
459.000000	0.006033
458.000000	0.005731
457.000000	0.005511
456.000000	0.005464
455.000000	0.005462
454.000000	0.005302
453.000000	0.004909
452.000000	0.004420
451.000000	0.004107
450.000000	0.004197
