PE IR       SUBTECH     SPECTRUM    ASCII       PEDS        4.00        
   -1
3G-H10-C007_1.ASC
22/02/23
14:33:53.00
22/02/23
15:10:46.00
uco
Sample 007 By uco Date Wednesday, February 23 2022
450.000000
#HDR
-1
-1
#GR
cm-1
A
1.0
0.0
4000.000000
-1.000000
3551
8
0.026721
0.002386
#DATA
4000.000000	0.002557
3999.000000	0.002552
3998.000000	0.002563
3997.000000	0.002585
3996.000000	0.002609
3995.000000	0.002623
3994.000000	0.002624
3993.000000	0.002621
3992.000000	0.002622
3991.000000	0.002628
3990.000000	0.002634
3989.000000	0.002637
3988.000000	0.002639
3987.000000	0.002649
3986.000000	0.002667
3985.000000	0.002686
3984.000000	0.002698
3983.000000	0.002698
3982.000000	0.002692
3981.000000	0.002685
3980.000000	0.002678
3979.000000	0.002668
3978.000000	0.002650
3977.000000	0.002630
3976.000000	0.002615
3975.000000	0.002612
3974.000000	0.002618
3973.000000	0.002628
3972.000000	0.002639
3971.000000	0.002652
3970.000000	0.002668
3969.000000	0.002686
3968.000000	0.002700
3967.000000	0.002704
3966.000000	0.002697
3965.000000	0.002679
3964.000000	0.002656
3963.000000	0.002638
3962.000000	0.002636
3961.000000	0.002655
3960.000000	0.002686
3959.000000	0.002714
3958.000000	0.002728
3957.000000	0.002730
3956.000000	0.002725
3955.000000	0.002721
3954.000000	0.002720
3953.000000	0.002723
3952.000000	0.002730
3951.000000	0.002742
3950.000000	0.002756
3949.000000	0.002761
3948.000000	0.002750
3947.000000	0.002726
3946.000000	0.002700
3945.000000	0.002685
3944.000000	0.002682
3943.000000	0.002685
3942.000000	0.002689
3941.000000	0.002695
3940.000000	0.002710
3939.000000	0.002734
3938.000000	0.002761
3937.000000	0.002780
3936.000000	0.002787
3935.000000	0.002781
3934.000000	0.002769
3933.000000	0.002761
3932.000000	0.002763
3931.000000	0.002775
3930.000000	0.002790
3929.000000	0.002800
3928.000000	0.002800
3927.000000	0.002789
3926.000000	0.002771
3925.000000	0.002749
3924.000000	0.002732
3923.000000	0.002724
3922.000000	0.002725
3921.000000	0.002730
3920.000000	0.002731
3919.000000	0.002723
3918.000000	0.002710
3917.000000	0.002695
3916.000000	0.002683
3915.000000	0.002676
3914.000000	0.002674
3913.000000	0.002678
3912.000000	0.002684
3911.000000	0.002690
3910.000000	0.002699
3909.000000	0.002715
3908.000000	0.002739
3907.000000	0.002768
3906.000000	0.002796
3905.000000	0.002814
3904.000000	0.002817
3903.000000	0.002810
3902.000000	0.002803
3901.000000	0.002802
3900.000000	0.002804
3899.000000	0.002800
3898.000000	0.002786
3897.000000	0.002764
3896.000000	0.002739
3895.000000	0.002719
3894.000000	0.002710
3893.000000	0.002716
3892.000000	0.002733
3891.000000	0.002753
3890.000000	0.002767
3889.000000	0.002778
3888.000000	0.002786
3887.000000	0.002791
3886.000000	0.002791
3885.000000	0.002789
3884.000000	0.002792
3883.000000	0.002806
3882.000000	0.002827
3881.000000	0.002842
3880.000000	0.002838
3879.000000	0.002822
3878.000000	0.002811
3877.000000	0.002817
3876.000000	0.002836
3875.000000	0.002853
3874.000000	0.002856
3873.000000	0.002841
3872.000000	0.002816
3871.000000	0.002797
3870.000000	0.002785
3869.000000	0.002776
3868.000000	0.002766
3867.000000	0.002760
3866.000000	0.002763
3865.000000	0.002778
3864.000000	0.002798
3863.000000	0.002813
3862.000000	0.002818
3861.000000	0.002817
3860.000000	0.002814
3859.000000	0.002810
3858.000000	0.002799
3857.000000	0.002777
3856.000000	0.002751
3855.000000	0.002736
3854.000000	0.002730
3853.000000	0.002718
3852.000000	0.002706
3851.000000	0.002714
3850.000000	0.002736
3849.000000	0.002756
3848.000000	0.002767
3847.000000	0.002772
3846.000000	0.002775
3845.000000	0.002779
3844.000000	0.002784
3843.000000	0.002791
3842.000000	0.002800
3841.000000	0.002812
3840.000000	0.002826
3839.000000	0.002843
3838.000000	0.002862
3837.000000	0.002880
3836.000000	0.002892
3835.000000	0.002888
3834.000000	0.002861
3833.000000	0.002820
3832.000000	0.002786
3831.000000	0.002778
3830.000000	0.002798
3829.000000	0.002832
3828.000000	0.002861
3827.000000	0.002869
3826.000000	0.002851
3825.000000	0.002820
3824.000000	0.002797
3823.000000	0.002801
3822.000000	0.002832
3821.000000	0.002858
3820.000000	0.002846
3819.000000	0.002800
3818.000000	0.002741
3817.000000	0.002695
3816.000000	0.002677
3815.000000	0.002686
3814.000000	0.002710
3813.000000	0.002738
3812.000000	0.002759
3811.000000	0.002773
3810.000000	0.002784
3809.000000	0.002792
3808.000000	0.002794
3807.000000	0.002784
3806.000000	0.002773
3805.000000	0.002775
3804.000000	0.002793
3803.000000	0.002817
3802.000000	0.002824
3801.000000	0.002801
3800.000000	0.002762
3799.000000	0.002738
3798.000000	0.002738
3797.000000	0.002755
3796.000000	0.002776
3795.000000	0.002791
3794.000000	0.002796
3793.000000	0.002792
3792.000000	0.002784
3791.000000	0.002775
3790.000000	0.002763
3789.000000	0.002748
3788.000000	0.002729
3787.000000	0.002716
3786.000000	0.002718
3785.000000	0.002738
3784.000000	0.002768
3783.000000	0.002797
3782.000000	0.002820
3781.000000	0.002833
3780.000000	0.002836
3779.000000	0.002825
3778.000000	0.002802
3777.000000	0.002775
3776.000000	0.002755
3775.000000	0.002748
3774.000000	0.002752
3773.000000	0.002763
3772.000000	0.002777
3771.000000	0.002790
3770.000000	0.002795
3769.000000	0.002787
3768.000000	0.002770
3767.000000	0.002752
3766.000000	0.002734
3765.000000	0.002716
3764.000000	0.002699
3763.000000	0.002682
3762.000000	0.002671
3761.000000	0.002669
3760.000000	0.002673
3759.000000	0.002681
3758.000000	0.002691
3757.000000	0.002702
3756.000000	0.002709
3755.000000	0.002703
3754.000000	0.002682
3753.000000	0.002657
3752.000000	0.002643
3751.000000	0.002640
3750.000000	0.002640
3749.000000	0.002646
3748.000000	0.002666
3747.000000	0.002693
3746.000000	0.002721
3745.000000	0.002735
3744.000000	0.002720
3743.000000	0.002692
3742.000000	0.002670
3741.000000	0.002647
3740.000000	0.002612
3739.000000	0.002572
3738.000000	0.002552
3737.000000	0.002569
3736.000000	0.002613
3735.000000	0.002655
3734.000000	0.002671
3733.000000	0.002663
3732.000000	0.002646
3731.000000	0.002638
3730.000000	0.002646
3729.000000	0.002660
3728.000000	0.002667
3727.000000	0.002661
3726.000000	0.002647
3725.000000	0.002640
3724.000000	0.002644
3723.000000	0.002651
3722.000000	0.002648
3721.000000	0.002629
3720.000000	0.002604
3719.000000	0.002587
3718.000000	0.002584
3717.000000	0.002593
3716.000000	0.002601
3715.000000	0.002598
3714.000000	0.002581
3713.000000	0.002562
3712.000000	0.002549
3711.000000	0.002543
3710.000000	0.002542
3709.000000	0.002547
3708.000000	0.002556
3707.000000	0.002568
3706.000000	0.002583
3705.000000	0.002603
3704.000000	0.002629
3703.000000	0.002657
3702.000000	0.002680
3701.000000	0.002695
3700.000000	0.002699
3699.000000	0.002696
3698.000000	0.002685
3697.000000	0.002669
3696.000000	0.002648
3695.000000	0.002622
3694.000000	0.002596
3693.000000	0.002571
3692.000000	0.002553
3691.000000	0.002544
3690.000000	0.002544
3689.000000	0.002547
3688.000000	0.002550
3687.000000	0.002555
3686.000000	0.002567
3685.000000	0.002582
3684.000000	0.002596
3683.000000	0.002610
3682.000000	0.002625
3681.000000	0.002645
3680.000000	0.002673
3679.000000	0.002700
3678.000000	0.002717
3677.000000	0.002728
3676.000000	0.002741
3675.000000	0.002749
3674.000000	0.002740
3673.000000	0.002718
3672.000000	0.002688
3671.000000	0.002668
3670.000000	0.002670
3669.000000	0.002684
3668.000000	0.002697
3667.000000	0.002699
3666.000000	0.002685
3665.000000	0.002665
3664.000000	0.002655
3663.000000	0.002665
3662.000000	0.002687
3661.000000	0.002704
3660.000000	0.002700
3659.000000	0.002680
3658.000000	0.002667
3657.000000	0.002681
3656.000000	0.002716
3655.000000	0.002752
3654.000000	0.002771
3653.000000	0.002775
3652.000000	0.002781
3651.000000	0.002810
3650.000000	0.002867
3649.000000	0.002924
3648.000000	0.002953
3647.000000	0.002951
3646.000000	0.002928
3645.000000	0.002900
3644.000000	0.002881
3643.000000	0.002881
3642.000000	0.002900
3641.000000	0.002926
3640.000000	0.002945
3639.000000	0.002950
3638.000000	0.002945
3637.000000	0.002941
3636.000000	0.002945
3635.000000	0.002960
3634.000000	0.002982
3633.000000	0.003002
3632.000000	0.003019
3631.000000	0.003038
3630.000000	0.003059
3629.000000	0.003073
3628.000000	0.003072
3627.000000	0.003074
3626.000000	0.003091
3625.000000	0.003116
3624.000000	0.003136
3623.000000	0.003149
3622.000000	0.003161
3621.000000	0.003177
3620.000000	0.003198
3619.000000	0.003215
3618.000000	0.003224
3617.000000	0.003231
3616.000000	0.003241
3615.000000	0.003253
3614.000000	0.003261
3613.000000	0.003259
3612.000000	0.003251
3611.000000	0.003250
3610.000000	0.003271
3609.000000	0.003315
3608.000000	0.003365
3607.000000	0.003401
3606.000000	0.003418
3605.000000	0.003427
3604.000000	0.003445
3603.000000	0.003478
3602.000000	0.003520
3601.000000	0.003556
3600.000000	0.003570
3599.000000	0.003560
3598.000000	0.003544
3597.000000	0.003544
3596.000000	0.003569
3595.000000	0.003606
3594.000000	0.003632
3593.000000	0.003633
3592.000000	0.003617
3591.000000	0.003602
3590.000000	0.003605
3589.000000	0.003630
3588.000000	0.003666
3587.000000	0.003696
3586.000000	0.003716
3585.000000	0.003736
3584.000000	0.003766
3583.000000	0.003804
3582.000000	0.003846
3581.000000	0.003887
3580.000000	0.003928
3579.000000	0.003967
3578.000000	0.004001
3577.000000	0.004026
3576.000000	0.004043
3575.000000	0.004050
3574.000000	0.004051
3573.000000	0.004052
3572.000000	0.004057
3571.000000	0.004067
3570.000000	0.004081
3569.000000	0.004099
3568.000000	0.004123
3567.000000	0.004155
3566.000000	0.004202
3565.000000	0.004267
3564.000000	0.004348
3563.000000	0.004430
3562.000000	0.004493
3561.000000	0.004522
3560.000000	0.004520
3559.000000	0.004502
3558.000000	0.004488
3557.000000	0.004488
3556.000000	0.004502
3555.000000	0.004524
3554.000000	0.004551
3553.000000	0.004585
3552.000000	0.004624
3551.000000	0.004663
3550.000000	0.004697
3549.000000	0.004722
3548.000000	0.004743
3547.000000	0.004766
3546.000000	0.004792
3545.000000	0.004824
3544.000000	0.004860
3543.000000	0.004901
3542.000000	0.004943
3541.000000	0.004977
3540.000000	0.004999
3539.000000	0.005013
3538.000000	0.005028
3537.000000	0.005053
3536.000000	0.005086
3535.000000	0.005119
3534.000000	0.005143
3533.000000	0.005160
3532.000000	0.005175
3531.000000	0.005194
3530.000000	0.005213
3529.000000	0.005230
3528.000000	0.005244
3527.000000	0.005262
3526.000000	0.005293
3525.000000	0.005339
3524.000000	0.005396
3523.000000	0.005452
3522.000000	0.005499
3521.000000	0.005533
3520.000000	0.005556
3519.000000	0.005574
3518.000000	0.005592
3517.000000	0.005609
3516.000000	0.005617
3515.000000	0.005614
3514.000000	0.005610
3513.000000	0.005615
3512.000000	0.005633
3511.000000	0.005658
3510.000000	0.005685
3509.000000	0.005713
3508.000000	0.005743
3507.000000	0.005774
3506.000000	0.005796
3505.000000	0.005807
3504.000000	0.005809
3503.000000	0.005814
3502.000000	0.005830
3501.000000	0.005863
3500.000000	0.005907
3499.000000	0.005957
3498.000000	0.006002
3497.000000	0.006035
3496.000000	0.006057
3495.000000	0.006076
3494.000000	0.006099
3493.000000	0.006130
3492.000000	0.006165
3491.000000	0.006199
3490.000000	0.006226
3489.000000	0.006242
3488.000000	0.006247
3487.000000	0.006243
3486.000000	0.006235
3485.000000	0.006226
3484.000000	0.006217
3483.000000	0.006215
3482.000000	0.006227
3481.000000	0.006258
3480.000000	0.006300
3479.000000	0.006341
3478.000000	0.006368
3477.000000	0.006380
3476.000000	0.006386
3475.000000	0.006399
3474.000000	0.006421
3473.000000	0.006447
3472.000000	0.006468
3471.000000	0.006486
3470.000000	0.006508
3469.000000	0.006541
3468.000000	0.006583
3467.000000	0.006623
3466.000000	0.006650
3465.000000	0.006658
3464.000000	0.006652
3463.000000	0.006648
3462.000000	0.006667
3461.000000	0.006711
3460.000000	0.006767
3459.000000	0.006820
3458.000000	0.006859
3457.000000	0.006888
3456.000000	0.006906
3455.000000	0.006911
3454.000000	0.006899
3453.000000	0.006879
3452.000000	0.006862
3451.000000	0.006863
3450.000000	0.006887
3449.000000	0.006927
3448.000000	0.006969
3447.000000	0.007000
3446.000000	0.007019
3445.000000	0.007035
3444.000000	0.007052
3443.000000	0.007074
3442.000000	0.007103
3441.000000	0.007139
3440.000000	0.007175
3439.000000	0.007202
3438.000000	0.007215
3437.000000	0.007219
3436.000000	0.007228
3435.000000	0.007246
3434.000000	0.007273
3433.000000	0.007302
3432.000000	0.007325
3431.000000	0.007335
3430.000000	0.007333
3429.000000	0.007330
3428.000000	0.007343
3427.000000	0.007384
3426.000000	0.007448
3425.000000	0.007516
3424.000000	0.007564
3423.000000	0.007584
3422.000000	0.007585
3421.000000	0.007589
3420.000000	0.007610
3419.000000	0.007642
3418.000000	0.007667
3417.000000	0.007674
3416.000000	0.007666
3415.000000	0.007656
3414.000000	0.007653
3413.000000	0.007657
3412.000000	0.007668
3411.000000	0.007684
3410.000000	0.007705
3409.000000	0.007731
3408.000000	0.007761
3407.000000	0.007794
3406.000000	0.007826
3405.000000	0.007852
3404.000000	0.007867
3403.000000	0.007873
3402.000000	0.007877
3401.000000	0.007884
3400.000000	0.007892
3399.000000	0.007895
3398.000000	0.007894
3397.000000	0.007897
3396.000000	0.007908
3395.000000	0.007928
3394.000000	0.007952
3393.000000	0.007979
3392.000000	0.008013
3391.000000	0.008056
3390.000000	0.008100
3389.000000	0.008137
3388.000000	0.008166
3387.000000	0.008187
3386.000000	0.008203
3385.000000	0.008210
3384.000000	0.008211
3383.000000	0.008214
3382.000000	0.008228
3381.000000	0.008251
3380.000000	0.008275
3379.000000	0.008293
3378.000000	0.008306
3377.000000	0.008321
3376.000000	0.008339
3375.000000	0.008357
3374.000000	0.008374
3373.000000	0.008392
3372.000000	0.008417
3371.000000	0.008456
3370.000000	0.008509
3369.000000	0.008567
3368.000000	0.008618
3367.000000	0.008658
3366.000000	0.008695
3365.000000	0.008739
3364.000000	0.008793
3363.000000	0.008851
3362.000000	0.008901
3361.000000	0.008936
3360.000000	0.008960
3359.000000	0.008978
3358.000000	0.009000
3357.000000	0.009032
3356.000000	0.009079
3355.000000	0.009140
3354.000000	0.009203
3353.000000	0.009257
3352.000000	0.009292
3351.000000	0.009313
3350.000000	0.009334
3349.000000	0.009371
3348.000000	0.009428
3347.000000	0.009500
3346.000000	0.009576
3345.000000	0.009646
3344.000000	0.009706
3343.000000	0.009757
3342.000000	0.009800
3341.000000	0.009836
3340.000000	0.009869
3339.000000	0.009899
3338.000000	0.009931
3337.000000	0.009965
3336.000000	0.010001
3335.000000	0.010037
3334.000000	0.010069
3333.000000	0.010096
3332.000000	0.010120
3331.000000	0.010145
3330.000000	0.010177
3329.000000	0.010215
3328.000000	0.010257
3327.000000	0.010298
3326.000000	0.010338
3325.000000	0.010376
3324.000000	0.010410
3323.000000	0.010440
3322.000000	0.010469
3321.000000	0.010498
3320.000000	0.010528
3319.000000	0.010554
3318.000000	0.010575
3317.000000	0.010590
3316.000000	0.010604
3315.000000	0.010621
3314.000000	0.010646
3313.000000	0.010677
3312.000000	0.010708
3311.000000	0.010730
3310.000000	0.010737
3309.000000	0.010725
3308.000000	0.010700
3307.000000	0.010675
3306.000000	0.010664
3305.000000	0.010678
3304.000000	0.010712
3303.000000	0.010752
3302.000000	0.010787
3301.000000	0.010812
3300.000000	0.010830
3299.000000	0.010842
3298.000000	0.010845
3297.000000	0.010838
3296.000000	0.010826
3295.000000	0.010817
3294.000000	0.010817
3293.000000	0.010828
3292.000000	0.010844
3291.000000	0.010859
3290.000000	0.010870
3289.000000	0.010875
3288.000000	0.010876
3287.000000	0.010877
3286.000000	0.010882
3285.000000	0.010892
3284.000000	0.010904
3283.000000	0.010917
3282.000000	0.010927
3281.000000	0.010934
3280.000000	0.010936
3279.000000	0.010930
3278.000000	0.010917
3277.000000	0.010898
3276.000000	0.010870
3275.000000	0.010830
3274.000000	0.010778
3273.000000	0.010721
3272.000000	0.010678
3271.000000	0.010661
3270.000000	0.010671
3269.000000	0.010693
3268.000000	0.010707
3267.000000	0.010701
3266.000000	0.010679
3265.000000	0.010654
3264.000000	0.010634
3263.000000	0.010618
3262.000000	0.010595
3261.000000	0.010561
3260.000000	0.010519
3259.000000	0.010477
3258.000000	0.010440
3257.000000	0.010412
3256.000000	0.010393
3255.000000	0.010377
3254.000000	0.010359
3253.000000	0.010333
3252.000000	0.010305
3251.000000	0.010281
3250.000000	0.010262
3249.000000	0.010238
3248.000000	0.010204
3247.000000	0.010169
3246.000000	0.010150
3245.000000	0.010157
3244.000000	0.010182
3243.000000	0.010209
3242.000000	0.010226
3241.000000	0.010228
3240.000000	0.010212
3239.000000	0.010176
3238.000000	0.010127
3237.000000	0.010076
3236.000000	0.010037
3235.000000	0.010015
3234.000000	0.010010
3233.000000	0.010015
3232.000000	0.010023
3231.000000	0.010028
3230.000000	0.010029
3229.000000	0.010030
3228.000000	0.010033
3227.000000	0.010031
3226.000000	0.010015
3225.000000	0.009982
3224.000000	0.009944
3223.000000	0.009916
3222.000000	0.009905
3221.000000	0.009903
3220.000000	0.009899
3219.000000	0.009884
3218.000000	0.009855
3217.000000	0.009816
3216.000000	0.009774
3215.000000	0.009738
3214.000000	0.009716
3213.000000	0.009705
3212.000000	0.009698
3211.000000	0.009686
3210.000000	0.009668
3209.000000	0.009647
3208.000000	0.009626
3207.000000	0.009604
3206.000000	0.009586
3205.000000	0.009577
3204.000000	0.009577
3203.000000	0.009581
3202.000000	0.009577
3201.000000	0.009555
3200.000000	0.009520
3199.000000	0.009489
3198.000000	0.009478
3197.000000	0.009488
3196.000000	0.009502
3195.000000	0.009501
3194.000000	0.009477
3193.000000	0.009435
3192.000000	0.009381
3191.000000	0.009325
3190.000000	0.009276
3189.000000	0.009243
3188.000000	0.009224
3187.000000	0.009213
3186.000000	0.009201
3185.000000	0.009187
3184.000000	0.009175
3183.000000	0.009169
3182.000000	0.009166
3181.000000	0.009157
3180.000000	0.009132
3179.000000	0.009090
3178.000000	0.009043
3177.000000	0.009002
3176.000000	0.008968
3175.000000	0.008939
3174.000000	0.008910
3173.000000	0.008880
3172.000000	0.008846
3171.000000	0.008806
3170.000000	0.008763
3169.000000	0.008725
3168.000000	0.008696
3167.000000	0.008676
3166.000000	0.008659
3165.000000	0.008642
3164.000000	0.008627
3163.000000	0.008614
3162.000000	0.008604
3161.000000	0.008593
3160.000000	0.008574
3159.000000	0.008544
3158.000000	0.008507
3157.000000	0.008471
3156.000000	0.008441
3155.000000	0.008414
3154.000000	0.008378
3153.000000	0.008326
3152.000000	0.008268
3151.000000	0.008225
3150.000000	0.008212
3149.000000	0.008222
3148.000000	0.008238
3147.000000	0.008245
3146.000000	0.008235
3145.000000	0.008207
3144.000000	0.008163
3143.000000	0.008109
3142.000000	0.008062
3141.000000	0.008040
3140.000000	0.008048
3139.000000	0.008071
3138.000000	0.008086
3137.000000	0.008077
3136.000000	0.008044
3135.000000	0.008002
3134.000000	0.007963
3133.000000	0.007934
3132.000000	0.007915
3131.000000	0.007906
3130.000000	0.007908
3129.000000	0.007917
3128.000000	0.007926
3127.000000	0.007927
3126.000000	0.007922
3125.000000	0.007920
3124.000000	0.007930
3123.000000	0.007954
3122.000000	0.007982
3121.000000	0.007995
3120.000000	0.007975
3119.000000	0.007925
3118.000000	0.007867
3117.000000	0.007826
3116.000000	0.007815
3115.000000	0.007833
3114.000000	0.007873
3113.000000	0.007926
3112.000000	0.007976
3111.000000	0.008006
3110.000000	0.008011
3109.000000	0.008002
3108.000000	0.007991
3107.000000	0.007982
3106.000000	0.007975
3105.000000	0.007975
3104.000000	0.007980
3103.000000	0.007981
3102.000000	0.007966
3101.000000	0.007941
3100.000000	0.007928
3099.000000	0.007943
3098.000000	0.007981
3097.000000	0.008021
3096.000000	0.008049
3095.000000	0.008064
3094.000000	0.008073
3093.000000	0.008082
3092.000000	0.008091
3091.000000	0.008096
3090.000000	0.008091
3089.000000	0.008074
3088.000000	0.008056
3087.000000	0.008050
3086.000000	0.008067
3085.000000	0.008103
3084.000000	0.008146
3083.000000	0.008183
3082.000000	0.008206
3081.000000	0.008212
3080.000000	0.008204
3079.000000	0.008192
3078.000000	0.008188
3077.000000	0.008198
3076.000000	0.008220
3075.000000	0.008242
3074.000000	0.008255
3073.000000	0.008257
3072.000000	0.008249
3071.000000	0.008230
3070.000000	0.008204
3069.000000	0.008173
3068.000000	0.008141
3067.000000	0.008114
3066.000000	0.008098
3065.000000	0.008098
3064.000000	0.008108
3063.000000	0.008116
3062.000000	0.008112
3061.000000	0.008093
3060.000000	0.008067
3059.000000	0.008047
3058.000000	0.008035
3057.000000	0.008027
3056.000000	0.008019
3055.000000	0.008010
3054.000000	0.007998
3053.000000	0.007978
3052.000000	0.007944
3051.000000	0.007903
3050.000000	0.007864
3049.000000	0.007834
3048.000000	0.007807
3047.000000	0.007778
3046.000000	0.007747
3045.000000	0.007719
3044.000000	0.007697
3043.000000	0.007680
3042.000000	0.007664
3041.000000	0.007646
3040.000000	0.007621
3039.000000	0.007590
3038.000000	0.007552
3037.000000	0.007513
3036.000000	0.007477
3035.000000	0.007448
3034.000000	0.007424
3033.000000	0.007400
3032.000000	0.007372
3031.000000	0.007348
3030.000000	0.007334
3029.000000	0.007330
3028.000000	0.007329
3027.000000	0.007319
3026.000000	0.007298
3025.000000	0.007269
3024.000000	0.007242
3023.000000	0.007221
3022.000000	0.007205
3021.000000	0.007189
3020.000000	0.007171
3019.000000	0.007151
3018.000000	0.007132
3017.000000	0.007112
3016.000000	0.007089
3015.000000	0.007065
3014.000000	0.007047
3013.000000	0.007038
3012.000000	0.007034
3011.000000	0.007031
3010.000000	0.007025
3009.000000	0.007014
3008.000000	0.007001
3007.000000	0.006987
3006.000000	0.006973
3005.000000	0.006960
3004.000000	0.006949
3003.000000	0.006937
3002.000000	0.006926
3001.000000	0.006914
3000.000000	0.006901
2999.000000	0.006889
2998.000000	0.006882
2997.000000	0.006886
2996.000000	0.006907
2995.000000	0.006946
2994.000000	0.006992
2993.000000	0.007034
2992.000000	0.007064
2991.000000	0.007082
2990.000000	0.007095
2989.000000	0.007110
2988.000000	0.007133
2987.000000	0.007162
2986.000000	0.007194
2985.000000	0.007219
2984.000000	0.007232
2983.000000	0.007239
2982.000000	0.007247
2981.000000	0.007262
2980.000000	0.007280
2979.000000	0.007300
2978.000000	0.007325
2977.000000	0.007351
2976.000000	0.007369
2975.000000	0.007374
2974.000000	0.007371
2973.000000	0.007369
2972.000000	0.007374
2971.000000	0.007386
2970.000000	0.007405
2969.000000	0.007431
2968.000000	0.007465
2967.000000	0.007500
2966.000000	0.007532
2965.000000	0.007558
2964.000000	0.007577
2963.000000	0.007589
2962.000000	0.007600
2961.000000	0.007618
2960.000000	0.007648
2959.000000	0.007679
2958.000000	0.007700
2957.000000	0.007709
2956.000000	0.007715
2955.000000	0.007727
2954.000000	0.007742
2953.000000	0.007749
2952.000000	0.007744
2951.000000	0.007734
2950.000000	0.007731
2949.000000	0.007742
2948.000000	0.007767
2947.000000	0.007803
2946.000000	0.007844
2945.000000	0.007878
2944.000000	0.007890
2943.000000	0.007878
2942.000000	0.007855
2941.000000	0.007844
2940.000000	0.007860
2939.000000	0.007902
2938.000000	0.007948
2937.000000	0.007980
2936.000000	0.007994
2935.000000	0.008001
2934.000000	0.008017
2933.000000	0.008045
2932.000000	0.008080
2931.000000	0.008120
2930.000000	0.008161
2929.000000	0.008195
2928.000000	0.008216
2927.000000	0.008228
2926.000000	0.008245
2925.000000	0.008271
2924.000000	0.008301
2923.000000	0.008329
2922.000000	0.008360
2921.000000	0.008396
2920.000000	0.008432
2919.000000	0.008450
2918.000000	0.008442
2917.000000	0.008409
2916.000000	0.008357
2915.000000	0.008294
2914.000000	0.008222
2913.000000	0.008148
2912.000000	0.008073
2911.000000	0.007994
2910.000000	0.007910
2909.000000	0.007822
2908.000000	0.007738
2907.000000	0.007669
2906.000000	0.007622
2905.000000	0.007592
2904.000000	0.007562
2903.000000	0.007519
2902.000000	0.007469
2901.000000	0.007432
2900.000000	0.007414
2899.000000	0.007407
2898.000000	0.007394
2897.000000	0.007368
2896.000000	0.007334
2895.000000	0.007304
2894.000000	0.007286
2893.000000	0.007284
2892.000000	0.007292
2891.000000	0.007302
2890.000000	0.007307
2889.000000	0.007307
2888.000000	0.007298
2887.000000	0.007279
2886.000000	0.007257
2885.000000	0.007243
2884.000000	0.007243
2883.000000	0.007257
2882.000000	0.007280
2881.000000	0.007308
2880.000000	0.007332
2879.000000	0.007342
2878.000000	0.007331
2877.000000	0.007306
2876.000000	0.007277
2875.000000	0.007252
2874.000000	0.007229
2873.000000	0.007211
2872.000000	0.007197
2871.000000	0.007188
2870.000000	0.007178
2869.000000	0.007164
2868.000000	0.007143
2867.000000	0.007115
2866.000000	0.007081
2865.000000	0.007049
2864.000000	0.007022
2863.000000	0.007002
2862.000000	0.006990
2861.000000	0.006987
2860.000000	0.006996
2859.000000	0.007015
2858.000000	0.007034
2857.000000	0.007053
2856.000000	0.007077
2855.000000	0.007113
2854.000000	0.007163
2853.000000	0.007217
2852.000000	0.007266
2851.000000	0.007300
2850.000000	0.007312
2849.000000	0.007295
2848.000000	0.007247
2847.000000	0.007174
2846.000000	0.007085
2845.000000	0.006993
2844.000000	0.006907
2843.000000	0.006839
2842.000000	0.006789
2841.000000	0.006754
2840.000000	0.006724
2839.000000	0.006695
2838.000000	0.006667
2837.000000	0.006643
2836.000000	0.006623
2835.000000	0.006605
2834.000000	0.006586
2833.000000	0.006566
2832.000000	0.006543
2831.000000	0.006516
2830.000000	0.006487
2829.000000	0.006465
2828.000000	0.006461
2827.000000	0.006473
2826.000000	0.006491
2825.000000	0.006496
2824.000000	0.006480
2823.000000	0.006450
2822.000000	0.006416
2821.000000	0.006388
2820.000000	0.006369
2819.000000	0.006358
2818.000000	0.006351
2817.000000	0.006343
2816.000000	0.006331
2815.000000	0.006316
2814.000000	0.006305
2813.000000	0.006306
2812.000000	0.006314
2811.000000	0.006322
2810.000000	0.006322
2809.000000	0.006316
2808.000000	0.006306
2807.000000	0.006293
2806.000000	0.006281
2805.000000	0.006271
2804.000000	0.006267
2803.000000	0.006268
2802.000000	0.006270
2801.000000	0.006273
2800.000000	0.006272
2799.000000	0.006264
2798.000000	0.006250
2797.000000	0.006235
2796.000000	0.006219
2795.000000	0.006203
2794.000000	0.006183
2793.000000	0.006164
2792.000000	0.006152
2791.000000	0.006152
2790.000000	0.006160
2789.000000	0.006167
2788.000000	0.006162
2787.000000	0.006145
2786.000000	0.006128
2785.000000	0.006125
2784.000000	0.006135
2783.000000	0.006147
2782.000000	0.006148
2781.000000	0.006136
2780.000000	0.006116
2779.000000	0.006094
2778.000000	0.006073
2777.000000	0.006052
2776.000000	0.006033
2775.000000	0.006017
2774.000000	0.006008
2773.000000	0.006007
2772.000000	0.006010
2771.000000	0.006008
2770.000000	0.005997
2769.000000	0.005984
2768.000000	0.005977
2767.000000	0.005981
2766.000000	0.005988
2765.000000	0.005990
2764.000000	0.005989
2763.000000	0.005990
2762.000000	0.005997
2761.000000	0.006006
2760.000000	0.006007
2759.000000	0.005997
2758.000000	0.005977
2757.000000	0.005954
2756.000000	0.005933
2755.000000	0.005916
2754.000000	0.005902
2753.000000	0.005890
2752.000000	0.005877
2751.000000	0.005867
2750.000000	0.005866
2749.000000	0.005879
2748.000000	0.005900
2747.000000	0.005918
2746.000000	0.005920
2745.000000	0.005906
2744.000000	0.005883
2743.000000	0.005861
2742.000000	0.005844
2741.000000	0.005833
2740.000000	0.005824
2739.000000	0.005816
2738.000000	0.005805
2737.000000	0.005790
2736.000000	0.005777
2735.000000	0.005770
2734.000000	0.005772
2733.000000	0.005776
2732.000000	0.005772
2731.000000	0.005754
2730.000000	0.005729
2729.000000	0.005707
2728.000000	0.005691
2727.000000	0.005681
2726.000000	0.005678
2725.000000	0.005680
2724.000000	0.005682
2723.000000	0.005683
2722.000000	0.005684
2721.000000	0.005689
2720.000000	0.005691
2719.000000	0.005688
2718.000000	0.005679
2717.000000	0.005672
2716.000000	0.005667
2715.000000	0.005657
2714.000000	0.005638
2713.000000	0.005613
2712.000000	0.005592
2711.000000	0.005582
2710.000000	0.005581
2709.000000	0.005586
2708.000000	0.005587
2707.000000	0.005581
2706.000000	0.005570
2705.000000	0.005562
2704.000000	0.005560
2703.000000	0.005564
2702.000000	0.005568
2701.000000	0.005571
2700.000000	0.005570
2699.000000	0.005560
2698.000000	0.005541
2697.000000	0.005522
2696.000000	0.005517
2695.000000	0.005527
2694.000000	0.005542
2693.000000	0.005552
2692.000000	0.005555
2691.000000	0.005552
2690.000000	0.005548
2689.000000	0.005542
2688.000000	0.005535
2687.000000	0.005530
2686.000000	0.005528
2685.000000	0.005526
2684.000000	0.005523
2683.000000	0.005515
2682.000000	0.005505
2681.000000	0.005498
2680.000000	0.005498
2679.000000	0.005499
2678.000000	0.005491
2677.000000	0.005471
2676.000000	0.005450
2675.000000	0.005441
2674.000000	0.005450
2673.000000	0.005472
2672.000000	0.005493
2671.000000	0.005505
2670.000000	0.005505
2669.000000	0.005501
2668.000000	0.005499
2667.000000	0.005499
2666.000000	0.005495
2665.000000	0.005489
2664.000000	0.005486
2663.000000	0.005488
2662.000000	0.005495
2661.000000	0.005499
2660.000000	0.005496
2659.000000	0.005481
2658.000000	0.005457
2657.000000	0.005428
2656.000000	0.005404
2655.000000	0.005392
2654.000000	0.005390
2653.000000	0.005395
2652.000000	0.005400
2651.000000	0.005402
2650.000000	0.005403
2649.000000	0.005402
2648.000000	0.005395
2647.000000	0.005379
2646.000000	0.005353
2645.000000	0.005323
2644.000000	0.005299
2643.000000	0.005284
2642.000000	0.005273
2641.000000	0.005259
2640.000000	0.005240
2639.000000	0.005219
2638.000000	0.005198
2637.000000	0.005176
2636.000000	0.005158
2635.000000	0.005151
2634.000000	0.005156
2633.000000	0.005164
2632.000000	0.005162
2631.000000	0.005148
2630.000000	0.005126
2629.000000	0.005103
2628.000000	0.005076
2627.000000	0.005046
2626.000000	0.005021
2625.000000	0.005006
2624.000000	0.005002
2623.000000	0.004998
2622.000000	0.004990
2621.000000	0.004977
2620.000000	0.004965
2619.000000	0.004957
2618.000000	0.004954
2617.000000	0.004950
2616.000000	0.004937
2615.000000	0.004915
2614.000000	0.004892
2613.000000	0.004877
2612.000000	0.004866
2611.000000	0.004851
2610.000000	0.004838
2609.000000	0.004837
2608.000000	0.004849
2607.000000	0.004859
2606.000000	0.004849
2605.000000	0.004819
2604.000000	0.004784
2603.000000	0.004762
2602.000000	0.004762
2601.000000	0.004781
2600.000000	0.004805
2599.000000	0.004818
2598.000000	0.004814
2597.000000	0.004797
2596.000000	0.004770
2595.000000	0.004735
2594.000000	0.004699
2593.000000	0.004675
2592.000000	0.004673
2591.000000	0.004691
2590.000000	0.004715
2589.000000	0.004729
2588.000000	0.004721
2587.000000	0.004683
2586.000000	0.004621
2585.000000	0.004558
2584.000000	0.004519
2583.000000	0.004513
2582.000000	0.004527
2581.000000	0.004543
2580.000000	0.004550
2579.000000	0.004547
2578.000000	0.004537
2577.000000	0.004526
2576.000000	0.004519
2575.000000	0.004519
2574.000000	0.004524
2573.000000	0.004526
2572.000000	0.004528
2571.000000	0.004535
2570.000000	0.004545
2569.000000	0.004544
2568.000000	0.004523
2567.000000	0.004488
2566.000000	0.004456
2565.000000	0.004433
2564.000000	0.004418
2563.000000	0.004412
2562.000000	0.004426
2561.000000	0.004463
2560.000000	0.004509
2559.000000	0.004542
2558.000000	0.004553
2557.000000	0.004544
2556.000000	0.004516
2555.000000	0.004471
2554.000000	0.004422
2553.000000	0.004392
2552.000000	0.004398
2551.000000	0.004437
2550.000000	0.004487
2549.000000	0.004524
2548.000000	0.004531
2547.000000	0.004509
2546.000000	0.004468
2545.000000	0.004425
2544.000000	0.004388
2543.000000	0.004363
2542.000000	0.004355
2541.000000	0.004364
2540.000000	0.004378
2539.000000	0.004388
2538.000000	0.004402
2537.000000	0.004435
2536.000000	0.004489
2535.000000	0.004543
2534.000000	0.004570
2533.000000	0.004560
2532.000000	0.004527
2531.000000	0.004493
2530.000000	0.004472
2529.000000	0.004463
2528.000000	0.004453
2527.000000	0.004432
2526.000000	0.004405
2525.000000	0.004386
2524.000000	0.004387
2523.000000	0.004403
2522.000000	0.004421
2521.000000	0.004437
2520.000000	0.004452
2519.000000	0.004461
2518.000000	0.004451
2517.000000	0.004413
2516.000000	0.004363
2515.000000	0.004329
2514.000000	0.004325
2513.000000	0.004336
2512.000000	0.004342
2511.000000	0.004339
2510.000000	0.004336
2509.000000	0.004335
2508.000000	0.004323
2507.000000	0.004296
2506.000000	0.004266
2505.000000	0.004248
2504.000000	0.004249
2503.000000	0.004263
2502.000000	0.004288
2501.000000	0.004318
2500.000000	0.004342
2499.000000	0.004349
2498.000000	0.004342
2497.000000	0.004342
2496.000000	0.004358
2495.000000	0.004382
2494.000000	0.004389
2493.000000	0.004364
2492.000000	0.004315
2491.000000	0.004266
2490.000000	0.004247
2489.000000	0.004266
2488.000000	0.004305
2487.000000	0.004338
2486.000000	0.004355
2485.000000	0.004360
2484.000000	0.004358
2483.000000	0.004349
2482.000000	0.004331
2481.000000	0.004312
2480.000000	0.004298
2479.000000	0.004295
2478.000000	0.004304
2477.000000	0.004319
2476.000000	0.004325
2475.000000	0.004306
2474.000000	0.004270
2473.000000	0.004243
2472.000000	0.004240
2471.000000	0.004252
2470.000000	0.004261
2469.000000	0.004261
2468.000000	0.004262
2467.000000	0.004270
2466.000000	0.004286
2465.000000	0.004307
2464.000000	0.004329
2463.000000	0.004347
2462.000000	0.004357
2461.000000	0.004360
2460.000000	0.004353
2459.000000	0.004332
2458.000000	0.004288
2457.000000	0.004232
2456.000000	0.004187
2455.000000	0.004177
2454.000000	0.004202
2453.000000	0.004242
2452.000000	0.004277
2451.000000	0.004299
2450.000000	0.004309
2449.000000	0.004306
2448.000000	0.004289
2447.000000	0.004265
2446.000000	0.004246
2445.000000	0.004234
2444.000000	0.004224
2443.000000	0.004213
2442.000000	0.004204
2441.000000	0.004197
2440.000000	0.004187
2439.000000	0.004176
2438.000000	0.004180
2437.000000	0.004211
2436.000000	0.004260
2435.000000	0.004301
2434.000000	0.004318
2433.000000	0.004310
2432.000000	0.004280
2431.000000	0.004235
2430.000000	0.004186
2429.000000	0.004153
2428.000000	0.004150
2427.000000	0.004175
2426.000000	0.004213
2425.000000	0.004249
2424.000000	0.004267
2423.000000	0.004261
2422.000000	0.004235
2421.000000	0.004202
2420.000000	0.004177
2419.000000	0.004163
2418.000000	0.004160
2417.000000	0.004166
2416.000000	0.004175
2415.000000	0.004182
2414.000000	0.004187
2413.000000	0.004189
2412.000000	0.004186
2411.000000	0.004178
2410.000000	0.004170
2409.000000	0.004168
2408.000000	0.004169
2407.000000	0.004161
2406.000000	0.004141
2405.000000	0.004125
2404.000000	0.004124
2403.000000	0.004144
2402.000000	0.004177
2401.000000	0.004210
2400.000000	0.004226
2399.000000	0.004213
2398.000000	0.004178
2397.000000	0.004141
2396.000000	0.004121
2395.000000	0.004115
2394.000000	0.004115
2393.000000	0.004119
2392.000000	0.004135
2391.000000	0.004156
2390.000000	0.004162
2389.000000	0.004139
2388.000000	0.004091
2387.000000	0.004043
2386.000000	0.004015
2385.000000	0.004016
2384.000000	0.004037
2383.000000	0.004065
2382.000000	0.004094
2381.000000	0.004120
2380.000000	0.004139
2379.000000	0.004149
2378.000000	0.004150
2377.000000	0.004147
2376.000000	0.004138
2375.000000	0.004119
2374.000000	0.004089
2373.000000	0.004056
2372.000000	0.004030
2371.000000	0.004017
2370.000000	0.004015
2369.000000	0.004020
2368.000000	0.004027
2367.000000	0.004034
2366.000000	0.004043
2365.000000	0.004060
2364.000000	0.004091
2363.000000	0.004135
2362.000000	0.004170
2361.000000	0.004172
2360.000000	0.004150
2359.000000	0.004133
2358.000000	0.004139
2357.000000	0.004153
2356.000000	0.004156
2355.000000	0.004157
2354.000000	0.004162
2353.000000	0.004158
2352.000000	0.004142
2351.000000	0.004135
2350.000000	0.004150
2349.000000	0.004177
2348.000000	0.004196
2347.000000	0.004194
2346.000000	0.004179
2345.000000	0.004181
2344.000000	0.004214
2343.000000	0.004266
2342.000000	0.004309
2341.000000	0.004335
2340.000000	0.004357
2339.000000	0.004376
2338.000000	0.004378
2337.000000	0.004350
2336.000000	0.004306
2335.000000	0.004266
2334.000000	0.004237
2333.000000	0.004208
2332.000000	0.004188
2331.000000	0.004195
2330.000000	0.004237
2329.000000	0.004293
2328.000000	0.004352
2327.000000	0.004409
2326.000000	0.004466
2325.000000	0.004503
2324.000000	0.004501
2323.000000	0.004461
2322.000000	0.004409
2321.000000	0.004369
2320.000000	0.004341
2319.000000	0.004307
2318.000000	0.004265
2317.000000	0.004230
2316.000000	0.004226
2315.000000	0.004257
2314.000000	0.004306
2313.000000	0.004341
2312.000000	0.004337
2311.000000	0.004287
2310.000000	0.004216
2309.000000	0.004157
2308.000000	0.004134
2307.000000	0.004146
2306.000000	0.004171
2305.000000	0.004190
2304.000000	0.004194
2303.000000	0.004192
2302.000000	0.004199
2301.000000	0.004222
2300.000000	0.004251
2299.000000	0.004270
2298.000000	0.004275
2297.000000	0.004272
2296.000000	0.004266
2295.000000	0.004253
2294.000000	0.004236
2293.000000	0.004230
2292.000000	0.004253
2291.000000	0.004302
2290.000000	0.004353
2289.000000	0.004377
2288.000000	0.004364
2287.000000	0.004332
2286.000000	0.004300
2285.000000	0.004270
2284.000000	0.004223
2283.000000	0.004161
2282.000000	0.004117
2281.000000	0.004132
2280.000000	0.004195
2279.000000	0.004250
2278.000000	0.004256
2277.000000	0.004226
2276.000000	0.004200
2275.000000	0.004190
2274.000000	0.004176
2273.000000	0.004137
2272.000000	0.004083
2271.000000	0.004040
2270.000000	0.004026
2269.000000	0.004038
2268.000000	0.004058
2267.000000	0.004076
2266.000000	0.004084
2265.000000	0.004075
2264.000000	0.004046
2263.000000	0.004028
2262.000000	0.004059
2261.000000	0.004139
2260.000000	0.004206
2259.000000	0.004191
2258.000000	0.004095
2257.000000	0.003991
2256.000000	0.003947
2255.000000	0.003966
2254.000000	0.003997
2253.000000	0.003996
2252.000000	0.003959
2251.000000	0.003911
2250.000000	0.003879
2249.000000	0.003874
2248.000000	0.003883
2247.000000	0.003887
2246.000000	0.003889
2245.000000	0.003907
2244.000000	0.003953
2243.000000	0.004002
2242.000000	0.004007
2241.000000	0.003946
2240.000000	0.003850
2239.000000	0.003783
2238.000000	0.003798
2237.000000	0.003896
2236.000000	0.004027
2235.000000	0.004125
2234.000000	0.004146
2233.000000	0.004089
2232.000000	0.003992
2231.000000	0.003912
2230.000000	0.003899
2229.000000	0.003957
2228.000000	0.004047
2227.000000	0.004116
2226.000000	0.004131
2225.000000	0.004084
2224.000000	0.003992
2223.000000	0.003897
2222.000000	0.003846
2221.000000	0.003854
2220.000000	0.003895
2219.000000	0.003935
2218.000000	0.003958
2217.000000	0.003949
2216.000000	0.003889
2215.000000	0.003782
2214.000000	0.003684
2213.000000	0.003660
2212.000000	0.003722
2211.000000	0.003838
2210.000000	0.003972
2209.000000	0.004105
2208.000000	0.004210
2207.000000	0.004249
2206.000000	0.004206
2205.000000	0.004109
2204.000000	0.004005
2203.000000	0.003930
2202.000000	0.003895
2201.000000	0.003884
2200.000000	0.003873
2199.000000	0.003861
2198.000000	0.003873
2197.000000	0.003918
2196.000000	0.003952
2195.000000	0.003914
2194.000000	0.003791
2193.000000	0.003648
2192.000000	0.003575
2191.000000	0.003617
2190.000000	0.003744
2189.000000	0.003866
2188.000000	0.003894
2187.000000	0.003813
2186.000000	0.003678
2185.000000	0.003558
2184.000000	0.003478
2183.000000	0.003444
2182.000000	0.003479
2181.000000	0.003582
2180.000000	0.003713
2179.000000	0.003826
2178.000000	0.003925
2177.000000	0.004009
2176.000000	0.004030
2175.000000	0.003955
2174.000000	0.003843
2173.000000	0.003790
2172.000000	0.003818
2171.000000	0.003870
2170.000000	0.003908
2169.000000	0.003948
2168.000000	0.003984
2167.000000	0.003968
2166.000000	0.003890
2165.000000	0.003819
2164.000000	0.003833
2163.000000	0.003925
2162.000000	0.004017
2161.000000	0.004026
2160.000000	0.003895
2159.000000	0.003629
2158.000000	0.003317
2157.000000	0.003076
2156.000000	0.002951
2155.000000	0.002913
2154.000000	0.002945
2153.000000	0.003050
2152.000000	0.003211
2151.000000	0.003375
2150.000000	0.003496
2149.000000	0.003555
2148.000000	0.003546
2147.000000	0.003474
2146.000000	0.003376
2145.000000	0.003309
2144.000000	0.003302
2143.000000	0.003332
2142.000000	0.003363
2141.000000	0.003381
2140.000000	0.003392
2139.000000	0.003404
2138.000000	0.003416
2137.000000	0.003415
2136.000000	0.003391
2135.000000	0.003352
2134.000000	0.003328
2133.000000	0.003332
2132.000000	0.003344
2131.000000	0.003343
2130.000000	0.003343
2129.000000	0.003377
2128.000000	0.003463
2127.000000	0.003592
2126.000000	0.003742
2125.000000	0.003877
2124.000000	0.003956
2123.000000	0.003962
2122.000000	0.003914
2121.000000	0.003850
2120.000000	0.003795
2119.000000	0.003755
2118.000000	0.003737
2117.000000	0.003742
2116.000000	0.003763
2115.000000	0.003794
2114.000000	0.003836
2113.000000	0.003876
2112.000000	0.003886
2111.000000	0.003863
2110.000000	0.003850
2109.000000	0.003885
2108.000000	0.003938
2107.000000	0.003937
2106.000000	0.003869
2105.000000	0.003791
2104.000000	0.003758
2103.000000	0.003774
2102.000000	0.003819
2101.000000	0.003879
2100.000000	0.003938
2099.000000	0.003965
2098.000000	0.003947
2097.000000	0.003911
2096.000000	0.003894
2095.000000	0.003900
2094.000000	0.003912
2093.000000	0.003919
2092.000000	0.003924
2091.000000	0.003939
2090.000000	0.003968
2089.000000	0.003997
2088.000000	0.004000
2087.000000	0.003967
2086.000000	0.003917
2085.000000	0.003866
2084.000000	0.003799
2083.000000	0.003700
2082.000000	0.003609
2081.000000	0.003599
2080.000000	0.003683
2079.000000	0.003797
2078.000000	0.003864
2077.000000	0.003865
2076.000000	0.003817
2075.000000	0.003735
2074.000000	0.003646
2073.000000	0.003600
2072.000000	0.003628
2071.000000	0.003704
2070.000000	0.003770
2069.000000	0.003793
2068.000000	0.003786
2067.000000	0.003775
2066.000000	0.003780
2065.000000	0.003790
2064.000000	0.003773
2063.000000	0.003692
2062.000000	0.003559
2061.000000	0.003436
2060.000000	0.003377
2059.000000	0.003389
2058.000000	0.003456
2057.000000	0.003565
2056.000000	0.003710
2055.000000	0.003864
2054.000000	0.003984
2053.000000	0.004036
2052.000000	0.004001
2051.000000	0.003875
2050.000000	0.003674
2049.000000	0.003443
2048.000000	0.003245
2047.000000	0.003138
2046.000000	0.003149
2045.000000	0.003248
2044.000000	0.003344
2043.000000	0.003352
2042.000000	0.003259
2041.000000	0.003120
2040.000000	0.002987
2039.000000	0.002881
2038.000000	0.002819
2037.000000	0.002808
2036.000000	0.002825
2035.000000	0.002843
2034.000000	0.002895
2033.000000	0.003033
2032.000000	0.003232
2031.000000	0.003406
2030.000000	0.003533
2029.000000	0.003664
2028.000000	0.003805
2027.000000	0.003873
2026.000000	0.003810
2025.000000	0.003670
2024.000000	0.003533
2023.000000	0.003395
2022.000000	0.003209
2021.000000	0.003006
2020.000000	0.002899
2019.000000	0.002963
2018.000000	0.003147
2017.000000	0.003289
2016.000000	0.003254
2015.000000	0.003055
2014.000000	0.002845
2013.000000	0.002776
2012.000000	0.002865
2011.000000	0.003011
2010.000000	0.003122
2009.000000	0.003175
2008.000000	0.003179
2007.000000	0.003158
2006.000000	0.003164
2005.000000	0.003237
2004.000000	0.003350
2003.000000	0.003426
2002.000000	0.003404
2001.000000	0.003270
2000.000000	0.003029
1999.000000	0.002732
1998.000000	0.002497
1997.000000	0.002451
1996.000000	0.002594
1995.000000	0.002779
1994.000000	0.002857
1993.000000	0.002813
1992.000000	0.002747
1991.000000	0.002747
1990.000000	0.002814
1989.000000	0.002892
1988.000000	0.002931
1987.000000	0.002938
1986.000000	0.002960
1985.000000	0.003038
1984.000000	0.003166
1983.000000	0.003308
1982.000000	0.003431
1981.000000	0.003505
1980.000000	0.003497
1979.000000	0.003406
1978.000000	0.003294
1977.000000	0.003231
1976.000000	0.003218
1975.000000	0.003205
1974.000000	0.003171
1973.000000	0.003110
1972.000000	0.002981
1971.000000	0.002756
1970.000000	0.002510
1969.000000	0.002386
1968.000000	0.002440
1967.000000	0.002586
1966.000000	0.002717
1965.000000	0.002819
1964.000000	0.002930
1963.000000	0.003054
1962.000000	0.003146
1961.000000	0.003170
1960.000000	0.003135
1959.000000	0.003071
1958.000000	0.003002
1957.000000	0.002937
1956.000000	0.002902
1955.000000	0.002950
1954.000000	0.003111
1953.000000	0.003320
1952.000000	0.003438
1951.000000	0.003391
1950.000000	0.003250
1949.000000	0.003148
1948.000000	0.003139
1947.000000	0.003179
1946.000000	0.003217
1945.000000	0.003239
1944.000000	0.003244
1943.000000	0.003222
1942.000000	0.003179
1941.000000	0.003133
1940.000000	0.003092
1939.000000	0.003058
1938.000000	0.003058
1937.000000	0.003122
1936.000000	0.003230
1935.000000	0.003312
1934.000000	0.003323
1933.000000	0.003275
1932.000000	0.003212
1931.000000	0.003166
1930.000000	0.003158
1929.000000	0.003190
1928.000000	0.003247
1927.000000	0.003311
1926.000000	0.003376
1925.000000	0.003441
1924.000000	0.003486
1923.000000	0.003489
1922.000000	0.003453
1921.000000	0.003407
1920.000000	0.003360
1919.000000	0.003309
1918.000000	0.003267
1917.000000	0.003256
1916.000000	0.003272
1915.000000	0.003285
1914.000000	0.003277
1913.000000	0.003247
1912.000000	0.003202
1911.000000	0.003158
1910.000000	0.003141
1909.000000	0.003155
1908.000000	0.003171
1907.000000	0.003170
1906.000000	0.003177
1905.000000	0.003226
1904.000000	0.003290
1903.000000	0.003309
1902.000000	0.003272
1901.000000	0.003224
1900.000000	0.003209
1899.000000	0.003232
1898.000000	0.003285
1897.000000	0.003358
1896.000000	0.003426
1895.000000	0.003456
1894.000000	0.003446
1893.000000	0.003426
1892.000000	0.003405
1891.000000	0.003377
1890.000000	0.003343
1889.000000	0.003320
1888.000000	0.003306
1887.000000	0.003279
1886.000000	0.003238
1885.000000	0.003210
1884.000000	0.003203
1883.000000	0.003196
1882.000000	0.003180
1881.000000	0.003175
1880.000000	0.003198
1879.000000	0.003234
1878.000000	0.003264
1877.000000	0.003285
1876.000000	0.003299
1875.000000	0.003306
1874.000000	0.003307
1873.000000	0.003304
1872.000000	0.003285
1871.000000	0.003227
1870.000000	0.003137
1869.000000	0.003070
1868.000000	0.003067
1867.000000	0.003117
1866.000000	0.003182
1865.000000	0.003227
1864.000000	0.003226
1863.000000	0.003175
1862.000000	0.003108
1861.000000	0.003071
1860.000000	0.003082
1859.000000	0.003120
1858.000000	0.003160
1857.000000	0.003189
1856.000000	0.003205
1855.000000	0.003212
1854.000000	0.003230
1853.000000	0.003268
1852.000000	0.003296
1851.000000	0.003281
1850.000000	0.003230
1849.000000	0.003195
1848.000000	0.003200
1847.000000	0.003226
1846.000000	0.003245
1845.000000	0.003251
1844.000000	0.003250
1843.000000	0.003237
1842.000000	0.003213
1841.000000	0.003197
1840.000000	0.003189
1839.000000	0.003165
1838.000000	0.003117
1837.000000	0.003077
1836.000000	0.003074
1835.000000	0.003096
1834.000000	0.003110
1833.000000	0.003104
1832.000000	0.003090
1831.000000	0.003082
1830.000000	0.003080
1829.000000	0.003077
1828.000000	0.003075
1827.000000	0.003080
1826.000000	0.003100
1825.000000	0.003142
1824.000000	0.003196
1823.000000	0.003235
1822.000000	0.003247
1821.000000	0.003236
1820.000000	0.003212
1819.000000	0.003176
1818.000000	0.003137
1817.000000	0.003116
1816.000000	0.003128
1815.000000	0.003161
1814.000000	0.003194
1813.000000	0.003215
1812.000000	0.003216
1811.000000	0.003195
1810.000000	0.003165
1809.000000	0.003151
1808.000000	0.003160
1807.000000	0.003172
1806.000000	0.003173
1805.000000	0.003171
1804.000000	0.003169
1803.000000	0.003161
1802.000000	0.003143
1801.000000	0.003129
1800.000000	0.003135
1799.000000	0.003159
1798.000000	0.003190
1797.000000	0.003217
1796.000000	0.003227
1795.000000	0.003211
1794.000000	0.003173
1793.000000	0.003139
1792.000000	0.003127
1791.000000	0.003120
1790.000000	0.003102
1789.000000	0.003090
1788.000000	0.003093
1787.000000	0.003102
1786.000000	0.003101
1785.000000	0.003081
1784.000000	0.003044
1783.000000	0.002996
1782.000000	0.002959
1781.000000	0.002950
1780.000000	0.002972
1779.000000	0.003003
1778.000000	0.003019
1777.000000	0.003010
1776.000000	0.002984
1775.000000	0.002953
1774.000000	0.002915
1773.000000	0.002867
1772.000000	0.002817
1771.000000	0.002781
1770.000000	0.002777
1769.000000	0.002818
1768.000000	0.002886
1767.000000	0.002937
1766.000000	0.002947
1765.000000	0.002928
1764.000000	0.002899
1763.000000	0.002866
1762.000000	0.002842
1761.000000	0.002837
1760.000000	0.002850
1759.000000	0.002866
1758.000000	0.002876
1757.000000	0.002875
1756.000000	0.002860
1755.000000	0.002834
1754.000000	0.002811
1753.000000	0.002796
1752.000000	0.002781
1751.000000	0.002758
1750.000000	0.002730
1749.000000	0.002721
1748.000000	0.002750
1747.000000	0.002805
1746.000000	0.002854
1745.000000	0.002869
1744.000000	0.002847
1743.000000	0.002796
1742.000000	0.002735
1741.000000	0.002685
1740.000000	0.002654
1739.000000	0.002632
1738.000000	0.002617
1737.000000	0.002626
1736.000000	0.002660
1735.000000	0.002695
1734.000000	0.002741
1733.000000	0.002782
1732.000000	0.002776
1731.000000	0.002735
1730.000000	0.002709
1729.000000	0.002722
1728.000000	0.002758
1727.000000	0.002786
1726.000000	0.002789
1725.000000	0.002771
1724.000000	0.002742
1723.000000	0.002690
1722.000000	0.002613
1721.000000	0.002533
1720.000000	0.002474
1719.000000	0.002440
1718.000000	0.002441
1717.000000	0.002490
1716.000000	0.002558
1715.000000	0.002618
1714.000000	0.002705
1713.000000	0.002849
1712.000000	0.003020
1711.000000	0.003169
1710.000000	0.003294
1709.000000	0.003424
1708.000000	0.003578
1707.000000	0.003762
1706.000000	0.003990
1705.000000	0.004258
1704.000000	0.004522
1703.000000	0.004748
1702.000000	0.004944
1701.000000	0.005183
1700.000000	0.005538
1699.000000	0.005909
1698.000000	0.006238
1697.000000	0.006604
1696.000000	0.007017
1695.000000	0.007375
1694.000000	0.007627
1693.000000	0.007855
1692.000000	0.008141
1691.000000	0.008476
1690.000000	0.008810
1689.000000	0.009122
1688.000000	0.009421
1687.000000	0.009717
1686.000000	0.010016
1685.000000	0.010383
1684.000000	0.010855
1683.000000	0.011304
1682.000000	0.011682
1681.000000	0.012065
1680.000000	0.012485
1679.000000	0.012907
1678.000000	0.013315
1677.000000	0.013748
1676.000000	0.014249
1675.000000	0.014795
1674.000000	0.015309
1673.000000	0.015765
1672.000000	0.016208
1671.000000	0.016687
1670.000000	0.017249
1669.000000	0.017894
1668.000000	0.018535
1667.000000	0.019080
1666.000000	0.019528
1665.000000	0.019947
1664.000000	0.020403
1663.000000	0.020894
1662.000000	0.021371
1661.000000	0.021801
1660.000000	0.022199
1659.000000	0.022570
1658.000000	0.022895
1657.000000	0.023173
1656.000000	0.023424
1655.000000	0.023654
1654.000000	0.023912
1653.000000	0.024312
1652.000000	0.024693
1651.000000	0.024836
1650.000000	0.024819
1649.000000	0.024830
1648.000000	0.024946
1647.000000	0.025157
1646.000000	0.025411
1645.000000	0.025649
1644.000000	0.025826
1643.000000	0.025941
1642.000000	0.026034
1641.000000	0.026127
1640.000000	0.026216
1639.000000	0.026285
1638.000000	0.026335
1637.000000	0.026383
1636.000000	0.026457
1635.000000	0.026552
1634.000000	0.026634
1633.000000	0.026690
1632.000000	0.026721
1631.000000	0.026707
1630.000000	0.026615
1629.000000	0.026447
1628.000000	0.026228
1627.000000	0.025973
1626.000000	0.025675
1625.000000	0.025327
1624.000000	0.024933
1623.000000	0.024518
1622.000000	0.024109
1621.000000	0.023712
1620.000000	0.023322
1619.000000	0.022918
1618.000000	0.022448
1617.000000	0.021883
1616.000000	0.021276
1615.000000	0.020710
1614.000000	0.020214
1613.000000	0.019769
1612.000000	0.019337
1611.000000	0.018900
1610.000000	0.018467
1609.000000	0.018045
1608.000000	0.017635
1607.000000	0.017248
1606.000000	0.016893
1605.000000	0.016556
1604.000000	0.016228
1603.000000	0.015928
1602.000000	0.015669
1601.000000	0.015436
1600.000000	0.015210
1599.000000	0.014997
1598.000000	0.014807
1597.000000	0.014629
1596.000000	0.014461
1595.000000	0.014328
1594.000000	0.014252
1593.000000	0.014213
1592.000000	0.014179
1591.000000	0.014148
1590.000000	0.014140
1589.000000	0.014161
1588.000000	0.014200
1587.000000	0.014250
1586.000000	0.014313
1585.000000	0.014381
1584.000000	0.014451
1583.000000	0.014552
1582.000000	0.014699
1581.000000	0.014865
1580.000000	0.015023
1579.000000	0.015190
1578.000000	0.015398
1577.000000	0.015647
1576.000000	0.015910
1575.000000	0.016141
1574.000000	0.016322
1573.000000	0.016481
1572.000000	0.016658
1571.000000	0.016882
1570.000000	0.017180
1569.000000	0.017518
1568.000000	0.017832
1567.000000	0.018127
1566.000000	0.018447
1565.000000	0.018807
1564.000000	0.019169
1563.000000	0.019502
1562.000000	0.019789
1561.000000	0.019987
1560.000000	0.020129
1559.000000	0.020429
1558.000000	0.020872
1557.000000	0.021289
1556.000000	0.021655
1555.000000	0.022012
1554.000000	0.022344
1553.000000	0.022603
1552.000000	0.022798
1551.000000	0.022976
1550.000000	0.023152
1549.000000	0.023299
1548.000000	0.023399
1547.000000	0.023458
1546.000000	0.023493
1545.000000	0.023517
1544.000000	0.023526
1543.000000	0.023516
1542.000000	0.023494
1541.000000	0.023485
1540.000000	0.023510
1539.000000	0.023541
1538.000000	0.023519
1537.000000	0.023419
1536.000000	0.023273
1535.000000	0.023100
1534.000000	0.022919
1533.000000	0.022771
1532.000000	0.022662
1531.000000	0.022548
1530.000000	0.022393
1529.000000	0.022205
1528.000000	0.022008
1527.000000	0.021802
1526.000000	0.021575
1525.000000	0.021342
1524.000000	0.021136
1523.000000	0.020962
1522.000000	0.020799
1521.000000	0.020625
1520.000000	0.020421
1519.000000	0.020185
1518.000000	0.019952
1517.000000	0.019752
1516.000000	0.019582
1515.000000	0.019411
1514.000000	0.019216
1513.000000	0.018991
1512.000000	0.018738
1511.000000	0.018469
1510.000000	0.018203
1509.000000	0.017940
1508.000000	0.017646
1507.000000	0.017283
1506.000000	0.016916
1505.000000	0.016650
1504.000000	0.016435
1503.000000	0.016215
1502.000000	0.015975
1501.000000	0.015707
1500.000000	0.015425
1499.000000	0.015155
1498.000000	0.014901
1497.000000	0.014652
1496.000000	0.014408
1495.000000	0.014163
1494.000000	0.013920
1493.000000	0.013693
1492.000000	0.013472
1491.000000	0.013231
1490.000000	0.012980
1489.000000	0.012777
1488.000000	0.012653
1487.000000	0.012578
1486.000000	0.012521
1485.000000	0.012479
1484.000000	0.012451
1483.000000	0.012431
1482.000000	0.012423
1481.000000	0.012439
1480.000000	0.012481
1479.000000	0.012534
1478.000000	0.012595
1477.000000	0.012682
1476.000000	0.012802
1475.000000	0.012938
1474.000000	0.013085
1473.000000	0.013275
1472.000000	0.013514
1471.000000	0.013755
1470.000000	0.013967
1469.000000	0.014155
1468.000000	0.014323
1467.000000	0.014466
1466.000000	0.014607
1465.000000	0.014790
1464.000000	0.015015
1463.000000	0.015232
1462.000000	0.015403
1461.000000	0.015543
1460.000000	0.015693
1459.000000	0.015892
1458.000000	0.016175
1457.000000	0.016539
1456.000000	0.016878
1455.000000	0.017100
1454.000000	0.017243
1453.000000	0.017383
1452.000000	0.017513
1451.000000	0.017592
1450.000000	0.017611
1449.000000	0.017602
1448.000000	0.017584
1447.000000	0.017552
1446.000000	0.017503
1445.000000	0.017439
1444.000000	0.017365
1443.000000	0.017288
1442.000000	0.017208
1441.000000	0.017119
1440.000000	0.017011
1439.000000	0.016870
1438.000000	0.016685
1437.000000	0.016480
1436.000000	0.016299
1435.000000	0.016147
1434.000000	0.016005
1433.000000	0.015867
1432.000000	0.015731
1431.000000	0.015592
1430.000000	0.015458
1429.000000	0.015348
1428.000000	0.015271
1427.000000	0.015216
1426.000000	0.015170
1425.000000	0.015129
1424.000000	0.015100
1423.000000	0.015086
1422.000000	0.015074
1421.000000	0.015048
1420.000000	0.015009
1419.000000	0.014986
1418.000000	0.014976
1417.000000	0.014961
1416.000000	0.014945
1415.000000	0.014937
1414.000000	0.014935
1413.000000	0.014943
1412.000000	0.014971
1411.000000	0.015017
1410.000000	0.015066
1409.000000	0.015112
1408.000000	0.015163
1407.000000	0.015220
1406.000000	0.015283
1405.000000	0.015348
1404.000000	0.015408
1403.000000	0.015452
1402.000000	0.015473
1401.000000	0.015478
1400.000000	0.015475
1399.000000	0.015466
1398.000000	0.015446
1397.000000	0.015414
1396.000000	0.015372
1395.000000	0.015323
1394.000000	0.015269
1393.000000	0.015209
1392.000000	0.015141
1391.000000	0.015061
1390.000000	0.014968
1389.000000	0.014867
1388.000000	0.014765
1387.000000	0.014662
1386.000000	0.014548
1385.000000	0.014415
1384.000000	0.014272
1383.000000	0.014138
1382.000000	0.014026
1381.000000	0.013937
1380.000000	0.013851
1379.000000	0.013739
1378.000000	0.013591
1377.000000	0.013419
1376.000000	0.013249
1375.000000	0.013100
1374.000000	0.012971
1373.000000	0.012842
1372.000000	0.012696
1371.000000	0.012529
1370.000000	0.012347
1369.000000	0.012151
1368.000000	0.011947
1367.000000	0.011744
1366.000000	0.011548
1365.000000	0.011361
1364.000000	0.011180
1363.000000	0.011008
1362.000000	0.010856
1361.000000	0.010732
1360.000000	0.010640
1359.000000	0.010576
1358.000000	0.010537
1357.000000	0.010512
1356.000000	0.010498
1355.000000	0.010504
1354.000000	0.010547
1353.000000	0.010636
1352.000000	0.010765
1351.000000	0.010914
1350.000000	0.011070
1349.000000	0.011221
1348.000000	0.011360
1347.000000	0.011491
1346.000000	0.011623
1345.000000	0.011761
1344.000000	0.011900
1343.000000	0.012036
1342.000000	0.012174
1341.000000	0.012323
1340.000000	0.012476
1339.000000	0.012608
1338.000000	0.012699
1337.000000	0.012747
1336.000000	0.012763
1335.000000	0.012752
1334.000000	0.012712
1333.000000	0.012641
1332.000000	0.012545
1331.000000	0.012432
1330.000000	0.012316
1329.000000	0.012204
1328.000000	0.012094
1327.000000	0.011986
1326.000000	0.011887
1325.000000	0.011805
1324.000000	0.011744
1323.000000	0.011702
1322.000000	0.011681
1321.000000	0.011673
1320.000000	0.011668
1319.000000	0.011651
1318.000000	0.011622
1317.000000	0.011588
1316.000000	0.011559
1315.000000	0.011535
1314.000000	0.011505
1313.000000	0.011458
1312.000000	0.011387
1311.000000	0.011295
1310.000000	0.011191
1309.000000	0.011083
1308.000000	0.010976
1307.000000	0.010874
1306.000000	0.010783
1305.000000	0.010704
1304.000000	0.010638
1303.000000	0.010583
1302.000000	0.010540
1301.000000	0.010500
1300.000000	0.010456
1299.000000	0.010404
1298.000000	0.010354
1297.000000	0.010323
1296.000000	0.010318
1295.000000	0.010339
1294.000000	0.010378
1293.000000	0.010427
1292.000000	0.010479
1291.000000	0.010531
1290.000000	0.010589
1289.000000	0.010664
1288.000000	0.010755
1287.000000	0.010852
1286.000000	0.010942
1285.000000	0.011024
1284.000000	0.011104
1283.000000	0.011185
1282.000000	0.011259
1281.000000	0.011317
1280.000000	0.011349
1279.000000	0.011351
1278.000000	0.011333
1277.000000	0.011310
1276.000000	0.011294
1275.000000	0.011284
1274.000000	0.011276
1273.000000	0.011262
1272.000000	0.011239
1271.000000	0.011213
1270.000000	0.011202
1269.000000	0.011213
1268.000000	0.011239
1267.000000	0.011263
1266.000000	0.011287
1265.000000	0.011333
1264.000000	0.011418
1263.000000	0.011533
1262.000000	0.011645
1261.000000	0.011736
1260.000000	0.011808
1259.000000	0.011878
1258.000000	0.011958
1257.000000	0.012053
1256.000000	0.012160
1255.000000	0.012271
1254.000000	0.012384
1253.000000	0.012503
1252.000000	0.012635
1251.000000	0.012783
1250.000000	0.012944
1249.000000	0.013116
1248.000000	0.013290
1247.000000	0.013462
1246.000000	0.013632
1245.000000	0.013807
1244.000000	0.013984
1243.000000	0.014150
1242.000000	0.014291
1241.000000	0.014401
1240.000000	0.014476
1239.000000	0.014514
1238.000000	0.014533
1237.000000	0.014559
1236.000000	0.014604
1235.000000	0.014646
1234.000000	0.014649
1233.000000	0.014594
1232.000000	0.014489
1231.000000	0.014345
1230.000000	0.014165
1229.000000	0.013954
1228.000000	0.013714
1227.000000	0.013448
1226.000000	0.013154
1225.000000	0.012839
1224.000000	0.012518
1223.000000	0.012204
1222.000000	0.011897
1221.000000	0.011592
1220.000000	0.011294
1219.000000	0.011029
1218.000000	0.010828
1217.000000	0.010707
1216.000000	0.010656
1215.000000	0.010653
1214.000000	0.010675
1213.000000	0.010708
1212.000000	0.010741
1211.000000	0.010773
1210.000000	0.010812
1209.000000	0.010870
1208.000000	0.010947
1207.000000	0.011024
1206.000000	0.011087
1205.000000	0.011136
1204.000000	0.011178
1203.000000	0.011206
1202.000000	0.011204
1201.000000	0.011163
1200.000000	0.011084
1199.000000	0.010969
1198.000000	0.010826
1197.000000	0.010671
1196.000000	0.010522
1195.000000	0.010382
1194.000000	0.010237
1193.000000	0.010078
1192.000000	0.009905
1191.000000	0.009724
1190.000000	0.009537
1189.000000	0.009350
1188.000000	0.009180
1187.000000	0.009037
1186.000000	0.008914
1185.000000	0.008802
1184.000000	0.008699
1183.000000	0.008605
1182.000000	0.008522
1181.000000	0.008451
1180.000000	0.008407
1179.000000	0.008397
1178.000000	0.008408
1177.000000	0.008409
1176.000000	0.008386
1175.000000	0.008343
1174.000000	0.008302
1173.000000	0.008275
1172.000000	0.008267
1171.000000	0.008276
1170.000000	0.008296
1169.000000	0.008328
1168.000000	0.008371
1167.000000	0.008419
1166.000000	0.008458
1165.000000	0.008483
1164.000000	0.008500
1163.000000	0.008515
1162.000000	0.008528
1161.000000	0.008531
1160.000000	0.008521
1159.000000	0.008493
1158.000000	0.008435
1157.000000	0.008347
1156.000000	0.008247
1155.000000	0.008153
1154.000000	0.008062
1153.000000	0.007956
1152.000000	0.007834
1151.000000	0.007715
1150.000000	0.007611
1149.000000	0.007511
1148.000000	0.007406
1147.000000	0.007308
1146.000000	0.007233
1145.000000	0.007172
1144.000000	0.007105
1143.000000	0.007028
1142.000000	0.006951
1141.000000	0.006884
1140.000000	0.006820
1139.000000	0.006760
1138.000000	0.006710
1137.000000	0.006672
1136.000000	0.006637
1135.000000	0.006594
1134.000000	0.006546
1133.000000	0.006508
1132.000000	0.006494
1131.000000	0.006504
1130.000000	0.006520
1129.000000	0.006525
1128.000000	0.006514
1127.000000	0.006500
1126.000000	0.006503
1125.000000	0.006530
1124.000000	0.006572
1123.000000	0.006608
1122.000000	0.006621
1121.000000	0.006600
1120.000000	0.006555
1119.000000	0.006516
1118.000000	0.006518
1117.000000	0.006570
1116.000000	0.006650
1115.000000	0.006720
1114.000000	0.006761
1113.000000	0.006780
1112.000000	0.006791
1111.000000	0.006807
1110.000000	0.006835
1109.000000	0.006870
1108.000000	0.006902
1107.000000	0.006919
1106.000000	0.006925
1105.000000	0.006934
1104.000000	0.006959
1103.000000	0.007002
1102.000000	0.007050
1101.000000	0.007092
1100.000000	0.007120
1099.000000	0.007135
1098.000000	0.007151
1097.000000	0.007185
1096.000000	0.007238
1095.000000	0.007297
1094.000000	0.007352
1093.000000	0.007416
1092.000000	0.007510
1091.000000	0.007640
1090.000000	0.007791
1089.000000	0.007948
1088.000000	0.008106
1087.000000	0.008271
1086.000000	0.008449
1085.000000	0.008635
1084.000000	0.008809
1083.000000	0.008941
1082.000000	0.009018
1081.000000	0.009048
1080.000000	0.009048
1079.000000	0.009012
1078.000000	0.008930
1077.000000	0.008809
1076.000000	0.008680
1075.000000	0.008570
1074.000000	0.008481
1073.000000	0.008399
1072.000000	0.008320
1071.000000	0.008249
1070.000000	0.008191
1069.000000	0.008144
1068.000000	0.008110
1067.000000	0.008098
1066.000000	0.008112
1065.000000	0.008148
1064.000000	0.008198
1063.000000	0.008251
1062.000000	0.008287
1061.000000	0.008288
1060.000000	0.008255
1059.000000	0.008207
1058.000000	0.008167
1057.000000	0.008137
1056.000000	0.008106
1055.000000	0.008066
1054.000000	0.008021
1053.000000	0.007981
1052.000000	0.007951
1051.000000	0.007929
1050.000000	0.007913
1049.000000	0.007893
1048.000000	0.007861
1047.000000	0.007818
1046.000000	0.007781
1045.000000	0.007765
1044.000000	0.007772
1043.000000	0.007791
1042.000000	0.007815
1041.000000	0.007850
1040.000000	0.007908
1039.000000	0.008001
1038.000000	0.008132
1037.000000	0.008285
1036.000000	0.008431
1035.000000	0.008540
1034.000000	0.008605
1033.000000	0.008649
1032.000000	0.008696
1031.000000	0.008745
1030.000000	0.008771
1029.000000	0.008752
1028.000000	0.008689
1027.000000	0.008603
1026.000000	0.008513
1025.000000	0.008423
1024.000000	0.008333
1023.000000	0.008243
1022.000000	0.008161
1021.000000	0.008089
1020.000000	0.008019
1019.000000	0.007949
1018.000000	0.007886
1017.000000	0.007838
1016.000000	0.007798
1015.000000	0.007746
1014.000000	0.007664
1013.000000	0.007555
1012.000000	0.007425
1011.000000	0.007284
1010.000000	0.007141
1009.000000	0.007013
1008.000000	0.006909
1007.000000	0.006824
1006.000000	0.006739
1005.000000	0.006643
1004.000000	0.006540
1003.000000	0.006448
1002.000000	0.006372
1001.000000	0.006298
1000.000000	0.006206
999.000000	0.006091
998.000000	0.005974
997.000000	0.005874
996.000000	0.005789
995.000000	0.005700
994.000000	0.005595
993.000000	0.005482
992.000000	0.005373
991.000000	0.005272
990.000000	0.005180
989.000000	0.005111
988.000000	0.005080
987.000000	0.005081
986.000000	0.005081
985.000000	0.005052
984.000000	0.004997
983.000000	0.004944
982.000000	0.004922
981.000000	0.004930
980.000000	0.004946
979.000000	0.004953
978.000000	0.004949
977.000000	0.004939
976.000000	0.004920
975.000000	0.004886
974.000000	0.004841
973.000000	0.004795
972.000000	0.004753
971.000000	0.004712
970.000000	0.004672
969.000000	0.004635
968.000000	0.004604
967.000000	0.004566
966.000000	0.004511
965.000000	0.004443
964.000000	0.004373
963.000000	0.004313
962.000000	0.004270
961.000000	0.004241
960.000000	0.004215
959.000000	0.004173
958.000000	0.004104
957.000000	0.004020
956.000000	0.003948
955.000000	0.003904
954.000000	0.003886
953.000000	0.003881
952.000000	0.003873
951.000000	0.003851
950.000000	0.003813
949.000000	0.003771
948.000000	0.003748
947.000000	0.003755
946.000000	0.003779
945.000000	0.003791
944.000000	0.003772
943.000000	0.003732
942.000000	0.003699
941.000000	0.003694
940.000000	0.003712
939.000000	0.003726
938.000000	0.003717
937.000000	0.003688
936.000000	0.003655
935.000000	0.003628
934.000000	0.003603
933.000000	0.003574
932.000000	0.003543
931.000000	0.003517
930.000000	0.003506
929.000000	0.003508
928.000000	0.003509
927.000000	0.003490
926.000000	0.003450
925.000000	0.003415
924.000000	0.003410
923.000000	0.003434
922.000000	0.003454
921.000000	0.003436
920.000000	0.003366
919.000000	0.003265
918.000000	0.003163
917.000000	0.003086
916.000000	0.003040
915.000000	0.003013
914.000000	0.002985
913.000000	0.002949
912.000000	0.002907
911.000000	0.002865
910.000000	0.002826
909.000000	0.002797
908.000000	0.002783
907.000000	0.002782
906.000000	0.002781
905.000000	0.002769
904.000000	0.002743
903.000000	0.002710
902.000000	0.002675
901.000000	0.002644
900.000000	0.002619
899.000000	0.002601
898.000000	0.002591
897.000000	0.002592
896.000000	0.002604
895.000000	0.002623
894.000000	0.002635
893.000000	0.002626
892.000000	0.002592
891.000000	0.002542
890.000000	0.002492
889.000000	0.002462
888.000000	0.002460
887.000000	0.002491
886.000000	0.002558
885.000000	0.002665
884.000000	0.002799
883.000000	0.002939
882.000000	0.003081
881.000000	0.003251
880.000000	0.003483
879.000000	0.003772
878.000000	0.004065
877.000000	0.004289
876.000000	0.004398
875.000000	0.004393
874.000000	0.004307
873.000000	0.004174
872.000000	0.004006
871.000000	0.003808
870.000000	0.003593
869.000000	0.003402
868.000000	0.003269
867.000000	0.003205
866.000000	0.003190
865.000000	0.003194
864.000000	0.003185
863.000000	0.003140
862.000000	0.003057
861.000000	0.002968
860.000000	0.002910
859.000000	0.002901
858.000000	0.002925
857.000000	0.002956
856.000000	0.002979
855.000000	0.002990
854.000000	0.002995
853.000000	0.003007
852.000000	0.003030
851.000000	0.003052
850.000000	0.003057
849.000000	0.003037
848.000000	0.002995
847.000000	0.002929
846.000000	0.002841
845.000000	0.002746
844.000000	0.002677
843.000000	0.002652
842.000000	0.002665
841.000000	0.002694
840.000000	0.002722
839.000000	0.002736
838.000000	0.002726
837.000000	0.002693
836.000000	0.002654
835.000000	0.002624
834.000000	0.002601
833.000000	0.002571
832.000000	0.002527
831.000000	0.002483
830.000000	0.002457
829.000000	0.002456
828.000000	0.002476
827.000000	0.002511
826.000000	0.002563
825.000000	0.002631
824.000000	0.002697
823.000000	0.002733
822.000000	0.002729
821.000000	0.002707
820.000000	0.002693
819.000000	0.002701
818.000000	0.002725
817.000000	0.002754
816.000000	0.002770
815.000000	0.002754
814.000000	0.002708
813.000000	0.002660
812.000000	0.002641
811.000000	0.002648
810.000000	0.002647
809.000000	0.002615
808.000000	0.002563
807.000000	0.002515
806.000000	0.002494
805.000000	0.002514
804.000000	0.002568
803.000000	0.002624
802.000000	0.002640
801.000000	0.002604
800.000000	0.002550
799.000000	0.002525
798.000000	0.002558
797.000000	0.002640
796.000000	0.002736
795.000000	0.002803
794.000000	0.002822
793.000000	0.002804
792.000000	0.002776
791.000000	0.002751
790.000000	0.002735
789.000000	0.002744
788.000000	0.002791
787.000000	0.002861
786.000000	0.002919
785.000000	0.002954
784.000000	0.002986
783.000000	0.003028
782.000000	0.003060
781.000000	0.003056
780.000000	0.003023
779.000000	0.002990
778.000000	0.002978
777.000000	0.002998
776.000000	0.003052
775.000000	0.003135
774.000000	0.003225
773.000000	0.003295
772.000000	0.003334
771.000000	0.003336
770.000000	0.003300
769.000000	0.003240
768.000000	0.003200
767.000000	0.003219
766.000000	0.003291
765.000000	0.003363
764.000000	0.003393
763.000000	0.003388
762.000000	0.003379
761.000000	0.003385
760.000000	0.003399
759.000000	0.003408
758.000000	0.003407
757.000000	0.003407
756.000000	0.003417
755.000000	0.003435
754.000000	0.003448
753.000000	0.003446
752.000000	0.003438
751.000000	0.003442
750.000000	0.003474
749.000000	0.003528
748.000000	0.003587
747.000000	0.003633
746.000000	0.003661
745.000000	0.003682
744.000000	0.003715
743.000000	0.003772
742.000000	0.003848
741.000000	0.003922
740.000000	0.003978
739.000000	0.004009
738.000000	0.004022
737.000000	0.004037
736.000000	0.004077
735.000000	0.004148
734.000000	0.004231
733.000000	0.004305
732.000000	0.004374
731.000000	0.004459
730.000000	0.004561
729.000000	0.004653
728.000000	0.004714
727.000000	0.004752
726.000000	0.004783
725.000000	0.004818
724.000000	0.004865
723.000000	0.004940
722.000000	0.005054
721.000000	0.005186
720.000000	0.005295
719.000000	0.005362
718.000000	0.005402
717.000000	0.005427
716.000000	0.005444
715.000000	0.005475
714.000000	0.005549
713.000000	0.005670
712.000000	0.005791
711.000000	0.005858
710.000000	0.005870
709.000000	0.005871
708.000000	0.005900
707.000000	0.005958
706.000000	0.006019
705.000000	0.006066
704.000000	0.006093
703.000000	0.006106
702.000000	0.006119
701.000000	0.006150
700.000000	0.006206
699.000000	0.006272
698.000000	0.006325
697.000000	0.006350
696.000000	0.006344
695.000000	0.006326
694.000000	0.006324
693.000000	0.006355
692.000000	0.006401
691.000000	0.006431
690.000000	0.006448
689.000000	0.006497
688.000000	0.006604
687.000000	0.006729
686.000000	0.006803
685.000000	0.006797
684.000000	0.006760
683.000000	0.006759
682.000000	0.006822
681.000000	0.006924
680.000000	0.007026
679.000000	0.007105
678.000000	0.007153
677.000000	0.007188
676.000000	0.007249
675.000000	0.007360
674.000000	0.007508
673.000000	0.007645
672.000000	0.007705
671.000000	0.007642
670.000000	0.007461
669.000000	0.007251
668.000000	0.007193
667.000000	0.007379
666.000000	0.007591
665.000000	0.007748
664.000000	0.007891
663.000000	0.008032
662.000000	0.008144
661.000000	0.008206
660.000000	0.008228
659.000000	0.008230
658.000000	0.008217
657.000000	0.008194
656.000000	0.008171
655.000000	0.008160
654.000000	0.008180
653.000000	0.008232
652.000000	0.008273
651.000000	0.008256
650.000000	0.008204
649.000000	0.008188
648.000000	0.008226
647.000000	0.008266
646.000000	0.008274
645.000000	0.008279
644.000000	0.008310
643.000000	0.008356
642.000000	0.008393
641.000000	0.008415
640.000000	0.008417
639.000000	0.008370
638.000000	0.008268
637.000000	0.008150
636.000000	0.008059
635.000000	0.008019
634.000000	0.008046
633.000000	0.008143
632.000000	0.008266
631.000000	0.008341
630.000000	0.008343
629.000000	0.008324
628.000000	0.008337
627.000000	0.008383
626.000000	0.008427
625.000000	0.008446
624.000000	0.008428
623.000000	0.008384
622.000000	0.008367
621.000000	0.008439
620.000000	0.008576
619.000000	0.008675
618.000000	0.008666
617.000000	0.008592
616.000000	0.008535
615.000000	0.008511
614.000000	0.008495
613.000000	0.008492
612.000000	0.008509
611.000000	0.008509
610.000000	0.008451
609.000000	0.008366
608.000000	0.008317
607.000000	0.008308
606.000000	0.008292
605.000000	0.008268
604.000000	0.008288
603.000000	0.008368
602.000000	0.008439
601.000000	0.008430
600.000000	0.008350
599.000000	0.008280
598.000000	0.008287
597.000000	0.008370
596.000000	0.008470
595.000000	0.008525
594.000000	0.008516
593.000000	0.008484
592.000000	0.008476
591.000000	0.008493
590.000000	0.008514
589.000000	0.008519
588.000000	0.008491
587.000000	0.008393
586.000000	0.008221
585.000000	0.008053
584.000000	0.008006
583.000000	0.008108
582.000000	0.008266
581.000000	0.008359
580.000000	0.008363
579.000000	0.008346
578.000000	0.008376
577.000000	0.008464
576.000000	0.008577
575.000000	0.008677
574.000000	0.008743
573.000000	0.008772
572.000000	0.008772
571.000000	0.008761
570.000000	0.008760
569.000000	0.008789
568.000000	0.008847
567.000000	0.008899
566.000000	0.008908
565.000000	0.008879
564.000000	0.008873
563.000000	0.008960
562.000000	0.009146
561.000000	0.009358
560.000000	0.009511
559.000000	0.009578
558.000000	0.009586
557.000000	0.009544
556.000000	0.009428
555.000000	0.009237
554.000000	0.009053
553.000000	0.008975
552.000000	0.009018
551.000000	0.009104
550.000000	0.009145
549.000000	0.009108
548.000000	0.009009
547.000000	0.008883
546.000000	0.008762
545.000000	0.008639
544.000000	0.008466
543.000000	0.008226
542.000000	0.007998
541.000000	0.007905
540.000000	0.007998
539.000000	0.008221
538.000000	0.008483
537.000000	0.008709
536.000000	0.008851
535.000000	0.008908
534.000000	0.008944
533.000000	0.009015
532.000000	0.009078
531.000000	0.009038
530.000000	0.008907
529.000000	0.008813
528.000000	0.008832
527.000000	0.008899
526.000000	0.008911
525.000000	0.008854
524.000000	0.008752
523.000000	0.008586
522.000000	0.008352
521.000000	0.008137
520.000000	0.008051
519.000000	0.008104
518.000000	0.008210
517.000000	0.008278
516.000000	0.008259
515.000000	0.008125
514.000000	0.007888
513.000000	0.007628
512.000000	0.007436
511.000000	0.007334
510.000000	0.007281
509.000000	0.007220
508.000000	0.007090
507.000000	0.006869
506.000000	0.006639
505.000000	0.006548
504.000000	0.006643
503.000000	0.006775
502.000000	0.006750
501.000000	0.006553
500.000000	0.006351
499.000000	0.006280
498.000000	0.006329
497.000000	0.006412
496.000000	0.006463
495.000000	0.006460
494.000000	0.006401
493.000000	0.006287
492.000000	0.006119
491.000000	0.005914
490.000000	0.005751
489.000000	0.005722
488.000000	0.005820
487.000000	0.005906
486.000000	0.005854
485.000000	0.005693
484.000000	0.005571
483.000000	0.005570
482.000000	0.005629
481.000000	0.005645
480.000000	0.005574
479.000000	0.005445
478.000000	0.005310
477.000000	0.005194
476.000000	0.005069
475.000000	0.004898
474.000000	0.004693
473.000000	0.004501
472.000000	0.004323
471.000000	0.004122
470.000000	0.003929
469.000000	0.003869
468.000000	0.004004
467.000000	0.004217
466.000000	0.004311
465.000000	0.004252
464.000000	0.004155
463.000000	0.004108
462.000000	0.004098
461.000000	0.004091
460.000000	0.004080
459.000000	0.004031
458.000000	0.003636
457.000000	0.003426
456.000000	0.003267
455.000000	0.003121
454.000000	0.002903
453.000000	0.002639
452.000000	0.002467
451.000000	0.002474
450.000000	0.002601
