PE IR       SUBTECH     SPECTRUM    ASCII       PEDS        4.00        
   -1
3G-H10-C011_1.ASC
22/02/23
14:37:41.00
22/02/23
15:10:46.00
uco
Sample 011 By uco Date Wednesday, February 23 2022
450.000000
#HDR
-1
-1
#GR
cm-1
A
1.0
0.0
4000.000000
-1.000000
3551
8
0.041583
0.004017
#DATA
4000.000000	0.004173
3999.000000	0.004155
3998.000000	0.004146
3997.000000	0.004154
3996.000000	0.004178
3995.000000	0.004204
3994.000000	0.004221
3993.000000	0.004259
3992.000000	0.004257
3991.000000	0.004253
3990.000000	0.004248
3989.000000	0.004245
3988.000000	0.004252
3987.000000	0.004272
3986.000000	0.004303
3985.000000	0.004330
3984.000000	0.004342
3983.000000	0.004339
3982.000000	0.004330
3981.000000	0.004320
3980.000000	0.004311
3979.000000	0.004298
3978.000000	0.004279
3977.000000	0.004257
3976.000000	0.004239
3975.000000	0.004231
3974.000000	0.004235
3973.000000	0.004248
3972.000000	0.004268
3971.000000	0.004291
3970.000000	0.004318
3969.000000	0.004346
3968.000000	0.004371
3967.000000	0.004384
3966.000000	0.004383
3965.000000	0.004370
3964.000000	0.004350
3963.000000	0.004330
3962.000000	0.004315
3961.000000	0.004310
3960.000000	0.004317
3959.000000	0.004336
3958.000000	0.004360
3957.000000	0.004384
3956.000000	0.004402
3955.000000	0.004408
3954.000000	0.004398
3953.000000	0.004372
3952.000000	0.004341
3951.000000	0.004317
3950.000000	0.004308
3949.000000	0.004311
3948.000000	0.004313
3947.000000	0.004310
3946.000000	0.004309
3945.000000	0.004320
3944.000000	0.004346
3943.000000	0.004373
3942.000000	0.004388
3941.000000	0.004388
3940.000000	0.004382
3939.000000	0.004378
3938.000000	0.004378
3937.000000	0.004377
3936.000000	0.004377
3935.000000	0.004385
3934.000000	0.004407
3933.000000	0.004439
3932.000000	0.004469
3931.000000	0.004484
3930.000000	0.004481
3929.000000	0.004466
3928.000000	0.004449
3927.000000	0.004435
3926.000000	0.004422
3925.000000	0.004407
3924.000000	0.004394
3923.000000	0.004393
3922.000000	0.004407
3921.000000	0.004430
3920.000000	0.004450
3919.000000	0.004454
3918.000000	0.004440
3917.000000	0.004409
3916.000000	0.004372
3915.000000	0.004345
3914.000000	0.004342
3913.000000	0.004362
3912.000000	0.004389
3911.000000	0.004408
3910.000000	0.004413
3909.000000	0.004411
3908.000000	0.004411
3907.000000	0.004417
3906.000000	0.004425
3905.000000	0.004428
3904.000000	0.004425
3903.000000	0.004424
3902.000000	0.004436
3901.000000	0.004465
3900.000000	0.004497
3899.000000	0.004513
3898.000000	0.004506
3897.000000	0.004484
3896.000000	0.004458
3895.000000	0.004436
3894.000000	0.004425
3893.000000	0.004431
3892.000000	0.004448
3891.000000	0.004456
3890.000000	0.004444
3889.000000	0.004427
3888.000000	0.004425
3887.000000	0.004439
3886.000000	0.004458
3885.000000	0.004464
3884.000000	0.004464
3883.000000	0.004478
3882.000000	0.004511
3881.000000	0.004539
3880.000000	0.004535
3879.000000	0.004495
3878.000000	0.004448
3877.000000	0.004425
3876.000000	0.004430
3875.000000	0.004446
3874.000000	0.004450
3873.000000	0.004439
3872.000000	0.004429
3871.000000	0.004431
3870.000000	0.004435
3869.000000	0.004419
3868.000000	0.004389
3867.000000	0.004371
3866.000000	0.004376
3865.000000	0.004399
3864.000000	0.004426
3863.000000	0.004450
3862.000000	0.004469
3861.000000	0.004479
3860.000000	0.004483
3859.000000	0.004490
3858.000000	0.004506
3857.000000	0.004524
3856.000000	0.004522
3855.000000	0.004480
3854.000000	0.004397
3853.000000	0.004304
3852.000000	0.004249
3851.000000	0.004260
3850.000000	0.004319
3849.000000	0.004384
3848.000000	0.004430
3847.000000	0.004449
3846.000000	0.004451
3845.000000	0.004446
3844.000000	0.004438
3843.000000	0.004426
3842.000000	0.004409
3841.000000	0.004384
3840.000000	0.004357
3839.000000	0.004339
3838.000000	0.004338
3837.000000	0.004358
3836.000000	0.004385
3835.000000	0.004405
3834.000000	0.004408
3833.000000	0.004402
3832.000000	0.004397
3831.000000	0.004400
3830.000000	0.004406
3829.000000	0.004415
3828.000000	0.004422
3827.000000	0.004422
3826.000000	0.004409
3825.000000	0.004384
3824.000000	0.004359
3823.000000	0.004344
3822.000000	0.004344
3821.000000	0.004343
3820.000000	0.004327
3819.000000	0.004310
3818.000000	0.004315
3817.000000	0.004344
3816.000000	0.004377
3815.000000	0.004396
3814.000000	0.004405
3813.000000	0.004414
3812.000000	0.004418
3811.000000	0.004410
3810.000000	0.004391
3809.000000	0.004370
3808.000000	0.004351
3807.000000	0.004322
3806.000000	0.004276
3805.000000	0.004230
3804.000000	0.004202
3803.000000	0.004202
3802.000000	0.004225
3801.000000	0.004254
3800.000000	0.004278
3799.000000	0.004302
3798.000000	0.004327
3797.000000	0.004342
3796.000000	0.004344
3795.000000	0.004343
3794.000000	0.004351
3793.000000	0.004368
3792.000000	0.004386
3791.000000	0.004395
3790.000000	0.004396
3789.000000	0.004392
3788.000000	0.004389
3787.000000	0.004392
3786.000000	0.004403
3785.000000	0.004416
3784.000000	0.004425
3783.000000	0.004425
3782.000000	0.004417
3781.000000	0.004409
3780.000000	0.004404
3779.000000	0.004399
3778.000000	0.004394
3777.000000	0.004391
3776.000000	0.004392
3775.000000	0.004396
3774.000000	0.004399
3773.000000	0.004399
3772.000000	0.004398
3771.000000	0.004399
3770.000000	0.004400
3769.000000	0.004403
3768.000000	0.004408
3767.000000	0.004415
3766.000000	0.004415
3765.000000	0.004401
3764.000000	0.004376
3763.000000	0.004353
3762.000000	0.004341
3761.000000	0.004341
3760.000000	0.004343
3759.000000	0.004336
3758.000000	0.004319
3757.000000	0.004293
3756.000000	0.004264
3755.000000	0.004234
3754.000000	0.004198
3753.000000	0.004162
3752.000000	0.004144
3751.000000	0.004162
3750.000000	0.004199
3749.000000	0.004226
3748.000000	0.004235
3747.000000	0.004239
3746.000000	0.004250
3745.000000	0.004271
3744.000000	0.004278
3743.000000	0.004265
3742.000000	0.004263
3741.000000	0.004280
3740.000000	0.004291
3739.000000	0.004273
3738.000000	0.004236
3737.000000	0.004203
3736.000000	0.004190
3735.000000	0.004194
3734.000000	0.004200
3733.000000	0.004202
3732.000000	0.004206
3731.000000	0.004216
3730.000000	0.004243
3729.000000	0.004287
3728.000000	0.004336
3727.000000	0.004370
3726.000000	0.004375
3725.000000	0.004354
3724.000000	0.004320
3723.000000	0.004288
3722.000000	0.004263
3721.000000	0.004249
3720.000000	0.004249
3719.000000	0.004256
3718.000000	0.004261
3717.000000	0.004255
3716.000000	0.004237
3715.000000	0.004209
3714.000000	0.004177
3713.000000	0.004149
3712.000000	0.004140
3711.000000	0.004148
3710.000000	0.004160
3709.000000	0.004163
3708.000000	0.004156
3707.000000	0.004148
3706.000000	0.004152
3705.000000	0.004171
3704.000000	0.004205
3703.000000	0.004245
3702.000000	0.004280
3701.000000	0.004299
3700.000000	0.004301
3699.000000	0.004292
3698.000000	0.004278
3697.000000	0.004260
3696.000000	0.004233
3695.000000	0.004201
3694.000000	0.004169
3693.000000	0.004144
3692.000000	0.004129
3691.000000	0.004126
3690.000000	0.004139
3689.000000	0.004162
3688.000000	0.004183
3687.000000	0.004200
3686.000000	0.004220
3685.000000	0.004240
3684.000000	0.004251
3683.000000	0.004251
3682.000000	0.004254
3681.000000	0.004269
3680.000000	0.004288
3679.000000	0.004289
3678.000000	0.004258
3677.000000	0.004210
3676.000000	0.004179
3675.000000	0.004169
3674.000000	0.004161
3673.000000	0.004149
3672.000000	0.004139
3671.000000	0.004143
3670.000000	0.004173
3669.000000	0.004224
3668.000000	0.004279
3667.000000	0.004328
3666.000000	0.004365
3665.000000	0.004393
3664.000000	0.004417
3663.000000	0.004440
3662.000000	0.004456
3661.000000	0.004456
3660.000000	0.004438
3659.000000	0.004415
3658.000000	0.004406
3657.000000	0.004417
3656.000000	0.004438
3655.000000	0.004454
3654.000000	0.004466
3653.000000	0.004475
3652.000000	0.004473
3651.000000	0.004455
3650.000000	0.004445
3649.000000	0.004469
3648.000000	0.004528
3647.000000	0.004591
3646.000000	0.004632
3645.000000	0.004653
3644.000000	0.004669
3643.000000	0.004690
3642.000000	0.004715
3641.000000	0.004735
3640.000000	0.004748
3639.000000	0.004759
3638.000000	0.004773
3637.000000	0.004794
3636.000000	0.004825
3635.000000	0.004866
3634.000000	0.004911
3633.000000	0.004955
3632.000000	0.005002
3631.000000	0.005055
3630.000000	0.005106
3629.000000	0.005130
3628.000000	0.005111
3627.000000	0.005072
3626.000000	0.005050
3625.000000	0.005050
3624.000000	0.005058
3623.000000	0.005066
3622.000000	0.005077
3621.000000	0.005096
3620.000000	0.005121
3619.000000	0.005140
3618.000000	0.005150
3617.000000	0.005160
3616.000000	0.005187
3615.000000	0.005237
3614.000000	0.005300
3613.000000	0.005355
3612.000000	0.005389
3611.000000	0.005409
3610.000000	0.005429
3609.000000	0.005456
3608.000000	0.005489
3607.000000	0.005520
3606.000000	0.005548
3605.000000	0.005577
3604.000000	0.005608
3603.000000	0.005641
3602.000000	0.005672
3601.000000	0.005695
3600.000000	0.005701
3599.000000	0.005695
3598.000000	0.005697
3597.000000	0.005731
3596.000000	0.005802
3595.000000	0.005885
3594.000000	0.005950
3593.000000	0.005981
3592.000000	0.005993
3591.000000	0.006007
3590.000000	0.006033
3589.000000	0.006073
3588.000000	0.006116
3587.000000	0.006146
3586.000000	0.006155
3585.000000	0.006155
3584.000000	0.006166
3583.000000	0.006199
3582.000000	0.006257
3581.000000	0.006331
3580.000000	0.006406
3579.000000	0.006469
3578.000000	0.006514
3577.000000	0.006539
3576.000000	0.006550
3575.000000	0.006553
3574.000000	0.006558
3573.000000	0.006577
3572.000000	0.006620
3571.000000	0.006687
3570.000000	0.006768
3569.000000	0.006841
3568.000000	0.006892
3567.000000	0.006922
3566.000000	0.006950
3565.000000	0.007000
3564.000000	0.007079
3563.000000	0.007169
3562.000000	0.007241
3561.000000	0.007281
3560.000000	0.007292
3559.000000	0.007293
3558.000000	0.007300
3557.000000	0.007321
3556.000000	0.007356
3555.000000	0.007401
3554.000000	0.007452
3553.000000	0.007507
3552.000000	0.007560
3551.000000	0.007609
3550.000000	0.007654
3549.000000	0.007699
3548.000000	0.007744
3547.000000	0.007792
3546.000000	0.007839
3545.000000	0.007884
3544.000000	0.007931
3543.000000	0.007983
3542.000000	0.008041
3541.000000	0.008099
3540.000000	0.008151
3539.000000	0.008196
3538.000000	0.008238
3537.000000	0.008281
3536.000000	0.008322
3535.000000	0.008352
3534.000000	0.008369
3533.000000	0.008379
3532.000000	0.008396
3531.000000	0.008427
3530.000000	0.008469
3529.000000	0.008515
3528.000000	0.008557
3527.000000	0.008598
3526.000000	0.008645
3525.000000	0.008697
3524.000000	0.008750
3523.000000	0.008803
3522.000000	0.008860
3521.000000	0.008927
3520.000000	0.008999
3519.000000	0.009061
3518.000000	0.009101
3517.000000	0.009117
3516.000000	0.009119
3515.000000	0.009120
3514.000000	0.009129
3513.000000	0.009151
3512.000000	0.009182
3511.000000	0.009216
3510.000000	0.009246
3509.000000	0.009275
3508.000000	0.009312
3507.000000	0.009360
3506.000000	0.009416
3505.000000	0.009465
3504.000000	0.009501
3503.000000	0.009525
3502.000000	0.009546
3501.000000	0.009574
3500.000000	0.009615
3499.000000	0.009671
3498.000000	0.009734
3497.000000	0.009795
3496.000000	0.009845
3495.000000	0.009885
3494.000000	0.009922
3493.000000	0.009962
3492.000000	0.010001
3491.000000	0.010034
3490.000000	0.010062
3489.000000	0.010089
3488.000000	0.010121
3487.000000	0.010159
3486.000000	0.010200
3485.000000	0.010239
3484.000000	0.010267
3483.000000	0.010283
3482.000000	0.010295
3481.000000	0.010317
3480.000000	0.010359
3479.000000	0.010411
3478.000000	0.010456
3477.000000	0.010483
3476.000000	0.010495
3475.000000	0.010504
3474.000000	0.010521
3473.000000	0.010547
3472.000000	0.010580
3471.000000	0.010617
3470.000000	0.010660
3469.000000	0.010702
3468.000000	0.010739
3467.000000	0.010765
3466.000000	0.010781
3465.000000	0.010797
3464.000000	0.010824
3463.000000	0.010866
3462.000000	0.010925
3461.000000	0.010993
3460.000000	0.011059
3459.000000	0.011112
3458.000000	0.011145
3457.000000	0.011158
3456.000000	0.011157
3455.000000	0.011149
3454.000000	0.011143
3453.000000	0.011144
3452.000000	0.011158
3451.000000	0.011185
3450.000000	0.011223
3449.000000	0.011263
3448.000000	0.011298
3447.000000	0.011327
3446.000000	0.011352
3445.000000	0.011383
3444.000000	0.011423
3443.000000	0.011471
3442.000000	0.011523
3441.000000	0.011578
3440.000000	0.011633
3439.000000	0.011682
3438.000000	0.011718
3437.000000	0.011736
3436.000000	0.011745
3435.000000	0.011762
3434.000000	0.011802
3433.000000	0.011860
3432.000000	0.011913
3431.000000	0.011938
3430.000000	0.011936
3429.000000	0.011926
3428.000000	0.011935
3427.000000	0.011972
3426.000000	0.012031
3425.000000	0.012093
3424.000000	0.012138
3423.000000	0.012156
3422.000000	0.012154
3421.000000	0.012148
3420.000000	0.012157
3419.000000	0.012185
3418.000000	0.012221
3417.000000	0.012253
3416.000000	0.012276
3415.000000	0.012298
3414.000000	0.012327
3413.000000	0.012364
3412.000000	0.012405
3411.000000	0.012444
3410.000000	0.012480
3409.000000	0.012515
3408.000000	0.012551
3407.000000	0.012592
3406.000000	0.012637
3405.000000	0.012679
3404.000000	0.012711
3403.000000	0.012729
3402.000000	0.012738
3401.000000	0.012743
3400.000000	0.012750
3399.000000	0.012759
3398.000000	0.012773
3397.000000	0.012794
3396.000000	0.012823
3395.000000	0.012859
3394.000000	0.012900
3393.000000	0.012943
3392.000000	0.012989
3391.000000	0.013035
3390.000000	0.013077
3389.000000	0.013107
3388.000000	0.013128
3387.000000	0.013149
3386.000000	0.013176
3385.000000	0.013202
3384.000000	0.013220
3383.000000	0.013235
3382.000000	0.013264
3381.000000	0.013313
3380.000000	0.013368
3379.000000	0.013406
3378.000000	0.013424
3377.000000	0.013433
3376.000000	0.013447
3375.000000	0.013477
3374.000000	0.013524
3373.000000	0.013586
3372.000000	0.013652
3371.000000	0.013716
3370.000000	0.013776
3369.000000	0.013837
3368.000000	0.013902
3367.000000	0.013966
3366.000000	0.014024
3365.000000	0.014080
3364.000000	0.014139
3363.000000	0.014206
3362.000000	0.014280
3361.000000	0.014355
3360.000000	0.014425
3359.000000	0.014490
3358.000000	0.014553
3357.000000	0.014618
3356.000000	0.014691
3355.000000	0.014773
3354.000000	0.014857
3353.000000	0.014933
3352.000000	0.014993
3351.000000	0.015042
3350.000000	0.015097
3349.000000	0.015168
3348.000000	0.015252
3347.000000	0.015338
3346.000000	0.015420
3345.000000	0.015499
3344.000000	0.015576
3343.000000	0.015648
3342.000000	0.015711
3341.000000	0.015765
3340.000000	0.015813
3339.000000	0.015864
3338.000000	0.015928
3337.000000	0.016012
3336.000000	0.016112
3335.000000	0.016210
3334.000000	0.016294
3333.000000	0.016361
3332.000000	0.016418
3331.000000	0.016466
3330.000000	0.016506
3329.000000	0.016540
3328.000000	0.016573
3327.000000	0.016612
3326.000000	0.016667
3325.000000	0.016741
3324.000000	0.016824
3323.000000	0.016900
3322.000000	0.016954
3321.000000	0.016987
3320.000000	0.017005
3319.000000	0.017019
3318.000000	0.017035
3317.000000	0.017059
3316.000000	0.017100
3315.000000	0.017154
3314.000000	0.017208
3313.000000	0.017247
3312.000000	0.017267
3311.000000	0.017274
3310.000000	0.017278
3309.000000	0.017287
3308.000000	0.017299
3307.000000	0.017310
3306.000000	0.017319
3305.000000	0.017335
3304.000000	0.017369
3303.000000	0.017421
3302.000000	0.017476
3301.000000	0.017518
3300.000000	0.017548
3299.000000	0.017576
3298.000000	0.017608
3297.000000	0.017638
3296.000000	0.017654
3295.000000	0.017653
3294.000000	0.017644
3293.000000	0.017633
3292.000000	0.017626
3291.000000	0.017623
3290.000000	0.017625
3289.000000	0.017630
3288.000000	0.017635
3287.000000	0.017640
3286.000000	0.017645
3285.000000	0.017652
3284.000000	0.017660
3283.000000	0.017668
3282.000000	0.017675
3281.000000	0.017674
3280.000000	0.017659
3279.000000	0.017629
3278.000000	0.017587
3277.000000	0.017537
3276.000000	0.017482
3275.000000	0.017425
3274.000000	0.017376
3273.000000	0.017342
3272.000000	0.017326
3271.000000	0.017323
3270.000000	0.017325
3269.000000	0.017324
3268.000000	0.017315
3267.000000	0.017292
3266.000000	0.017260
3265.000000	0.017225
3264.000000	0.017196
3263.000000	0.017175
3262.000000	0.017155
3261.000000	0.017130
3260.000000	0.017096
3259.000000	0.017054
3258.000000	0.017007
3257.000000	0.016963
3256.000000	0.016927
3255.000000	0.016899
3254.000000	0.016870
3253.000000	0.016833
3252.000000	0.016785
3251.000000	0.016735
3250.000000	0.016692
3249.000000	0.016659
3248.000000	0.016638
3247.000000	0.016626
3246.000000	0.016622
3245.000000	0.016621
3244.000000	0.016616
3243.000000	0.016604
3242.000000	0.016583
3241.000000	0.016554
3240.000000	0.016516
3239.000000	0.016469
3238.000000	0.016418
3237.000000	0.016371
3236.000000	0.016334
3235.000000	0.016309
3234.000000	0.016293
3233.000000	0.016276
3232.000000	0.016256
3231.000000	0.016232
3230.000000	0.016210
3229.000000	0.016197
3228.000000	0.016192
3227.000000	0.016188
3226.000000	0.016172
3225.000000	0.016140
3224.000000	0.016098
3223.000000	0.016055
3222.000000	0.016016
3221.000000	0.015979
3220.000000	0.015949
3219.000000	0.015932
3218.000000	0.015927
3217.000000	0.015923
3216.000000	0.015908
3215.000000	0.015879
3214.000000	0.015844
3213.000000	0.015807
3212.000000	0.015767
3211.000000	0.015723
3210.000000	0.015681
3209.000000	0.015645
3208.000000	0.015618
3207.000000	0.015601
3206.000000	0.015593
3205.000000	0.015590
3204.000000	0.015587
3203.000000	0.015574
3202.000000	0.015543
3201.000000	0.015492
3200.000000	0.015432
3199.000000	0.015377
3198.000000	0.015340
3197.000000	0.015322
3196.000000	0.015314
3195.000000	0.015303
3194.000000	0.015283
3193.000000	0.015249
3192.000000	0.015201
3191.000000	0.015144
3190.000000	0.015086
3189.000000	0.015031
3188.000000	0.014979
3187.000000	0.014931
3186.000000	0.014895
3185.000000	0.014876
3184.000000	0.014875
3183.000000	0.014875
3182.000000	0.014858
3181.000000	0.014809
3180.000000	0.014727
3179.000000	0.014628
3178.000000	0.014536
3177.000000	0.014473
3176.000000	0.014441
3175.000000	0.014426
3174.000000	0.014411
3173.000000	0.014384
3172.000000	0.014345
3171.000000	0.014301
3170.000000	0.014254
3169.000000	0.014209
3168.000000	0.014168
3167.000000	0.014131
3166.000000	0.014095
3165.000000	0.014056
3164.000000	0.014013
3163.000000	0.013970
3162.000000	0.013935
3161.000000	0.013908
3160.000000	0.013884
3159.000000	0.013852
3158.000000	0.013802
3157.000000	0.013737
3156.000000	0.013669
3155.000000	0.013617
3154.000000	0.013584
3153.000000	0.013563
3152.000000	0.013538
3151.000000	0.013504
3150.000000	0.013466
3149.000000	0.013434
3148.000000	0.013410
3147.000000	0.013389
3146.000000	0.013360
3145.000000	0.013318
3144.000000	0.013264
3143.000000	0.013205
3142.000000	0.013151
3141.000000	0.013112
3140.000000	0.013093
3139.000000	0.013086
3138.000000	0.013078
3137.000000	0.013061
3136.000000	0.013033
3135.000000	0.013005
3134.000000	0.012983
3133.000000	0.012970
3132.000000	0.012956
3131.000000	0.012936
3130.000000	0.012905
3129.000000	0.012866
3128.000000	0.012825
3127.000000	0.012791
3126.000000	0.012771
3125.000000	0.012772
3124.000000	0.012788
3123.000000	0.012810
3122.000000	0.012824
3121.000000	0.012819
3120.000000	0.012790
3119.000000	0.012745
3118.000000	0.012698
3117.000000	0.012662
3116.000000	0.012644
3115.000000	0.012644
3114.000000	0.012660
3113.000000	0.012689
3112.000000	0.012723
3111.000000	0.012756
3110.000000	0.012783
3109.000000	0.012805
3108.000000	0.012821
3107.000000	0.012831
3106.000000	0.012836
3105.000000	0.012841
3104.000000	0.012841
3103.000000	0.012831
3102.000000	0.012811
3101.000000	0.012796
3100.000000	0.012806
3099.000000	0.012848
3098.000000	0.012909
3097.000000	0.012965
3096.000000	0.013004
3095.000000	0.013030
3094.000000	0.013053
3093.000000	0.013080
3092.000000	0.013105
3091.000000	0.013119
3090.000000	0.013117
3089.000000	0.013104
3088.000000	0.013092
3087.000000	0.013092
3086.000000	0.013111
3085.000000	0.013150
3084.000000	0.013198
3083.000000	0.013239
3082.000000	0.013259
3081.000000	0.013253
3080.000000	0.013228
3079.000000	0.013201
3078.000000	0.013190
3077.000000	0.013203
3076.000000	0.013236
3075.000000	0.013272
3074.000000	0.013293
3073.000000	0.013289
3072.000000	0.013266
3071.000000	0.013241
3070.000000	0.013231
3069.000000	0.013239
3068.000000	0.013251
3067.000000	0.013251
3066.000000	0.013231
3065.000000	0.013203
3064.000000	0.013182
3063.000000	0.013171
3062.000000	0.013162
3061.000000	0.013147
3060.000000	0.013125
3059.000000	0.013097
3058.000000	0.013062
3057.000000	0.013018
3056.000000	0.012968
3055.000000	0.012915
3054.000000	0.012860
3053.000000	0.012804
3052.000000	0.012748
3051.000000	0.012699
3050.000000	0.012663
3049.000000	0.012636
3048.000000	0.012605
3047.000000	0.012561
3046.000000	0.012503
3045.000000	0.012445
3044.000000	0.012400
3043.000000	0.012369
3042.000000	0.012345
3041.000000	0.012316
3040.000000	0.012280
3039.000000	0.012236
3038.000000	0.012190
3037.000000	0.012149
3036.000000	0.012117
3035.000000	0.012087
3034.000000	0.012048
3033.000000	0.011993
3032.000000	0.011931
3031.000000	0.011882
3030.000000	0.011857
3029.000000	0.011849
3028.000000	0.011839
3027.000000	0.011814
3026.000000	0.011772
3025.000000	0.011728
3024.000000	0.011692
3023.000000	0.011664
3022.000000	0.011635
3021.000000	0.011597
3020.000000	0.011552
3019.000000	0.011506
3018.000000	0.011464
3017.000000	0.011428
3016.000000	0.011401
3015.000000	0.011388
3014.000000	0.011381
3013.000000	0.011368
3012.000000	0.011342
3011.000000	0.011310
3010.000000	0.011287
3009.000000	0.011280
3008.000000	0.011282
3007.000000	0.011279
3006.000000	0.011267
3005.000000	0.011247
3004.000000	0.011222
3003.000000	0.011191
3002.000000	0.011160
3001.000000	0.011137
3000.000000	0.011132
2999.000000	0.011148
2998.000000	0.011179
2997.000000	0.011214
2996.000000	0.011247
2995.000000	0.011280
2994.000000	0.011317
2993.000000	0.011360
2992.000000	0.011406
2991.000000	0.011444
2990.000000	0.011471
2989.000000	0.011496
2988.000000	0.011533
2987.000000	0.011585
2986.000000	0.011639
2985.000000	0.011682
2984.000000	0.011712
2983.000000	0.011736
2982.000000	0.011761
2981.000000	0.011788
2980.000000	0.011816
2979.000000	0.011848
2978.000000	0.011883
2977.000000	0.011911
2976.000000	0.011930
2975.000000	0.011940
2974.000000	0.011955
2973.000000	0.011981
2972.000000	0.012017
2971.000000	0.012056
2970.000000	0.012094
2969.000000	0.012135
2968.000000	0.012190
2967.000000	0.012262
2966.000000	0.012334
2965.000000	0.012385
2964.000000	0.012403
2963.000000	0.012402
2962.000000	0.012403
2961.000000	0.012420
2960.000000	0.012451
2959.000000	0.012488
2958.000000	0.012521
2957.000000	0.012544
2956.000000	0.012557
2955.000000	0.012564
2954.000000	0.012572
2953.000000	0.012581
2952.000000	0.012589
2951.000000	0.012597
2950.000000	0.012603
2949.000000	0.012607
2948.000000	0.012610
2947.000000	0.012615
2946.000000	0.012630
2945.000000	0.012655
2944.000000	0.012687
2943.000000	0.012727
2942.000000	0.012775
2941.000000	0.012832
2940.000000	0.012894
2939.000000	0.012955
2938.000000	0.013010
2937.000000	0.013062
2936.000000	0.013115
2935.000000	0.013176
2934.000000	0.013241
2933.000000	0.013301
2932.000000	0.013353
2931.000000	0.013402
2930.000000	0.013458
2929.000000	0.013519
2928.000000	0.013578
2927.000000	0.013631
2926.000000	0.013682
2925.000000	0.013735
2924.000000	0.013785
2923.000000	0.013832
2922.000000	0.013879
2921.000000	0.013929
2920.000000	0.013970
2919.000000	0.013984
2918.000000	0.013953
2917.000000	0.013875
2916.000000	0.013756
2915.000000	0.013611
2914.000000	0.013455
2913.000000	0.013298
2912.000000	0.013147
2911.000000	0.013004
2910.000000	0.012872
2909.000000	0.012746
2908.000000	0.012621
2907.000000	0.012497
2906.000000	0.012381
2905.000000	0.012282
2904.000000	0.012204
2903.000000	0.012142
2902.000000	0.012092
2901.000000	0.012053
2900.000000	0.012018
2899.000000	0.011982
2898.000000	0.011938
2897.000000	0.011887
2896.000000	0.011836
2895.000000	0.011793
2894.000000	0.011762
2893.000000	0.011740
2892.000000	0.011726
2891.000000	0.011721
2890.000000	0.011725
2889.000000	0.011731
2888.000000	0.011731
2887.000000	0.011719
2886.000000	0.011705
2885.000000	0.011698
2884.000000	0.011701
2883.000000	0.011707
2882.000000	0.011708
2881.000000	0.011704
2880.000000	0.011700
2879.000000	0.011696
2878.000000	0.011694
2877.000000	0.011691
2876.000000	0.011687
2875.000000	0.011680
2874.000000	0.011667
2873.000000	0.011646
2872.000000	0.011620
2871.000000	0.011592
2870.000000	0.011565
2869.000000	0.011540
2868.000000	0.011510
2867.000000	0.011473
2866.000000	0.011433
2865.000000	0.011398
2864.000000	0.011374
2863.000000	0.011360
2862.000000	0.011352
2861.000000	0.011348
2860.000000	0.011349
2859.000000	0.011355
2858.000000	0.011367
2857.000000	0.011390
2856.000000	0.011432
2855.000000	0.011501
2854.000000	0.011597
2853.000000	0.011706
2852.000000	0.011803
2851.000000	0.011864
2850.000000	0.011873
2849.000000	0.011827
2848.000000	0.011731
2847.000000	0.011594
2846.000000	0.011431
2845.000000	0.011262
2844.000000	0.011106
2843.000000	0.010977
2842.000000	0.010877
2841.000000	0.010795
2840.000000	0.010714
2839.000000	0.010631
2838.000000	0.010556
2837.000000	0.010504
2836.000000	0.010474
2835.000000	0.010455
2834.000000	0.010432
2833.000000	0.010403
2832.000000	0.010368
2831.000000	0.010332
2830.000000	0.010295
2829.000000	0.010262
2828.000000	0.010241
2827.000000	0.010232
2826.000000	0.010230
2825.000000	0.010225
2824.000000	0.010210
2823.000000	0.010183
2822.000000	0.010149
2821.000000	0.010111
2820.000000	0.010076
2819.000000	0.010050
2818.000000	0.010031
2817.000000	0.010015
2816.000000	0.010003
2815.000000	0.009995
2814.000000	0.009997
2813.000000	0.010003
2812.000000	0.010004
2811.000000	0.009995
2810.000000	0.009973
2809.000000	0.009944
2808.000000	0.009911
2807.000000	0.009880
2806.000000	0.009860
2805.000000	0.009851
2804.000000	0.009849
2803.000000	0.009848
2802.000000	0.009844
2801.000000	0.009837
2800.000000	0.009827
2799.000000	0.009812
2798.000000	0.009791
2797.000000	0.009767
2796.000000	0.009742
2795.000000	0.009716
2794.000000	0.009691
2793.000000	0.009671
2792.000000	0.009661
2791.000000	0.009662
2790.000000	0.009670
2789.000000	0.009672
2788.000000	0.009659
2787.000000	0.009633
2786.000000	0.009608
2785.000000	0.009592
2784.000000	0.009584
2783.000000	0.009571
2782.000000	0.009548
2781.000000	0.009520
2780.000000	0.009498
2779.000000	0.009489
2778.000000	0.009486
2777.000000	0.009480
2776.000000	0.009469
2775.000000	0.009460
2774.000000	0.009455
2773.000000	0.009452
2772.000000	0.009444
2771.000000	0.009427
2770.000000	0.009403
2769.000000	0.009382
2768.000000	0.009371
2767.000000	0.009370
2766.000000	0.009370
2765.000000	0.009362
2764.000000	0.009346
2763.000000	0.009330
2762.000000	0.009321
2761.000000	0.009317
2760.000000	0.009307
2759.000000	0.009287
2758.000000	0.009259
2757.000000	0.009228
2756.000000	0.009201
2755.000000	0.009183
2754.000000	0.009178
2753.000000	0.009180
2752.000000	0.009183
2751.000000	0.009184
2750.000000	0.009183
2749.000000	0.009180
2748.000000	0.009172
2747.000000	0.009155
2746.000000	0.009134
2745.000000	0.009114
2744.000000	0.009099
2743.000000	0.009089
2742.000000	0.009083
2741.000000	0.009073
2740.000000	0.009056
2739.000000	0.009032
2738.000000	0.009005
2737.000000	0.008980
2736.000000	0.008958
2735.000000	0.008945
2734.000000	0.008944
2733.000000	0.008950
2732.000000	0.008945
2731.000000	0.008920
2730.000000	0.008884
2729.000000	0.008858
2728.000000	0.008850
2727.000000	0.008855
2726.000000	0.008859
2725.000000	0.008854
2724.000000	0.008838
2723.000000	0.008818
2722.000000	0.008805
2721.000000	0.008802
2720.000000	0.008808
2719.000000	0.008816
2718.000000	0.008826
2717.000000	0.008843
2716.000000	0.008862
2715.000000	0.008870
2714.000000	0.008856
2713.000000	0.008821
2712.000000	0.008780
2711.000000	0.008751
2710.000000	0.008737
2709.000000	0.008732
2708.000000	0.008720
2707.000000	0.008699
2706.000000	0.008680
2705.000000	0.008676
2704.000000	0.008689
2703.000000	0.008704
2702.000000	0.008710
2701.000000	0.008703
2700.000000	0.008683
2699.000000	0.008653
2698.000000	0.008620
2697.000000	0.008595
2696.000000	0.008587
2695.000000	0.008589
2694.000000	0.008592
2693.000000	0.008591
2692.000000	0.008591
2691.000000	0.008595
2690.000000	0.008598
2689.000000	0.008597
2688.000000	0.008589
2687.000000	0.008579
2686.000000	0.008572
2685.000000	0.008569
2684.000000	0.008566
2683.000000	0.008556
2682.000000	0.008545
2681.000000	0.008542
2680.000000	0.008551
2679.000000	0.008560
2678.000000	0.008551
2677.000000	0.008521
2676.000000	0.008484
2675.000000	0.008460
2674.000000	0.008456
2673.000000	0.008469
2672.000000	0.008483
2671.000000	0.008488
2670.000000	0.008484
2669.000000	0.008482
2668.000000	0.008490
2667.000000	0.008506
2666.000000	0.008518
2665.000000	0.008521
2664.000000	0.008518
2663.000000	0.008513
2662.000000	0.008509
2661.000000	0.008500
2660.000000	0.008487
2659.000000	0.008470
2658.000000	0.008452
2657.000000	0.008433
2656.000000	0.008415
2655.000000	0.008398
2654.000000	0.008387
2653.000000	0.008380
2652.000000	0.008372
2651.000000	0.008356
2650.000000	0.008329
2649.000000	0.008293
2648.000000	0.008252
2647.000000	0.008210
2646.000000	0.008171
2645.000000	0.008139
2644.000000	0.008118
2643.000000	0.008110
2642.000000	0.008107
2641.000000	0.008095
2640.000000	0.008068
2639.000000	0.008034
2638.000000	0.008009
2637.000000	0.008000
2636.000000	0.008000
2635.000000	0.008001
2634.000000	0.007995
2633.000000	0.007979
2632.000000	0.007951
2631.000000	0.007917
2630.000000	0.007887
2629.000000	0.007865
2628.000000	0.007846
2627.000000	0.007825
2626.000000	0.007805
2625.000000	0.007791
2624.000000	0.007781
2623.000000	0.007773
2622.000000	0.007763
2621.000000	0.007746
2620.000000	0.007716
2619.000000	0.007674
2618.000000	0.007632
2617.000000	0.007605
2616.000000	0.007599
2615.000000	0.007605
2614.000000	0.007614
2613.000000	0.007614
2612.000000	0.007599
2611.000000	0.007568
2610.000000	0.007538
2609.000000	0.007524
2608.000000	0.007528
2607.000000	0.007530
2606.000000	0.007518
2605.000000	0.007500
2604.000000	0.007491
2603.000000	0.007497
2602.000000	0.007509
2601.000000	0.007516
2600.000000	0.007512
2599.000000	0.007499
2598.000000	0.007482
2597.000000	0.007465
2596.000000	0.007445
2595.000000	0.007417
2594.000000	0.007382
2593.000000	0.007353
2592.000000	0.007339
2591.000000	0.007337
2590.000000	0.007335
2589.000000	0.007322
2588.000000	0.007295
2587.000000	0.007256
2586.000000	0.007221
2585.000000	0.007203
2584.000000	0.007206
2583.000000	0.007217
2582.000000	0.007228
2581.000000	0.007237
2580.000000	0.007244
2579.000000	0.007240
2578.000000	0.007214
2577.000000	0.007173
2576.000000	0.007143
2575.000000	0.007145
2574.000000	0.007173
2573.000000	0.007206
2572.000000	0.007225
2571.000000	0.007227
2570.000000	0.007219
2569.000000	0.007202
2568.000000	0.007172
2567.000000	0.007135
2566.000000	0.007104
2565.000000	0.007092
2564.000000	0.007097
2563.000000	0.007110
2562.000000	0.007119
2561.000000	0.007118
2560.000000	0.007106
2559.000000	0.007081
2558.000000	0.007052
2557.000000	0.007031
2556.000000	0.007023
2555.000000	0.007017
2554.000000	0.006998
2553.000000	0.006970
2552.000000	0.006954
2551.000000	0.006966
2550.000000	0.006999
2549.000000	0.007033
2548.000000	0.007053
2547.000000	0.007057
2546.000000	0.007052
2545.000000	0.007041
2544.000000	0.007023
2543.000000	0.006996
2542.000000	0.006963
2541.000000	0.006931
2540.000000	0.006908
2539.000000	0.006904
2538.000000	0.006918
2537.000000	0.006943
2536.000000	0.006967
2535.000000	0.006978
2534.000000	0.006970
2533.000000	0.006942
2532.000000	0.006910
2531.000000	0.006891
2530.000000	0.006900
2529.000000	0.006927
2528.000000	0.006947
2527.000000	0.006944
2526.000000	0.006916
2525.000000	0.006877
2524.000000	0.006836
2523.000000	0.006802
2522.000000	0.006785
2521.000000	0.006796
2520.000000	0.006836
2519.000000	0.006884
2518.000000	0.006912
2517.000000	0.006903
2516.000000	0.006868
2515.000000	0.006835
2514.000000	0.006826
2513.000000	0.006840
2512.000000	0.006858
2511.000000	0.006868
2510.000000	0.006868
2509.000000	0.006860
2508.000000	0.006841
2507.000000	0.006812
2506.000000	0.006785
2505.000000	0.006777
2504.000000	0.006796
2503.000000	0.006831
2502.000000	0.006864
2501.000000	0.006876
2500.000000	0.006859
2499.000000	0.006824
2498.000000	0.006795
2497.000000	0.006788
2496.000000	0.006794
2495.000000	0.006795
2494.000000	0.006778
2493.000000	0.006753
2492.000000	0.006740
2491.000000	0.006750
2490.000000	0.006775
2489.000000	0.006799
2488.000000	0.006809
2487.000000	0.006805
2486.000000	0.006797
2485.000000	0.006794
2484.000000	0.006798
2483.000000	0.006806
2482.000000	0.006812
2481.000000	0.006809
2480.000000	0.006791
2479.000000	0.006761
2478.000000	0.006732
2477.000000	0.006715
2476.000000	0.006705
2475.000000	0.006690
2474.000000	0.006668
2473.000000	0.006645
2472.000000	0.006629
2471.000000	0.006623
2470.000000	0.006627
2469.000000	0.006639
2468.000000	0.006658
2467.000000	0.006676
2466.000000	0.006688
2465.000000	0.006694
2464.000000	0.006696
2463.000000	0.006699
2462.000000	0.006703
2461.000000	0.006703
2460.000000	0.006692
2459.000000	0.006666
2458.000000	0.006632
2457.000000	0.006601
2456.000000	0.006586
2455.000000	0.006591
2454.000000	0.006611
2453.000000	0.006632
2452.000000	0.006640
2451.000000	0.006633
2450.000000	0.006624
2449.000000	0.006624
2448.000000	0.006631
2447.000000	0.006635
2446.000000	0.006631
2445.000000	0.006621
2444.000000	0.006615
2443.000000	0.006620
2442.000000	0.006630
2441.000000	0.006630
2440.000000	0.006612
2439.000000	0.006591
2438.000000	0.006588
2437.000000	0.006605
2436.000000	0.006621
2435.000000	0.006617
2434.000000	0.006597
2433.000000	0.006582
2432.000000	0.006579
2431.000000	0.006579
2430.000000	0.006575
2429.000000	0.006566
2428.000000	0.006561
2427.000000	0.006572
2426.000000	0.006601
2425.000000	0.006635
2424.000000	0.006647
2423.000000	0.006618
2422.000000	0.006554
2421.000000	0.006479
2420.000000	0.006426
2419.000000	0.006421
2418.000000	0.006470
2417.000000	0.006548
2416.000000	0.006613
2415.000000	0.006634
2414.000000	0.006605
2413.000000	0.006540
2412.000000	0.006458
2411.000000	0.006387
2410.000000	0.006357
2409.000000	0.006374
2408.000000	0.006417
2407.000000	0.006455
2406.000000	0.006479
2405.000000	0.006493
2404.000000	0.006502
2403.000000	0.006513
2402.000000	0.006534
2401.000000	0.006569
2400.000000	0.006597
2399.000000	0.006597
2398.000000	0.006576
2397.000000	0.006557
2396.000000	0.006551
2395.000000	0.006544
2394.000000	0.006531
2393.000000	0.006521
2392.000000	0.006529
2391.000000	0.006547
2390.000000	0.006557
2389.000000	0.006545
2388.000000	0.006517
2387.000000	0.006487
2386.000000	0.006470
2385.000000	0.006477
2384.000000	0.006500
2383.000000	0.006521
2382.000000	0.006526
2381.000000	0.006515
2380.000000	0.006495
2379.000000	0.006474
2378.000000	0.006461
2377.000000	0.006469
2376.000000	0.006497
2375.000000	0.006533
2374.000000	0.006557
2373.000000	0.006556
2372.000000	0.006533
2371.000000	0.006505
2370.000000	0.006489
2369.000000	0.006486
2368.000000	0.006481
2367.000000	0.006470
2366.000000	0.006470
2365.000000	0.006504
2364.000000	0.006574
2363.000000	0.006659
2362.000000	0.006725
2361.000000	0.006740
2360.000000	0.006706
2359.000000	0.006648
2358.000000	0.006593
2357.000000	0.006554
2356.000000	0.006540
2355.000000	0.006563
2354.000000	0.006601
2353.000000	0.006616
2352.000000	0.006600
2351.000000	0.006586
2350.000000	0.006596
2349.000000	0.006618
2348.000000	0.006631
2347.000000	0.006628
2346.000000	0.006629
2345.000000	0.006659
2344.000000	0.006709
2343.000000	0.006757
2342.000000	0.006776
2341.000000	0.006771
2340.000000	0.006763
2339.000000	0.006760
2338.000000	0.006750
2337.000000	0.006721
2336.000000	0.006683
2335.000000	0.006651
2334.000000	0.006618
2333.000000	0.006576
2332.000000	0.006539
2331.000000	0.006531
2330.000000	0.006563
2329.000000	0.006621
2328.000000	0.006701
2327.000000	0.006799
2326.000000	0.006900
2325.000000	0.006968
2324.000000	0.006976
2323.000000	0.006939
2322.000000	0.006903
2321.000000	0.006895
2320.000000	0.006901
2319.000000	0.006885
2318.000000	0.006835
2317.000000	0.006770
2316.000000	0.006728
2315.000000	0.006720
2314.000000	0.006742
2313.000000	0.006768
2312.000000	0.006775
2311.000000	0.006752
2310.000000	0.006719
2309.000000	0.006695
2308.000000	0.006695
2307.000000	0.006706
2306.000000	0.006707
2305.000000	0.006684
2304.000000	0.006646
2303.000000	0.006615
2302.000000	0.006612
2301.000000	0.006628
2300.000000	0.006640
2299.000000	0.006629
2298.000000	0.006608
2297.000000	0.006592
2296.000000	0.006588
2295.000000	0.006585
2294.000000	0.006580
2293.000000	0.006576
2292.000000	0.006584
2291.000000	0.006605
2290.000000	0.006636
2289.000000	0.006668
2288.000000	0.006690
2287.000000	0.006700
2286.000000	0.006702
2285.000000	0.006688
2284.000000	0.006637
2283.000000	0.006554
2282.000000	0.006480
2281.000000	0.006455
2280.000000	0.006470
2279.000000	0.006480
2278.000000	0.006456
2277.000000	0.006414
2276.000000	0.006377
2275.000000	0.006355
2274.000000	0.006346
2273.000000	0.006351
2272.000000	0.006358
2271.000000	0.006352
2270.000000	0.006333
2269.000000	0.006321
2268.000000	0.006337
2267.000000	0.006375
2266.000000	0.006409
2265.000000	0.006415
2264.000000	0.006392
2263.000000	0.006370
2262.000000	0.006391
2261.000000	0.006460
2260.000000	0.006522
2259.000000	0.006508
2258.000000	0.006418
2257.000000	0.006320
2256.000000	0.006268
2255.000000	0.006248
2254.000000	0.006219
2253.000000	0.006178
2252.000000	0.006162
2251.000000	0.006197
2250.000000	0.006260
2249.000000	0.006304
2248.000000	0.006304
2247.000000	0.006281
2246.000000	0.006282
2245.000000	0.006328
2244.000000	0.006386
2243.000000	0.006398
2242.000000	0.006336
2241.000000	0.006224
2240.000000	0.006115
2239.000000	0.006064
2238.000000	0.006098
2237.000000	0.006187
2236.000000	0.006258
2235.000000	0.006254
2234.000000	0.006186
2233.000000	0.006111
2232.000000	0.006064
2231.000000	0.006045
2230.000000	0.006047
2229.000000	0.006080
2228.000000	0.006136
2227.000000	0.006190
2226.000000	0.006211
2225.000000	0.006185
2224.000000	0.006106
2223.000000	0.005990
2222.000000	0.005892
2221.000000	0.005873
2220.000000	0.005937
2219.000000	0.006030
2218.000000	0.006102
2217.000000	0.006141
2216.000000	0.006139
2215.000000	0.006085
2214.000000	0.005995
2213.000000	0.005927
2212.000000	0.005933
2211.000000	0.006013
2210.000000	0.006137
2209.000000	0.006276
2208.000000	0.006399
2207.000000	0.006456
2206.000000	0.006398
2205.000000	0.006242
2204.000000	0.006068
2203.000000	0.005957
2202.000000	0.005915
2201.000000	0.005882
2200.000000	0.005803
2199.000000	0.005698
2198.000000	0.005648
2197.000000	0.005706
2196.000000	0.005840
2195.000000	0.005971
2194.000000	0.006049
2193.000000	0.006073
2192.000000	0.006063
2191.000000	0.006040
2190.000000	0.006028
2189.000000	0.006030
2188.000000	0.006016
2187.000000	0.005947
2186.000000	0.005827
2185.000000	0.005700
2184.000000	0.005606
2183.000000	0.005549
2182.000000	0.005523
2181.000000	0.005536
2180.000000	0.005599
2179.000000	0.005705
2178.000000	0.005822
2177.000000	0.005908
2176.000000	0.005925
2175.000000	0.005866
2174.000000	0.005748
2173.000000	0.005597
2172.000000	0.005467
2171.000000	0.005453
2170.000000	0.005628
2169.000000	0.005930
2168.000000	0.006171
2167.000000	0.006203
2166.000000	0.006060
2165.000000	0.005892
2164.000000	0.005801
2163.000000	0.005776
2162.000000	0.005746
2161.000000	0.005628
2160.000000	0.005370
2159.000000	0.005043
2158.000000	0.004827
2157.000000	0.004814
2156.000000	0.004886
2155.000000	0.004898
2154.000000	0.004863
2153.000000	0.004891
2152.000000	0.005019
2151.000000	0.005181
2150.000000	0.005323
2149.000000	0.005440
2148.000000	0.005518
2147.000000	0.005521
2146.000000	0.005443
2145.000000	0.005333
2144.000000	0.005247
2143.000000	0.005215
2142.000000	0.005250
2141.000000	0.005344
2140.000000	0.005451
2139.000000	0.005531
2138.000000	0.005584
2137.000000	0.005629
2136.000000	0.005648
2135.000000	0.005601
2134.000000	0.005495
2133.000000	0.005396
2132.000000	0.005366
2131.000000	0.005411
2130.000000	0.005494
2129.000000	0.005573
2128.000000	0.005625
2127.000000	0.005660
2126.000000	0.005707
2125.000000	0.005777
2124.000000	0.005838
2123.000000	0.005858
2122.000000	0.005841
2121.000000	0.005822
2120.000000	0.005823
2119.000000	0.005839
2118.000000	0.005852
2117.000000	0.005849
2116.000000	0.005826
2115.000000	0.005803
2114.000000	0.005815
2113.000000	0.005872
2112.000000	0.005936
2111.000000	0.005975
2110.000000	0.005999
2109.000000	0.006036
2108.000000	0.006068
2107.000000	0.006053
2106.000000	0.005984
2105.000000	0.005904
2104.000000	0.005859
2103.000000	0.005870
2102.000000	0.005939
2101.000000	0.006045
2100.000000	0.006120
2099.000000	0.006100
2098.000000	0.005990
2097.000000	0.005863
2096.000000	0.005781
2095.000000	0.005755
2094.000000	0.005768
2093.000000	0.005808
2092.000000	0.005862
2091.000000	0.005920
2090.000000	0.005990
2089.000000	0.006076
2088.000000	0.006136
2087.000000	0.006110
2086.000000	0.006001
2085.000000	0.005876
2084.000000	0.005789
2083.000000	0.005740
2082.000000	0.005719
2081.000000	0.005731
2080.000000	0.005771
2079.000000	0.005800
2078.000000	0.005789
2077.000000	0.005749
2076.000000	0.005700
2075.000000	0.005641
2074.000000	0.005573
2073.000000	0.005531
2072.000000	0.005542
2071.000000	0.005588
2070.000000	0.005616
2069.000000	0.005581
2068.000000	0.005472
2067.000000	0.005329
2066.000000	0.005232
2065.000000	0.005252
2064.000000	0.005367
2063.000000	0.005481
2062.000000	0.005517
2061.000000	0.005498
2060.000000	0.005492
2059.000000	0.005540
2058.000000	0.005636
2057.000000	0.005755
2056.000000	0.005876
2055.000000	0.005983
2054.000000	0.006069
2053.000000	0.006126
2052.000000	0.006134
2051.000000	0.006066
2050.000000	0.005922
2049.000000	0.005739
2048.000000	0.005567
2047.000000	0.005450
2046.000000	0.005422
2045.000000	0.005478
2044.000000	0.005542
2043.000000	0.005525
2042.000000	0.005415
2041.000000	0.005284
2040.000000	0.005187
2039.000000	0.005107
2038.000000	0.005003
2037.000000	0.004870
2036.000000	0.004730
2035.000000	0.004618
2034.000000	0.004606
2033.000000	0.004763
2032.000000	0.005053
2031.000000	0.005341
2030.000000	0.005509
2029.000000	0.005540
2028.000000	0.005465
2027.000000	0.005310
2026.000000	0.005112
2025.000000	0.004926
2024.000000	0.004782
2023.000000	0.004653
2022.000000	0.004525
2021.000000	0.004450
2020.000000	0.004495
2019.000000	0.004650
2018.000000	0.004806
2017.000000	0.004841
2016.000000	0.004727
2015.000000	0.004564
2014.000000	0.004497
2013.000000	0.004594
2012.000000	0.004816
2011.000000	0.005088
2010.000000	0.005351
2009.000000	0.005527
2008.000000	0.005525
2007.000000	0.005346
2006.000000	0.005129
2005.000000	0.005015
2004.000000	0.005007
2003.000000	0.005016
2002.000000	0.004987
2001.000000	0.004925
2000.000000	0.004837
1999.000000	0.004741
1998.000000	0.004682
1997.000000	0.004683
1996.000000	0.004674
1995.000000	0.004567
1994.000000	0.004391
1993.000000	0.004292
1992.000000	0.004380
1991.000000	0.004608
1990.000000	0.004851
1989.000000	0.005016
1988.000000	0.005070
1987.000000	0.005016
1986.000000	0.004882
1985.000000	0.004711
1984.000000	0.004556
1983.000000	0.004476
1982.000000	0.004508
1981.000000	0.004619
1980.000000	0.004709
1979.000000	0.004721
1978.000000	0.004699
1977.000000	0.004693
1976.000000	0.004673
1975.000000	0.004624
1974.000000	0.004635
1973.000000	0.004757
1972.000000	0.004860
1971.000000	0.004767
1970.000000	0.004496
1969.000000	0.004242
1968.000000	0.004162
1967.000000	0.004245
1966.000000	0.004404
1965.000000	0.004566
1964.000000	0.004672
1963.000000	0.004687
1962.000000	0.004639
1961.000000	0.004593
1960.000000	0.004573
1959.000000	0.004568
1958.000000	0.004580
1957.000000	0.004621
1956.000000	0.004672
1955.000000	0.004715
1954.000000	0.004766
1953.000000	0.004826
1952.000000	0.004831
1951.000000	0.004724
1950.000000	0.004561
1949.000000	0.004468
1948.000000	0.004491
1947.000000	0.004563
1946.000000	0.004621
1945.000000	0.004677
1944.000000	0.004756
1943.000000	0.004837
1942.000000	0.004880
1941.000000	0.004864
1940.000000	0.004792
1939.000000	0.004692
1938.000000	0.004624
1937.000000	0.004636
1936.000000	0.004715
1935.000000	0.004789
1934.000000	0.004810
1933.000000	0.004788
1932.000000	0.004763
1931.000000	0.004767
1930.000000	0.004812
1929.000000	0.004879
1928.000000	0.004917
1927.000000	0.004896
1926.000000	0.004855
1925.000000	0.004866
1924.000000	0.004942
1923.000000	0.005019
1922.000000	0.005028
1921.000000	0.004962
1920.000000	0.004862
1919.000000	0.004779
1918.000000	0.004751
1917.000000	0.004783
1916.000000	0.004832
1915.000000	0.004860
1914.000000	0.004871
1913.000000	0.004882
1912.000000	0.004884
1911.000000	0.004866
1910.000000	0.004847
1909.000000	0.004848
1908.000000	0.004853
1907.000000	0.004844
1906.000000	0.004840
1905.000000	0.004876
1904.000000	0.004932
1903.000000	0.004949
1902.000000	0.004908
1901.000000	0.004849
1900.000000	0.004811
1899.000000	0.004803
1898.000000	0.004826
1897.000000	0.004882
1896.000000	0.004946
1895.000000	0.004982
1894.000000	0.004989
1893.000000	0.004994
1892.000000	0.004995
1891.000000	0.004968
1890.000000	0.004910
1889.000000	0.004857
1888.000000	0.004826
1887.000000	0.004799
1886.000000	0.004767
1885.000000	0.004750
1884.000000	0.004765
1883.000000	0.004808
1882.000000	0.004873
1881.000000	0.004946
1880.000000	0.004993
1879.000000	0.004979
1878.000000	0.004916
1877.000000	0.004854
1876.000000	0.004826
1875.000000	0.004826
1874.000000	0.004836
1873.000000	0.004852
1872.000000	0.004870
1871.000000	0.004874
1870.000000	0.004860
1869.000000	0.004840
1868.000000	0.004817
1867.000000	0.004785
1866.000000	0.004760
1865.000000	0.004767
1864.000000	0.004794
1863.000000	0.004803
1862.000000	0.004788
1861.000000	0.004779
1860.000000	0.004786
1859.000000	0.004791
1858.000000	0.004780
1857.000000	0.004769
1856.000000	0.004769
1855.000000	0.004774
1854.000000	0.004780
1853.000000	0.004781
1852.000000	0.004764
1851.000000	0.004717
1850.000000	0.004662
1849.000000	0.004633
1848.000000	0.004639
1847.000000	0.004662
1846.000000	0.004701
1845.000000	0.004768
1844.000000	0.004846
1843.000000	0.004888
1842.000000	0.004886
1841.000000	0.004873
1840.000000	0.004860
1839.000000	0.004827
1838.000000	0.004775
1837.000000	0.004738
1836.000000	0.004733
1835.000000	0.004735
1834.000000	0.004723
1833.000000	0.004703
1832.000000	0.004683
1831.000000	0.004664
1830.000000	0.004659
1829.000000	0.004678
1828.000000	0.004702
1827.000000	0.004708
1826.000000	0.004707
1825.000000	0.004723
1824.000000	0.004753
1823.000000	0.004764
1822.000000	0.004753
1821.000000	0.004747
1820.000000	0.004758
1819.000000	0.004762
1818.000000	0.004741
1817.000000	0.004716
1816.000000	0.004704
1815.000000	0.004703
1814.000000	0.004704
1813.000000	0.004716
1812.000000	0.004737
1811.000000	0.004741
1810.000000	0.004716
1809.000000	0.004681
1808.000000	0.004664
1807.000000	0.004665
1806.000000	0.004676
1805.000000	0.004693
1804.000000	0.004699
1803.000000	0.004679
1802.000000	0.004646
1801.000000	0.004638
1800.000000	0.004663
1799.000000	0.004688
1798.000000	0.004697
1797.000000	0.004707
1796.000000	0.004726
1795.000000	0.004732
1794.000000	0.004710
1793.000000	0.004683
1792.000000	0.004687
1791.000000	0.004699
1790.000000	0.004687
1789.000000	0.004661
1788.000000	0.004639
1787.000000	0.004615
1786.000000	0.004579
1785.000000	0.004548
1784.000000	0.004533
1783.000000	0.004525
1782.000000	0.004513
1781.000000	0.004503
1780.000000	0.004507
1779.000000	0.004519
1778.000000	0.004524
1777.000000	0.004518
1776.000000	0.004499
1775.000000	0.004473
1774.000000	0.004448
1773.000000	0.004436
1772.000000	0.004441
1771.000000	0.004441
1770.000000	0.004428
1769.000000	0.004432
1768.000000	0.004464
1767.000000	0.004486
1766.000000	0.004467
1765.000000	0.004423
1764.000000	0.004384
1763.000000	0.004360
1762.000000	0.004351
1761.000000	0.004350
1760.000000	0.004345
1759.000000	0.004332
1758.000000	0.004325
1757.000000	0.004340
1756.000000	0.004364
1755.000000	0.004374
1754.000000	0.004370
1753.000000	0.004368
1752.000000	0.004361
1751.000000	0.004328
1750.000000	0.004275
1749.000000	0.004244
1748.000000	0.004260
1747.000000	0.004299
1746.000000	0.004328
1745.000000	0.004332
1744.000000	0.004321
1743.000000	0.004302
1742.000000	0.004284
1741.000000	0.004279
1740.000000	0.004282
1739.000000	0.004266
1738.000000	0.004231
1737.000000	0.004215
1736.000000	0.004240
1735.000000	0.004273
1734.000000	0.004299
1733.000000	0.004302
1732.000000	0.004258
1731.000000	0.004203
1730.000000	0.004188
1729.000000	0.004224
1728.000000	0.004278
1727.000000	0.004297
1726.000000	0.004274
1725.000000	0.004238
1724.000000	0.004209
1723.000000	0.004174
1722.000000	0.004128
1721.000000	0.004097
1720.000000	0.004089
1719.000000	0.004074
1718.000000	0.004056
1717.000000	0.004107
1716.000000	0.004232
1715.000000	0.004371
1714.000000	0.004516
1713.000000	0.004687
1712.000000	0.004870
1711.000000	0.005039
1710.000000	0.005205
1709.000000	0.005414
1708.000000	0.005689
1707.000000	0.006019
1706.000000	0.006394
1705.000000	0.006811
1704.000000	0.007222
1703.000000	0.007616
1702.000000	0.008063
1701.000000	0.008647
1700.000000	0.009278
1699.000000	0.009702
1698.000000	0.009962
1697.000000	0.010327
1696.000000	0.010902
1695.000000	0.011499
1694.000000	0.011926
1693.000000	0.012260
1692.000000	0.012627
1691.000000	0.013044
1690.000000	0.013480
1689.000000	0.013922
1688.000000	0.014365
1687.000000	0.014810
1686.000000	0.015301
1685.000000	0.015936
1684.000000	0.016735
1683.000000	0.017469
1682.000000	0.018013
1681.000000	0.018520
1680.000000	0.019099
1679.000000	0.019730
1678.000000	0.020393
1677.000000	0.021137
1676.000000	0.021993
1675.000000	0.022865
1674.000000	0.023616
1673.000000	0.024269
1672.000000	0.024950
1671.000000	0.025722
1670.000000	0.026587
1669.000000	0.027500
1668.000000	0.028354
1667.000000	0.029081
1666.000000	0.029733
1665.000000	0.030414
1664.000000	0.031174
1663.000000	0.031959
1662.000000	0.032681
1661.000000	0.033314
1660.000000	0.033893
1659.000000	0.034441
1658.000000	0.034955
1657.000000	0.035452
1656.000000	0.035958
1655.000000	0.036468
1654.000000	0.036977
1653.000000	0.037531
1652.000000	0.037949
1651.000000	0.038102
1650.000000	0.038201
1649.000000	0.038384
1648.000000	0.038656
1647.000000	0.038969
1646.000000	0.039267
1645.000000	0.039498
1644.000000	0.039674
1643.000000	0.039833
1642.000000	0.039999
1641.000000	0.040186
1640.000000	0.040393
1639.000000	0.040597
1638.000000	0.040792
1637.000000	0.041000
1636.000000	0.041243
1635.000000	0.041470
1634.000000	0.041575
1633.000000	0.041583
1632.000000	0.041573
1631.000000	0.041555
1630.000000	0.041487
1629.000000	0.041335
1628.000000	0.041095
1627.000000	0.040777
1626.000000	0.040391
1625.000000	0.039925
1624.000000	0.039356
1623.000000	0.038701
1622.000000	0.038040
1621.000000	0.037434
1620.000000	0.036876
1619.000000	0.036294
1618.000000	0.035571
1617.000000	0.034664
1616.000000	0.033703
1615.000000	0.032848
1614.000000	0.032118
1613.000000	0.031439
1612.000000	0.030739
1611.000000	0.030010
1610.000000	0.029294
1609.000000	0.028615
1608.000000	0.027966
1607.000000	0.027354
1606.000000	0.026791
1605.000000	0.026258
1604.000000	0.025734
1603.000000	0.025235
1602.000000	0.024789
1601.000000	0.024391
1600.000000	0.024023
1599.000000	0.023691
1598.000000	0.023400
1597.000000	0.023131
1596.000000	0.022870
1595.000000	0.022647
1594.000000	0.022493
1593.000000	0.022387
1592.000000	0.022298
1591.000000	0.022230
1590.000000	0.022213
1589.000000	0.022242
1588.000000	0.022293
1587.000000	0.022369
1586.000000	0.022482
1585.000000	0.022615
1584.000000	0.022748
1583.000000	0.022906
1582.000000	0.023119
1581.000000	0.023366
1580.000000	0.023605
1579.000000	0.023850
1578.000000	0.024152
1577.000000	0.024530
1576.000000	0.024943
1575.000000	0.025314
1574.000000	0.025624
1573.000000	0.025929
1572.000000	0.026285
1571.000000	0.026722
1570.000000	0.027230
1569.000000	0.027731
1568.000000	0.028149
1567.000000	0.028533
1566.000000	0.028984
1565.000000	0.029524
1564.000000	0.030085
1563.000000	0.030619
1562.000000	0.031146
1561.000000	0.031683
1560.000000	0.032220
1559.000000	0.032855
1558.000000	0.033562
1557.000000	0.034046
1556.000000	0.034365
1555.000000	0.034687
1554.000000	0.035035
1553.000000	0.035355
1552.000000	0.035628
1551.000000	0.035889
1550.000000	0.036167
1549.000000	0.036442
1548.000000	0.036671
1547.000000	0.036845
1546.000000	0.036989
1545.000000	0.037123
1544.000000	0.037260
1543.000000	0.037388
1542.000000	0.037467
1541.000000	0.037468
1540.000000	0.037423
1539.000000	0.037354
1538.000000	0.037222
1537.000000	0.037073
1536.000000	0.036944
1535.000000	0.036785
1534.000000	0.036542
1533.000000	0.036256
1532.000000	0.035981
1531.000000	0.035710
1530.000000	0.035432
1529.000000	0.035157
1528.000000	0.034888
1527.000000	0.034617
1526.000000	0.034345
1525.000000	0.034094
1524.000000	0.033873
1523.000000	0.033625
1522.000000	0.033290
1521.000000	0.032909
1520.000000	0.032556
1519.000000	0.032227
1518.000000	0.031891
1517.000000	0.031543
1516.000000	0.031212
1515.000000	0.030892
1514.000000	0.030548
1513.000000	0.030158
1512.000000	0.029735
1511.000000	0.029315
1510.000000	0.028925
1509.000000	0.028544
1508.000000	0.028089
1507.000000	0.027544
1506.000000	0.027023
1505.000000	0.026538
1504.000000	0.026077
1503.000000	0.025658
1502.000000	0.025261
1501.000000	0.024870
1500.000000	0.024484
1499.000000	0.024091
1498.000000	0.023657
1497.000000	0.023187
1496.000000	0.022730
1495.000000	0.022309
1494.000000	0.021926
1493.000000	0.021592
1492.000000	0.021280
1491.000000	0.020928
1490.000000	0.020531
1489.000000	0.020182
1488.000000	0.019935
1487.000000	0.019745
1486.000000	0.019575
1485.000000	0.019438
1484.000000	0.019346
1483.000000	0.019281
1482.000000	0.019240
1481.000000	0.019249
1480.000000	0.019324
1479.000000	0.019443
1478.000000	0.019580
1477.000000	0.019739
1476.000000	0.019926
1475.000000	0.020131
1474.000000	0.020364
1473.000000	0.020662
1472.000000	0.021022
1471.000000	0.021351
1470.000000	0.021610
1469.000000	0.021848
1468.000000	0.022105
1467.000000	0.022377
1466.000000	0.022666
1465.000000	0.022990
1464.000000	0.023325
1463.000000	0.023611
1462.000000	0.023854
1461.000000	0.024112
1460.000000	0.024425
1459.000000	0.024799
1458.000000	0.025248
1457.000000	0.025773
1456.000000	0.026227
1455.000000	0.026488
1454.000000	0.026652
1453.000000	0.026823
1452.000000	0.026997
1451.000000	0.027124
1450.000000	0.027179
1449.000000	0.027179
1448.000000	0.027142
1447.000000	0.027085
1446.000000	0.027024
1445.000000	0.026963
1444.000000	0.026890
1443.000000	0.026788
1442.000000	0.026656
1441.000000	0.026519
1440.000000	0.026396
1439.000000	0.026270
1438.000000	0.026077
1437.000000	0.025775
1436.000000	0.025417
1435.000000	0.025080
1434.000000	0.024788
1433.000000	0.024534
1432.000000	0.024300
1431.000000	0.024074
1430.000000	0.023870
1429.000000	0.023708
1428.000000	0.023596
1427.000000	0.023513
1426.000000	0.023437
1425.000000	0.023356
1424.000000	0.023289
1423.000000	0.023262
1422.000000	0.023270
1421.000000	0.023273
1420.000000	0.023236
1419.000000	0.023164
1418.000000	0.023095
1417.000000	0.023047
1416.000000	0.023026
1415.000000	0.023026
1414.000000	0.023030
1413.000000	0.023034
1412.000000	0.023062
1411.000000	0.023132
1410.000000	0.023234
1409.000000	0.023349
1408.000000	0.023473
1407.000000	0.023601
1406.000000	0.023731
1405.000000	0.023864
1404.000000	0.023994
1403.000000	0.024109
1402.000000	0.024198
1401.000000	0.024260
1400.000000	0.024289
1399.000000	0.024278
1398.000000	0.024234
1397.000000	0.024181
1396.000000	0.024129
1395.000000	0.024073
1394.000000	0.023989
1393.000000	0.023864
1392.000000	0.023713
1391.000000	0.023562
1390.000000	0.023420
1389.000000	0.023276
1388.000000	0.023124
1387.000000	0.022969
1386.000000	0.022818
1385.000000	0.022665
1384.000000	0.022508
1383.000000	0.022350
1382.000000	0.022191
1381.000000	0.022026
1380.000000	0.021843
1379.000000	0.021637
1378.000000	0.021417
1377.000000	0.021196
1376.000000	0.020976
1375.000000	0.020756
1374.000000	0.020542
1373.000000	0.020334
1372.000000	0.020115
1371.000000	0.019874
1370.000000	0.019608
1369.000000	0.019312
1368.000000	0.018989
1367.000000	0.018660
1366.000000	0.018346
1365.000000	0.018052
1364.000000	0.017763
1363.000000	0.017486
1362.000000	0.017252
1361.000000	0.017078
1360.000000	0.016955
1359.000000	0.016865
1358.000000	0.016798
1357.000000	0.016751
1356.000000	0.016726
1355.000000	0.016734
1354.000000	0.016792
1353.000000	0.016901
1352.000000	0.017050
1351.000000	0.017221
1350.000000	0.017410
1349.000000	0.017624
1348.000000	0.017859
1347.000000	0.018101
1346.000000	0.018336
1345.000000	0.018555
1344.000000	0.018761
1343.000000	0.018961
1342.000000	0.019158
1341.000000	0.019353
1340.000000	0.019539
1339.000000	0.019709
1338.000000	0.019849
1337.000000	0.019947
1336.000000	0.020002
1335.000000	0.020011
1334.000000	0.019972
1333.000000	0.019882
1332.000000	0.019745
1331.000000	0.019575
1330.000000	0.019392
1329.000000	0.019206
1328.000000	0.019025
1327.000000	0.018861
1326.000000	0.018726
1325.000000	0.018618
1324.000000	0.018521
1323.000000	0.018429
1322.000000	0.018356
1321.000000	0.018314
1320.000000	0.018298
1319.000000	0.018290
1318.000000	0.018271
1317.000000	0.018235
1316.000000	0.018176
1315.000000	0.018092
1314.000000	0.017991
1313.000000	0.017889
1312.000000	0.017794
1311.000000	0.017696
1310.000000	0.017575
1309.000000	0.017426
1308.000000	0.017266
1307.000000	0.017120
1306.000000	0.017002
1305.000000	0.016901
1304.000000	0.016800
1303.000000	0.016700
1302.000000	0.016613
1301.000000	0.016541
1300.000000	0.016471
1299.000000	0.016395
1298.000000	0.016326
1297.000000	0.016287
1296.000000	0.016286
1295.000000	0.016313
1294.000000	0.016356
1293.000000	0.016413
1292.000000	0.016488
1291.000000	0.016585
1290.000000	0.016703
1289.000000	0.016840
1288.000000	0.016991
1287.000000	0.017147
1286.000000	0.017296
1285.000000	0.017432
1284.000000	0.017557
1283.000000	0.017674
1282.000000	0.017776
1281.000000	0.017858
1280.000000	0.017911
1279.000000	0.017931
1278.000000	0.017915
1277.000000	0.017868
1276.000000	0.017809
1275.000000	0.017757
1274.000000	0.017724
1273.000000	0.017703
1272.000000	0.017685
1271.000000	0.017672
1270.000000	0.017679
1269.000000	0.017715
1268.000000	0.017766
1267.000000	0.017812
1266.000000	0.017853
1265.000000	0.017908
1264.000000	0.017998
1263.000000	0.018121
1262.000000	0.018258
1261.000000	0.018394
1260.000000	0.018526
1259.000000	0.018660
1258.000000	0.018804
1257.000000	0.018962
1256.000000	0.019137
1255.000000	0.019327
1254.000000	0.019532
1253.000000	0.019750
1252.000000	0.019978
1251.000000	0.020214
1250.000000	0.020460
1249.000000	0.020717
1248.000000	0.020982
1247.000000	0.021251
1246.000000	0.021528
1245.000000	0.021814
1244.000000	0.022097
1243.000000	0.022356
1242.000000	0.022585
1241.000000	0.022788
1240.000000	0.022961
1239.000000	0.023094
1238.000000	0.023188
1237.000000	0.023256
1236.000000	0.023304
1235.000000	0.023318
1234.000000	0.023278
1233.000000	0.023176
1232.000000	0.023016
1231.000000	0.022798
1230.000000	0.022528
1229.000000	0.022215
1228.000000	0.021865
1227.000000	0.021477
1226.000000	0.021053
1225.000000	0.020607
1224.000000	0.020153
1223.000000	0.019696
1222.000000	0.019234
1221.000000	0.018770
1220.000000	0.018318
1219.000000	0.017910
1218.000000	0.017578
1217.000000	0.017338
1216.000000	0.017186
1215.000000	0.017102
1214.000000	0.017070
1213.000000	0.017076
1212.000000	0.017110
1211.000000	0.017166
1210.000000	0.017247
1209.000000	0.017357
1208.000000	0.017488
1207.000000	0.017620
1206.000000	0.017736
1205.000000	0.017828
1204.000000	0.017892
1203.000000	0.017918
1202.000000	0.017901
1201.000000	0.017841
1200.000000	0.017733
1199.000000	0.017563
1198.000000	0.017332
1197.000000	0.017061
1196.000000	0.016785
1195.000000	0.016525
1194.000000	0.016280
1193.000000	0.016035
1192.000000	0.015780
1191.000000	0.015514
1190.000000	0.015242
1189.000000	0.014978
1188.000000	0.014733
1187.000000	0.014509
1186.000000	0.014299
1185.000000	0.014100
1184.000000	0.013915
1183.000000	0.013747
1182.000000	0.013597
1181.000000	0.013472
1180.000000	0.013384
1179.000000	0.013333
1178.000000	0.013305
1177.000000	0.013281
1176.000000	0.013250
1175.000000	0.013212
1174.000000	0.013172
1173.000000	0.013134
1172.000000	0.013103
1171.000000	0.013080
1170.000000	0.013069
1169.000000	0.013077
1168.000000	0.013113
1167.000000	0.013173
1166.000000	0.013237
1165.000000	0.013282
1164.000000	0.013306
1163.000000	0.013323
1162.000000	0.013343
1161.000000	0.013360
1160.000000	0.013352
1159.000000	0.013298
1158.000000	0.013195
1157.000000	0.013057
1156.000000	0.012907
1155.000000	0.012753
1154.000000	0.012587
1153.000000	0.012406
1152.000000	0.012222
1151.000000	0.012048
1150.000000	0.011879
1149.000000	0.011706
1148.000000	0.011538
1147.000000	0.011396
1146.000000	0.011285
1145.000000	0.011188
1144.000000	0.011084
1143.000000	0.010969
1142.000000	0.010852
1141.000000	0.010733
1140.000000	0.010615
1139.000000	0.010509
1138.000000	0.010430
1137.000000	0.010376
1136.000000	0.010332
1135.000000	0.010288
1134.000000	0.010247
1133.000000	0.010215
1132.000000	0.010192
1131.000000	0.010172
1130.000000	0.010141
1129.000000	0.010089
1128.000000	0.010021
1127.000000	0.009958
1126.000000	0.009923
1125.000000	0.009924
1124.000000	0.009950
1123.000000	0.009991
1122.000000	0.010033
1121.000000	0.010064
1120.000000	0.010069
1119.000000	0.010051
1118.000000	0.010037
1117.000000	0.010055
1116.000000	0.010106
1115.000000	0.010162
1114.000000	0.010194
1113.000000	0.010203
1112.000000	0.010208
1111.000000	0.010226
1110.000000	0.010256
1109.000000	0.010290
1108.000000	0.010327
1107.000000	0.010377
1106.000000	0.010445
1105.000000	0.010522
1104.000000	0.010592
1103.000000	0.010646
1102.000000	0.010689
1101.000000	0.010729
1100.000000	0.010770
1099.000000	0.010809
1098.000000	0.010853
1097.000000	0.010917
1096.000000	0.011004
1095.000000	0.011100
1094.000000	0.011192
1093.000000	0.011297
1092.000000	0.011447
1091.000000	0.011656
1090.000000	0.011908
1089.000000	0.012171
1088.000000	0.012431
1087.000000	0.012696
1086.000000	0.012974
1085.000000	0.013248
1084.000000	0.013485
1083.000000	0.013653
1082.000000	0.013750
1081.000000	0.013796
1080.000000	0.013805
1079.000000	0.013762
1078.000000	0.013650
1077.000000	0.013478
1076.000000	0.013276
1075.000000	0.013068
1074.000000	0.012866
1073.000000	0.012681
1072.000000	0.012529
1071.000000	0.012416
1070.000000	0.012332
1069.000000	0.012269
1068.000000	0.012229
1067.000000	0.012214
1066.000000	0.012218
1065.000000	0.012236
1064.000000	0.012272
1063.000000	0.012328
1062.000000	0.012379
1061.000000	0.012386
1060.000000	0.012341
1059.000000	0.012274
1058.000000	0.012223
1057.000000	0.012189
1056.000000	0.012145
1055.000000	0.012078
1054.000000	0.012005
1053.000000	0.011947
1052.000000	0.011905
1051.000000	0.011867
1050.000000	0.011826
1049.000000	0.011783
1048.000000	0.011736
1047.000000	0.011678
1046.000000	0.011610
1045.000000	0.011547
1044.000000	0.011507
1043.000000	0.011498
1042.000000	0.011520
1041.000000	0.011565
1040.000000	0.011637
1039.000000	0.011749
1038.000000	0.011914
1037.000000	0.012123
1036.000000	0.012338
1035.000000	0.012519
1034.000000	0.012652
1033.000000	0.012755
1032.000000	0.012844
1031.000000	0.012915
1030.000000	0.012950
1029.000000	0.012938
1028.000000	0.012879
1027.000000	0.012779
1026.000000	0.012645
1025.000000	0.012492
1024.000000	0.012337
1023.000000	0.012194
1022.000000	0.012067
1021.000000	0.011953
1020.000000	0.011848
1019.000000	0.011752
1018.000000	0.011675
1017.000000	0.011618
1016.000000	0.011561
1015.000000	0.011476
1014.000000	0.011353
1013.000000	0.011211
1012.000000	0.011071
1011.000000	0.010930
1010.000000	0.010770
1009.000000	0.010586
1008.000000	0.010397
1007.000000	0.010220
1006.000000	0.010059
1005.000000	0.009902
1004.000000	0.009739
1003.000000	0.009569
1002.000000	0.009396
1001.000000	0.009228
1000.000000	0.009069
999.000000	0.008924
998.000000	0.008792
997.000000	0.008663
996.000000	0.008523
995.000000	0.008364
994.000000	0.008196
993.000000	0.008040
992.000000	0.007904
991.000000	0.007784
990.000000	0.007677
989.000000	0.007591
988.000000	0.007524
987.000000	0.007456
986.000000	0.007371
985.000000	0.007281
984.000000	0.007220
983.000000	0.007209
982.000000	0.007235
981.000000	0.007273
980.000000	0.007308
979.000000	0.007342
978.000000	0.007372
977.000000	0.007393
976.000000	0.007405
975.000000	0.007417
974.000000	0.007433
973.000000	0.007443
972.000000	0.007429
971.000000	0.007378
970.000000	0.007297
969.000000	0.007202
968.000000	0.007101
967.000000	0.006988
966.000000	0.006863
965.000000	0.006744
964.000000	0.006651
963.000000	0.006586
962.000000	0.006527
961.000000	0.006457
960.000000	0.006379
959.000000	0.006302
958.000000	0.006229
957.000000	0.006155
956.000000	0.006080
955.000000	0.006008
954.000000	0.005945
953.000000	0.005895
952.000000	0.005866
951.000000	0.005857
950.000000	0.005851
949.000000	0.005832
948.000000	0.005806
947.000000	0.005793
946.000000	0.005808
945.000000	0.005842
944.000000	0.005879
943.000000	0.005906
942.000000	0.005921
941.000000	0.005926
940.000000	0.005926
939.000000	0.005917
938.000000	0.005891
937.000000	0.005843
936.000000	0.005776
935.000000	0.005710
934.000000	0.005662
933.000000	0.005642
932.000000	0.005634
931.000000	0.005616
930.000000	0.005573
929.000000	0.005509
928.000000	0.005446
927.000000	0.005397
926.000000	0.005363
925.000000	0.005340
924.000000	0.005329
923.000000	0.005331
922.000000	0.005338
921.000000	0.005330
920.000000	0.005291
919.000000	0.005216
918.000000	0.005126
917.000000	0.005049
916.000000	0.005001
915.000000	0.004968
914.000000	0.004917
913.000000	0.004825
912.000000	0.004700
911.000000	0.004571
910.000000	0.004477
909.000000	0.004440
908.000000	0.004457
907.000000	0.004497
906.000000	0.004517
905.000000	0.004500
904.000000	0.004458
903.000000	0.004407
902.000000	0.004353
901.000000	0.004301
900.000000	0.004270
899.000000	0.004273
898.000000	0.004291
897.000000	0.004287
896.000000	0.004252
895.000000	0.004215
894.000000	0.004198
893.000000	0.004182
892.000000	0.004142
891.000000	0.004084
890.000000	0.004043
889.000000	0.004044
888.000000	0.004082
887.000000	0.004147
886.000000	0.004247
885.000000	0.004392
884.000000	0.004572
883.000000	0.004761
882.000000	0.004951
881.000000	0.005166
880.000000	0.005437
879.000000	0.005758
878.000000	0.006078
877.000000	0.006335
876.000000	0.006488
875.000000	0.006533
874.000000	0.006481
873.000000	0.006343
872.000000	0.006141
871.000000	0.005911
870.000000	0.005696
869.000000	0.005503
868.000000	0.005313
867.000000	0.005113
866.000000	0.004926
865.000000	0.004797
864.000000	0.004752
863.000000	0.004774
862.000000	0.004816
861.000000	0.004829
860.000000	0.004790
859.000000	0.004716
858.000000	0.004657
857.000000	0.004650
856.000000	0.004688
855.000000	0.004735
854.000000	0.004762
853.000000	0.004772
852.000000	0.004783
851.000000	0.004811
850.000000	0.004862
849.000000	0.004929
848.000000	0.004973
847.000000	0.004942
846.000000	0.004816
845.000000	0.004644
844.000000	0.004495
843.000000	0.004406
842.000000	0.004365
841.000000	0.004354
840.000000	0.004361
839.000000	0.004370
838.000000	0.004361
837.000000	0.004325
836.000000	0.004275
835.000000	0.004224
834.000000	0.004170
833.000000	0.004112
832.000000	0.004066
831.000000	0.004060
830.000000	0.004094
829.000000	0.004132
828.000000	0.004134
827.000000	0.004100
826.000000	0.004080
825.000000	0.004118
824.000000	0.004202
823.000000	0.004275
822.000000	0.004301
821.000000	0.004295
820.000000	0.004296
819.000000	0.004324
818.000000	0.004371
817.000000	0.004419
816.000000	0.004450
815.000000	0.004440
814.000000	0.004381
813.000000	0.004299
812.000000	0.004235
811.000000	0.004201
810.000000	0.004169
809.000000	0.004111
808.000000	0.004043
807.000000	0.004017
806.000000	0.004069
805.000000	0.004189
804.000000	0.004319
803.000000	0.004395
802.000000	0.004387
801.000000	0.004322
800.000000	0.004259
799.000000	0.004240
798.000000	0.004271
797.000000	0.004325
796.000000	0.004368
795.000000	0.004385
794.000000	0.004390
793.000000	0.004403
792.000000	0.004426
791.000000	0.004450
790.000000	0.004475
789.000000	0.004524
788.000000	0.004609
787.000000	0.004706
786.000000	0.004782
785.000000	0.004829
784.000000	0.004859
783.000000	0.004873
782.000000	0.004860
781.000000	0.004819
780.000000	0.004777
779.000000	0.004761
778.000000	0.004778
777.000000	0.004822
776.000000	0.004885
775.000000	0.004950
774.000000	0.005000
773.000000	0.005029
772.000000	0.005050
771.000000	0.005080
770.000000	0.005121
769.000000	0.005163
768.000000	0.005200
767.000000	0.005228
766.000000	0.005244
765.000000	0.005254
764.000000	0.005264
763.000000	0.005271
762.000000	0.005265
761.000000	0.005249
760.000000	0.005239
759.000000	0.005253
758.000000	0.005291
757.000000	0.005343
756.000000	0.005398
755.000000	0.005447
754.000000	0.005475
753.000000	0.005472
752.000000	0.005451
751.000000	0.005437
750.000000	0.005456
749.000000	0.005511
748.000000	0.005594
747.000000	0.005692
746.000000	0.005795
745.000000	0.005888
744.000000	0.005965
743.000000	0.006032
742.000000	0.006101
741.000000	0.006173
740.000000	0.006230
739.000000	0.006251
738.000000	0.006238
737.000000	0.006227
736.000000	0.006261
735.000000	0.006357
734.000000	0.006500
733.000000	0.006655
732.000000	0.006798
731.000000	0.006916
730.000000	0.007006
729.000000	0.007076
728.000000	0.007145
727.000000	0.007225
726.000000	0.007315
725.000000	0.007409
724.000000	0.007511
723.000000	0.007644
722.000000	0.007822
721.000000	0.008016
720.000000	0.008164
719.000000	0.008224
718.000000	0.008218
717.000000	0.008203
716.000000	0.008219
715.000000	0.008284
714.000000	0.008400
713.000000	0.008557
712.000000	0.008719
711.000000	0.008842
710.000000	0.008921
709.000000	0.008992
708.000000	0.009089
707.000000	0.009203
706.000000	0.009298
705.000000	0.009355
704.000000	0.009371
703.000000	0.009359
702.000000	0.009340
701.000000	0.009340
700.000000	0.009375
699.000000	0.009434
698.000000	0.009489
697.000000	0.009525
696.000000	0.009549
695.000000	0.009589
694.000000	0.009667
693.000000	0.009772
692.000000	0.009860
691.000000	0.009886
690.000000	0.009865
689.000000	0.009868
688.000000	0.009948
687.000000	0.010086
686.000000	0.010211
685.000000	0.010276
684.000000	0.010293
683.000000	0.010288
682.000000	0.010270
681.000000	0.010254
680.000000	0.010282
679.000000	0.010390
678.000000	0.010556
677.000000	0.010735
676.000000	0.010892
675.000000	0.011014
674.000000	0.011096
673.000000	0.011143
672.000000	0.011155
671.000000	0.011114
670.000000	0.011004
669.000000	0.010858
668.000000	0.010834
667.000000	0.011084
666.000000	0.011374
665.000000	0.011590
664.000000	0.011764
663.000000	0.011897
662.000000	0.011983
661.000000	0.012036
660.000000	0.012071
659.000000	0.012084
658.000000	0.012073
657.000000	0.012062
656.000000	0.012057
655.000000	0.012034
654.000000	0.012001
653.000000	0.011999
652.000000	0.012038
651.000000	0.012078
650.000000	0.012100
649.000000	0.012128
648.000000	0.012160
647.000000	0.012159
646.000000	0.012132
645.000000	0.012143
644.000000	0.012211
643.000000	0.012281
642.000000	0.012304
641.000000	0.012294
640.000000	0.012276
639.000000	0.012232
638.000000	0.012143
637.000000	0.012033
636.000000	0.011945
635.000000	0.011898
634.000000	0.011903
633.000000	0.011962
632.000000	0.012051
631.000000	0.012128
630.000000	0.012186
629.000000	0.012249
628.000000	0.012322
627.000000	0.012368
626.000000	0.012380
625.000000	0.012384
624.000000	0.012394
623.000000	0.012404
622.000000	0.012429
621.000000	0.012500
620.000000	0.012601
619.000000	0.012661
618.000000	0.012651
617.000000	0.012609
616.000000	0.012572
615.000000	0.012540
614.000000	0.012529
613.000000	0.012568
612.000000	0.012624
611.000000	0.012600
610.000000	0.012463
609.000000	0.012300
608.000000	0.012209
607.000000	0.012192
606.000000	0.012208
605.000000	0.012249
604.000000	0.012319
603.000000	0.012384
602.000000	0.012406
601.000000	0.012402
600.000000	0.012411
599.000000	0.012446
598.000000	0.012511
597.000000	0.012601
596.000000	0.012667
595.000000	0.012643
594.000000	0.012539
593.000000	0.012463
592.000000	0.012499
591.000000	0.012616
590.000000	0.012734
589.000000	0.012796
588.000000	0.012747
587.000000	0.012541
586.000000	0.012243
585.000000	0.012036
584.000000	0.012043
583.000000	0.012169
582.000000	0.012239
581.000000	0.012211
580.000000	0.012186
579.000000	0.012244
578.000000	0.012367
577.000000	0.012507
576.000000	0.012630
575.000000	0.012701
574.000000	0.012720
573.000000	0.012741
572.000000	0.012812
571.000000	0.012901
570.000000	0.012959
569.000000	0.013016
568.000000	0.013136
567.000000	0.013287
566.000000	0.013380
565.000000	0.013405
564.000000	0.013456
563.000000	0.013587
562.000000	0.013743
561.000000	0.013852
560.000000	0.013922
559.000000	0.014003
558.000000	0.014095
557.000000	0.014130
556.000000	0.014037
555.000000	0.013818
554.000000	0.013571
553.000000	0.013408
552.000000	0.013345
551.000000	0.013310
550.000000	0.013248
549.000000	0.013179
548.000000	0.013131
547.000000	0.013081
546.000000	0.012995
545.000000	0.012858
544.000000	0.012664
543.000000	0.012433
542.000000	0.012272
541.000000	0.012329
540.000000	0.012635
539.000000	0.013029
538.000000	0.013306
537.000000	0.013372
536.000000	0.013270
535.000000	0.013105
534.000000	0.013015
533.000000	0.013099
532.000000	0.013303
531.000000	0.013448
530.000000	0.013431
529.000000	0.013338
528.000000	0.013305
527.000000	0.013344
526.000000	0.013364
525.000000	0.013273
524.000000	0.013021
523.000000	0.012633
522.000000	0.012265
521.000000	0.012121
520.000000	0.012220
519.000000	0.012337
518.000000	0.012277
517.000000	0.012093
516.000000	0.011905
515.000000	0.011666
514.000000	0.011278
513.000000	0.010842
512.000000	0.010591
511.000000	0.010626
510.000000	0.010830
509.000000	0.010999
508.000000	0.010968
507.000000	0.010690
506.000000	0.010327
505.000000	0.010153
504.000000	0.010252
503.000000	0.010392
502.000000	0.010309
501.000000	0.010048
500.000000	0.009859
499.000000	0.009830
498.000000	0.009855
497.000000	0.009832
496.000000	0.009730
495.000000	0.009487
494.000000	0.009060
493.000000	0.008572
492.000000	0.008245
491.000000	0.008163
490.000000	0.008236
489.000000	0.008375
488.000000	0.008539
487.000000	0.008638
486.000000	0.008568
485.000000	0.008374
484.000000	0.008222
483.000000	0.008175
482.000000	0.008158
481.000000	0.008119
480.000000	0.008061
479.000000	0.007932
478.000000	0.007654
477.000000	0.007317
476.000000	0.007137
475.000000	0.007184
474.000000	0.007285
473.000000	0.007271
472.000000	0.007198
471.000000	0.007215
470.000000	0.007347
469.000000	0.007526
468.000000	0.007690
467.000000	0.007749
466.000000	0.007595
465.000000	0.007241
464.000000	0.006847
463.000000	0.006582
462.000000	0.006532
461.000000	0.006694
460.000000	0.006980
459.000000	0.007167
458.000000	0.006970
457.000000	0.006351
456.000000	0.005617
455.000000	0.005046
454.000000	0.004668
453.000000	0.004399
452.000000	0.004199
451.000000	0.004096
450.000000	0.004138
