PE IR       SUBTECH     SPECTRUM    ASCII       PEDS        4.00        
   -1
3G-H10-F016_1.ASC
22/02/23
15:34:08.00
22/02/23
15:55:22.00
uco
Sample 016 By uco Date Wednesday, February 23 2022
450.000000
#HDR
-1
-1
#GR
cm-1
A
1.0
0.0
4000.000000
-1.000000
3551
8
0.056666
0.006134
#DATA
4000.000000	0.006416
3999.000000	0.006400
3998.000000	0.006385
3997.000000	0.006377
3996.000000	0.006381
3995.000000	0.006394
3994.000000	0.006409
3993.000000	0.006421
3992.000000	0.006430
3991.000000	0.006435
3990.000000	0.006436
3989.000000	0.006433
3988.000000	0.006432
3987.000000	0.006442
3986.000000	0.006465
3985.000000	0.006493
3984.000000	0.006519
3983.000000	0.006541
3982.000000	0.006562
3981.000000	0.006583
3980.000000	0.006600
3979.000000	0.006605
3978.000000	0.006595
3977.000000	0.006573
3976.000000	0.006549
3975.000000	0.006532
3974.000000	0.006523
3973.000000	0.006518
3972.000000	0.006510
3971.000000	0.006500
3970.000000	0.006498
3969.000000	0.006509
3968.000000	0.006531
3967.000000	0.006550
3966.000000	0.006554
3965.000000	0.006539
3964.000000	0.006516
3963.000000	0.006501
3962.000000	0.006506
3961.000000	0.006531
3960.000000	0.006567
3959.000000	0.006603
3958.000000	0.006631
3957.000000	0.006648
3956.000000	0.006656
3955.000000	0.006660
3954.000000	0.006666
3953.000000	0.006670
3952.000000	0.006667
3951.000000	0.006651
3950.000000	0.006624
3949.000000	0.006594
3948.000000	0.006569
3947.000000	0.006561
3946.000000	0.006572
3945.000000	0.006598
3944.000000	0.006626
3943.000000	0.006641
3942.000000	0.006637
3941.000000	0.006623
3940.000000	0.006616
3939.000000	0.006624
3938.000000	0.006642
3937.000000	0.006656
3936.000000	0.006655
3935.000000	0.006644
3934.000000	0.006641
3933.000000	0.006665
3932.000000	0.006711
3931.000000	0.006760
3930.000000	0.006789
3929.000000	0.006793
3928.000000	0.006785
3927.000000	0.006773
3926.000000	0.006758
3925.000000	0.006736
3924.000000	0.006704
3923.000000	0.006672
3922.000000	0.006647
3921.000000	0.006629
3920.000000	0.006616
3919.000000	0.006604
3918.000000	0.006600
3917.000000	0.006605
3916.000000	0.006617
3915.000000	0.006633
3914.000000	0.006652
3913.000000	0.006679
3912.000000	0.006705
3911.000000	0.006717
3910.000000	0.006710
3909.000000	0.006689
3908.000000	0.006673
3907.000000	0.006669
3906.000000	0.006667
3905.000000	0.006645
3904.000000	0.006593
3903.000000	0.006535
3902.000000	0.006518
3901.000000	0.006558
3900.000000	0.006634
3899.000000	0.006707
3898.000000	0.006750
3897.000000	0.006762
3896.000000	0.006756
3895.000000	0.006743
3894.000000	0.006736
3893.000000	0.006742
3892.000000	0.006752
3891.000000	0.006746
3890.000000	0.006715
3889.000000	0.006670
3888.000000	0.006632
3887.000000	0.006618
3886.000000	0.006631
3885.000000	0.006653
3884.000000	0.006671
3883.000000	0.006695
3882.000000	0.006731
3881.000000	0.006761
3880.000000	0.006757
3879.000000	0.006716
3878.000000	0.006665
3877.000000	0.006633
3876.000000	0.006632
3875.000000	0.006656
3874.000000	0.006676
3873.000000	0.006675
3872.000000	0.006661
3871.000000	0.006654
3870.000000	0.006656
3869.000000	0.006656
3868.000000	0.006655
3867.000000	0.006661
3866.000000	0.006686
3865.000000	0.006724
3864.000000	0.006751
3863.000000	0.006754
3862.000000	0.006744
3861.000000	0.006737
3860.000000	0.006739
3859.000000	0.006748
3858.000000	0.006760
3857.000000	0.006770
3856.000000	0.006772
3855.000000	0.006767
3854.000000	0.006734
3853.000000	0.006667
3852.000000	0.006610
3851.000000	0.006598
3850.000000	0.006617
3849.000000	0.006645
3848.000000	0.006661
3847.000000	0.006658
3846.000000	0.006636
3845.000000	0.006608
3844.000000	0.006583
3843.000000	0.006568
3842.000000	0.006564
3841.000000	0.006574
3840.000000	0.006607
3839.000000	0.006663
3838.000000	0.006729
3837.000000	0.006791
3836.000000	0.006834
3835.000000	0.006847
3834.000000	0.006832
3833.000000	0.006803
3832.000000	0.006780
3831.000000	0.006767
3830.000000	0.006765
3829.000000	0.006775
3828.000000	0.006796
3827.000000	0.006814
3826.000000	0.006808
3825.000000	0.006768
3824.000000	0.006713
3823.000000	0.006685
3822.000000	0.006709
3821.000000	0.006746
3820.000000	0.006744
3819.000000	0.006707
3818.000000	0.006677
3817.000000	0.006686
3816.000000	0.006733
3815.000000	0.006783
3814.000000	0.006815
3813.000000	0.006827
3812.000000	0.006823
3811.000000	0.006809
3810.000000	0.006788
3809.000000	0.006770
3808.000000	0.006759
3807.000000	0.006744
3806.000000	0.006714
3805.000000	0.006677
3804.000000	0.006658
3803.000000	0.006677
3802.000000	0.006726
3801.000000	0.006764
3800.000000	0.006771
3799.000000	0.006771
3798.000000	0.006785
3797.000000	0.006812
3796.000000	0.006838
3795.000000	0.006854
3794.000000	0.006863
3793.000000	0.006871
3792.000000	0.006881
3791.000000	0.006887
3790.000000	0.006881
3789.000000	0.006869
3788.000000	0.006865
3787.000000	0.006882
3786.000000	0.006919
3785.000000	0.006953
3784.000000	0.006960
3783.000000	0.006934
3782.000000	0.006895
3781.000000	0.006872
3780.000000	0.006879
3779.000000	0.006901
3778.000000	0.006920
3777.000000	0.006931
3776.000000	0.006936
3775.000000	0.006932
3774.000000	0.006917
3773.000000	0.006891
3772.000000	0.006865
3771.000000	0.006846
3770.000000	0.006833
3769.000000	0.006815
3768.000000	0.006793
3767.000000	0.006776
3766.000000	0.006766
3765.000000	0.006761
3764.000000	0.006756
3763.000000	0.006749
3762.000000	0.006744
3761.000000	0.006749
3760.000000	0.006758
3759.000000	0.006758
3758.000000	0.006742
3757.000000	0.006717
3756.000000	0.006682
3755.000000	0.006625
3754.000000	0.006542
3753.000000	0.006451
3752.000000	0.006386
3751.000000	0.006362
3750.000000	0.006362
3749.000000	0.006366
3748.000000	0.006361
3747.000000	0.006357
3746.000000	0.006381
3745.000000	0.006449
3744.000000	0.006527
3743.000000	0.006574
3742.000000	0.006580
3741.000000	0.006544
3740.000000	0.006474
3739.000000	0.006386
3738.000000	0.006313
3737.000000	0.006294
3736.000000	0.006334
3735.000000	0.006388
3734.000000	0.006415
3733.000000	0.006428
3732.000000	0.006455
3731.000000	0.006499
3730.000000	0.006546
3729.000000	0.006581
3728.000000	0.006603
3727.000000	0.006617
3726.000000	0.006628
3725.000000	0.006639
3724.000000	0.006654
3723.000000	0.006671
3722.000000	0.006678
3721.000000	0.006667
3720.000000	0.006649
3719.000000	0.006638
3718.000000	0.006635
3717.000000	0.006632
3716.000000	0.006619
3715.000000	0.006595
3714.000000	0.006572
3713.000000	0.006562
3712.000000	0.006556
3711.000000	0.006535
3710.000000	0.006507
3709.000000	0.006497
3708.000000	0.006509
3707.000000	0.006530
3706.000000	0.006545
3705.000000	0.006555
3704.000000	0.006577
3703.000000	0.006617
3702.000000	0.006668
3701.000000	0.006711
3700.000000	0.006741
3699.000000	0.006760
3698.000000	0.006770
3697.000000	0.006768
3696.000000	0.006753
3695.000000	0.006724
3694.000000	0.006691
3693.000000	0.006663
3692.000000	0.006642
3691.000000	0.006617
3690.000000	0.006579
3689.000000	0.006536
3688.000000	0.006515
3687.000000	0.006520
3686.000000	0.006533
3685.000000	0.006540
3684.000000	0.006542
3683.000000	0.006548
3682.000000	0.006569
3681.000000	0.006606
3680.000000	0.006647
3679.000000	0.006670
3678.000000	0.006665
3677.000000	0.006653
3676.000000	0.006650
3675.000000	0.006634
3674.000000	0.006587
3673.000000	0.006526
3672.000000	0.006480
3671.000000	0.006483
3670.000000	0.006541
3669.000000	0.006620
3668.000000	0.006701
3667.000000	0.006780
3666.000000	0.006846
3665.000000	0.006891
3664.000000	0.006921
3663.000000	0.006943
3662.000000	0.006957
3661.000000	0.006946
3660.000000	0.006900
3659.000000	0.006840
3658.000000	0.006806
3657.000000	0.006827
3656.000000	0.006881
3655.000000	0.006922
3654.000000	0.006923
3653.000000	0.006891
3652.000000	0.006853
3651.000000	0.006844
3650.000000	0.006882
3649.000000	0.006953
3648.000000	0.007038
3647.000000	0.007126
3646.000000	0.007195
3645.000000	0.007242
3644.000000	0.007278
3643.000000	0.007316
3642.000000	0.007358
3641.000000	0.007396
3640.000000	0.007425
3639.000000	0.007445
3638.000000	0.007455
3637.000000	0.007456
3636.000000	0.007457
3635.000000	0.007470
3634.000000	0.007491
3633.000000	0.007504
3632.000000	0.007500
3631.000000	0.007496
3630.000000	0.007511
3629.000000	0.007531
3628.000000	0.007533
3627.000000	0.007534
3626.000000	0.007567
3625.000000	0.007629
3624.000000	0.007694
3623.000000	0.007740
3622.000000	0.007764
3621.000000	0.007785
3620.000000	0.007817
3619.000000	0.007849
3618.000000	0.007868
3617.000000	0.007879
3616.000000	0.007895
3615.000000	0.007927
3614.000000	0.007970
3613.000000	0.008012
3612.000000	0.008046
3611.000000	0.008078
3610.000000	0.008127
3609.000000	0.008201
3608.000000	0.008291
3607.000000	0.008373
3606.000000	0.008439
3605.000000	0.008495
3604.000000	0.008549
3603.000000	0.008604
3602.000000	0.008652
3601.000000	0.008681
3600.000000	0.008687
3599.000000	0.008679
3598.000000	0.008678
3597.000000	0.008707
3596.000000	0.008769
3595.000000	0.008846
3594.000000	0.008908
3593.000000	0.008943
3592.000000	0.008956
3591.000000	0.008962
3590.000000	0.008982
3589.000000	0.009035
3588.000000	0.009117
3587.000000	0.009202
3586.000000	0.009268
3585.000000	0.009324
3584.000000	0.009386
3583.000000	0.009464
3582.000000	0.009551
3581.000000	0.009639
3580.000000	0.009718
3579.000000	0.009789
3578.000000	0.009855
3577.000000	0.009916
3576.000000	0.009969
3575.000000	0.010015
3574.000000	0.010058
3573.000000	0.010102
3572.000000	0.010145
3571.000000	0.010179
3570.000000	0.010201
3569.000000	0.010222
3568.000000	0.010261
3567.000000	0.010326
3566.000000	0.010412
3565.000000	0.010515
3564.000000	0.010632
3563.000000	0.010754
3562.000000	0.010865
3561.000000	0.010949
3560.000000	0.011004
3559.000000	0.011039
3558.000000	0.011071
3557.000000	0.011116
3556.000000	0.011177
3555.000000	0.011246
3554.000000	0.011312
3553.000000	0.011370
3552.000000	0.011418
3551.000000	0.011461
3550.000000	0.011501
3549.000000	0.011541
3548.000000	0.011587
3547.000000	0.011647
3546.000000	0.011725
3545.000000	0.011818
3544.000000	0.011921
3543.000000	0.012027
3542.000000	0.012127
3541.000000	0.012210
3540.000000	0.012275
3539.000000	0.012328
3538.000000	0.012379
3537.000000	0.012434
3536.000000	0.012483
3535.000000	0.012521
3534.000000	0.012549
3533.000000	0.012577
3532.000000	0.012618
3531.000000	0.012671
3530.000000	0.012730
3529.000000	0.012783
3528.000000	0.012829
3527.000000	0.012873
3526.000000	0.012924
3525.000000	0.012984
3524.000000	0.013054
3523.000000	0.013129
3522.000000	0.013209
3521.000000	0.013293
3520.000000	0.013374
3519.000000	0.013443
3518.000000	0.013492
3517.000000	0.013521
3516.000000	0.013544
3515.000000	0.013573
3514.000000	0.013610
3513.000000	0.013654
3512.000000	0.013704
3511.000000	0.013760
3510.000000	0.013814
3509.000000	0.013859
3508.000000	0.013897
3507.000000	0.013935
3506.000000	0.013984
3505.000000	0.014045
3504.000000	0.014118
3503.000000	0.014199
3502.000000	0.014281
3501.000000	0.014355
3500.000000	0.014419
3499.000000	0.014476
3498.000000	0.014532
3497.000000	0.014585
3496.000000	0.014633
3495.000000	0.014676
3494.000000	0.014722
3493.000000	0.014776
3492.000000	0.014839
3491.000000	0.014905
3490.000000	0.014963
3489.000000	0.015009
3488.000000	0.015045
3487.000000	0.015082
3486.000000	0.015127
3485.000000	0.015182
3484.000000	0.015243
3483.000000	0.015299
3482.000000	0.015346
3481.000000	0.015384
3480.000000	0.015420
3479.000000	0.015462
3478.000000	0.015512
3477.000000	0.015569
3476.000000	0.015628
3475.000000	0.015679
3474.000000	0.015719
3473.000000	0.015748
3472.000000	0.015780
3471.000000	0.015825
3470.000000	0.015885
3469.000000	0.015949
3468.000000	0.016003
3467.000000	0.016039
3466.000000	0.016065
3465.000000	0.016093
3464.000000	0.016135
3463.000000	0.016197
3462.000000	0.016274
3461.000000	0.016356
3460.000000	0.016431
3459.000000	0.016492
3458.000000	0.016540
3457.000000	0.016579
3456.000000	0.016613
3455.000000	0.016644
3454.000000	0.016669
3453.000000	0.016690
3452.000000	0.016715
3451.000000	0.016755
3450.000000	0.016816
3449.000000	0.016896
3448.000000	0.016976
3447.000000	0.017041
3446.000000	0.017090
3445.000000	0.017133
3444.000000	0.017184
3443.000000	0.017241
3442.000000	0.017300
3441.000000	0.017355
3440.000000	0.017406
3439.000000	0.017456
3438.000000	0.017504
3437.000000	0.017553
3436.000000	0.017609
3435.000000	0.017676
3434.000000	0.017755
3433.000000	0.017833
3432.000000	0.017896
3431.000000	0.017936
3430.000000	0.017957
3429.000000	0.017974
3428.000000	0.018007
3427.000000	0.018066
3426.000000	0.018153
3425.000000	0.018253
3424.000000	0.018345
3423.000000	0.018418
3422.000000	0.018479
3421.000000	0.018538
3420.000000	0.018600
3419.000000	0.018657
3418.000000	0.018703
3417.000000	0.018741
3416.000000	0.018785
3415.000000	0.018841
3414.000000	0.018905
3413.000000	0.018963
3412.000000	0.019007
3411.000000	0.019041
3410.000000	0.019077
3409.000000	0.019125
3408.000000	0.019187
3407.000000	0.019259
3406.000000	0.019328
3405.000000	0.019384
3404.000000	0.019427
3403.000000	0.019467
3402.000000	0.019515
3401.000000	0.019570
3400.000000	0.019623
3399.000000	0.019666
3398.000000	0.019700
3397.000000	0.019736
3396.000000	0.019783
3395.000000	0.019843
3394.000000	0.019911
3393.000000	0.019978
3392.000000	0.020040
3391.000000	0.020098
3390.000000	0.020152
3389.000000	0.020198
3388.000000	0.020236
3387.000000	0.020273
3386.000000	0.020315
3385.000000	0.020359
3384.000000	0.020401
3383.000000	0.020443
3382.000000	0.020493
3381.000000	0.020558
3380.000000	0.020628
3379.000000	0.020690
3378.000000	0.020740
3377.000000	0.020782
3376.000000	0.020824
3375.000000	0.020869
3374.000000	0.020915
3373.000000	0.020962
3372.000000	0.021013
3371.000000	0.021072
3370.000000	0.021142
3369.000000	0.021220
3368.000000	0.021306
3367.000000	0.021397
3366.000000	0.021495
3365.000000	0.021595
3364.000000	0.021693
3363.000000	0.021783
3362.000000	0.021863
3361.000000	0.021935
3360.000000	0.022002
3359.000000	0.022066
3358.000000	0.022133
3357.000000	0.022208
3356.000000	0.022296
3355.000000	0.022395
3354.000000	0.022496
3353.000000	0.022584
3352.000000	0.022656
3351.000000	0.022719
3350.000000	0.022785
3349.000000	0.022861
3348.000000	0.022948
3347.000000	0.023045
3346.000000	0.023147
3345.000000	0.023246
3344.000000	0.023341
3343.000000	0.023438
3342.000000	0.023543
3341.000000	0.023650
3340.000000	0.023738
3339.000000	0.023795
3338.000000	0.023834
3337.000000	0.023879
3336.000000	0.023947
3335.000000	0.024038
3334.000000	0.024139
3333.000000	0.024241
3332.000000	0.024332
3331.000000	0.024406
3330.000000	0.024457
3329.000000	0.024490
3328.000000	0.024516
3327.000000	0.024552
3326.000000	0.024614
3325.000000	0.024703
3324.000000	0.024811
3323.000000	0.024924
3322.000000	0.025030
3321.000000	0.025123
3320.000000	0.025196
3319.000000	0.025242
3318.000000	0.025267
3317.000000	0.025289
3316.000000	0.025327
3315.000000	0.025387
3314.000000	0.025462
3313.000000	0.025537
3312.000000	0.025597
3311.000000	0.025635
3310.000000	0.025655
3309.000000	0.025664
3308.000000	0.025672
3307.000000	0.025684
3306.000000	0.025705
3305.000000	0.025740
3304.000000	0.025790
3303.000000	0.025852
3302.000000	0.025916
3301.000000	0.025976
3300.000000	0.026032
3299.000000	0.026085
3298.000000	0.026130
3297.000000	0.026161
3296.000000	0.026181
3295.000000	0.026197
3294.000000	0.026215
3293.000000	0.026234
3292.000000	0.026253
3291.000000	0.026277
3290.000000	0.026309
3289.000000	0.026347
3288.000000	0.026378
3287.000000	0.026396
3286.000000	0.026402
3285.000000	0.026406
3284.000000	0.026415
3283.000000	0.026427
3282.000000	0.026436
3281.000000	0.026434
3280.000000	0.026421
3279.000000	0.026403
3278.000000	0.026382
3277.000000	0.026356
3276.000000	0.026312
3275.000000	0.026241
3274.000000	0.026149
3273.000000	0.026052
3272.000000	0.025973
3271.000000	0.025926
3270.000000	0.025908
3269.000000	0.025907
3268.000000	0.025904
3267.000000	0.025882
3266.000000	0.025838
3265.000000	0.025784
3264.000000	0.025736
3263.000000	0.025699
3262.000000	0.025664
3261.000000	0.025613
3260.000000	0.025538
3259.000000	0.025444
3258.000000	0.025350
3257.000000	0.025274
3256.000000	0.025222
3255.000000	0.025184
3254.000000	0.025143
3253.000000	0.025085
3252.000000	0.025010
3251.000000	0.024926
3250.000000	0.024839
3249.000000	0.024750
3248.000000	0.024666
3247.000000	0.024597
3246.000000	0.024550
3245.000000	0.024521
3244.000000	0.024501
3243.000000	0.024480
3242.000000	0.024456
3241.000000	0.024426
3240.000000	0.024388
3239.000000	0.024337
3238.000000	0.024276
3237.000000	0.024211
3236.000000	0.024148
3235.000000	0.024090
3234.000000	0.024037
3233.000000	0.023989
3232.000000	0.023950
3231.000000	0.023921
3230.000000	0.023897
3229.000000	0.023871
3228.000000	0.023837
3227.000000	0.023795
3226.000000	0.023748
3225.000000	0.023700
3224.000000	0.023654
3223.000000	0.023615
3222.000000	0.023577
3221.000000	0.023535
3220.000000	0.023486
3219.000000	0.023436
3218.000000	0.023387
3217.000000	0.023337
3216.000000	0.023281
3215.000000	0.023229
3214.000000	0.023188
3213.000000	0.023158
3212.000000	0.023123
3211.000000	0.023069
3210.000000	0.023005
3209.000000	0.022950
3208.000000	0.022913
3207.000000	0.022890
3206.000000	0.022865
3205.000000	0.022828
3204.000000	0.022778
3203.000000	0.022722
3202.000000	0.022662
3201.000000	0.022600
3200.000000	0.022531
3199.000000	0.022461
3198.000000	0.022400
3197.000000	0.022356
3196.000000	0.022326
3195.000000	0.022299
3194.000000	0.022260
3193.000000	0.022204
3192.000000	0.022137
3191.000000	0.022071
3190.000000	0.022012
3189.000000	0.021956
3188.000000	0.021895
3187.000000	0.021823
3186.000000	0.021746
3185.000000	0.021673
3184.000000	0.021609
3183.000000	0.021553
3182.000000	0.021497
3181.000000	0.021436
3180.000000	0.021368
3179.000000	0.021290
3178.000000	0.021208
3177.000000	0.021127
3176.000000	0.021056
3175.000000	0.020996
3174.000000	0.020942
3173.000000	0.020888
3172.000000	0.020827
3171.000000	0.020758
3170.000000	0.020687
3169.000000	0.020621
3168.000000	0.020559
3167.000000	0.020493
3166.000000	0.020424
3165.000000	0.020360
3164.000000	0.020310
3163.000000	0.020275
3162.000000	0.020247
3161.000000	0.020218
3160.000000	0.020183
3159.000000	0.020134
3158.000000	0.020064
3157.000000	0.019976
3156.000000	0.019882
3155.000000	0.019796
3154.000000	0.019719
3153.000000	0.019646
3152.000000	0.019578
3151.000000	0.019521
3150.000000	0.019482
3149.000000	0.019455
3148.000000	0.019429
3147.000000	0.019396
3146.000000	0.019352
3145.000000	0.019294
3144.000000	0.019225
3143.000000	0.019150
3142.000000	0.019077
3141.000000	0.019011
3140.000000	0.018958
3139.000000	0.018920
3138.000000	0.018894
3137.000000	0.018871
3136.000000	0.018842
3135.000000	0.018806
3134.000000	0.018769
3133.000000	0.018736
3132.000000	0.018701
3131.000000	0.018657
3130.000000	0.018608
3129.000000	0.018562
3128.000000	0.018527
3127.000000	0.018500
3126.000000	0.018477
3125.000000	0.018453
3124.000000	0.018430
3123.000000	0.018407
3122.000000	0.018383
3121.000000	0.018352
3120.000000	0.018312
3119.000000	0.018267
3118.000000	0.018227
3117.000000	0.018199
3116.000000	0.018188
3115.000000	0.018192
3114.000000	0.018209
3113.000000	0.018234
3112.000000	0.018258
3111.000000	0.018273
3110.000000	0.018282
3109.000000	0.018291
3108.000000	0.018303
3107.000000	0.018315
3106.000000	0.018328
3105.000000	0.018347
3104.000000	0.018371
3103.000000	0.018391
3102.000000	0.018393
3101.000000	0.018380
3100.000000	0.018368
3099.000000	0.018369
3098.000000	0.018386
3097.000000	0.018410
3096.000000	0.018435
3095.000000	0.018459
3094.000000	0.018486
3093.000000	0.018515
3092.000000	0.018539
3091.000000	0.018548
3090.000000	0.018539
3089.000000	0.018521
3088.000000	0.018511
3087.000000	0.018519
3086.000000	0.018545
3085.000000	0.018578
3084.000000	0.018604
3083.000000	0.018622
3082.000000	0.018635
3081.000000	0.018643
3080.000000	0.018639
3079.000000	0.018622
3078.000000	0.018602
3077.000000	0.018596
3076.000000	0.018617
3075.000000	0.018656
3074.000000	0.018698
3073.000000	0.018727
3072.000000	0.018733
3071.000000	0.018714
3070.000000	0.018676
3069.000000	0.018632
3068.000000	0.018588
3067.000000	0.018548
3066.000000	0.018522
3065.000000	0.018519
3064.000000	0.018539
3063.000000	0.018561
3062.000000	0.018560
3061.000000	0.018525
3060.000000	0.018469
3059.000000	0.018410
3058.000000	0.018357
3057.000000	0.018312
3056.000000	0.018275
3055.000000	0.018244
3054.000000	0.018211
3053.000000	0.018164
3052.000000	0.018098
3051.000000	0.018027
3050.000000	0.017970
3049.000000	0.017933
3048.000000	0.017900
3047.000000	0.017853
3046.000000	0.017789
3045.000000	0.017718
3044.000000	0.017649
3043.000000	0.017583
3042.000000	0.017518
3041.000000	0.017457
3040.000000	0.017406
3039.000000	0.017365
3038.000000	0.017326
3037.000000	0.017281
3036.000000	0.017233
3035.000000	0.017186
3034.000000	0.017146
3033.000000	0.017108
3032.000000	0.017066
3031.000000	0.017013
3030.000000	0.016957
3029.000000	0.016907
3028.000000	0.016870
3027.000000	0.016839
3026.000000	0.016804
3025.000000	0.016760
3024.000000	0.016711
3023.000000	0.016657
3022.000000	0.016597
3021.000000	0.016528
3020.000000	0.016452
3019.000000	0.016377
3018.000000	0.016311
3017.000000	0.016263
3016.000000	0.016236
3015.000000	0.016225
3014.000000	0.016220
3013.000000	0.016214
3012.000000	0.016204
3011.000000	0.016198
3010.000000	0.016198
3009.000000	0.016200
3008.000000	0.016200
3007.000000	0.016200
3006.000000	0.016206
3005.000000	0.016223
3004.000000	0.016245
3003.000000	0.016262
3002.000000	0.016271
3001.000000	0.016278
3000.000000	0.016294
2999.000000	0.016324
2998.000000	0.016369
2997.000000	0.016430
2996.000000	0.016507
2995.000000	0.016593
2994.000000	0.016681
2993.000000	0.016769
2992.000000	0.016859
2991.000000	0.016950
2990.000000	0.017041
2989.000000	0.017136
2988.000000	0.017248
2987.000000	0.017389
2986.000000	0.017552
2985.000000	0.017720
2984.000000	0.017877
2983.000000	0.018022
2982.000000	0.018162
2981.000000	0.018304
2980.000000	0.018453
2979.000000	0.018610
2978.000000	0.018773
2977.000000	0.018938
2976.000000	0.019102
2975.000000	0.019268
2974.000000	0.019441
2973.000000	0.019629
2972.000000	0.019834
2971.000000	0.020057
2970.000000	0.020294
2969.000000	0.020540
2968.000000	0.020785
2967.000000	0.021019
2966.000000	0.021237
2965.000000	0.021437
2964.000000	0.021625
2963.000000	0.021803
2962.000000	0.021967
2961.000000	0.022110
2960.000000	0.022230
2959.000000	0.022336
2958.000000	0.022433
2957.000000	0.022525
2956.000000	0.022610
2955.000000	0.022687
2954.000000	0.022753
2953.000000	0.022805
2952.000000	0.022844
2951.000000	0.022877
2950.000000	0.022913
2949.000000	0.022957
2948.000000	0.023009
2947.000000	0.023070
2946.000000	0.023147
2945.000000	0.023248
2944.000000	0.023382
2943.000000	0.023560
2942.000000	0.023782
2941.000000	0.024038
2940.000000	0.024316
2939.000000	0.024610
2938.000000	0.024925
2937.000000	0.025265
2936.000000	0.025629
2935.000000	0.026016
2934.000000	0.026422
2933.000000	0.026844
2932.000000	0.027276
2931.000000	0.027716
2930.000000	0.028163
2929.000000	0.028605
2928.000000	0.029025
2927.000000	0.029417
2926.000000	0.029782
2925.000000	0.030125
2924.000000	0.030436
2923.000000	0.030701
2922.000000	0.030913
2921.000000	0.031065
2920.000000	0.031137
2919.000000	0.031099
2918.000000	0.030916
2917.000000	0.030563
2916.000000	0.030039
2915.000000	0.029369
2914.000000	0.028605
2913.000000	0.027809
2912.000000	0.027039
2911.000000	0.026337
2910.000000	0.025725
2909.000000	0.025206
2908.000000	0.024763
2907.000000	0.024380
2906.000000	0.024049
2905.000000	0.023768
2904.000000	0.023526
2903.000000	0.023305
2902.000000	0.023091
2901.000000	0.022882
2900.000000	0.022676
2899.000000	0.022467
2898.000000	0.022254
2897.000000	0.022049
2896.000000	0.021871
2895.000000	0.021731
2894.000000	0.021620
2893.000000	0.021517
2892.000000	0.021400
2891.000000	0.021268
2890.000000	0.021131
2889.000000	0.021004
2888.000000	0.020894
2887.000000	0.020798
2886.000000	0.020714
2885.000000	0.020644
2884.000000	0.020586
2883.000000	0.020537
2882.000000	0.020491
2881.000000	0.020451
2880.000000	0.020423
2879.000000	0.020416
2878.000000	0.020429
2877.000000	0.020457
2876.000000	0.020489
2875.000000	0.020514
2874.000000	0.020528
2873.000000	0.020536
2872.000000	0.020540
2871.000000	0.020533
2870.000000	0.020503
2869.000000	0.020447
2868.000000	0.020376
2867.000000	0.020311
2866.000000	0.020267
2865.000000	0.020255
2864.000000	0.020280
2863.000000	0.020348
2862.000000	0.020468
2861.000000	0.020651
2860.000000	0.020902
2859.000000	0.021214
2858.000000	0.021571
2857.000000	0.021962
2856.000000	0.022380
2855.000000	0.022822
2854.000000	0.023273
2853.000000	0.023698
2852.000000	0.024045
2851.000000	0.024236
2850.000000	0.024193
2849.000000	0.023867
2848.000000	0.023278
2847.000000	0.022509
2846.000000	0.021675
2845.000000	0.020873
2844.000000	0.020160
2843.000000	0.019554
2842.000000	0.019049
2841.000000	0.018627
2840.000000	0.018268
2839.000000	0.017961
2838.000000	0.017702
2837.000000	0.017483
2836.000000	0.017293
2835.000000	0.017120
2834.000000	0.016964
2833.000000	0.016829
2832.000000	0.016717
2831.000000	0.016618
2830.000000	0.016519
2829.000000	0.016419
2828.000000	0.016323
2827.000000	0.016237
2826.000000	0.016157
2825.000000	0.016072
2824.000000	0.015979
2823.000000	0.015885
2822.000000	0.015799
2821.000000	0.015719
2820.000000	0.015635
2819.000000	0.015546
2818.000000	0.015461
2817.000000	0.015390
2816.000000	0.015332
2815.000000	0.015282
2814.000000	0.015239
2813.000000	0.015201
2812.000000	0.015164
2811.000000	0.015119
2810.000000	0.015061
2809.000000	0.014995
2808.000000	0.014931
2807.000000	0.014880
2806.000000	0.014848
2805.000000	0.014830
2804.000000	0.014817
2803.000000	0.014797
2802.000000	0.014765
2801.000000	0.014726
2800.000000	0.014690
2799.000000	0.014664
2798.000000	0.014644
2797.000000	0.014626
2796.000000	0.014602
2795.000000	0.014569
2794.000000	0.014526
2793.000000	0.014480
2792.000000	0.014439
2791.000000	0.014410
2790.000000	0.014390
2789.000000	0.014369
2788.000000	0.014339
2787.000000	0.014302
2786.000000	0.014269
2785.000000	0.014247
2784.000000	0.014230
2783.000000	0.014207
2782.000000	0.014175
2781.000000	0.014140
2780.000000	0.014107
2779.000000	0.014074
2778.000000	0.014033
2777.000000	0.013985
2776.000000	0.013936
2775.000000	0.013896
2774.000000	0.013874
2773.000000	0.013863
2772.000000	0.013848
2771.000000	0.013820
2770.000000	0.013781
2769.000000	0.013747
2768.000000	0.013730
2767.000000	0.013727
2766.000000	0.013726
2765.000000	0.013718
2764.000000	0.013703
2763.000000	0.013686
2762.000000	0.013673
2761.000000	0.013665
2760.000000	0.013660
2759.000000	0.013647
2758.000000	0.013620
2757.000000	0.013579
2756.000000	0.013536
2755.000000	0.013505
2754.000000	0.013488
2753.000000	0.013475
2752.000000	0.013452
2751.000000	0.013420
2750.000000	0.013392
2749.000000	0.013378
2748.000000	0.013375
2747.000000	0.013372
2746.000000	0.013359
2745.000000	0.013336
2744.000000	0.013301
2743.000000	0.013257
2742.000000	0.013213
2741.000000	0.013183
2740.000000	0.013168
2739.000000	0.013160
2738.000000	0.013151
2737.000000	0.013140
2736.000000	0.013136
2735.000000	0.013140
2734.000000	0.013149
2733.000000	0.013150
2732.000000	0.013134
2731.000000	0.013098
2730.000000	0.013050
2729.000000	0.013007
2728.000000	0.012977
2727.000000	0.012961
2726.000000	0.012953
2725.000000	0.012945
2724.000000	0.012931
2723.000000	0.012906
2722.000000	0.012880
2721.000000	0.012861
2720.000000	0.012850
2719.000000	0.012837
2718.000000	0.012819
2717.000000	0.012806
2716.000000	0.012802
2715.000000	0.012801
2714.000000	0.012785
2713.000000	0.012753
2712.000000	0.012715
2711.000000	0.012687
2710.000000	0.012670
2709.000000	0.012657
2708.000000	0.012638
2707.000000	0.012614
2706.000000	0.012595
2705.000000	0.012590
2704.000000	0.012599
2703.000000	0.012613
2702.000000	0.012621
2701.000000	0.012620
2700.000000	0.012604
2699.000000	0.012572
2698.000000	0.012528
2697.000000	0.012484
2696.000000	0.012452
2695.000000	0.012432
2694.000000	0.012423
2693.000000	0.012423
2692.000000	0.012432
2691.000000	0.012445
2690.000000	0.012454
2689.000000	0.012452
2688.000000	0.012436
2687.000000	0.012413
2686.000000	0.012393
2685.000000	0.012382
2684.000000	0.012375
2683.000000	0.012365
2682.000000	0.012351
2681.000000	0.012345
2680.000000	0.012351
2679.000000	0.012362
2678.000000	0.012361
2677.000000	0.012343
2676.000000	0.012318
2675.000000	0.012298
2674.000000	0.012289
2673.000000	0.012289
2672.000000	0.012291
2671.000000	0.012289
2670.000000	0.012279
2669.000000	0.012269
2668.000000	0.012269
2667.000000	0.012281
2666.000000	0.012300
2665.000000	0.012315
2664.000000	0.012322
2663.000000	0.012317
2662.000000	0.012298
2661.000000	0.012267
2660.000000	0.012233
2659.000000	0.012206
2658.000000	0.012191
2657.000000	0.012181
2656.000000	0.012165
2655.000000	0.012138
2654.000000	0.012107
2653.000000	0.012082
2652.000000	0.012068
2651.000000	0.012058
2650.000000	0.012044
2649.000000	0.012023
2648.000000	0.011994
2647.000000	0.011954
2646.000000	0.011907
2645.000000	0.011861
2644.000000	0.011830
2643.000000	0.011815
2642.000000	0.011805
2641.000000	0.011784
2640.000000	0.011750
2639.000000	0.011711
2638.000000	0.011674
2637.000000	0.011640
2636.000000	0.011612
2635.000000	0.011596
2634.000000	0.011592
2633.000000	0.011591
2632.000000	0.011580
2631.000000	0.011559
2630.000000	0.011539
2629.000000	0.011519
2628.000000	0.011490
2627.000000	0.011443
2626.000000	0.011387
2625.000000	0.011337
2624.000000	0.011302
2623.000000	0.011277
2622.000000	0.011260
2621.000000	0.011255
2620.000000	0.011254
2619.000000	0.011244
2618.000000	0.011216
2617.000000	0.011176
2616.000000	0.011140
2615.000000	0.011115
2614.000000	0.011101
2613.000000	0.011093
2612.000000	0.011083
2611.000000	0.011066
2610.000000	0.011039
2609.000000	0.011011
2608.000000	0.010988
2607.000000	0.010970
2606.000000	0.010953
2605.000000	0.010938
2604.000000	0.010932
2603.000000	0.010934
2602.000000	0.010939
2601.000000	0.010943
2600.000000	0.010944
2599.000000	0.010934
2598.000000	0.010909
2597.000000	0.010864
2596.000000	0.010802
2595.000000	0.010729
2594.000000	0.010662
2593.000000	0.010623
2592.000000	0.010623
2591.000000	0.010650
2590.000000	0.010680
2589.000000	0.010697
2588.000000	0.010699
2587.000000	0.010683
2586.000000	0.010646
2585.000000	0.010597
2584.000000	0.010559
2583.000000	0.010548
2582.000000	0.010561
2581.000000	0.010576
2580.000000	0.010577
2579.000000	0.010558
2578.000000	0.010524
2577.000000	0.010477
2576.000000	0.010429
2575.000000	0.010394
2574.000000	0.010388
2573.000000	0.010407
2572.000000	0.010434
2571.000000	0.010451
2570.000000	0.010451
2569.000000	0.010436
2568.000000	0.010414
2567.000000	0.010389
2566.000000	0.010368
2565.000000	0.010355
2564.000000	0.010344
2563.000000	0.010332
2562.000000	0.010324
2561.000000	0.010327
2560.000000	0.010340
2559.000000	0.010347
2558.000000	0.010338
2557.000000	0.010317
2556.000000	0.010294
2555.000000	0.010276
2554.000000	0.010266
2553.000000	0.010269
2552.000000	0.010284
2551.000000	0.010302
2550.000000	0.010307
2549.000000	0.010293
2548.000000	0.010266
2547.000000	0.010241
2546.000000	0.010226
2545.000000	0.010216
2544.000000	0.010199
2543.000000	0.010171
2542.000000	0.010144
2541.000000	0.010130
2540.000000	0.010131
2539.000000	0.010137
2538.000000	0.010140
2537.000000	0.010141
2536.000000	0.010150
2535.000000	0.010166
2534.000000	0.010178
2533.000000	0.010172
2532.000000	0.010144
2531.000000	0.010108
2530.000000	0.010087
2529.000000	0.010092
2528.000000	0.010113
2527.000000	0.010121
2526.000000	0.010101
2525.000000	0.010062
2524.000000	0.010030
2523.000000	0.010025
2522.000000	0.010046
2521.000000	0.010079
2520.000000	0.010109
2519.000000	0.010125
2518.000000	0.010121
2517.000000	0.010093
2516.000000	0.010051
2515.000000	0.010014
2514.000000	0.009999
2513.000000	0.010003
2512.000000	0.010011
2511.000000	0.010012
2510.000000	0.010001
2509.000000	0.009980
2508.000000	0.009951
2507.000000	0.009917
2506.000000	0.009891
2505.000000	0.009881
2504.000000	0.009890
2503.000000	0.009913
2502.000000	0.009944
2501.000000	0.009967
2500.000000	0.009966
2499.000000	0.009946
2498.000000	0.009934
2497.000000	0.009945
2496.000000	0.009962
2495.000000	0.009951
2494.000000	0.009900
2493.000000	0.009836
2492.000000	0.009797
2491.000000	0.009800
2490.000000	0.009833
2489.000000	0.009866
2488.000000	0.009874
2487.000000	0.009852
2486.000000	0.009819
2485.000000	0.009794
2484.000000	0.009784
2483.000000	0.009787
2482.000000	0.009796
2481.000000	0.009802
2480.000000	0.009789
2479.000000	0.009747
2478.000000	0.009695
2477.000000	0.009662
2476.000000	0.009664
2475.000000	0.009679
2474.000000	0.009679
2473.000000	0.009658
2472.000000	0.009638
2471.000000	0.009639
2470.000000	0.009663
2469.000000	0.009693
2468.000000	0.009707
2467.000000	0.009699
2466.000000	0.009678
2465.000000	0.009660
2464.000000	0.009655
2463.000000	0.009665
2462.000000	0.009685
2461.000000	0.009694
2460.000000	0.009670
2459.000000	0.009615
2458.000000	0.009553
2457.000000	0.009514
2456.000000	0.009502
2455.000000	0.009504
2454.000000	0.009509
2453.000000	0.009522
2452.000000	0.009545
2451.000000	0.009572
2450.000000	0.009592
2449.000000	0.009596
2448.000000	0.009583
2447.000000	0.009566
2446.000000	0.009562
2445.000000	0.009573
2444.000000	0.009580
2443.000000	0.009566
2442.000000	0.009536
2441.000000	0.009508
2440.000000	0.009496
2439.000000	0.009498
2438.000000	0.009514
2437.000000	0.009537
2436.000000	0.009553
2435.000000	0.009544
2434.000000	0.009514
2433.000000	0.009490
2432.000000	0.009493
2431.000000	0.009512
2430.000000	0.009518
2429.000000	0.009490
2428.000000	0.009442
2427.000000	0.009406
2426.000000	0.009408
2425.000000	0.009434
2424.000000	0.009452
2423.000000	0.009436
2422.000000	0.009396
2421.000000	0.009356
2420.000000	0.009333
2419.000000	0.009330
2418.000000	0.009347
2417.000000	0.009380
2416.000000	0.009416
2415.000000	0.009443
2414.000000	0.009460
2413.000000	0.009464
2412.000000	0.009444
2411.000000	0.009398
2410.000000	0.009350
2409.000000	0.009326
2408.000000	0.009324
2407.000000	0.009326
2406.000000	0.009320
2405.000000	0.009309
2404.000000	0.009298
2403.000000	0.009282
2402.000000	0.009264
2401.000000	0.009255
2400.000000	0.009257
2399.000000	0.009261
2398.000000	0.009259
2397.000000	0.009254
2396.000000	0.009249
2395.000000	0.009247
2394.000000	0.009253
2393.000000	0.009271
2392.000000	0.009296
2391.000000	0.009311
2390.000000	0.009302
2389.000000	0.009271
2388.000000	0.009233
2387.000000	0.009206
2386.000000	0.009207
2385.000000	0.009232
2384.000000	0.009257
2383.000000	0.009257
2382.000000	0.009227
2381.000000	0.009184
2380.000000	0.009147
2379.000000	0.009130
2378.000000	0.009147
2377.000000	0.009197
2376.000000	0.009255
2375.000000	0.009288
2374.000000	0.009280
2373.000000	0.009248
2372.000000	0.009210
2371.000000	0.009174
2370.000000	0.009143
2369.000000	0.009112
2368.000000	0.009085
2367.000000	0.009074
2366.000000	0.009100
2365.000000	0.009159
2364.000000	0.009218
2363.000000	0.009258
2362.000000	0.009287
2361.000000	0.009312
2360.000000	0.009330
2359.000000	0.009334
2358.000000	0.009320
2357.000000	0.009299
2356.000000	0.009289
2355.000000	0.009314
2354.000000	0.009335
2353.000000	0.009301
2352.000000	0.009232
2351.000000	0.009205
2350.000000	0.009255
2349.000000	0.009346
2348.000000	0.009419
2347.000000	0.009433
2346.000000	0.009410
2345.000000	0.009415
2344.000000	0.009464
2343.000000	0.009512
2342.000000	0.009506
2341.000000	0.009454
2340.000000	0.009409
2339.000000	0.009404
2338.000000	0.009412
2337.000000	0.009398
2336.000000	0.009360
2335.000000	0.009312
2334.000000	0.009258
2333.000000	0.009200
2332.000000	0.009173
2331.000000	0.009201
2330.000000	0.009282
2329.000000	0.009371
2328.000000	0.009463
2327.000000	0.009554
2326.000000	0.009639
2325.000000	0.009679
2324.000000	0.009644
2323.000000	0.009551
2322.000000	0.009461
2321.000000	0.009432
2320.000000	0.009459
2319.000000	0.009488
2318.000000	0.009478
2317.000000	0.009431
2316.000000	0.009386
2315.000000	0.009363
2314.000000	0.009371
2313.000000	0.009393
2312.000000	0.009408
2311.000000	0.009387
2310.000000	0.009339
2309.000000	0.009292
2308.000000	0.009271
2307.000000	0.009265
2306.000000	0.009251
2305.000000	0.009224
2304.000000	0.009192
2303.000000	0.009161
2302.000000	0.009136
2301.000000	0.009130
2300.000000	0.009149
2299.000000	0.009181
2298.000000	0.009217
2297.000000	0.009255
2296.000000	0.009292
2295.000000	0.009312
2294.000000	0.009306
2293.000000	0.009287
2292.000000	0.009281
2291.000000	0.009290
2290.000000	0.009298
2289.000000	0.009296
2288.000000	0.009297
2287.000000	0.009318
2286.000000	0.009359
2285.000000	0.009395
2284.000000	0.009396
2283.000000	0.009352
2282.000000	0.009281
2281.000000	0.009214
2280.000000	0.009165
2279.000000	0.009125
2278.000000	0.009087
2277.000000	0.009056
2276.000000	0.009035
2275.000000	0.009016
2274.000000	0.008995
2273.000000	0.008980
2272.000000	0.008979
2271.000000	0.008983
2270.000000	0.008986
2269.000000	0.008988
2268.000000	0.008984
2267.000000	0.008956
2266.000000	0.008900
2265.000000	0.008841
2264.000000	0.008807
2263.000000	0.008815
2262.000000	0.008860
2261.000000	0.008929
2260.000000	0.008996
2259.000000	0.009039
2258.000000	0.009055
2257.000000	0.009060
2256.000000	0.009054
2255.000000	0.009005
2254.000000	0.008900
2253.000000	0.008768
2252.000000	0.008669
2251.000000	0.008639
2250.000000	0.008668
2249.000000	0.008721
2248.000000	0.008753
2247.000000	0.008751
2246.000000	0.008746
2245.000000	0.008779
2244.000000	0.008857
2243.000000	0.008935
2242.000000	0.008960
2241.000000	0.008914
2240.000000	0.008816
2239.000000	0.008710
2238.000000	0.008648
2237.000000	0.008657
2236.000000	0.008711
2235.000000	0.008752
2234.000000	0.008757
2233.000000	0.008749
2232.000000	0.008752
2231.000000	0.008752
2230.000000	0.008729
2229.000000	0.008702
2228.000000	0.008714
2227.000000	0.008779
2226.000000	0.008864
2225.000000	0.008914
2224.000000	0.008890
2223.000000	0.008792
2222.000000	0.008662
2221.000000	0.008551
2220.000000	0.008482
2219.000000	0.008444
2218.000000	0.008423
2217.000000	0.008423
2216.000000	0.008451
2215.000000	0.008501
2214.000000	0.008549
2213.000000	0.008564
2212.000000	0.008528
2211.000000	0.008469
2210.000000	0.008451
2209.000000	0.008514
2208.000000	0.008612
2207.000000	0.008656
2206.000000	0.008596
2205.000000	0.008461
2204.000000	0.008325
2203.000000	0.008261
2202.000000	0.008312
2201.000000	0.008450
2200.000000	0.008582
2199.000000	0.008624
2198.000000	0.008576
2197.000000	0.008501
2196.000000	0.008436
2195.000000	0.008374
2194.000000	0.008310
2193.000000	0.008269
2192.000000	0.008274
2191.000000	0.008312
2190.000000	0.008336
2189.000000	0.008278
2188.000000	0.008108
2187.000000	0.007879
2186.000000	0.007708
2185.000000	0.007663
2184.000000	0.007705
2183.000000	0.007764
2182.000000	0.007834
2181.000000	0.007934
2180.000000	0.008038
2179.000000	0.008112
2178.000000	0.008170
2177.000000	0.008223
2176.000000	0.008219
2175.000000	0.008112
2174.000000	0.007951
2173.000000	0.007834
2172.000000	0.007804
2171.000000	0.007864
2170.000000	0.008022
2169.000000	0.008223
2168.000000	0.008305
2167.000000	0.008148
2166.000000	0.007855
2165.000000	0.007654
2164.000000	0.007632
2163.000000	0.007690
2162.000000	0.007752
2161.000000	0.007827
2160.000000	0.007860
2159.000000	0.007714
2158.000000	0.007399
2157.000000	0.007105
2156.000000	0.006945
2155.000000	0.006873
2154.000000	0.006859
2153.000000	0.006961
2152.000000	0.007180
2151.000000	0.007408
2150.000000	0.007538
2149.000000	0.007556
2148.000000	0.007511
2147.000000	0.007463
2146.000000	0.007484
2145.000000	0.007616
2144.000000	0.007798
2143.000000	0.007916
2142.000000	0.007926
2141.000000	0.007875
2140.000000	0.007805
2139.000000	0.007710
2138.000000	0.007591
2137.000000	0.007483
2136.000000	0.007407
2135.000000	0.007350
2134.000000	0.007315
2133.000000	0.007340
2132.000000	0.007438
2131.000000	0.007577
2130.000000	0.007712
2129.000000	0.007816
2128.000000	0.007872
2127.000000	0.007889
2126.000000	0.007908
2125.000000	0.007953
2124.000000	0.008001
2123.000000	0.008014
2122.000000	0.008011
2121.000000	0.008044
2120.000000	0.008111
2119.000000	0.008157
2118.000000	0.008152
2117.000000	0.008136
2116.000000	0.008159
2115.000000	0.008228
2114.000000	0.008310
2113.000000	0.008372
2112.000000	0.008391
2111.000000	0.008372
2110.000000	0.008347
2109.000000	0.008337
2108.000000	0.008321
2107.000000	0.008276
2106.000000	0.008242
2105.000000	0.008275
2104.000000	0.008359
2103.000000	0.008417
2102.000000	0.008422
2101.000000	0.008421
2100.000000	0.008442
2099.000000	0.008450
2098.000000	0.008409
2097.000000	0.008338
2096.000000	0.008274
2095.000000	0.008222
2094.000000	0.008171
2093.000000	0.008119
2092.000000	0.008064
2091.000000	0.008003
2090.000000	0.007962
2089.000000	0.007985
2088.000000	0.008065
2087.000000	0.008143
2086.000000	0.008172
2085.000000	0.008155
2084.000000	0.008109
2083.000000	0.008050
2082.000000	0.008010
2081.000000	0.008032
2080.000000	0.008108
2079.000000	0.008180
2078.000000	0.008208
2077.000000	0.008201
2076.000000	0.008165
2075.000000	0.008076
2074.000000	0.007951
2073.000000	0.007862
2072.000000	0.007861
2071.000000	0.007925
2070.000000	0.007987
2069.000000	0.008008
2068.000000	0.007971
2067.000000	0.007882
2066.000000	0.007783
2065.000000	0.007724
2064.000000	0.007700
2063.000000	0.007651
2062.000000	0.007558
2061.000000	0.007478
2060.000000	0.007474
2059.000000	0.007549
2058.000000	0.007670
2057.000000	0.007802
2056.000000	0.007890
2055.000000	0.007882
2054.000000	0.007799
2053.000000	0.007724
2052.000000	0.007699
2051.000000	0.007676
2050.000000	0.007601
2049.000000	0.007483
2048.000000	0.007377
2047.000000	0.007322
2046.000000	0.007340
2045.000000	0.007433
2044.000000	0.007546
2043.000000	0.007607
2042.000000	0.007612
2041.000000	0.007618
2040.000000	0.007618
2039.000000	0.007536
2038.000000	0.007360
2037.000000	0.007193
2036.000000	0.007119
2035.000000	0.007102
2034.000000	0.007074
2033.000000	0.007024
2032.000000	0.006974
2031.000000	0.006931
2030.000000	0.006918
2029.000000	0.006948
2028.000000	0.006944
2027.000000	0.006804
2026.000000	0.006565
2025.000000	0.006400
2024.000000	0.006406
2023.000000	0.006493
2022.000000	0.006527
2021.000000	0.006493
2020.000000	0.006466
2019.000000	0.006502
2018.000000	0.006599
2017.000000	0.006704
2016.000000	0.006738
2015.000000	0.006684
2014.000000	0.006638
2013.000000	0.006716
2012.000000	0.006909
2011.000000	0.007108
2010.000000	0.007243
2009.000000	0.007305
2008.000000	0.007273
2007.000000	0.007144
2006.000000	0.007004
2005.000000	0.006963
2004.000000	0.006997
2003.000000	0.006978
2002.000000	0.006840
2001.000000	0.006636
2000.000000	0.006450
1999.000000	0.006356
1998.000000	0.006417
1997.000000	0.006611
1996.000000	0.006779
1995.000000	0.006758
1994.000000	0.006568
1993.000000	0.006375
1992.000000	0.006298
1991.000000	0.006331
1990.000000	0.006451
1989.000000	0.006641
1988.000000	0.006811
1987.000000	0.006852
1986.000000	0.006779
1985.000000	0.006709
1984.000000	0.006695
1983.000000	0.006701
1982.000000	0.006733
1981.000000	0.006854
1980.000000	0.007033
1979.000000	0.007144
1978.000000	0.007147
1977.000000	0.007136
1976.000000	0.007154
1975.000000	0.007106
1974.000000	0.006928
1973.000000	0.006682
1972.000000	0.006442
1971.000000	0.006242
1970.000000	0.006134
1969.000000	0.006186
1968.000000	0.006355
1967.000000	0.006492
1966.000000	0.006523
1965.000000	0.006515
1964.000000	0.006536
1963.000000	0.006570
1962.000000	0.006581
1961.000000	0.006577
1960.000000	0.006574
1959.000000	0.006571
1958.000000	0.006584
1957.000000	0.006634
1956.000000	0.006710
1955.000000	0.006790
1954.000000	0.006886
1953.000000	0.006979
1952.000000	0.006982
1951.000000	0.006834
1950.000000	0.006627
1949.000000	0.006526
1948.000000	0.006560
1947.000000	0.006623
1946.000000	0.006657
1945.000000	0.006710
1944.000000	0.006811
1943.000000	0.006897
1942.000000	0.006914
1941.000000	0.006886
1940.000000	0.006853
1939.000000	0.006810
1938.000000	0.006766
1937.000000	0.006774
1936.000000	0.006856
1935.000000	0.006962
1934.000000	0.007029
1933.000000	0.007038
1932.000000	0.007007
1931.000000	0.006967
1930.000000	0.006972
1929.000000	0.007056
1928.000000	0.007157
1927.000000	0.007173
1926.000000	0.007091
1925.000000	0.007013
1924.000000	0.007009
1923.000000	0.007023
1922.000000	0.006972
1921.000000	0.006868
1920.000000	0.006780
1919.000000	0.006745
1918.000000	0.006755
1917.000000	0.006787
1916.000000	0.006811
1915.000000	0.006822
1914.000000	0.006836
1913.000000	0.006860
1912.000000	0.006868
1911.000000	0.006841
1910.000000	0.006819
1909.000000	0.006851
1908.000000	0.006913
1907.000000	0.006947
1906.000000	0.006946
1905.000000	0.006960
1904.000000	0.006990
1903.000000	0.006987
1902.000000	0.006950
1901.000000	0.006933
1900.000000	0.006953
1899.000000	0.006980
1898.000000	0.007002
1897.000000	0.007051
1896.000000	0.007126
1895.000000	0.007166
1894.000000	0.007134
1893.000000	0.007059
1892.000000	0.006975
1891.000000	0.006897
1890.000000	0.006852
1889.000000	0.006867
1888.000000	0.006919
1887.000000	0.006962
1886.000000	0.006993
1885.000000	0.007031
1884.000000	0.007062
1883.000000	0.007059
1882.000000	0.007041
1881.000000	0.007048
1880.000000	0.007062
1879.000000	0.007042
1878.000000	0.007001
1877.000000	0.006995
1876.000000	0.007037
1875.000000	0.007076
1874.000000	0.007075
1873.000000	0.007037
1872.000000	0.006961
1871.000000	0.006835
1870.000000	0.006702
1869.000000	0.006653
1868.000000	0.006688
1867.000000	0.006725
1866.000000	0.006750
1865.000000	0.006794
1864.000000	0.006836
1863.000000	0.006826
1862.000000	0.006787
1861.000000	0.006793
1860.000000	0.006850
1859.000000	0.006885
1858.000000	0.006862
1857.000000	0.006831
1856.000000	0.006839
1855.000000	0.006875
1854.000000	0.006914
1853.000000	0.006943
1852.000000	0.006934
1851.000000	0.006884
1850.000000	0.006832
1849.000000	0.006809
1848.000000	0.006795
1847.000000	0.006762
1846.000000	0.006742
1845.000000	0.006792
1844.000000	0.006888
1843.000000	0.006920
1842.000000	0.006873
1841.000000	0.006843
1840.000000	0.006867
1839.000000	0.006890
1838.000000	0.006872
1837.000000	0.006853
1836.000000	0.006862
1835.000000	0.006860
1834.000000	0.006804
1833.000000	0.006698
1832.000000	0.006584
1831.000000	0.006516
1830.000000	0.006510
1829.000000	0.006520
1828.000000	0.006519
1827.000000	0.006542
1826.000000	0.006625
1825.000000	0.006762
1824.000000	0.006885
1823.000000	0.006935
1822.000000	0.006928
1821.000000	0.006910
1820.000000	0.006894
1819.000000	0.006865
1818.000000	0.006833
1817.000000	0.006850
1816.000000	0.006916
1815.000000	0.006962
1814.000000	0.006955
1813.000000	0.006929
1812.000000	0.006928
1811.000000	0.006931
1810.000000	0.006910
1809.000000	0.006912
1808.000000	0.006960
1807.000000	0.006994
1806.000000	0.006969
1805.000000	0.006914
1804.000000	0.006861
1803.000000	0.006800
1802.000000	0.006738
1801.000000	0.006714
1800.000000	0.006749
1799.000000	0.006803
1798.000000	0.006852
1797.000000	0.006901
1796.000000	0.006928
1795.000000	0.006885
1794.000000	0.006778
1793.000000	0.006691
1792.000000	0.006694
1791.000000	0.006716
1790.000000	0.006703
1789.000000	0.006708
1788.000000	0.006757
1787.000000	0.006808
1786.000000	0.006828
1785.000000	0.006826
1784.000000	0.006786
1783.000000	0.006692
1782.000000	0.006611
1781.000000	0.006598
1780.000000	0.006643
1779.000000	0.006668
1778.000000	0.006639
1777.000000	0.006580
1776.000000	0.006516
1775.000000	0.006468
1774.000000	0.006427
1773.000000	0.006372
1772.000000	0.006304
1771.000000	0.006226
1770.000000	0.006207
1769.000000	0.006328
1768.000000	0.006531
1767.000000	0.006643
1766.000000	0.006595
1765.000000	0.006487
1764.000000	0.006435
1763.000000	0.006448
1762.000000	0.006478
1761.000000	0.006468
1760.000000	0.006426
1759.000000	0.006385
1758.000000	0.006384
1757.000000	0.006416
1756.000000	0.006426
1755.000000	0.006405
1754.000000	0.006403
1753.000000	0.006441
1752.000000	0.006478
1751.000000	0.006485
1750.000000	0.006473
1749.000000	0.006522
1748.000000	0.006672
1747.000000	0.006876
1746.000000	0.007068
1745.000000	0.007221
1744.000000	0.007359
1743.000000	0.007467
1742.000000	0.007528
1741.000000	0.007606
1740.000000	0.007766
1739.000000	0.007921
1738.000000	0.007984
1737.000000	0.008060
1736.000000	0.008250
1735.000000	0.008496
1734.000000	0.008707
1733.000000	0.008701
1732.000000	0.008453
1731.000000	0.008182
1730.000000	0.008037
1729.000000	0.007991
1728.000000	0.007942
1727.000000	0.007849
1726.000000	0.007724
1725.000000	0.007595
1724.000000	0.007489
1723.000000	0.007350
1722.000000	0.007130
1721.000000	0.006910
1720.000000	0.006807
1719.000000	0.006846
1718.000000	0.006976
1717.000000	0.007150
1716.000000	0.007291
1715.000000	0.007384
1714.000000	0.007533
1713.000000	0.007819
1712.000000	0.008182
1711.000000	0.008511
1710.000000	0.008772
1709.000000	0.009000
1708.000000	0.009241
1707.000000	0.009559
1706.000000	0.010008
1705.000000	0.010563
1704.000000	0.011115
1703.000000	0.011659
1702.000000	0.012233
1701.000000	0.012905
1700.000000	0.013750
1699.000000	0.014508
1698.000000	0.015231
1697.000000	0.016267
1696.000000	0.017514
1695.000000	0.018432
1694.000000	0.018873
1693.000000	0.019249
1692.000000	0.019865
1691.000000	0.020643
1690.000000	0.021406
1689.000000	0.022131
1688.000000	0.022899
1687.000000	0.023757
1686.000000	0.024588
1685.000000	0.025361
1684.000000	0.026160
1683.000000	0.026842
1682.000000	0.027513
1681.000000	0.028380
1680.000000	0.029346
1679.000000	0.030213
1678.000000	0.030983
1677.000000	0.031799
1676.000000	0.032719
1675.000000	0.033656
1674.000000	0.034499
1673.000000	0.035274
1672.000000	0.036110
1671.000000	0.037029
1670.000000	0.038034
1669.000000	0.039129
1668.000000	0.040229
1667.000000	0.041249
1666.000000	0.042190
1665.000000	0.043107
1664.000000	0.044029
1663.000000	0.044931
1662.000000	0.045808
1661.000000	0.046672
1660.000000	0.047541
1659.000000	0.048383
1658.000000	0.049153
1657.000000	0.049914
1656.000000	0.050803
1655.000000	0.051753
1654.000000	0.052511
1653.000000	0.053069
1652.000000	0.053353
1651.000000	0.053361
1650.000000	0.053390
1649.000000	0.053696
1648.000000	0.054205
1647.000000	0.054683
1646.000000	0.055027
1645.000000	0.055326
1644.000000	0.055642
1643.000000	0.055947
1642.000000	0.056227
1641.000000	0.056426
1640.000000	0.056524
1639.000000	0.056591
1638.000000	0.056666
1637.000000	0.056649
1636.000000	0.056411
1635.000000	0.056060
1634.000000	0.055821
1633.000000	0.055792
1632.000000	0.055868
1631.000000	0.055852
1630.000000	0.055600
1629.000000	0.055114
1628.000000	0.054498
1627.000000	0.053856
1626.000000	0.053234
1625.000000	0.052548
1624.000000	0.051691
1623.000000	0.050695
1622.000000	0.049764
1621.000000	0.049049
1620.000000	0.048546
1619.000000	0.048103
1618.000000	0.047423
1617.000000	0.046296
1616.000000	0.044873
1615.000000	0.043541
1614.000000	0.042528
1613.000000	0.041759
1612.000000	0.040998
1611.000000	0.040122
1610.000000	0.039221
1609.000000	0.038383
1608.000000	0.037587
1607.000000	0.036825
1606.000000	0.036154
1605.000000	0.035549
1604.000000	0.034943
1603.000000	0.034346
1602.000000	0.033816
1601.000000	0.033355
1600.000000	0.032925
1599.000000	0.032531
1598.000000	0.032197
1597.000000	0.031900
1596.000000	0.031603
1595.000000	0.031331
1594.000000	0.031143
1593.000000	0.031026
1592.000000	0.030921
1591.000000	0.030824
1590.000000	0.030789
1589.000000	0.030821
1588.000000	0.030875
1587.000000	0.030949
1586.000000	0.031079
1585.000000	0.031247
1584.000000	0.031387
1583.000000	0.031538
1582.000000	0.031764
1581.000000	0.032034
1580.000000	0.032313
1579.000000	0.032692
1578.000000	0.033221
1577.000000	0.033742
1576.000000	0.034031
1575.000000	0.034079
1574.000000	0.034121
1573.000000	0.034335
1572.000000	0.034691
1571.000000	0.035050
1570.000000	0.035393
1569.000000	0.035769
1568.000000	0.036164
1567.000000	0.036630
1566.000000	0.037206
1565.000000	0.037842
1564.000000	0.038468
1563.000000	0.039156
1562.000000	0.039943
1561.000000	0.040526
1560.000000	0.040532
1559.000000	0.040490
1558.000000	0.040866
1557.000000	0.041547
1556.000000	0.042401
1555.000000	0.043285
1554.000000	0.044041
1553.000000	0.044574
1552.000000	0.044997
1551.000000	0.045447
1550.000000	0.045911
1549.000000	0.046323
1548.000000	0.046663
1547.000000	0.046959
1546.000000	0.047211
1545.000000	0.047423
1544.000000	0.047616
1543.000000	0.047795
1542.000000	0.047927
1541.000000	0.048031
1540.000000	0.048126
1539.000000	0.048156
1538.000000	0.048130
1537.000000	0.048121
1536.000000	0.048170
1535.000000	0.048156
1534.000000	0.047951
1533.000000	0.047664
1532.000000	0.047497
1531.000000	0.047452
1530.000000	0.047395
1529.000000	0.047264
1528.000000	0.047073
1527.000000	0.046810
1526.000000	0.046468
1525.000000	0.046143
1524.000000	0.045964
1523.000000	0.045876
1522.000000	0.045667
1521.000000	0.045252
1520.000000	0.044752
1519.000000	0.044324
1518.000000	0.044017
1517.000000	0.043781
1516.000000	0.043552
1515.000000	0.043315
1514.000000	0.043061
1513.000000	0.042713
1512.000000	0.042239
1511.000000	0.041697
1510.000000	0.041202
1509.000000	0.040756
1508.000000	0.040200
1507.000000	0.039346
1506.000000	0.038314
1505.000000	0.037538
1504.000000	0.037057
1503.000000	0.036698
1502.000000	0.036320
1501.000000	0.035809
1500.000000	0.035177
1499.000000	0.034548
1498.000000	0.033956
1497.000000	0.033362
1496.000000	0.032758
1495.000000	0.032127
1494.000000	0.031494
1493.000000	0.030913
1492.000000	0.030353
1491.000000	0.029729
1490.000000	0.029075
1489.000000	0.028556
1488.000000	0.028271
1487.000000	0.028126
1486.000000	0.028027
1485.000000	0.027981
1484.000000	0.027969
1483.000000	0.027976
1482.000000	0.027991
1481.000000	0.028051
1480.000000	0.028172
1479.000000	0.028317
1478.000000	0.028463
1477.000000	0.028675
1476.000000	0.029028
1475.000000	0.029482
1474.000000	0.029984
1473.000000	0.030549
1472.000000	0.031193
1471.000000	0.031832
1470.000000	0.032437
1469.000000	0.033041
1468.000000	0.033626
1467.000000	0.034112
1466.000000	0.034478
1465.000000	0.034795
1464.000000	0.035132
1463.000000	0.035469
1462.000000	0.035763
1461.000000	0.036047
1460.000000	0.036404
1459.000000	0.036887
1458.000000	0.037465
1457.000000	0.038052
1456.000000	0.038513
1455.000000	0.038820
1454.000000	0.039113
1453.000000	0.039475
1452.000000	0.039823
1451.000000	0.040037
1450.000000	0.040112
1449.000000	0.040120
1448.000000	0.040119
1447.000000	0.040126
1446.000000	0.040165
1445.000000	0.040218
1444.000000	0.040257
1443.000000	0.040257
1442.000000	0.040197
1441.000000	0.040091
1440.000000	0.039990
1439.000000	0.039908
1438.000000	0.039723
1437.000000	0.039360
1436.000000	0.038942
1435.000000	0.038622
1434.000000	0.038417
1433.000000	0.038253
1432.000000	0.038026
1431.000000	0.037716
1430.000000	0.037396
1429.000000	0.037147
1428.000000	0.036982
1427.000000	0.036861
1426.000000	0.036749
1425.000000	0.036591
1424.000000	0.036408
1423.000000	0.036306
1422.000000	0.036328
1421.000000	0.036363
1420.000000	0.036254
1419.000000	0.036039
1418.000000	0.035823
1417.000000	0.035678
1416.000000	0.035651
1415.000000	0.035694
1414.000000	0.035714
1413.000000	0.035672
1412.000000	0.035609
1411.000000	0.035569
1410.000000	0.035531
1409.000000	0.035471
1408.000000	0.035403
1407.000000	0.035335
1406.000000	0.035272
1405.000000	0.035203
1404.000000	0.035138
1403.000000	0.035096
1402.000000	0.035060
1401.000000	0.034987
1400.000000	0.034856
1399.000000	0.034707
1398.000000	0.034585
1397.000000	0.034496
1396.000000	0.034409
1395.000000	0.034282
1394.000000	0.034106
1393.000000	0.033897
1392.000000	0.033697
1391.000000	0.033530
1390.000000	0.033371
1389.000000	0.033174
1388.000000	0.032924
1387.000000	0.032646
1386.000000	0.032375
1385.000000	0.032130
1384.000000	0.031910
1383.000000	0.031699
1382.000000	0.031482
1381.000000	0.031271
1380.000000	0.031061
1379.000000	0.030826
1378.000000	0.030541
1377.000000	0.030213
1376.000000	0.029864
1375.000000	0.029518
1374.000000	0.029192
1373.000000	0.028883
1372.000000	0.028586
1371.000000	0.028283
1370.000000	0.027953
1369.000000	0.027569
1368.000000	0.027141
1367.000000	0.026712
1366.000000	0.026310
1365.000000	0.025919
1364.000000	0.025520
1363.000000	0.025126
1362.000000	0.024769
1361.000000	0.024478
1360.000000	0.024261
1359.000000	0.024107
1358.000000	0.024002
1357.000000	0.023927
1356.000000	0.023876
1355.000000	0.023857
1354.000000	0.023879
1353.000000	0.023945
1352.000000	0.024051
1351.000000	0.024189
1350.000000	0.024361
1349.000000	0.024550
1348.000000	0.024738
1347.000000	0.024927
1346.000000	0.025131
1345.000000	0.025349
1344.000000	0.025568
1343.000000	0.025782
1342.000000	0.026001
1341.000000	0.026229
1340.000000	0.026451
1339.000000	0.026641
1338.000000	0.026782
1337.000000	0.026873
1336.000000	0.026920
1335.000000	0.026930
1334.000000	0.026908
1333.000000	0.026848
1332.000000	0.026741
1331.000000	0.026595
1330.000000	0.026429
1329.000000	0.026258
1328.000000	0.026084
1327.000000	0.025912
1326.000000	0.025757
1325.000000	0.025626
1324.000000	0.025520
1323.000000	0.025441
1322.000000	0.025381
1321.000000	0.025325
1320.000000	0.025261
1319.000000	0.025197
1318.000000	0.025141
1317.000000	0.025094
1316.000000	0.025048
1315.000000	0.025005
1314.000000	0.024957
1313.000000	0.024887
1312.000000	0.024784
1311.000000	0.024660
1310.000000	0.024528
1309.000000	0.024389
1308.000000	0.024240
1307.000000	0.024092
1306.000000	0.023963
1305.000000	0.023846
1304.000000	0.023723
1303.000000	0.023585
1302.000000	0.023441
1301.000000	0.023302
1300.000000	0.023175
1299.000000	0.023070
1298.000000	0.022989
1297.000000	0.022932
1296.000000	0.022892
1295.000000	0.022871
1294.000000	0.022869
1293.000000	0.022888
1292.000000	0.022931
1291.000000	0.023004
1290.000000	0.023103
1289.000000	0.023217
1288.000000	0.023338
1287.000000	0.023462
1286.000000	0.023591
1285.000000	0.023727
1284.000000	0.023874
1283.000000	0.024027
1282.000000	0.024170
1281.000000	0.024282
1280.000000	0.024346
1279.000000	0.024368
1278.000000	0.024360
1277.000000	0.024335
1276.000000	0.024310
1275.000000	0.024306
1274.000000	0.024331
1273.000000	0.024372
1272.000000	0.024408
1271.000000	0.024435
1270.000000	0.024467
1269.000000	0.024522
1268.000000	0.024601
1267.000000	0.024693
1266.000000	0.024786
1265.000000	0.024879
1264.000000	0.024990
1263.000000	0.025134
1262.000000	0.025301
1261.000000	0.025468
1260.000000	0.025619
1259.000000	0.025768
1258.000000	0.025940
1257.000000	0.026139
1256.000000	0.026346
1255.000000	0.026545
1254.000000	0.026739
1253.000000	0.026938
1252.000000	0.027149
1251.000000	0.027369
1250.000000	0.027593
1249.000000	0.027820
1248.000000	0.028053
1247.000000	0.028300
1246.000000	0.028560
1245.000000	0.028826
1244.000000	0.029084
1243.000000	0.029320
1242.000000	0.029524
1241.000000	0.029688
1240.000000	0.029808
1239.000000	0.029882
1238.000000	0.029920
1237.000000	0.029936
1236.000000	0.029941
1235.000000	0.029933
1234.000000	0.029893
1233.000000	0.029804
1232.000000	0.029662
1231.000000	0.029468
1230.000000	0.029228
1229.000000	0.028947
1228.000000	0.028638
1227.000000	0.028310
1226.000000	0.027959
1225.000000	0.027573
1224.000000	0.027150
1223.000000	0.026694
1222.000000	0.026213
1221.000000	0.025712
1220.000000	0.025214
1219.000000	0.024756
1218.000000	0.024371
1217.000000	0.024069
1216.000000	0.023850
1215.000000	0.023704
1214.000000	0.023613
1213.000000	0.023550
1212.000000	0.023496
1211.000000	0.023453
1210.000000	0.023436
1209.000000	0.023447
1208.000000	0.023480
1207.000000	0.023524
1206.000000	0.023573
1205.000000	0.023623
1204.000000	0.023668
1203.000000	0.023694
1202.000000	0.023683
1201.000000	0.023621
1200.000000	0.023504
1199.000000	0.023336
1198.000000	0.023128
1197.000000	0.022891
1196.000000	0.022635
1195.000000	0.022366
1194.000000	0.022089
1193.000000	0.021810
1192.000000	0.021539
1191.000000	0.021281
1190.000000	0.021027
1189.000000	0.020765
1188.000000	0.020496
1187.000000	0.020235
1186.000000	0.019997
1185.000000	0.019786
1184.000000	0.019608
1183.000000	0.019462
1182.000000	0.019340
1181.000000	0.019234
1180.000000	0.019150
1179.000000	0.019104
1178.000000	0.019101
1177.000000	0.019126
1176.000000	0.019160
1175.000000	0.019189
1174.000000	0.019212
1173.000000	0.019232
1172.000000	0.019255
1171.000000	0.019284
1170.000000	0.019317
1169.000000	0.019359
1168.000000	0.019421
1167.000000	0.019511
1166.000000	0.019620
1165.000000	0.019731
1164.000000	0.019835
1163.000000	0.019933
1162.000000	0.020024
1161.000000	0.020102
1160.000000	0.020153
1159.000000	0.020161
1158.000000	0.020115
1157.000000	0.020020
1156.000000	0.019896
1155.000000	0.019759
1154.000000	0.019605
1153.000000	0.019423
1152.000000	0.019215
1151.000000	0.018991
1150.000000	0.018754
1149.000000	0.018499
1148.000000	0.018235
1147.000000	0.017986
1146.000000	0.017764
1145.000000	0.017564
1144.000000	0.017370
1143.000000	0.017173
1142.000000	0.016966
1141.000000	0.016751
1140.000000	0.016546
1139.000000	0.016376
1138.000000	0.016254
1137.000000	0.016166
1136.000000	0.016089
1135.000000	0.016014
1134.000000	0.015948
1133.000000	0.015905
1132.000000	0.015889
1131.000000	0.015882
1130.000000	0.015866
1129.000000	0.015840
1128.000000	0.015828
1127.000000	0.015845
1126.000000	0.015881
1125.000000	0.015915
1124.000000	0.015951
1123.000000	0.016013
1122.000000	0.016103
1121.000000	0.016195
1120.000000	0.016269
1119.000000	0.016327
1118.000000	0.016385
1117.000000	0.016449
1116.000000	0.016524
1115.000000	0.016613
1114.000000	0.016707
1113.000000	0.016794
1112.000000	0.016871
1111.000000	0.016951
1110.000000	0.017044
1109.000000	0.017149
1108.000000	0.017253
1107.000000	0.017345
1106.000000	0.017419
1105.000000	0.017470
1104.000000	0.017508
1103.000000	0.017554
1102.000000	0.017623
1101.000000	0.017709
1100.000000	0.017798
1099.000000	0.017877
1098.000000	0.017945
1097.000000	0.018021
1096.000000	0.018123
1095.000000	0.018256
1094.000000	0.018407
1093.000000	0.018574
1092.000000	0.018777
1091.000000	0.019040
1090.000000	0.019360
1089.000000	0.019712
1088.000000	0.020075
1087.000000	0.020446
1086.000000	0.020824
1085.000000	0.021191
1084.000000	0.021513
1083.000000	0.021757
1082.000000	0.021910
1081.000000	0.021984
1080.000000	0.021998
1079.000000	0.021960
1078.000000	0.021863
1077.000000	0.021706
1076.000000	0.021497
1075.000000	0.021249
1074.000000	0.020973
1073.000000	0.020689
1072.000000	0.020430
1071.000000	0.020224
1070.000000	0.020077
1069.000000	0.019983
1068.000000	0.019937
1067.000000	0.019933
1066.000000	0.019959
1065.000000	0.020005
1064.000000	0.020074
1063.000000	0.020164
1062.000000	0.020250
1061.000000	0.020307
1060.000000	0.020341
1059.000000	0.020383
1058.000000	0.020446
1057.000000	0.020509
1056.000000	0.020540
1055.000000	0.020532
1054.000000	0.020506
1053.000000	0.020486
1052.000000	0.020486
1051.000000	0.020501
1050.000000	0.020520
1049.000000	0.020537
1048.000000	0.020558
1047.000000	0.020587
1046.000000	0.020615
1045.000000	0.020627
1044.000000	0.020628
1043.000000	0.020636
1042.000000	0.020671
1041.000000	0.020744
1040.000000	0.020862
1039.000000	0.021029
1038.000000	0.021236
1037.000000	0.021461
1036.000000	0.021684
1035.000000	0.021893
1034.000000	0.022089
1033.000000	0.022276
1032.000000	0.022459
1031.000000	0.022633
1030.000000	0.022788
1029.000000	0.022908
1028.000000	0.022994
1027.000000	0.023054
1026.000000	0.023093
1025.000000	0.023106
1024.000000	0.023105
1023.000000	0.023116
1022.000000	0.023163
1021.000000	0.023240
1020.000000	0.023320
1019.000000	0.023369
1018.000000	0.023366
1017.000000	0.023294
1016.000000	0.023142
1015.000000	0.022915
1014.000000	0.022629
1013.000000	0.022303
1012.000000	0.021938
1011.000000	0.021528
1010.000000	0.021078
1009.000000	0.020615
1008.000000	0.020176
1007.000000	0.019777
1006.000000	0.019413
1005.000000	0.019073
1004.000000	0.018754
1003.000000	0.018455
1002.000000	0.018172
1001.000000	0.017903
1000.000000	0.017651
999.000000	0.017419
998.000000	0.017198
997.000000	0.016962
996.000000	0.016700
995.000000	0.016419
994.000000	0.016143
993.000000	0.015886
992.000000	0.015647
991.000000	0.015415
990.000000	0.015187
989.000000	0.014979
988.000000	0.014808
987.000000	0.014668
986.000000	0.014524
985.000000	0.014352
984.000000	0.014166
983.000000	0.013998
982.000000	0.013866
981.000000	0.013757
980.000000	0.013657
979.000000	0.013558
978.000000	0.013459
977.000000	0.013354
976.000000	0.013242
975.000000	0.013124
974.000000	0.012999
973.000000	0.012862
972.000000	0.012710
971.000000	0.012544
970.000000	0.012364
969.000000	0.012173
968.000000	0.011980
967.000000	0.011790
966.000000	0.011597
965.000000	0.011395
964.000000	0.011191
963.000000	0.011001
962.000000	0.010830
961.000000	0.010680
960.000000	0.010547
959.000000	0.010424
958.000000	0.010291
957.000000	0.010134
956.000000	0.009963
955.000000	0.009800
954.000000	0.009659
953.000000	0.009534
952.000000	0.009425
951.000000	0.009334
950.000000	0.009257
949.000000	0.009182
948.000000	0.009109
947.000000	0.009054
946.000000	0.009027
945.000000	0.009021
944.000000	0.009020
943.000000	0.009023
942.000000	0.009040
941.000000	0.009072
940.000000	0.009110
939.000000	0.009136
938.000000	0.009136
937.000000	0.009106
936.000000	0.009055
935.000000	0.008989
934.000000	0.008917
933.000000	0.008848
932.000000	0.008794
931.000000	0.008747
930.000000	0.008693
929.000000	0.008629
928.000000	0.008570
927.000000	0.008523
926.000000	0.008481
925.000000	0.008444
924.000000	0.008433
923.000000	0.008455
922.000000	0.008479
921.000000	0.008452
920.000000	0.008357
919.000000	0.008219
918.000000	0.008081
917.000000	0.007968
916.000000	0.007883
915.000000	0.007808
914.000000	0.007711
913.000000	0.007581
912.000000	0.007434
911.000000	0.007297
910.000000	0.007182
909.000000	0.007089
908.000000	0.007034
907.000000	0.007018
906.000000	0.007013
905.000000	0.006981
904.000000	0.006917
903.000000	0.006850
902.000000	0.006795
901.000000	0.006743
900.000000	0.006687
899.000000	0.006632
898.000000	0.006587
897.000000	0.006556
896.000000	0.006544
895.000000	0.006550
894.000000	0.006545
893.000000	0.006497
892.000000	0.006400
891.000000	0.006287
890.000000	0.006195
889.000000	0.006150
888.000000	0.006184
887.000000	0.006320
886.000000	0.006553
885.000000	0.006842
884.000000	0.007163
883.000000	0.007523
882.000000	0.007954
881.000000	0.008477
880.000000	0.009086
879.000000	0.009734
878.000000	0.010331
877.000000	0.010768
876.000000	0.010969
875.000000	0.010914
874.000000	0.010633
873.000000	0.010194
872.000000	0.009685
871.000000	0.009186
870.000000	0.008741
869.000000	0.008358
868.000000	0.008041
867.000000	0.007797
866.000000	0.007621
865.000000	0.007491
864.000000	0.007389
863.000000	0.007308
862.000000	0.007242
861.000000	0.007186
860.000000	0.007146
859.000000	0.007128
858.000000	0.007129
857.000000	0.007131
856.000000	0.007126
855.000000	0.007121
854.000000	0.007122
853.000000	0.007128
852.000000	0.007137
851.000000	0.007147
850.000000	0.007147
849.000000	0.007126
848.000000	0.007082
847.000000	0.007017
846.000000	0.006937
845.000000	0.006852
844.000000	0.006782
843.000000	0.006737
842.000000	0.006707
841.000000	0.006680
840.000000	0.006664
839.000000	0.006667
838.000000	0.006672
837.000000	0.006649
836.000000	0.006591
835.000000	0.006518
834.000000	0.006443
833.000000	0.006364
832.000000	0.006292
831.000000	0.006250
830.000000	0.006255
829.000000	0.006294
828.000000	0.006344
827.000000	0.006386
826.000000	0.006408
825.000000	0.006411
824.000000	0.006418
823.000000	0.006456
822.000000	0.006509
821.000000	0.006541
820.000000	0.006531
819.000000	0.006501
818.000000	0.006477
817.000000	0.006467
816.000000	0.006477
815.000000	0.006511
814.000000	0.006560
813.000000	0.006596
812.000000	0.006588
811.000000	0.006528
810.000000	0.006430
809.000000	0.006323
808.000000	0.006247
807.000000	0.006236
806.000000	0.006289
805.000000	0.006380
804.000000	0.006470
803.000000	0.006527
802.000000	0.006529
801.000000	0.006480
800.000000	0.006415
799.000000	0.006374
798.000000	0.006358
797.000000	0.006345
796.000000	0.006329
795.000000	0.006339
794.000000	0.006392
793.000000	0.006467
792.000000	0.006526
791.000000	0.006554
790.000000	0.006565
789.000000	0.006588
788.000000	0.006633
787.000000	0.006685
786.000000	0.006711
785.000000	0.006698
784.000000	0.006674
783.000000	0.006677
782.000000	0.006708
781.000000	0.006740
780.000000	0.006759
779.000000	0.006785
778.000000	0.006833
777.000000	0.006884
776.000000	0.006904
775.000000	0.006890
774.000000	0.006869
773.000000	0.006870
772.000000	0.006899
771.000000	0.006940
770.000000	0.006977
769.000000	0.007015
768.000000	0.007072
767.000000	0.007141
766.000000	0.007179
765.000000	0.007151
764.000000	0.007075
763.000000	0.007005
762.000000	0.006976
761.000000	0.006988
760.000000	0.007031
759.000000	0.007102
758.000000	0.007181
757.000000	0.007241
756.000000	0.007274
755.000000	0.007291
754.000000	0.007293
753.000000	0.007265
752.000000	0.007210
751.000000	0.007162
750.000000	0.007158
749.000000	0.007205
748.000000	0.007291
747.000000	0.007398
746.000000	0.007497
745.000000	0.007557
744.000000	0.007579
743.000000	0.007597
742.000000	0.007629
741.000000	0.007668
740.000000	0.007713
739.000000	0.007784
738.000000	0.007887
737.000000	0.007989
736.000000	0.008069
735.000000	0.008146
734.000000	0.008248
733.000000	0.008365
732.000000	0.008475
731.000000	0.008590
730.000000	0.008727
729.000000	0.008872
728.000000	0.008991
727.000000	0.009074
726.000000	0.009144
725.000000	0.009233
724.000000	0.009365
723.000000	0.009570
722.000000	0.009854
721.000000	0.010163
720.000000	0.010395
719.000000	0.010492
718.000000	0.010479
717.000000	0.010430
716.000000	0.010416
715.000000	0.010496
714.000000	0.010682
713.000000	0.010910
712.000000	0.011066
711.000000	0.011087
710.000000	0.011014
709.000000	0.010949
708.000000	0.010953
707.000000	0.011013
706.000000	0.011087
705.000000	0.011155
704.000000	0.011216
703.000000	0.011272
702.000000	0.011328
701.000000	0.011387
700.000000	0.011444
699.000000	0.011474
698.000000	0.011447
697.000000	0.011373
696.000000	0.011302
695.000000	0.011293
694.000000	0.011355
693.000000	0.011431
692.000000	0.011463
691.000000	0.011442
690.000000	0.011404
689.000000	0.011394
688.000000	0.011425
687.000000	0.011475
686.000000	0.011497
685.000000	0.011459
684.000000	0.011399
683.000000	0.011396
682.000000	0.011475
681.000000	0.011584
680.000000	0.011674
679.000000	0.011760
678.000000	0.011877
677.000000	0.012035
676.000000	0.012206
675.000000	0.012343
674.000000	0.012429
673.000000	0.012489
672.000000	0.012523
671.000000	0.012461
670.000000	0.012190
669.000000	0.011697
668.000000	0.011353
667.000000	0.011647
666.000000	0.012192
665.000000	0.012674
664.000000	0.013011
663.000000	0.013134
662.000000	0.013071
661.000000	0.012951
660.000000	0.012873
659.000000	0.012828
658.000000	0.012784
657.000000	0.012775
656.000000	0.012824
655.000000	0.012870
654.000000	0.012878
653.000000	0.012896
652.000000	0.012953
651.000000	0.012999
650.000000	0.012999
649.000000	0.012996
648.000000	0.013015
647.000000	0.013011
646.000000	0.012963
645.000000	0.012920
644.000000	0.012921
643.000000	0.012950
642.000000	0.012984
641.000000	0.013014
640.000000	0.013007
639.000000	0.012906
638.000000	0.012720
637.000000	0.012540
636.000000	0.012440
635.000000	0.012439
634.000000	0.012535
633.000000	0.012709
632.000000	0.012898
631.000000	0.013015
630.000000	0.013043
629.000000	0.013030
628.000000	0.013010
627.000000	0.012972
626.000000	0.012949
625.000000	0.012998
624.000000	0.013101
623.000000	0.013183
622.000000	0.013225
621.000000	0.013289
620.000000	0.013400
619.000000	0.013501
618.000000	0.013531
617.000000	0.013491
616.000000	0.013395
615.000000	0.013246
614.000000	0.013103
613.000000	0.013077
612.000000	0.013209
611.000000	0.013413
610.000000	0.013594
609.000000	0.013739
608.000000	0.013837
607.000000	0.013817
606.000000	0.013650
605.000000	0.013437
604.000000	0.013311
603.000000	0.013285
602.000000	0.013272
601.000000	0.013216
600.000000	0.013153
599.000000	0.013160
598.000000	0.013275
597.000000	0.013451
596.000000	0.013560
595.000000	0.013503
594.000000	0.013309
593.000000	0.013125
592.000000	0.013059
591.000000	0.013096
590.000000	0.013174
589.000000	0.013270
588.000000	0.013370
587.000000	0.013422
586.000000	0.013386
585.000000	0.013305
584.000000	0.013266
583.000000	0.013298
582.000000	0.013349
581.000000	0.013364
580.000000	0.013334
579.000000	0.013305
578.000000	0.013324
577.000000	0.013408
576.000000	0.013532
575.000000	0.013673
574.000000	0.013837
573.000000	0.014019
572.000000	0.014156
571.000000	0.014167
570.000000	0.014061
569.000000	0.013946
568.000000	0.013904
567.000000	0.013906
566.000000	0.013893
565.000000	0.013890
564.000000	0.013984
563.000000	0.014218
562.000000	0.014538
561.000000	0.014831
560.000000	0.015006
559.000000	0.015045
558.000000	0.015003
557.000000	0.014941
556.000000	0.014876
555.000000	0.014810
554.000000	0.014807
553.000000	0.014949
552.000000	0.015202
551.000000	0.015396
550.000000	0.015383
549.000000	0.015160
548.000000	0.014821
547.000000	0.014454
546.000000	0.014124
545.000000	0.013861
544.000000	0.013643
543.000000	0.013446
542.000000	0.013336
541.000000	0.013433
540.000000	0.013742
539.000000	0.014108
538.000000	0.014374
537.000000	0.014521
536.000000	0.014609
535.000000	0.014660
534.000000	0.014668
533.000000	0.014656
532.000000	0.014634
531.000000	0.014573
530.000000	0.014494
529.000000	0.014483
528.000000	0.014554
527.000000	0.014603
526.000000	0.014559
525.000000	0.014475
524.000000	0.014399
523.000000	0.014249
522.000000	0.013936
521.000000	0.013523
520.000000	0.013150
519.000000	0.012870
518.000000	0.012676
517.000000	0.012613
516.000000	0.012708
515.000000	0.012824
514.000000	0.012751
513.000000	0.012432
512.000000	0.012017
511.000000	0.011710
510.000000	0.011622
509.000000	0.011726
508.000000	0.011834
507.000000	0.011717
506.000000	0.011352
505.000000	0.010979
504.000000	0.010825
503.000000	0.010848
502.000000	0.010836
501.000000	0.010694
500.000000	0.010501
499.000000	0.010345
498.000000	0.010235
497.000000	0.010166
496.000000	0.010121
495.000000	0.010040
494.000000	0.009874
493.000000	0.009653
492.000000	0.009416
491.000000	0.009164
490.000000	0.008940
489.000000	0.008887
488.000000	0.009095
487.000000	0.009443
486.000000	0.009690
485.000000	0.009711
484.000000	0.009580
483.000000	0.009450
482.000000	0.009430
481.000000	0.009520
480.000000	0.009605
479.000000	0.009548
478.000000	0.009302
477.000000	0.008956
476.000000	0.008639
475.000000	0.008410
474.000000	0.008308
473.000000	0.008420
472.000000	0.008794
471.000000	0.009334
470.000000	0.009836
469.000000	0.010129
468.000000	0.010117
467.000000	0.009760
466.000000	0.009137
465.000000	0.008495
464.000000	0.008079
463.000000	0.007949
462.000000	0.007985
461.000000	0.008044
460.000000	0.008052
459.000000	0.007961
458.000000	0.007745
457.000000	0.007492
456.000000	0.007333
455.000000	0.007257
454.000000	0.006609
453.000000	0.006396
452.000000	0.006252
451.000000	0.006332
450.000000	0.006555
