PE IR       SUBTECH     SPECTRUM    ASCII       PEDS        4.00        
   -1
3G-H10-C016_1.ASC
22/02/23
14:42:50.00
22/02/23
15:10:46.00
uco
Sample 016 By uco Date Wednesday, February 23 2022
450.000000
#HDR
-1
-1
#GR
cm-1
A
1.0
0.0
4000.000000
-1.000000
3551
8
0.027142
0.002487
#DATA
4000.000000	0.002688
3999.000000	0.002672
3998.000000	0.002659
3997.000000	0.002651
3996.000000	0.002679
3995.000000	0.002689
3994.000000	0.002699
3993.000000	0.002704
3992.000000	0.002707
3991.000000	0.002709
3990.000000	0.002710
3989.000000	0.002710
3988.000000	0.002711
3987.000000	0.002721
3986.000000	0.002741
3985.000000	0.002768
3984.000000	0.002792
3983.000000	0.002811
3982.000000	0.002822
3981.000000	0.002823
3980.000000	0.002810
3979.000000	0.002783
3978.000000	0.002748
3977.000000	0.002719
3976.000000	0.002711
3975.000000	0.002730
3974.000000	0.002768
3973.000000	0.002806
3972.000000	0.002825
3971.000000	0.002820
3970.000000	0.002804
3969.000000	0.002790
3968.000000	0.002781
3967.000000	0.002769
3966.000000	0.002749
3965.000000	0.002725
3964.000000	0.002708
3963.000000	0.002711
3962.000000	0.002736
3961.000000	0.002779
3960.000000	0.002827
3959.000000	0.002866
3958.000000	0.002886
3957.000000	0.002888
3956.000000	0.002878
3955.000000	0.002866
3954.000000	0.002853
3953.000000	0.002838
3952.000000	0.002823
3951.000000	0.002810
3950.000000	0.002804
3949.000000	0.002798
3948.000000	0.002787
3947.000000	0.002769
3946.000000	0.002751
3945.000000	0.002745
3944.000000	0.002760
3943.000000	0.002795
3942.000000	0.002837
3941.000000	0.002869
3940.000000	0.002881
3939.000000	0.002873
3938.000000	0.002855
3937.000000	0.002829
3936.000000	0.002798
3935.000000	0.002765
3934.000000	0.002748
3933.000000	0.002765
3932.000000	0.002818
3931.000000	0.002883
3930.000000	0.002928
3929.000000	0.002935
3928.000000	0.002910
3927.000000	0.002867
3926.000000	0.002823
3925.000000	0.002793
3924.000000	0.002780
3923.000000	0.002777
3922.000000	0.002777
3921.000000	0.002777
3920.000000	0.002777
3919.000000	0.002774
3918.000000	0.002767
3917.000000	0.002759
3916.000000	0.002754
3915.000000	0.002753
3914.000000	0.002753
3913.000000	0.002758
3912.000000	0.002772
3911.000000	0.002792
3910.000000	0.002810
3909.000000	0.002818
3908.000000	0.002815
3907.000000	0.002806
3906.000000	0.002793
3905.000000	0.002779
3904.000000	0.002766
3903.000000	0.002759
3902.000000	0.002766
3901.000000	0.002790
3900.000000	0.002824
3899.000000	0.002855
3898.000000	0.002869
3897.000000	0.002865
3896.000000	0.002850
3895.000000	0.002833
3894.000000	0.002821
3893.000000	0.002819
3892.000000	0.002827
3891.000000	0.002842
3890.000000	0.002853
3889.000000	0.002853
3888.000000	0.002839
3887.000000	0.002820
3886.000000	0.002820
3885.000000	0.002845
3884.000000	0.002873
3883.000000	0.002879
3882.000000	0.002864
3881.000000	0.002845
3880.000000	0.002834
3879.000000	0.002832
3878.000000	0.002830
3877.000000	0.002821
3876.000000	0.002809
3875.000000	0.002812
3874.000000	0.002845
3873.000000	0.002895
3872.000000	0.002931
3871.000000	0.002937
3870.000000	0.002923
3869.000000	0.002906
3868.000000	0.002887
3867.000000	0.002865
3866.000000	0.002849
3865.000000	0.002857
3864.000000	0.002887
3863.000000	0.002919
3862.000000	0.002939
3861.000000	0.002947
3860.000000	0.002955
3859.000000	0.002977
3858.000000	0.003024
3857.000000	0.003091
3856.000000	0.003142
3855.000000	0.003143
3854.000000	0.003102
3853.000000	0.003053
3852.000000	0.003001
3851.000000	0.002952
3850.000000	0.002912
3849.000000	0.002886
3848.000000	0.002869
3847.000000	0.002851
3846.000000	0.002825
3845.000000	0.002803
3844.000000	0.002798
3843.000000	0.002820
3842.000000	0.002861
3841.000000	0.002906
3840.000000	0.002942
3839.000000	0.002970
3838.000000	0.002991
3837.000000	0.003008
3836.000000	0.003018
3835.000000	0.003014
3834.000000	0.002990
3833.000000	0.002943
3832.000000	0.002890
3831.000000	0.002851
3830.000000	0.002833
3829.000000	0.002832
3828.000000	0.002836
3827.000000	0.002839
3826.000000	0.002842
3825.000000	0.002841
3824.000000	0.002828
3823.000000	0.002801
3822.000000	0.002786
3821.000000	0.002803
3820.000000	0.002830
3819.000000	0.002842
3818.000000	0.002836
3817.000000	0.002831
3816.000000	0.002850
3815.000000	0.002882
3814.000000	0.002900
3813.000000	0.002895
3812.000000	0.002883
3811.000000	0.002884
3810.000000	0.002896
3809.000000	0.002902
3808.000000	0.002891
3807.000000	0.002877
3806.000000	0.002879
3805.000000	0.002896
3804.000000	0.002909
3803.000000	0.002904
3802.000000	0.002889
3801.000000	0.002880
3800.000000	0.002871
3799.000000	0.002856
3798.000000	0.002836
3797.000000	0.002821
3796.000000	0.002821
3795.000000	0.002834
3794.000000	0.002849
3793.000000	0.002858
3792.000000	0.002864
3791.000000	0.002867
3790.000000	0.002867
3789.000000	0.002861
3788.000000	0.002851
3787.000000	0.002845
3786.000000	0.002851
3785.000000	0.002868
3784.000000	0.002884
3783.000000	0.002884
3782.000000	0.002864
3781.000000	0.002835
3780.000000	0.002815
3779.000000	0.002813
3778.000000	0.002817
3777.000000	0.002817
3776.000000	0.002816
3775.000000	0.002826
3774.000000	0.002851
3773.000000	0.002880
3772.000000	0.002894
3771.000000	0.002891
3770.000000	0.002880
3769.000000	0.002863
3768.000000	0.002834
3767.000000	0.002796
3766.000000	0.002767
3765.000000	0.002764
3764.000000	0.002780
3763.000000	0.002788
3762.000000	0.002767
3761.000000	0.002723
3760.000000	0.002682
3759.000000	0.002660
3758.000000	0.002658
3757.000000	0.002679
3756.000000	0.002717
3755.000000	0.002761
3754.000000	0.002793
3753.000000	0.002813
3752.000000	0.002834
3751.000000	0.002856
3750.000000	0.002859
3749.000000	0.002844
3748.000000	0.002830
3747.000000	0.002820
3746.000000	0.002805
3745.000000	0.002795
3744.000000	0.002800
3743.000000	0.002801
3742.000000	0.002783
3741.000000	0.002759
3740.000000	0.002750
3739.000000	0.002757
3738.000000	0.002767
3737.000000	0.002769
3736.000000	0.002767
3735.000000	0.002757
3734.000000	0.002728
3733.000000	0.002685
3732.000000	0.002656
3731.000000	0.002656
3730.000000	0.002678
3729.000000	0.002696
3728.000000	0.002693
3727.000000	0.002679
3726.000000	0.002673
3725.000000	0.002684
3724.000000	0.002701
3723.000000	0.002712
3722.000000	0.002710
3721.000000	0.002696
3720.000000	0.002679
3719.000000	0.002665
3718.000000	0.002659
3717.000000	0.002665
3716.000000	0.002675
3715.000000	0.002680
3714.000000	0.002674
3713.000000	0.002669
3712.000000	0.002683
3711.000000	0.002710
3710.000000	0.002729
3709.000000	0.002728
3708.000000	0.002715
3707.000000	0.002701
3706.000000	0.002699
3705.000000	0.002710
3704.000000	0.002728
3703.000000	0.002741
3702.000000	0.002743
3701.000000	0.002733
3700.000000	0.002719
3699.000000	0.002708
3698.000000	0.002701
3697.000000	0.002698
3696.000000	0.002698
3695.000000	0.002698
3694.000000	0.002694
3693.000000	0.002689
3692.000000	0.002686
3691.000000	0.002684
3690.000000	0.002681
3689.000000	0.002676
3688.000000	0.002676
3687.000000	0.002687
3686.000000	0.002699
3685.000000	0.002703
3684.000000	0.002693
3683.000000	0.002674
3682.000000	0.002653
3681.000000	0.002640
3680.000000	0.002650
3679.000000	0.002677
3678.000000	0.002698
3677.000000	0.002703
3676.000000	0.002725
3675.000000	0.002778
3674.000000	0.002827
3673.000000	0.002837
3672.000000	0.002801
3671.000000	0.002752
3670.000000	0.002737
3669.000000	0.002762
3668.000000	0.002790
3667.000000	0.002799
3666.000000	0.002788
3665.000000	0.002771
3664.000000	0.002765
3663.000000	0.002776
3662.000000	0.002794
3661.000000	0.002805
3660.000000	0.002798
3659.000000	0.002773
3658.000000	0.002747
3657.000000	0.002746
3656.000000	0.002780
3655.000000	0.002826
3654.000000	0.002850
3653.000000	0.002832
3652.000000	0.002781
3651.000000	0.002744
3650.000000	0.002768
3649.000000	0.002846
3648.000000	0.002925
3647.000000	0.002975
3646.000000	0.002992
3645.000000	0.002986
3644.000000	0.002969
3643.000000	0.002958
3642.000000	0.002967
3641.000000	0.002995
3640.000000	0.003029
3639.000000	0.003057
3638.000000	0.003076
3637.000000	0.003088
3636.000000	0.003093
3635.000000	0.003097
3634.000000	0.003110
3633.000000	0.003133
3632.000000	0.003153
3631.000000	0.003155
3630.000000	0.003146
3629.000000	0.003149
3628.000000	0.003160
3627.000000	0.003164
3626.000000	0.003169
3625.000000	0.003181
3624.000000	0.003194
3623.000000	0.003196
3622.000000	0.003183
3621.000000	0.003170
3620.000000	0.003182
3619.000000	0.003227
3618.000000	0.003280
3617.000000	0.003319
3616.000000	0.003341
3615.000000	0.003350
3614.000000	0.003355
3613.000000	0.003357
3612.000000	0.003346
3611.000000	0.003322
3610.000000	0.003303
3609.000000	0.003320
3608.000000	0.003383
3607.000000	0.003468
3606.000000	0.003540
3605.000000	0.003581
3604.000000	0.003593
3603.000000	0.003591
3602.000000	0.003589
3601.000000	0.003593
3600.000000	0.003600
3599.000000	0.003602
3598.000000	0.003600
3597.000000	0.003604
3596.000000	0.003622
3595.000000	0.003652
3594.000000	0.003682
3593.000000	0.003697
3592.000000	0.003695
3591.000000	0.003681
3590.000000	0.003665
3589.000000	0.003667
3588.000000	0.003702
3587.000000	0.003759
3586.000000	0.003813
3585.000000	0.003849
3584.000000	0.003876
3583.000000	0.003904
3582.000000	0.003940
3581.000000	0.003981
3580.000000	0.004019
3579.000000	0.004050
3578.000000	0.004071
3577.000000	0.004086
3576.000000	0.004100
3575.000000	0.004114
3574.000000	0.004126
3573.000000	0.004134
3572.000000	0.004134
3571.000000	0.004127
3570.000000	0.004116
3569.000000	0.004113
3568.000000	0.004137
3567.000000	0.004193
3566.000000	0.004271
3565.000000	0.004355
3564.000000	0.004440
3563.000000	0.004519
3562.000000	0.004578
3561.000000	0.004607
3560.000000	0.004609
3559.000000	0.004598
3558.000000	0.004591
3557.000000	0.004599
3556.000000	0.004623
3555.000000	0.004657
3554.000000	0.004692
3553.000000	0.004724
3552.000000	0.004756
3551.000000	0.004788
3550.000000	0.004816
3549.000000	0.004837
3548.000000	0.004850
3547.000000	0.004863
3546.000000	0.004886
3545.000000	0.004920
3544.000000	0.004961
3543.000000	0.005003
3542.000000	0.005043
3541.000000	0.005083
3540.000000	0.005122
3539.000000	0.005158
3538.000000	0.005188
3537.000000	0.005213
3536.000000	0.005229
3535.000000	0.005235
3534.000000	0.005238
3533.000000	0.005249
3532.000000	0.005274
3531.000000	0.005306
3530.000000	0.005327
3529.000000	0.005333
3528.000000	0.005336
3527.000000	0.005357
3526.000000	0.005402
3525.000000	0.005462
3524.000000	0.005523
3523.000000	0.005582
3522.000000	0.005638
3521.000000	0.005685
3520.000000	0.005709
3519.000000	0.005704
3518.000000	0.005682
3517.000000	0.005670
3516.000000	0.005684
3515.000000	0.005719
3514.000000	0.005758
3513.000000	0.005783
3512.000000	0.005792
3511.000000	0.005791
3510.000000	0.005793
3509.000000	0.005803
3508.000000	0.005825
3507.000000	0.005858
3506.000000	0.005895
3505.000000	0.005929
3504.000000	0.005956
3503.000000	0.005979
3502.000000	0.006005
3501.000000	0.006041
3500.000000	0.006083
3499.000000	0.006125
3498.000000	0.006160
3497.000000	0.006185
3496.000000	0.006204
3495.000000	0.006220
3494.000000	0.006242
3493.000000	0.006274
3492.000000	0.006315
3491.000000	0.006355
3490.000000	0.006381
3489.000000	0.006386
3488.000000	0.006376
3487.000000	0.006367
3486.000000	0.006371
3485.000000	0.006388
3484.000000	0.006410
3483.000000	0.006432
3482.000000	0.006455
3481.000000	0.006485
3480.000000	0.006526
3479.000000	0.006570
3478.000000	0.006604
3477.000000	0.006621
3476.000000	0.006622
3475.000000	0.006620
3474.000000	0.006625
3473.000000	0.006643
3472.000000	0.006670
3471.000000	0.006701
3470.000000	0.006733
3469.000000	0.006763
3468.000000	0.006787
3467.000000	0.006799
3466.000000	0.006797
3465.000000	0.006787
3464.000000	0.006784
3463.000000	0.006804
3462.000000	0.006850
3461.000000	0.006911
3460.000000	0.006966
3459.000000	0.007005
3458.000000	0.007029
3457.000000	0.007045
3456.000000	0.007049
3455.000000	0.007034
3454.000000	0.006999
3453.000000	0.006959
3452.000000	0.006940
3451.000000	0.006953
3450.000000	0.006998
3449.000000	0.007061
3448.000000	0.007128
3447.000000	0.007184
3446.000000	0.007219
3445.000000	0.007232
3444.000000	0.007234
3443.000000	0.007238
3442.000000	0.007254
3441.000000	0.007281
3440.000000	0.007313
3439.000000	0.007345
3438.000000	0.007370
3437.000000	0.007388
3436.000000	0.007404
3435.000000	0.007425
3434.000000	0.007454
3433.000000	0.007487
3432.000000	0.007515
3431.000000	0.007531
3430.000000	0.007533
3429.000000	0.007528
3428.000000	0.007531
3427.000000	0.007555
3426.000000	0.007603
3425.000000	0.007660
3424.000000	0.007711
3423.000000	0.007746
3422.000000	0.007766
3421.000000	0.007783
3420.000000	0.007805
3419.000000	0.007833
3418.000000	0.007858
3417.000000	0.007872
3416.000000	0.007875
3415.000000	0.007872
3414.000000	0.007875
3413.000000	0.007885
3412.000000	0.007897
3411.000000	0.007905
3410.000000	0.007910
3409.000000	0.007916
3408.000000	0.007930
3407.000000	0.007955
3406.000000	0.007991
3405.000000	0.008032
3404.000000	0.008071
3403.000000	0.008102
3402.000000	0.008123
3401.000000	0.008130
3400.000000	0.008129
3399.000000	0.008128
3398.000000	0.008138
3397.000000	0.008162
3396.000000	0.008190
3395.000000	0.008216
3394.000000	0.008238
3393.000000	0.008261
3392.000000	0.008287
3391.000000	0.008311
3390.000000	0.008326
3389.000000	0.008328
3388.000000	0.008327
3387.000000	0.008332
3386.000000	0.008349
3385.000000	0.008372
3384.000000	0.008397
3383.000000	0.008423
3382.000000	0.008456
3381.000000	0.008493
3380.000000	0.008523
3379.000000	0.008536
3378.000000	0.008530
3377.000000	0.008516
3376.000000	0.008515
3375.000000	0.008540
3374.000000	0.008588
3373.000000	0.008646
3372.000000	0.008696
3371.000000	0.008732
3370.000000	0.008763
3369.000000	0.008802
3368.000000	0.008852
3367.000000	0.008907
3366.000000	0.008957
3365.000000	0.008998
3364.000000	0.009036
3363.000000	0.009078
3362.000000	0.009129
3361.000000	0.009180
3360.000000	0.009221
3359.000000	0.009246
3358.000000	0.009260
3357.000000	0.009279
3356.000000	0.009318
3355.000000	0.009377
3354.000000	0.009441
3353.000000	0.009493
3352.000000	0.009526
3351.000000	0.009549
3350.000000	0.009580
3349.000000	0.009628
3348.000000	0.009692
3347.000000	0.009760
3346.000000	0.009822
3345.000000	0.009874
3344.000000	0.009919
3343.000000	0.009962
3342.000000	0.010005
3341.000000	0.010043
3340.000000	0.010070
3339.000000	0.010092
3338.000000	0.010125
3337.000000	0.010185
3336.000000	0.010268
3335.000000	0.010359
3334.000000	0.010437
3333.000000	0.010490
3332.000000	0.010518
3331.000000	0.010527
3330.000000	0.010526
3329.000000	0.010522
3328.000000	0.010523
3327.000000	0.010534
3326.000000	0.010557
3325.000000	0.010591
3324.000000	0.010634
3323.000000	0.010679
3322.000000	0.010720
3321.000000	0.010755
3320.000000	0.010783
3319.000000	0.010801
3318.000000	0.010805
3317.000000	0.010797
3316.000000	0.010787
3315.000000	0.010795
3314.000000	0.010834
3313.000000	0.010897
3312.000000	0.010963
3311.000000	0.011007
3310.000000	0.011014
3309.000000	0.010991
3308.000000	0.010956
3307.000000	0.010932
3306.000000	0.010927
3305.000000	0.010941
3304.000000	0.010971
3303.000000	0.011011
3302.000000	0.011051
3301.000000	0.011079
3300.000000	0.011094
3299.000000	0.011107
3298.000000	0.011125
3297.000000	0.011146
3296.000000	0.011162
3295.000000	0.011172
3294.000000	0.011177
3293.000000	0.011177
3292.000000	0.011174
3291.000000	0.011170
3290.000000	0.011173
3289.000000	0.011180
3288.000000	0.011184
3287.000000	0.011180
3286.000000	0.011176
3285.000000	0.011182
3284.000000	0.011203
3283.000000	0.011232
3282.000000	0.011258
3281.000000	0.011271
3280.000000	0.011268
3279.000000	0.011251
3278.000000	0.011228
3277.000000	0.011200
3276.000000	0.011164
3275.000000	0.011118
3274.000000	0.011069
3273.000000	0.011027
3272.000000	0.011001
3271.000000	0.010989
3270.000000	0.010983
3269.000000	0.010977
3268.000000	0.010966
3267.000000	0.010950
3266.000000	0.010935
3265.000000	0.010924
3264.000000	0.010920
3263.000000	0.010921
3262.000000	0.010916
3261.000000	0.010898
3260.000000	0.010864
3259.000000	0.010821
3258.000000	0.010778
3257.000000	0.010741
3256.000000	0.010712
3255.000000	0.010688
3254.000000	0.010665
3253.000000	0.010643
3252.000000	0.010619
3251.000000	0.010593
3250.000000	0.010565
3249.000000	0.010538
3248.000000	0.010516
3247.000000	0.010502
3246.000000	0.010497
3245.000000	0.010496
3244.000000	0.010495
3243.000000	0.010492
3242.000000	0.010489
3241.000000	0.010484
3240.000000	0.010471
3239.000000	0.010446
3238.000000	0.010412
3237.000000	0.010380
3236.000000	0.010358
3235.000000	0.010349
3234.000000	0.010344
3233.000000	0.010338
3232.000000	0.010330
3231.000000	0.010322
3230.000000	0.010316
3229.000000	0.010311
3228.000000	0.010303
3227.000000	0.010291
3226.000000	0.010270
3225.000000	0.010241
3224.000000	0.010212
3223.000000	0.010189
3222.000000	0.010174
3221.000000	0.010160
3220.000000	0.010143
3219.000000	0.010124
3218.000000	0.010112
3217.000000	0.010105
3216.000000	0.010098
3215.000000	0.010085
3214.000000	0.010066
3213.000000	0.010043
3212.000000	0.010019
3211.000000	0.009998
3210.000000	0.009981
3209.000000	0.009967
3208.000000	0.009947
3207.000000	0.009921
3206.000000	0.009895
3205.000000	0.009879
3204.000000	0.009873
3203.000000	0.009871
3202.000000	0.009860
3201.000000	0.009831
3200.000000	0.009787
3199.000000	0.009741
3198.000000	0.009710
3197.000000	0.009702
3196.000000	0.009708
3195.000000	0.009712
3194.000000	0.009702
3193.000000	0.009677
3192.000000	0.009644
3191.000000	0.009612
3190.000000	0.009587
3189.000000	0.009565
3188.000000	0.009537
3187.000000	0.009500
3186.000000	0.009461
3185.000000	0.009433
3184.000000	0.009422
3183.000000	0.009421
3182.000000	0.009414
3181.000000	0.009390
3180.000000	0.009345
3179.000000	0.009289
3178.000000	0.009237
3177.000000	0.009203
3176.000000	0.009187
3175.000000	0.009181
3174.000000	0.009173
3173.000000	0.009156
3172.000000	0.009130
3171.000000	0.009097
3170.000000	0.009064
3169.000000	0.009035
3168.000000	0.009006
3167.000000	0.008971
3166.000000	0.008925
3165.000000	0.008871
3164.000000	0.008819
3163.000000	0.008782
3162.000000	0.008767
3161.000000	0.008769
3160.000000	0.008776
3159.000000	0.008776
3158.000000	0.008767
3157.000000	0.008755
3156.000000	0.008743
3155.000000	0.008725
3154.000000	0.008689
3153.000000	0.008630
3152.000000	0.008559
3151.000000	0.008497
3150.000000	0.008462
3149.000000	0.008459
3148.000000	0.008478
3147.000000	0.008501
3146.000000	0.008513
3145.000000	0.008502
3144.000000	0.008467
3143.000000	0.008418
3142.000000	0.008375
3141.000000	0.008351
3140.000000	0.008347
3139.000000	0.008352
3138.000000	0.008354
3137.000000	0.008347
3136.000000	0.008324
3135.000000	0.008287
3134.000000	0.008245
3133.000000	0.008212
3132.000000	0.008190
3131.000000	0.008177
3130.000000	0.008166
3129.000000	0.008156
3128.000000	0.008151
3127.000000	0.008146
3126.000000	0.008136
3125.000000	0.008118
3124.000000	0.008100
3123.000000	0.008087
3122.000000	0.008083
3121.000000	0.008076
3120.000000	0.008057
3119.000000	0.008027
3118.000000	0.007999
3117.000000	0.007987
3116.000000	0.007996
3115.000000	0.008021
3114.000000	0.008053
3113.000000	0.008082
3112.000000	0.008101
3111.000000	0.008111
3110.000000	0.008120
3109.000000	0.008134
3108.000000	0.008144
3107.000000	0.008144
3106.000000	0.008137
3105.000000	0.008140
3104.000000	0.008155
3103.000000	0.008168
3102.000000	0.008160
3101.000000	0.008139
3100.000000	0.008127
3099.000000	0.008143
3098.000000	0.008181
3097.000000	0.008217
3096.000000	0.008236
3095.000000	0.008241
3094.000000	0.008247
3093.000000	0.008263
3092.000000	0.008287
3091.000000	0.008308
3090.000000	0.008312
3089.000000	0.008299
3088.000000	0.008276
3087.000000	0.008257
3086.000000	0.008256
3085.000000	0.008274
3084.000000	0.008304
3083.000000	0.008336
3082.000000	0.008355
3081.000000	0.008357
3080.000000	0.008345
3079.000000	0.008330
3078.000000	0.008324
3077.000000	0.008333
3076.000000	0.008352
3075.000000	0.008375
3074.000000	0.008394
3073.000000	0.008402
3072.000000	0.008393
3071.000000	0.008373
3070.000000	0.008356
3069.000000	0.008352
3068.000000	0.008353
3067.000000	0.008346
3066.000000	0.008330
3065.000000	0.008318
3064.000000	0.008322
3063.000000	0.008332
3062.000000	0.008330
3061.000000	0.008307
3060.000000	0.008275
3059.000000	0.008247
3058.000000	0.008231
3057.000000	0.008226
3056.000000	0.008224
3055.000000	0.008215
3054.000000	0.008194
3053.000000	0.008161
3052.000000	0.008122
3051.000000	0.008091
3050.000000	0.008075
3049.000000	0.008065
3048.000000	0.008047
3047.000000	0.008009
3046.000000	0.007958
3045.000000	0.007910
3044.000000	0.007875
3043.000000	0.007848
3042.000000	0.007820
3041.000000	0.007789
3040.000000	0.007759
3039.000000	0.007733
3038.000000	0.007707
3037.000000	0.007680
3036.000000	0.007655
3035.000000	0.007640
3034.000000	0.007629
3033.000000	0.007610
3032.000000	0.007575
3031.000000	0.007534
3030.000000	0.007504
3029.000000	0.007490
3028.000000	0.007482
3027.000000	0.007470
3026.000000	0.007454
3025.000000	0.007444
3024.000000	0.007441
3023.000000	0.007436
3022.000000	0.007418
3021.000000	0.007386
3020.000000	0.007346
3019.000000	0.007307
3018.000000	0.007271
3017.000000	0.007240
3016.000000	0.007216
3015.000000	0.007203
3014.000000	0.007202
3013.000000	0.007207
3012.000000	0.007214
3011.000000	0.007219
3010.000000	0.007219
3009.000000	0.007215
3008.000000	0.007203
3007.000000	0.007177
3006.000000	0.007140
3005.000000	0.007101
3004.000000	0.007069
3003.000000	0.007049
3002.000000	0.007036
3001.000000	0.007022
3000.000000	0.007007
2999.000000	0.006999
2998.000000	0.007005
2997.000000	0.007029
2996.000000	0.007067
2995.000000	0.007110
2994.000000	0.007152
2993.000000	0.007190
2992.000000	0.007221
2991.000000	0.007244
2990.000000	0.007261
2989.000000	0.007276
2988.000000	0.007296
2987.000000	0.007321
2986.000000	0.007353
2985.000000	0.007388
2984.000000	0.007423
2983.000000	0.007455
2982.000000	0.007481
2981.000000	0.007499
2980.000000	0.007511
2979.000000	0.007521
2978.000000	0.007531
2977.000000	0.007540
2976.000000	0.007547
2975.000000	0.007552
2974.000000	0.007560
2973.000000	0.007575
2972.000000	0.007599
2971.000000	0.007628
2970.000000	0.007658
2969.000000	0.007693
2968.000000	0.007733
2967.000000	0.007777
2966.000000	0.007818
2965.000000	0.007848
2964.000000	0.007866
2963.000000	0.007878
2962.000000	0.007891
2961.000000	0.007912
2960.000000	0.007938
2959.000000	0.007967
2958.000000	0.007992
2957.000000	0.008006
2956.000000	0.008011
2955.000000	0.008010
2954.000000	0.008008
2953.000000	0.008004
2952.000000	0.008001
2951.000000	0.008002
2950.000000	0.008009
2949.000000	0.008020
2948.000000	0.008035
2947.000000	0.008055
2946.000000	0.008087
2945.000000	0.008127
2944.000000	0.008166
2943.000000	0.008196
2942.000000	0.008219
2941.000000	0.008245
2940.000000	0.008278
2939.000000	0.008317
2938.000000	0.008356
2937.000000	0.008395
2936.000000	0.008434
2935.000000	0.008476
2934.000000	0.008524
2933.000000	0.008579
2932.000000	0.008644
2931.000000	0.008715
2930.000000	0.008789
2929.000000	0.008858
2928.000000	0.008917
2927.000000	0.008969
2926.000000	0.009022
2925.000000	0.009074
2924.000000	0.009116
2923.000000	0.009146
2922.000000	0.009177
2921.000000	0.009223
2920.000000	0.009278
2919.000000	0.009319
2918.000000	0.009325
2917.000000	0.009284
2916.000000	0.009200
2915.000000	0.009082
2914.000000	0.008943
2913.000000	0.008799
2912.000000	0.008662
2911.000000	0.008540
2910.000000	0.008431
2909.000000	0.008331
2908.000000	0.008230
2907.000000	0.008132
2906.000000	0.008050
2905.000000	0.007996
2904.000000	0.007968
2903.000000	0.007952
2902.000000	0.007933
2901.000000	0.007909
2900.000000	0.007881
2899.000000	0.007850
2898.000000	0.007814
2897.000000	0.007775
2896.000000	0.007737
2895.000000	0.007707
2894.000000	0.007693
2893.000000	0.007691
2892.000000	0.007691
2891.000000	0.007684
2890.000000	0.007673
2889.000000	0.007663
2888.000000	0.007651
2887.000000	0.007631
2886.000000	0.007605
2885.000000	0.007584
2884.000000	0.007579
2883.000000	0.007585
2882.000000	0.007594
2881.000000	0.007600
2880.000000	0.007603
2879.000000	0.007606
2878.000000	0.007605
2877.000000	0.007598
2876.000000	0.007580
2875.000000	0.007554
2874.000000	0.007529
2873.000000	0.007521
2872.000000	0.007529
2871.000000	0.007543
2870.000000	0.007543
2869.000000	0.007522
2868.000000	0.007483
2867.000000	0.007440
2866.000000	0.007408
2865.000000	0.007395
2864.000000	0.007397
2863.000000	0.007399
2862.000000	0.007393
2861.000000	0.007380
2860.000000	0.007370
2859.000000	0.007369
2858.000000	0.007376
2857.000000	0.007396
2856.000000	0.007442
2855.000000	0.007522
2854.000000	0.007630
2853.000000	0.007748
2852.000000	0.007851
2851.000000	0.007919
2850.000000	0.007943
2849.000000	0.007920
2848.000000	0.007851
2847.000000	0.007742
2846.000000	0.007610
2845.000000	0.007476
2844.000000	0.007359
2843.000000	0.007269
2842.000000	0.007201
2841.000000	0.007143
2840.000000	0.007080
2839.000000	0.007008
2838.000000	0.006938
2837.000000	0.006888
2836.000000	0.006863
2835.000000	0.006855
2834.000000	0.006850
2833.000000	0.006839
2832.000000	0.006818
2831.000000	0.006784
2830.000000	0.006740
2829.000000	0.006698
2828.000000	0.006678
2827.000000	0.006686
2826.000000	0.006713
2825.000000	0.006737
2824.000000	0.006743
2823.000000	0.006723
2822.000000	0.006684
2821.000000	0.006638
2820.000000	0.006600
2819.000000	0.006579
2818.000000	0.006572
2817.000000	0.006569
2816.000000	0.006565
2815.000000	0.006560
2814.000000	0.006555
2813.000000	0.006552
2812.000000	0.006547
2811.000000	0.006539
2810.000000	0.006527
2809.000000	0.006514
2808.000000	0.006503
2807.000000	0.006497
2806.000000	0.006500
2805.000000	0.006510
2804.000000	0.006522
2803.000000	0.006528
2802.000000	0.006524
2801.000000	0.006511
2800.000000	0.006491
2799.000000	0.006468
2798.000000	0.006447
2797.000000	0.006434
2796.000000	0.006427
2795.000000	0.006422
2794.000000	0.006411
2793.000000	0.006397
2792.000000	0.006385
2791.000000	0.006379
2790.000000	0.006374
2789.000000	0.006365
2788.000000	0.006352
2787.000000	0.006339
2786.000000	0.006332
2785.000000	0.006331
2784.000000	0.006330
2783.000000	0.006325
2782.000000	0.006317
2781.000000	0.006311
2780.000000	0.006307
2779.000000	0.006300
2778.000000	0.006284
2777.000000	0.006256
2776.000000	0.006223
2775.000000	0.006194
2774.000000	0.006177
2773.000000	0.006177
2772.000000	0.006188
2771.000000	0.006196
2770.000000	0.006190
2769.000000	0.006177
2768.000000	0.006172
2767.000000	0.006182
2766.000000	0.006202
2765.000000	0.006216
2764.000000	0.006215
2763.000000	0.006200
2762.000000	0.006180
2761.000000	0.006164
2760.000000	0.006152
2759.000000	0.006142
2758.000000	0.006129
2757.000000	0.006113
2756.000000	0.006094
2755.000000	0.006074
2754.000000	0.006057
2753.000000	0.006045
2752.000000	0.006035
2751.000000	0.006026
2750.000000	0.006022
2749.000000	0.006028
2748.000000	0.006037
2747.000000	0.006039
2746.000000	0.006031
2745.000000	0.006017
2744.000000	0.006005
2743.000000	0.005999
2742.000000	0.005997
2741.000000	0.005995
2740.000000	0.005987
2739.000000	0.005973
2738.000000	0.005955
2737.000000	0.005940
2736.000000	0.005933
2735.000000	0.005934
2734.000000	0.005938
2733.000000	0.005937
2732.000000	0.005924
2731.000000	0.005893
2730.000000	0.005855
2729.000000	0.005830
2728.000000	0.005828
2727.000000	0.005841
2726.000000	0.005848
2725.000000	0.005839
2724.000000	0.005822
2723.000000	0.005813
2722.000000	0.005821
2721.000000	0.005843
2720.000000	0.005862
2719.000000	0.005868
2718.000000	0.005858
2717.000000	0.005844
2716.000000	0.005833
2715.000000	0.005827
2714.000000	0.005819
2713.000000	0.005809
2712.000000	0.005800
2711.000000	0.005794
2710.000000	0.005792
2709.000000	0.005791
2708.000000	0.005787
2707.000000	0.005780
2706.000000	0.005774
2705.000000	0.005770
2704.000000	0.005768
2703.000000	0.005764
2702.000000	0.005755
2701.000000	0.005746
2700.000000	0.005742
2699.000000	0.005741
2698.000000	0.005737
2697.000000	0.005728
2696.000000	0.005721
2695.000000	0.005716
2694.000000	0.005709
2693.000000	0.005697
2692.000000	0.005686
2691.000000	0.005682
2690.000000	0.005690
2689.000000	0.005705
2688.000000	0.005719
2687.000000	0.005724
2686.000000	0.005719
2685.000000	0.005708
2684.000000	0.005695
2683.000000	0.005680
2682.000000	0.005663
2681.000000	0.005648
2680.000000	0.005641
2679.000000	0.005640
2678.000000	0.005633
2677.000000	0.005617
2676.000000	0.005599
2675.000000	0.005592
2674.000000	0.005601
2673.000000	0.005617
2672.000000	0.005628
2671.000000	0.005632
2670.000000	0.005630
2669.000000	0.005631
2668.000000	0.005636
2667.000000	0.005645
2666.000000	0.005655
2665.000000	0.005662
2664.000000	0.005664
2663.000000	0.005662
2662.000000	0.005656
2661.000000	0.005648
2660.000000	0.005640
2659.000000	0.005632
2658.000000	0.005624
2657.000000	0.005610
2656.000000	0.005593
2655.000000	0.005575
2654.000000	0.005562
2653.000000	0.005554
2652.000000	0.005547
2651.000000	0.005536
2650.000000	0.005517
2649.000000	0.005495
2648.000000	0.005477
2647.000000	0.005467
2646.000000	0.005456
2645.000000	0.005441
2644.000000	0.005426
2643.000000	0.005418
2642.000000	0.005413
2641.000000	0.005395
2640.000000	0.005358
2639.000000	0.005312
2638.000000	0.005268
2637.000000	0.005233
2636.000000	0.005210
2635.000000	0.005205
2634.000000	0.005216
2633.000000	0.005228
2632.000000	0.005229
2631.000000	0.005221
2630.000000	0.005220
2629.000000	0.005228
2628.000000	0.005225
2627.000000	0.005198
2626.000000	0.005155
2625.000000	0.005115
2624.000000	0.005093
2623.000000	0.005087
2622.000000	0.005088
2621.000000	0.005091
2620.000000	0.005088
2619.000000	0.005075
2618.000000	0.005052
2617.000000	0.005020
2616.000000	0.004990
2615.000000	0.004973
2614.000000	0.004974
2613.000000	0.004984
2612.000000	0.004982
2611.000000	0.004957
2610.000000	0.004918
2609.000000	0.004890
2608.000000	0.004886
2607.000000	0.004898
2606.000000	0.004911
2605.000000	0.004913
2604.000000	0.004903
2603.000000	0.004893
2602.000000	0.004893
2601.000000	0.004906
2600.000000	0.004921
2599.000000	0.004924
2598.000000	0.004912
2597.000000	0.004886
2596.000000	0.004843
2595.000000	0.004790
2594.000000	0.004742
2593.000000	0.004725
2592.000000	0.004740
2591.000000	0.004768
2590.000000	0.004786
2589.000000	0.004788
2588.000000	0.004784
2587.000000	0.004776
2586.000000	0.004759
2585.000000	0.004736
2584.000000	0.004717
2583.000000	0.004707
2582.000000	0.004700
2581.000000	0.004693
2580.000000	0.004689
2579.000000	0.004686
2578.000000	0.004677
2577.000000	0.004657
2576.000000	0.004629
2575.000000	0.004605
2574.000000	0.004591
2573.000000	0.004589
2572.000000	0.004598
2571.000000	0.004616
2570.000000	0.004634
2569.000000	0.004642
2568.000000	0.004638
2567.000000	0.004627
2566.000000	0.004616
2565.000000	0.004600
2564.000000	0.004579
2563.000000	0.004561
2562.000000	0.004564
2561.000000	0.004596
2560.000000	0.004643
2559.000000	0.004679
2558.000000	0.004686
2557.000000	0.004662
2556.000000	0.004624
2555.000000	0.004588
2554.000000	0.004566
2553.000000	0.004569
2552.000000	0.004597
2551.000000	0.004633
2550.000000	0.004648
2549.000000	0.004623
2548.000000	0.004570
2547.000000	0.004524
2546.000000	0.004518
2545.000000	0.004544
2544.000000	0.004569
2543.000000	0.004566
2542.000000	0.004537
2541.000000	0.004508
2540.000000	0.004500
2539.000000	0.004514
2538.000000	0.004540
2537.000000	0.004566
2536.000000	0.004584
2535.000000	0.004590
2534.000000	0.004587
2533.000000	0.004575
2532.000000	0.004551
2531.000000	0.004514
2530.000000	0.004473
2529.000000	0.004443
2528.000000	0.004428
2527.000000	0.004421
2526.000000	0.004414
2525.000000	0.004410
2524.000000	0.004416
2523.000000	0.004435
2522.000000	0.004460
2521.000000	0.004482
2520.000000	0.004498
2519.000000	0.004512
2518.000000	0.004522
2517.000000	0.004527
2516.000000	0.004524
2515.000000	0.004519
2514.000000	0.004518
2513.000000	0.004522
2512.000000	0.004521
2511.000000	0.004511
2510.000000	0.004497
2509.000000	0.004484
2508.000000	0.004467
2507.000000	0.004442
2506.000000	0.004412
2505.000000	0.004397
2504.000000	0.004410
2503.000000	0.004445
2502.000000	0.004484
2501.000000	0.004511
2500.000000	0.004519
2499.000000	0.004516
2498.000000	0.004510
2497.000000	0.004506
2496.000000	0.004502
2495.000000	0.004492
2494.000000	0.004476
2493.000000	0.004461
2492.000000	0.004457
2491.000000	0.004471
2490.000000	0.004503
2489.000000	0.004536
2488.000000	0.004549
2487.000000	0.004524
2486.000000	0.004473
2485.000000	0.004420
2484.000000	0.004392
2483.000000	0.004393
2482.000000	0.004408
2481.000000	0.004416
2480.000000	0.004407
2479.000000	0.004390
2478.000000	0.004383
2477.000000	0.004392
2476.000000	0.004408
2475.000000	0.004410
2474.000000	0.004391
2473.000000	0.004357
2472.000000	0.004325
2471.000000	0.004307
2470.000000	0.004310
2469.000000	0.004332
2468.000000	0.004366
2467.000000	0.004401
2466.000000	0.004428
2465.000000	0.004439
2464.000000	0.004432
2463.000000	0.004414
2462.000000	0.004400
2461.000000	0.004399
2460.000000	0.004406
2459.000000	0.004408
2458.000000	0.004396
2457.000000	0.004378
2456.000000	0.004365
2455.000000	0.004363
2454.000000	0.004370
2453.000000	0.004385
2452.000000	0.004405
2451.000000	0.004425
2450.000000	0.004442
2449.000000	0.004455
2448.000000	0.004464
2447.000000	0.004470
2446.000000	0.004469
2445.000000	0.004453
2444.000000	0.004425
2443.000000	0.004397
2442.000000	0.004378
2441.000000	0.004363
2440.000000	0.004341
2439.000000	0.004317
2438.000000	0.004308
2437.000000	0.004326
2436.000000	0.004356
2435.000000	0.004377
2434.000000	0.004378
2433.000000	0.004363
2432.000000	0.004335
2431.000000	0.004300
2430.000000	0.004265
2429.000000	0.004236
2428.000000	0.004217
2427.000000	0.004210
2426.000000	0.004217
2425.000000	0.004236
2424.000000	0.004254
2423.000000	0.004259
2422.000000	0.004246
2421.000000	0.004224
2420.000000	0.004208
2419.000000	0.004209
2418.000000	0.004236
2417.000000	0.004277
2416.000000	0.004309
2415.000000	0.004316
2414.000000	0.004309
2413.000000	0.004304
2412.000000	0.004305
2411.000000	0.004305
2410.000000	0.004299
2409.000000	0.004291
2408.000000	0.004280
2407.000000	0.004263
2406.000000	0.004241
2405.000000	0.004227
2404.000000	0.004228
2403.000000	0.004243
2402.000000	0.004267
2401.000000	0.004298
2400.000000	0.004326
2399.000000	0.004338
2398.000000	0.004328
2397.000000	0.004300
2396.000000	0.004267
2395.000000	0.004238
2394.000000	0.004223
2393.000000	0.004229
2392.000000	0.004255
2391.000000	0.004285
2390.000000	0.004299
2389.000000	0.004286
2388.000000	0.004250
2387.000000	0.004214
2386.000000	0.004204
2385.000000	0.004231
2384.000000	0.004284
2383.000000	0.004331
2382.000000	0.004345
2381.000000	0.004318
2380.000000	0.004264
2379.000000	0.004209
2378.000000	0.004180
2377.000000	0.004191
2376.000000	0.004235
2375.000000	0.004290
2374.000000	0.004338
2373.000000	0.004365
2372.000000	0.004368
2371.000000	0.004357
2370.000000	0.004359
2369.000000	0.004385
2368.000000	0.004422
2367.000000	0.004445
2366.000000	0.004447
2365.000000	0.004434
2364.000000	0.004416
2363.000000	0.004408
2362.000000	0.004417
2361.000000	0.004434
2360.000000	0.004448
2359.000000	0.004454
2358.000000	0.004454
2357.000000	0.004457
2356.000000	0.004472
2355.000000	0.004511
2354.000000	0.004544
2353.000000	0.004521
2352.000000	0.004444
2351.000000	0.004379
2350.000000	0.004375
2349.000000	0.004420
2348.000000	0.004475
2347.000000	0.004505
2346.000000	0.004511
2345.000000	0.004526
2344.000000	0.004571
2343.000000	0.004632
2342.000000	0.004656
2341.000000	0.004621
2340.000000	0.004565
2339.000000	0.004534
2338.000000	0.004529
2337.000000	0.004522
2336.000000	0.004498
2335.000000	0.004461
2334.000000	0.004422
2333.000000	0.004387
2332.000000	0.004373
2331.000000	0.004385
2330.000000	0.004425
2329.000000	0.004469
2328.000000	0.004525
2327.000000	0.004585
2326.000000	0.004634
2325.000000	0.004642
2324.000000	0.004603
2323.000000	0.004547
2322.000000	0.004513
2321.000000	0.004514
2320.000000	0.004533
2319.000000	0.004539
2318.000000	0.004528
2317.000000	0.004506
2316.000000	0.004496
2315.000000	0.004500
2314.000000	0.004528
2313.000000	0.004569
2312.000000	0.004602
2311.000000	0.004590
2310.000000	0.004527
2309.000000	0.004436
2308.000000	0.004363
2307.000000	0.004327
2306.000000	0.004321
2305.000000	0.004329
2304.000000	0.004343
2303.000000	0.004363
2302.000000	0.004391
2301.000000	0.004419
2300.000000	0.004438
2299.000000	0.004439
2298.000000	0.004436
2297.000000	0.004439
2296.000000	0.004452
2295.000000	0.004457
2294.000000	0.004448
2293.000000	0.004442
2292.000000	0.004463
2291.000000	0.004509
2290.000000	0.004550
2289.000000	0.004560
2288.000000	0.004538
2287.000000	0.004510
2286.000000	0.004500
2285.000000	0.004507
2284.000000	0.004505
2283.000000	0.004468
2282.000000	0.004402
2281.000000	0.004339
2280.000000	0.004308
2279.000000	0.004310
2278.000000	0.004323
2277.000000	0.004320
2276.000000	0.004294
2275.000000	0.004258
2274.000000	0.004234
2273.000000	0.004230
2272.000000	0.004226
2271.000000	0.004201
2270.000000	0.004166
2269.000000	0.004159
2268.000000	0.004198
2267.000000	0.004259
2266.000000	0.004294
2265.000000	0.004283
2264.000000	0.004252
2263.000000	0.004251
2262.000000	0.004315
2261.000000	0.004414
2260.000000	0.004466
2259.000000	0.004418
2258.000000	0.004303
2257.000000	0.004203
2256.000000	0.004153
2255.000000	0.004108
2254.000000	0.004024
2253.000000	0.003926
2252.000000	0.003874
2251.000000	0.003892
2250.000000	0.003960
2249.000000	0.004045
2248.000000	0.004109
2247.000000	0.004124
2246.000000	0.004094
2245.000000	0.004072
2244.000000	0.004104
2243.000000	0.004172
2242.000000	0.004211
2241.000000	0.004183
2240.000000	0.004106
2239.000000	0.004028
2238.000000	0.003995
2237.000000	0.004030
2236.000000	0.004119
2235.000000	0.004199
2234.000000	0.004205
2233.000000	0.004129
2232.000000	0.004020
2231.000000	0.003932
2230.000000	0.003898
2229.000000	0.003931
2228.000000	0.004025
2227.000000	0.004138
2226.000000	0.004196
2225.000000	0.004155
2224.000000	0.004032
2223.000000	0.003892
2222.000000	0.003791
2221.000000	0.003743
2220.000000	0.003725
2219.000000	0.003698
2218.000000	0.003655
2217.000000	0.003638
2216.000000	0.003686
2215.000000	0.003782
2214.000000	0.003863
2213.000000	0.003894
2212.000000	0.003904
2211.000000	0.003947
2210.000000	0.004038
2209.000000	0.004151
2208.000000	0.004250
2207.000000	0.004293
2206.000000	0.004252
2205.000000	0.004131
2204.000000	0.003993
2203.000000	0.003913
2202.000000	0.003910
2201.000000	0.003933
2200.000000	0.003927
2199.000000	0.003894
2198.000000	0.003884
2197.000000	0.003935
2196.000000	0.004021
2195.000000	0.004068
2194.000000	0.004018
2193.000000	0.003904
2192.000000	0.003839
2191.000000	0.003903
2190.000000	0.004048
2189.000000	0.004118
2188.000000	0.004006
2187.000000	0.003758
2186.000000	0.003507
2185.000000	0.003340
2184.000000	0.003263
2183.000000	0.003256
2182.000000	0.003311
2181.000000	0.003406
2180.000000	0.003515
2179.000000	0.003649
2178.000000	0.003834
2177.000000	0.004030
2176.000000	0.004132
2175.000000	0.004090
2174.000000	0.003982
2173.000000	0.003930
2172.000000	0.003969
2171.000000	0.004044
2170.000000	0.004085
2169.000000	0.004047
2168.000000	0.003917
2167.000000	0.003730
2166.000000	0.003579
2165.000000	0.003547
2164.000000	0.003622
2163.000000	0.003709
2162.000000	0.003726
2161.000000	0.003632
2160.000000	0.003416
2159.000000	0.003132
2158.000000	0.002915
2157.000000	0.002874
2156.000000	0.002974
2155.000000	0.003099
2154.000000	0.003185
2153.000000	0.003244
2152.000000	0.003298
2151.000000	0.003357
2150.000000	0.003438
2149.000000	0.003566
2148.000000	0.003721
2147.000000	0.003845
2146.000000	0.003893
2145.000000	0.003865
2144.000000	0.003783
2143.000000	0.003669
2142.000000	0.003541
2141.000000	0.003411
2140.000000	0.003285
2139.000000	0.003194
2138.000000	0.003188
2137.000000	0.003286
2136.000000	0.003419
2135.000000	0.003475
2134.000000	0.003415
2133.000000	0.003317
2132.000000	0.003294
2131.000000	0.003390
2130.000000	0.003553
2129.000000	0.003693
2128.000000	0.003754
2127.000000	0.003751
2126.000000	0.003737
2125.000000	0.003748
2124.000000	0.003780
2123.000000	0.003815
2122.000000	0.003858
2121.000000	0.003920
2120.000000	0.003990
2119.000000	0.004037
2118.000000	0.004032
2117.000000	0.003972
2116.000000	0.003881
2115.000000	0.003805
2114.000000	0.003793
2113.000000	0.003849
2112.000000	0.003927
2111.000000	0.003976
2110.000000	0.003993
2109.000000	0.004004
2108.000000	0.004007
2107.000000	0.003972
2106.000000	0.003894
2105.000000	0.003823
2104.000000	0.003817
2103.000000	0.003896
2102.000000	0.004035
2101.000000	0.004181
2100.000000	0.004272
2099.000000	0.004261
2098.000000	0.004160
2097.000000	0.004031
2096.000000	0.003939
2095.000000	0.003913
2094.000000	0.003934
2093.000000	0.003971
2092.000000	0.003996
2091.000000	0.004010
2090.000000	0.004021
2089.000000	0.004026
2088.000000	0.004004
2087.000000	0.003952
2086.000000	0.003891
2085.000000	0.003837
2084.000000	0.003771
2083.000000	0.003684
2082.000000	0.003621
2081.000000	0.003649
2080.000000	0.003777
2079.000000	0.003940
2078.000000	0.004062
2077.000000	0.004108
2076.000000	0.004079
2075.000000	0.003996
2074.000000	0.003909
2073.000000	0.003874
2072.000000	0.003901
2071.000000	0.003948
2070.000000	0.003975
2069.000000	0.003976
2068.000000	0.003970
2067.000000	0.003972
2066.000000	0.004000
2065.000000	0.004046
2064.000000	0.004059
2063.000000	0.003967
2062.000000	0.003766
2061.000000	0.003545
2060.000000	0.003409
2059.000000	0.003398
2058.000000	0.003473
2057.000000	0.003573
2056.000000	0.003656
2055.000000	0.003720
2054.000000	0.003800
2053.000000	0.003919
2052.000000	0.004037
2051.000000	0.004076
2050.000000	0.003990
2049.000000	0.003819
2048.000000	0.003658
2047.000000	0.003593
2046.000000	0.003642
2045.000000	0.003748
2044.000000	0.003817
2043.000000	0.003794
2042.000000	0.003716
2041.000000	0.003655
2040.000000	0.003617
2039.000000	0.003556
2038.000000	0.003459
2037.000000	0.003354
2036.000000	0.003259
2035.000000	0.003178
2034.000000	0.003159
2033.000000	0.003251
2032.000000	0.003396
2031.000000	0.003473
2030.000000	0.003464
2029.000000	0.003466
2028.000000	0.003512
2027.000000	0.003488
2026.000000	0.003300
2025.000000	0.003024
2024.000000	0.002801
2023.000000	0.002661
2022.000000	0.002550
2021.000000	0.002487
2020.000000	0.002574
2019.000000	0.002841
2018.000000	0.003163
2017.000000	0.003365
2016.000000	0.003389
2015.000000	0.003322
2014.000000	0.003267
2013.000000	0.003235
2012.000000	0.003180
2011.000000	0.003101
2010.000000	0.003061
2009.000000	0.003087
2008.000000	0.003131
2007.000000	0.003154
2006.000000	0.003208
2005.000000	0.003331
2004.000000	0.003447
2003.000000	0.003438
2002.000000	0.003298
2001.000000	0.003134
2000.000000	0.003040
1999.000000	0.003033
1998.000000	0.003102
1997.000000	0.003223
1996.000000	0.003329
1995.000000	0.003337
1994.000000	0.003242
1993.000000	0.003135
1992.000000	0.003100
1991.000000	0.003137
1990.000000	0.003207
1989.000000	0.003299
1988.000000	0.003411
1987.000000	0.003515
1986.000000	0.003569
1985.000000	0.003543
1984.000000	0.003436
1983.000000	0.003286
1982.000000	0.003165
1981.000000	0.003126
1980.000000	0.003150
1979.000000	0.003176
1978.000000	0.003182
1977.000000	0.003176
1976.000000	0.003130
1975.000000	0.003003
1974.000000	0.002836
1973.000000	0.002735
1972.000000	0.002750
1971.000000	0.002838
1970.000000	0.002940
1969.000000	0.003032
1968.000000	0.003091
1967.000000	0.003087
1966.000000	0.003014
1965.000000	0.002902
1964.000000	0.002777
1963.000000	0.002668
1962.000000	0.002627
1961.000000	0.002694
1960.000000	0.002824
1959.000000	0.002922
1958.000000	0.002946
1957.000000	0.002938
1956.000000	0.002954
1955.000000	0.003029
1954.000000	0.003170
1953.000000	0.003340
1952.000000	0.003448
1951.000000	0.003431
1950.000000	0.003327
1949.000000	0.003241
1948.000000	0.003216
1947.000000	0.003219
1946.000000	0.003234
1945.000000	0.003290
1944.000000	0.003388
1943.000000	0.003459
1942.000000	0.003443
1941.000000	0.003359
1940.000000	0.003264
1939.000000	0.003182
1938.000000	0.003122
1937.000000	0.003110
1936.000000	0.003158
1935.000000	0.003233
1934.000000	0.003281
1933.000000	0.003286
1932.000000	0.003270
1931.000000	0.003262
1930.000000	0.003280
1929.000000	0.003322
1928.000000	0.003374
1927.000000	0.003409
1926.000000	0.003420
1925.000000	0.003420
1924.000000	0.003425
1923.000000	0.003428
1922.000000	0.003417
1921.000000	0.003384
1920.000000	0.003334
1919.000000	0.003280
1918.000000	0.003243
1917.000000	0.003230
1916.000000	0.003224
1915.000000	0.003217
1914.000000	0.003226
1913.000000	0.003263
1912.000000	0.003304
1911.000000	0.003319
1910.000000	0.003314
1909.000000	0.003309
1908.000000	0.003300
1907.000000	0.003267
1906.000000	0.003231
1905.000000	0.003233
1904.000000	0.003274
1903.000000	0.003303
1902.000000	0.003297
1901.000000	0.003281
1900.000000	0.003286
1899.000000	0.003310
1898.000000	0.003332
1897.000000	0.003347
1896.000000	0.003355
1895.000000	0.003349
1894.000000	0.003335
1893.000000	0.003330
1892.000000	0.003341
1891.000000	0.003353
1890.000000	0.003360
1889.000000	0.003362
1888.000000	0.003350
1887.000000	0.003314
1886.000000	0.003269
1885.000000	0.003245
1884.000000	0.003254
1883.000000	0.003280
1882.000000	0.003317
1881.000000	0.003363
1880.000000	0.003393
1879.000000	0.003372
1878.000000	0.003309
1877.000000	0.003264
1876.000000	0.003282
1875.000000	0.003343
1874.000000	0.003397
1873.000000	0.003409
1872.000000	0.003371
1871.000000	0.003288
1870.000000	0.003193
1869.000000	0.003141
1868.000000	0.003156
1867.000000	0.003206
1866.000000	0.003256
1865.000000	0.003296
1864.000000	0.003314
1863.000000	0.003296
1862.000000	0.003258
1861.000000	0.003237
1860.000000	0.003247
1859.000000	0.003261
1858.000000	0.003253
1857.000000	0.003234
1856.000000	0.003223
1855.000000	0.003227
1854.000000	0.003240
1853.000000	0.003253
1852.000000	0.003250
1851.000000	0.003223
1850.000000	0.003188
1849.000000	0.003173
1848.000000	0.003190
1847.000000	0.003227
1846.000000	0.003275
1845.000000	0.003330
1844.000000	0.003386
1843.000000	0.003417
1842.000000	0.003418
1841.000000	0.003405
1840.000000	0.003380
1839.000000	0.003325
1838.000000	0.003258
1837.000000	0.003225
1836.000000	0.003244
1835.000000	0.003274
1834.000000	0.003264
1833.000000	0.003207
1832.000000	0.003136
1831.000000	0.003095
1830.000000	0.003109
1829.000000	0.003156
1828.000000	0.003197
1827.000000	0.003217
1826.000000	0.003229
1825.000000	0.003252
1824.000000	0.003281
1823.000000	0.003295
1822.000000	0.003296
1821.000000	0.003301
1820.000000	0.003312
1819.000000	0.003308
1818.000000	0.003282
1817.000000	0.003263
1816.000000	0.003275
1815.000000	0.003299
1814.000000	0.003307
1813.000000	0.003293
1812.000000	0.003279
1811.000000	0.003276
1810.000000	0.003279
1809.000000	0.003284
1808.000000	0.003290
1807.000000	0.003290
1806.000000	0.003284
1805.000000	0.003279
1804.000000	0.003273
1803.000000	0.003260
1802.000000	0.003240
1801.000000	0.003233
1800.000000	0.003247
1799.000000	0.003267
1798.000000	0.003286
1797.000000	0.003309
1796.000000	0.003328
1795.000000	0.003322
1794.000000	0.003276
1793.000000	0.003214
1792.000000	0.003181
1791.000000	0.003177
1790.000000	0.003178
1789.000000	0.003183
1788.000000	0.003197
1787.000000	0.003205
1786.000000	0.003196
1785.000000	0.003171
1784.000000	0.003139
1783.000000	0.003105
1782.000000	0.003087
1781.000000	0.003096
1780.000000	0.003121
1779.000000	0.003140
1778.000000	0.003138
1777.000000	0.003118
1776.000000	0.003087
1775.000000	0.003051
1774.000000	0.003015
1773.000000	0.002984
1772.000000	0.002965
1771.000000	0.002953
1770.000000	0.002951
1769.000000	0.002980
1768.000000	0.003031
1767.000000	0.003057
1766.000000	0.003037
1765.000000	0.002996
1764.000000	0.002967
1763.000000	0.002956
1762.000000	0.002955
1761.000000	0.002953
1760.000000	0.002943
1759.000000	0.002929
1758.000000	0.002926
1757.000000	0.002939
1756.000000	0.002946
1755.000000	0.002929
1754.000000	0.002903
1753.000000	0.002888
1752.000000	0.002890
1751.000000	0.002897
1750.000000	0.002895
1749.000000	0.002890
1748.000000	0.002895
1747.000000	0.002907
1746.000000	0.002911
1745.000000	0.002902
1744.000000	0.002890
1743.000000	0.002883
1742.000000	0.002881
1741.000000	0.002885
1740.000000	0.002893
1739.000000	0.002882
1738.000000	0.002850
1737.000000	0.002835
1736.000000	0.002856
1735.000000	0.002889
1734.000000	0.002921
1733.000000	0.002918
1732.000000	0.002850
1731.000000	0.002775
1730.000000	0.002759
1729.000000	0.002804
1728.000000	0.002861
1727.000000	0.002888
1726.000000	0.002878
1725.000000	0.002850
1724.000000	0.002819
1723.000000	0.002768
1722.000000	0.002694
1721.000000	0.002624
1720.000000	0.002584
1719.000000	0.002565
1718.000000	0.002565
1717.000000	0.002614
1716.000000	0.002697
1715.000000	0.002780
1714.000000	0.002878
1713.000000	0.003011
1712.000000	0.003159
1711.000000	0.003295
1710.000000	0.003429
1709.000000	0.003588
1708.000000	0.003778
1707.000000	0.003986
1706.000000	0.004217
1705.000000	0.004480
1704.000000	0.004748
1703.000000	0.005014
1702.000000	0.005305
1701.000000	0.005663
1700.000000	0.006075
1699.000000	0.006392
1698.000000	0.006621
1697.000000	0.006929
1696.000000	0.007352
1695.000000	0.007734
1694.000000	0.007974
1693.000000	0.008170
1692.000000	0.008427
1691.000000	0.008740
1690.000000	0.009067
1689.000000	0.009397
1688.000000	0.009731
1687.000000	0.010068
1686.000000	0.010405
1685.000000	0.010792
1684.000000	0.011279
1683.000000	0.011729
1682.000000	0.012078
1681.000000	0.012434
1680.000000	0.012842
1679.000000	0.013262
1678.000000	0.013683
1677.000000	0.014151
1676.000000	0.014697
1675.000000	0.015262
1674.000000	0.015750
1673.000000	0.016161
1672.000000	0.016575
1671.000000	0.017047
1670.000000	0.017604
1669.000000	0.018230
1668.000000	0.018829
1667.000000	0.019328
1666.000000	0.019754
1665.000000	0.020186
1664.000000	0.020674
1663.000000	0.021198
1662.000000	0.021696
1661.000000	0.022136
1660.000000	0.022532
1659.000000	0.022902
1658.000000	0.023247
1657.000000	0.023582
1656.000000	0.023935
1655.000000	0.024291
1654.000000	0.024631
1653.000000	0.025025
1652.000000	0.025326
1651.000000	0.025394
1650.000000	0.025379
1649.000000	0.025434
1648.000000	0.025587
1647.000000	0.025802
1646.000000	0.026022
1645.000000	0.026194
1644.000000	0.026315
1643.000000	0.026405
1642.000000	0.026492
1641.000000	0.026584
1640.000000	0.026676
1639.000000	0.026764
1638.000000	0.026854
1637.000000	0.026950
1636.000000	0.027049
1635.000000	0.027125
1634.000000	0.027142
1633.000000	0.027131
1632.000000	0.027127
1631.000000	0.027105
1630.000000	0.027018
1629.000000	0.026858
1628.000000	0.026657
1627.000000	0.026435
1626.000000	0.026184
1625.000000	0.025872
1624.000000	0.025483
1623.000000	0.025045
1622.000000	0.024619
1621.000000	0.024238
1620.000000	0.023894
1619.000000	0.023545
1618.000000	0.023106
1617.000000	0.022529
1616.000000	0.021890
1615.000000	0.021300
1614.000000	0.020804
1613.000000	0.020370
1612.000000	0.019946
1611.000000	0.019504
1610.000000	0.019059
1609.000000	0.018621
1608.000000	0.018191
1607.000000	0.017786
1606.000000	0.017427
1605.000000	0.017100
1604.000000	0.016777
1603.000000	0.016463
1602.000000	0.016178
1601.000000	0.015915
1600.000000	0.015669
1599.000000	0.015453
1598.000000	0.015282
1597.000000	0.015139
1596.000000	0.015002
1595.000000	0.014880
1594.000000	0.014785
1593.000000	0.014700
1592.000000	0.014606
1591.000000	0.014527
1590.000000	0.014507
1589.000000	0.014546
1588.000000	0.014611
1587.000000	0.014683
1586.000000	0.014763
1585.000000	0.014844
1584.000000	0.014914
1583.000000	0.015001
1582.000000	0.015132
1581.000000	0.015292
1580.000000	0.015446
1579.000000	0.015610
1578.000000	0.015814
1577.000000	0.016051
1576.000000	0.016284
1575.000000	0.016480
1574.000000	0.016645
1573.000000	0.016822
1572.000000	0.017034
1571.000000	0.017271
1570.000000	0.017537
1569.000000	0.017820
1568.000000	0.018081
1567.000000	0.018340
1566.000000	0.018640
1565.000000	0.018986
1564.000000	0.019342
1563.000000	0.019699
1562.000000	0.020067
1561.000000	0.020396
1560.000000	0.020619
1559.000000	0.020906
1558.000000	0.021317
1557.000000	0.021655
1556.000000	0.021933
1555.000000	0.022219
1554.000000	0.022502
1553.000000	0.022733
1552.000000	0.022924
1551.000000	0.023114
1550.000000	0.023310
1549.000000	0.023484
1548.000000	0.023619
1547.000000	0.023731
1546.000000	0.023836
1545.000000	0.023938
1544.000000	0.024032
1543.000000	0.024104
1542.000000	0.024134
1541.000000	0.024123
1540.000000	0.024108
1539.000000	0.024085
1538.000000	0.024011
1537.000000	0.023898
1536.000000	0.023784
1535.000000	0.023651
1534.000000	0.023484
1533.000000	0.023319
1532.000000	0.023180
1531.000000	0.023039
1530.000000	0.022877
1529.000000	0.022706
1528.000000	0.022530
1527.000000	0.022333
1526.000000	0.022108
1525.000000	0.021889
1524.000000	0.021713
1523.000000	0.021561
1522.000000	0.021388
1521.000000	0.021192
1520.000000	0.020980
1519.000000	0.020742
1518.000000	0.020492
1517.000000	0.020262
1516.000000	0.020074
1515.000000	0.019906
1514.000000	0.019725
1513.000000	0.019516
1512.000000	0.019285
1511.000000	0.019048
1510.000000	0.018819
1509.000000	0.018579
1508.000000	0.018268
1507.000000	0.017875
1506.000000	0.017494
1505.000000	0.017191
1504.000000	0.016940
1503.000000	0.016708
1502.000000	0.016471
1501.000000	0.016211
1500.000000	0.015942
1499.000000	0.015678
1498.000000	0.015403
1497.000000	0.015113
1496.000000	0.014832
1495.000000	0.014565
1494.000000	0.014312
1493.000000	0.014089
1492.000000	0.013888
1491.000000	0.013663
1490.000000	0.013405
1489.000000	0.013172
1488.000000	0.013012
1487.000000	0.012905
1486.000000	0.012818
1485.000000	0.012748
1484.000000	0.012697
1483.000000	0.012662
1482.000000	0.012639
1481.000000	0.012643
1480.000000	0.012681
1479.000000	0.012740
1478.000000	0.012808
1477.000000	0.012898
1476.000000	0.013023
1475.000000	0.013177
1474.000000	0.013353
1473.000000	0.013566
1472.000000	0.013805
1471.000000	0.014009
1470.000000	0.014163
1469.000000	0.014309
1468.000000	0.014470
1467.000000	0.014635
1466.000000	0.014803
1465.000000	0.014990
1464.000000	0.015183
1463.000000	0.015339
1462.000000	0.015450
1461.000000	0.015565
1460.000000	0.015737
1459.000000	0.015990
1458.000000	0.016321
1457.000000	0.016700
1456.000000	0.017004
1455.000000	0.017155
1454.000000	0.017230
1453.000000	0.017310
1452.000000	0.017399
1451.000000	0.017462
1450.000000	0.017487
1449.000000	0.017492
1448.000000	0.017486
1447.000000	0.017461
1446.000000	0.017418
1445.000000	0.017364
1444.000000	0.017309
1443.000000	0.017252
1442.000000	0.017178
1441.000000	0.017083
1440.000000	0.016983
1439.000000	0.016889
1438.000000	0.016765
1437.000000	0.016580
1436.000000	0.016362
1435.000000	0.016157
1434.000000	0.015981
1433.000000	0.015832
1432.000000	0.015692
1431.000000	0.015549
1430.000000	0.015415
1429.000000	0.015306
1428.000000	0.015228
1427.000000	0.015167
1426.000000	0.015108
1425.000000	0.015040
1424.000000	0.014975
1423.000000	0.014943
1422.000000	0.014941
1421.000000	0.014937
1420.000000	0.014902
1419.000000	0.014860
1418.000000	0.014828
1417.000000	0.014796
1416.000000	0.014775
1415.000000	0.014774
1414.000000	0.014782
1413.000000	0.014798
1412.000000	0.014832
1411.000000	0.014890
1410.000000	0.014959
1409.000000	0.015022
1408.000000	0.015074
1407.000000	0.015117
1406.000000	0.015151
1405.000000	0.015180
1404.000000	0.015211
1403.000000	0.015249
1402.000000	0.015286
1401.000000	0.015314
1400.000000	0.015326
1399.000000	0.015324
1398.000000	0.015312
1397.000000	0.015295
1396.000000	0.015276
1395.000000	0.015247
1394.000000	0.015192
1393.000000	0.015100
1392.000000	0.014989
1391.000000	0.014884
1390.000000	0.014798
1389.000000	0.014720
1388.000000	0.014631
1387.000000	0.014519
1386.000000	0.014386
1385.000000	0.014251
1384.000000	0.014137
1383.000000	0.014041
1382.000000	0.013946
1381.000000	0.013835
1380.000000	0.013705
1379.000000	0.013563
1378.000000	0.013419
1377.000000	0.013281
1376.000000	0.013154
1375.000000	0.013032
1374.000000	0.012903
1373.000000	0.012750
1372.000000	0.012573
1371.000000	0.012390
1370.000000	0.012211
1369.000000	0.012028
1368.000000	0.011831
1367.000000	0.011630
1366.000000	0.011444
1365.000000	0.011278
1364.000000	0.011126
1363.000000	0.010982
1362.000000	0.010855
1361.000000	0.010752
1360.000000	0.010674
1359.000000	0.010615
1358.000000	0.010569
1357.000000	0.010533
1356.000000	0.010512
1355.000000	0.010516
1354.000000	0.010551
1353.000000	0.010615
1352.000000	0.010708
1351.000000	0.010831
1350.000000	0.010983
1349.000000	0.011149
1348.000000	0.011311
1347.000000	0.011461
1346.000000	0.011602
1345.000000	0.011738
1344.000000	0.011864
1343.000000	0.011980
1342.000000	0.012095
1341.000000	0.012223
1340.000000	0.012370
1339.000000	0.012517
1338.000000	0.012631
1337.000000	0.012696
1336.000000	0.012716
1335.000000	0.012706
1334.000000	0.012671
1333.000000	0.012609
1332.000000	0.012519
1331.000000	0.012412
1330.000000	0.012302
1329.000000	0.012195
1328.000000	0.012091
1327.000000	0.011988
1326.000000	0.011898
1325.000000	0.011828
1324.000000	0.011778
1323.000000	0.011746
1322.000000	0.011727
1321.000000	0.011720
1320.000000	0.011719
1319.000000	0.011714
1318.000000	0.011693
1317.000000	0.011650
1316.000000	0.011592
1315.000000	0.011536
1314.000000	0.011494
1313.000000	0.011460
1312.000000	0.011419
1311.000000	0.011356
1310.000000	0.011270
1309.000000	0.011170
1308.000000	0.011073
1307.000000	0.010992
1306.000000	0.010924
1305.000000	0.010857
1304.000000	0.010783
1303.000000	0.010710
1302.000000	0.010648
1301.000000	0.010599
1300.000000	0.010556
1299.000000	0.010513
1298.000000	0.010473
1297.000000	0.010442
1296.000000	0.010425
1295.000000	0.010424
1294.000000	0.010439
1293.000000	0.010468
1292.000000	0.010510
1291.000000	0.010565
1290.000000	0.010630
1289.000000	0.010701
1288.000000	0.010780
1287.000000	0.010868
1286.000000	0.010961
1285.000000	0.011046
1284.000000	0.011121
1283.000000	0.011189
1282.000000	0.011258
1281.000000	0.011322
1280.000000	0.011367
1279.000000	0.011383
1278.000000	0.011371
1277.000000	0.011342
1276.000000	0.011308
1275.000000	0.011285
1274.000000	0.011277
1273.000000	0.011275
1272.000000	0.011264
1271.000000	0.011245
1270.000000	0.011232
1269.000000	0.011240
1268.000000	0.011270
1267.000000	0.011309
1266.000000	0.011346
1265.000000	0.011386
1264.000000	0.011440
1263.000000	0.011519
1262.000000	0.011613
1261.000000	0.011704
1260.000000	0.011782
1259.000000	0.011856
1258.000000	0.011941
1257.000000	0.012042
1256.000000	0.012154
1255.000000	0.012268
1254.000000	0.012379
1253.000000	0.012487
1252.000000	0.012600
1251.000000	0.012727
1250.000000	0.012876
1249.000000	0.013039
1248.000000	0.013203
1247.000000	0.013363
1246.000000	0.013522
1245.000000	0.013682
1244.000000	0.013831
1243.000000	0.013962
1242.000000	0.014079
1241.000000	0.014190
1240.000000	0.014286
1239.000000	0.014346
1238.000000	0.014370
1237.000000	0.014377
1236.000000	0.014382
1235.000000	0.014379
1234.000000	0.014353
1233.000000	0.014292
1232.000000	0.014195
1231.000000	0.014066
1230.000000	0.013908
1229.000000	0.013718
1228.000000	0.013492
1227.000000	0.013233
1226.000000	0.012953
1225.000000	0.012665
1224.000000	0.012373
1223.000000	0.012074
1222.000000	0.011764
1221.000000	0.011454
1220.000000	0.011163
1219.000000	0.010912
1218.000000	0.010718
1217.000000	0.010590
1216.000000	0.010523
1215.000000	0.010504
1214.000000	0.010516
1213.000000	0.010541
1212.000000	0.010572
1211.000000	0.010611
1210.000000	0.010661
1209.000000	0.010728
1208.000000	0.010807
1207.000000	0.010889
1206.000000	0.010964
1205.000000	0.011023
1204.000000	0.011060
1203.000000	0.011070
1202.000000	0.011051
1201.000000	0.011003
1200.000000	0.010921
1199.000000	0.010797
1198.000000	0.010640
1197.000000	0.010474
1196.000000	0.010321
1195.000000	0.010186
1194.000000	0.010058
1193.000000	0.009926
1192.000000	0.009783
1191.000000	0.009621
1190.000000	0.009442
1189.000000	0.009264
1188.000000	0.009110
1187.000000	0.008992
1186.000000	0.008900
1185.000000	0.008816
1184.000000	0.008732
1183.000000	0.008644
1182.000000	0.008552
1181.000000	0.008466
1180.000000	0.008405
1179.000000	0.008380
1178.000000	0.008382
1177.000000	0.008384
1176.000000	0.008370
1175.000000	0.008342
1174.000000	0.008315
1173.000000	0.008306
1172.000000	0.008315
1171.000000	0.008334
1170.000000	0.008349
1169.000000	0.008356
1168.000000	0.008365
1167.000000	0.008385
1166.000000	0.008414
1165.000000	0.008448
1164.000000	0.008482
1163.000000	0.008515
1162.000000	0.008536
1161.000000	0.008542
1160.000000	0.008537
1159.000000	0.008522
1158.000000	0.008486
1157.000000	0.008415
1156.000000	0.008322
1155.000000	0.008234
1154.000000	0.008165
1153.000000	0.008102
1152.000000	0.008021
1151.000000	0.007914
1150.000000	0.007789
1149.000000	0.007660
1148.000000	0.007536
1147.000000	0.007420
1146.000000	0.007312
1145.000000	0.007214
1144.000000	0.007130
1143.000000	0.007064
1142.000000	0.007007
1141.000000	0.006945
1140.000000	0.006875
1139.000000	0.006814
1138.000000	0.006778
1137.000000	0.006767
1136.000000	0.006764
1135.000000	0.006754
1134.000000	0.006729
1133.000000	0.006690
1132.000000	0.006645
1131.000000	0.006605
1130.000000	0.006582
1129.000000	0.006577
1128.000000	0.006582
1127.000000	0.006585
1126.000000	0.006580
1125.000000	0.006572
1124.000000	0.006574
1123.000000	0.006596
1122.000000	0.006630
1121.000000	0.006658
1120.000000	0.006659
1119.000000	0.006637
1118.000000	0.006617
1117.000000	0.006627
1116.000000	0.006674
1115.000000	0.006739
1114.000000	0.006791
1113.000000	0.006814
1112.000000	0.006813
1111.000000	0.006810
1110.000000	0.006822
1109.000000	0.006850
1108.000000	0.006885
1107.000000	0.006921
1106.000000	0.006956
1105.000000	0.006995
1104.000000	0.007033
1103.000000	0.007065
1102.000000	0.007085
1101.000000	0.007092
1100.000000	0.007094
1099.000000	0.007101
1098.000000	0.007129
1097.000000	0.007191
1096.000000	0.007282
1095.000000	0.007375
1094.000000	0.007448
1093.000000	0.007509
1092.000000	0.007593
1091.000000	0.007721
1090.000000	0.007879
1089.000000	0.008040
1088.000000	0.008197
1087.000000	0.008366
1086.000000	0.008562
1085.000000	0.008772
1084.000000	0.008957
1083.000000	0.009086
1082.000000	0.009151
1081.000000	0.009170
1080.000000	0.009163
1079.000000	0.009136
1078.000000	0.009079
1077.000000	0.008990
1076.000000	0.008888
1075.000000	0.008794
1074.000000	0.008709
1073.000000	0.008621
1072.000000	0.008518
1071.000000	0.008406
1070.000000	0.008303
1069.000000	0.008227
1068.000000	0.008182
1067.000000	0.008160
1066.000000	0.008149
1065.000000	0.008149
1064.000000	0.008179
1063.000000	0.008244
1062.000000	0.008321
1061.000000	0.008368
1060.000000	0.008369
1059.000000	0.008341
1058.000000	0.008309
1057.000000	0.008277
1056.000000	0.008241
1055.000000	0.008200
1054.000000	0.008162
1053.000000	0.008133
1052.000000	0.008112
1051.000000	0.008095
1050.000000	0.008077
1049.000000	0.008057
1048.000000	0.008039
1047.000000	0.008030
1046.000000	0.008033
1045.000000	0.008035
1044.000000	0.008024
1043.000000	0.008002
1042.000000	0.007987
1041.000000	0.008001
1040.000000	0.008059
1039.000000	0.008171
1038.000000	0.008331
1037.000000	0.008511
1036.000000	0.008672
1035.000000	0.008792
1034.000000	0.008880
1033.000000	0.008956
1032.000000	0.009021
1031.000000	0.009064
1030.000000	0.009078
1029.000000	0.009068
1028.000000	0.009037
1027.000000	0.008987
1026.000000	0.008918
1025.000000	0.008845
1024.000000	0.008783
1023.000000	0.008741
1022.000000	0.008710
1021.000000	0.008676
1020.000000	0.008636
1019.000000	0.008600
1018.000000	0.008579
1017.000000	0.008569
1016.000000	0.008547
1015.000000	0.008491
1014.000000	0.008397
1013.000000	0.008279
1012.000000	0.008151
1011.000000	0.008021
1010.000000	0.007885
1009.000000	0.007740
1008.000000	0.007591
1007.000000	0.007444
1006.000000	0.007302
1005.000000	0.007165
1004.000000	0.007032
1003.000000	0.006911
1002.000000	0.006807
1001.000000	0.006715
1000.000000	0.006625
999.000000	0.006530
998.000000	0.006432
997.000000	0.006328
996.000000	0.006213
995.000000	0.006089
994.000000	0.005970
993.000000	0.005871
992.000000	0.005784
991.000000	0.005694
990.000000	0.005601
989.000000	0.005526
988.000000	0.005482
987.000000	0.005452
986.000000	0.005408
985.000000	0.005341
984.000000	0.005270
983.000000	0.005221
982.000000	0.005199
981.000000	0.005197
980.000000	0.005200
979.000000	0.005201
978.000000	0.005192
977.000000	0.005166
976.000000	0.005124
975.000000	0.005082
974.000000	0.005061
973.000000	0.005069
972.000000	0.005089
971.000000	0.005090
970.000000	0.005058
969.000000	0.005000
968.000000	0.004928
967.000000	0.004846
966.000000	0.004754
965.000000	0.004659
964.000000	0.004582
963.000000	0.004533
962.000000	0.004506
961.000000	0.004486
960.000000	0.004456
959.000000	0.004403
958.000000	0.004325
957.000000	0.004231
956.000000	0.004145
955.000000	0.004091
954.000000	0.004074
953.000000	0.004082
952.000000	0.004092
951.000000	0.004080
950.000000	0.004040
949.000000	0.003989
948.000000	0.003958
947.000000	0.003961
946.000000	0.003988
945.000000	0.004009
944.000000	0.004006
943.000000	0.003980
942.000000	0.003950
941.000000	0.003933
940.000000	0.003931
939.000000	0.003926
938.000000	0.003902
937.000000	0.003863
936.000000	0.003830
935.000000	0.003820
934.000000	0.003830
933.000000	0.003846
932.000000	0.003856
931.000000	0.003849
930.000000	0.003819
929.000000	0.003771
928.000000	0.003724
927.000000	0.003693
926.000000	0.003676
925.000000	0.003664
924.000000	0.003656
923.000000	0.003652
922.000000	0.003643
921.000000	0.003615
920.000000	0.003570
919.000000	0.003516
918.000000	0.003457
917.000000	0.003395
916.000000	0.003344
915.000000	0.003318
914.000000	0.003305
913.000000	0.003262
912.000000	0.003168
911.000000	0.003047
910.000000	0.002948
909.000000	0.002901
908.000000	0.002906
907.000000	0.002938
906.000000	0.002969
905.000000	0.002976
904.000000	0.002952
903.000000	0.002915
902.000000	0.002888
901.000000	0.002875
900.000000	0.002863
899.000000	0.002838
898.000000	0.002803
897.000000	0.002777
896.000000	0.002773
895.000000	0.002786
894.000000	0.002793
893.000000	0.002772
892.000000	0.002713
891.000000	0.002636
890.000000	0.002575
889.000000	0.002555
888.000000	0.002578
887.000000	0.002632
886.000000	0.002704
885.000000	0.002789
884.000000	0.002888
883.000000	0.003000
882.000000	0.003131
881.000000	0.003292
880.000000	0.003495
879.000000	0.003728
878.000000	0.003950
877.000000	0.004105
876.000000	0.004161
875.000000	0.004131
874.000000	0.004053
873.000000	0.003963
872.000000	0.003863
871.000000	0.003739
870.000000	0.003584
869.000000	0.003422
868.000000	0.003291
867.000000	0.003214
866.000000	0.003177
865.000000	0.003151
864.000000	0.003115
863.000000	0.003068
862.000000	0.003022
861.000000	0.002985
860.000000	0.002961
859.000000	0.002953
858.000000	0.002959
857.000000	0.002969
856.000000	0.002970
855.000000	0.002960
854.000000	0.002953
853.000000	0.002973
852.000000	0.003022
851.000000	0.003078
850.000000	0.003115
849.000000	0.003127
848.000000	0.003120
847.000000	0.003092
846.000000	0.003024
845.000000	0.002920
844.000000	0.002814
843.000000	0.002746
842.000000	0.002729
841.000000	0.002752
840.000000	0.002791
839.000000	0.002830
838.000000	0.002850
837.000000	0.002842
836.000000	0.002809
835.000000	0.002767
834.000000	0.002726
833.000000	0.002681
832.000000	0.002631
831.000000	0.002589
830.000000	0.002573
829.000000	0.002593
828.000000	0.002639
827.000000	0.002685
826.000000	0.002707
825.000000	0.002700
824.000000	0.002687
823.000000	0.002699
822.000000	0.002738
821.000000	0.002772
820.000000	0.002768
819.000000	0.002729
818.000000	0.002682
817.000000	0.002653
816.000000	0.002645
815.000000	0.002655
814.000000	0.002682
813.000000	0.002721
812.000000	0.002751
811.000000	0.002745
810.000000	0.002700
809.000000	0.002644
808.000000	0.002609
807.000000	0.002602
806.000000	0.002612
805.000000	0.002639
804.000000	0.002687
803.000000	0.002748
802.000000	0.002794
801.000000	0.002811
800.000000	0.002810
799.000000	0.002810
798.000000	0.002821
797.000000	0.002838
796.000000	0.002856
795.000000	0.002872
794.000000	0.002879
793.000000	0.002876
792.000000	0.002870
791.000000	0.002862
790.000000	0.002851
789.000000	0.002840
788.000000	0.002843
787.000000	0.002868
786.000000	0.002895
785.000000	0.002905
784.000000	0.002900
783.000000	0.002905
782.000000	0.002929
781.000000	0.002961
780.000000	0.002990
779.000000	0.003019
778.000000	0.003055
777.000000	0.003090
776.000000	0.003106
775.000000	0.003096
774.000000	0.003070
773.000000	0.003055
772.000000	0.003075
771.000000	0.003132
770.000000	0.003201
769.000000	0.003248
768.000000	0.003261
767.000000	0.003249
766.000000	0.003227
765.000000	0.003208
764.000000	0.003203
763.000000	0.003221
762.000000	0.003253
761.000000	0.003271
760.000000	0.003257
759.000000	0.003222
758.000000	0.003193
757.000000	0.003190
756.000000	0.003210
755.000000	0.003231
754.000000	0.003243
753.000000	0.003253
752.000000	0.003280
751.000000	0.003336
750.000000	0.003408
749.000000	0.003471
748.000000	0.003513
747.000000	0.003534
746.000000	0.003531
745.000000	0.003505
744.000000	0.003476
743.000000	0.003479
742.000000	0.003534
741.000000	0.003629
740.000000	0.003733
739.000000	0.003826
738.000000	0.003898
737.000000	0.003944
736.000000	0.003958
735.000000	0.003941
734.000000	0.003903
733.000000	0.003871
732.000000	0.003893
731.000000	0.003995
730.000000	0.004146
729.000000	0.004279
728.000000	0.004353
727.000000	0.004385
726.000000	0.004414
725.000000	0.004458
724.000000	0.004515
723.000000	0.004593
722.000000	0.004702
721.000000	0.004821
720.000000	0.004918
719.000000	0.004986
718.000000	0.005049
717.000000	0.005117
716.000000	0.005180
715.000000	0.005231
714.000000	0.005285
713.000000	0.005346
712.000000	0.005398
711.000000	0.005430
710.000000	0.005457
709.000000	0.005504
708.000000	0.005575
707.000000	0.005653
706.000000	0.005711
705.000000	0.005726
704.000000	0.005689
703.000000	0.005619
702.000000	0.005569
701.000000	0.005580
700.000000	0.005652
699.000000	0.005752
698.000000	0.005851
697.000000	0.005930
696.000000	0.005969
695.000000	0.005959
694.000000	0.005920
693.000000	0.005883
692.000000	0.005871
691.000000	0.005886
690.000000	0.005926
689.000000	0.005988
688.000000	0.006053
687.000000	0.006090
686.000000	0.006085
685.000000	0.006060
684.000000	0.006055
683.000000	0.006087
682.000000	0.006140
681.000000	0.006200
680.000000	0.006277
679.000000	0.006380
678.000000	0.006482
677.000000	0.006562
676.000000	0.006645
675.000000	0.006757
674.000000	0.006889
673.000000	0.007009
672.000000	0.007062
671.000000	0.006981
670.000000	0.006730
669.000000	0.006366
668.000000	0.006128
667.000000	0.006330
666.000000	0.006735
665.000000	0.007062
664.000000	0.007266
663.000000	0.007380
662.000000	0.007460
661.000000	0.007530
660.000000	0.007558
659.000000	0.007506
658.000000	0.007393
657.000000	0.007290
656.000000	0.007230
655.000000	0.007179
654.000000	0.007132
653.000000	0.007145
652.000000	0.007232
651.000000	0.007323
650.000000	0.007371
649.000000	0.007403
648.000000	0.007437
647.000000	0.007438
646.000000	0.007390
645.000000	0.007349
644.000000	0.007356
643.000000	0.007378
642.000000	0.007362
641.000000	0.007319
640.000000	0.007299
639.000000	0.007315
638.000000	0.007345
637.000000	0.007362
636.000000	0.007339
635.000000	0.007274
634.000000	0.007211
633.000000	0.007209
632.000000	0.007273
631.000000	0.007355
630.000000	0.007420
629.000000	0.007473
628.000000	0.007512
627.000000	0.007508
626.000000	0.007464
625.000000	0.007428
624.000000	0.007427
623.000000	0.007446
622.000000	0.007479
621.000000	0.007545
620.000000	0.007635
619.000000	0.007683
618.000000	0.007639
617.000000	0.007528
616.000000	0.007404
615.000000	0.007296
614.000000	0.007238
613.000000	0.007280
612.000000	0.007423
611.000000	0.007569
610.000000	0.007620
609.000000	0.007580
608.000000	0.007520
607.000000	0.007462
606.000000	0.007382
605.000000	0.007283
604.000000	0.007215
603.000000	0.007197
602.000000	0.007189
601.000000	0.007147
600.000000	0.007089
599.000000	0.007082
598.000000	0.007169
597.000000	0.007308
596.000000	0.007403
595.000000	0.007391
594.000000	0.007316
593.000000	0.007279
592.000000	0.007328
591.000000	0.007418
590.000000	0.007487
589.000000	0.007523
588.000000	0.007523
587.000000	0.007462
586.000000	0.007340
585.000000	0.007237
584.000000	0.007232
583.000000	0.007298
582.000000	0.007336
581.000000	0.007297
580.000000	0.007229
579.000000	0.007191
578.000000	0.007187
577.000000	0.007191
576.000000	0.007207
575.000000	0.007252
574.000000	0.007323
573.000000	0.007393
572.000000	0.007456
571.000000	0.007530
570.000000	0.007630
569.000000	0.007739
568.000000	0.007820
567.000000	0.007851
566.000000	0.007844
565.000000	0.007829
564.000000	0.007818
563.000000	0.007819
562.000000	0.007859
561.000000	0.007971
560.000000	0.008154
559.000000	0.008362
558.000000	0.008540
557.000000	0.008638
556.000000	0.008599
555.000000	0.008400
554.000000	0.008123
553.000000	0.007930
552.000000	0.007912
551.000000	0.007997
550.000000	0.008043
549.000000	0.007988
548.000000	0.007879
547.000000	0.007778
546.000000	0.007706
545.000000	0.007653
544.000000	0.007582
543.000000	0.007454
542.000000	0.007283
541.000000	0.007162
540.000000	0.007189
539.000000	0.007360
538.000000	0.007550
537.000000	0.007624
536.000000	0.007554
535.000000	0.007452
534.000000	0.007478
533.000000	0.007697
532.000000	0.008009
531.000000	0.008239
530.000000	0.008306
529.000000	0.008262
528.000000	0.008179
527.000000	0.008061
526.000000	0.007926
525.000000	0.007845
524.000000	0.007842
523.000000	0.007817
522.000000	0.007679
521.000000	0.007478
520.000000	0.007344
519.000000	0.007316
518.000000	0.007309
517.000000	0.007244
516.000000	0.007116
515.000000	0.006923
514.000000	0.006650
513.000000	0.006348
512.000000	0.006157
511.000000	0.006172
510.000000	0.006318
509.000000	0.006419
508.000000	0.006350
507.000000	0.006159
506.000000	0.006015
505.000000	0.006044
504.000000	0.006205
503.000000	0.006326
502.000000	0.006268
501.000000	0.006079
500.000000	0.005920
499.000000	0.005882
498.000000	0.005920
497.000000	0.005926
496.000000	0.005841
495.000000	0.005681
494.000000	0.005507
493.000000	0.005363
492.000000	0.005250
491.000000	0.005156
490.000000	0.005105
489.000000	0.005130
488.000000	0.005196
487.000000	0.005204
486.000000	0.005112
485.000000	0.004996
484.000000	0.004962
483.000000	0.005025
482.000000	0.005118
481.000000	0.005187
480.000000	0.005209
479.000000	0.005167
478.000000	0.005060
477.000000	0.004923
476.000000	0.004790
475.000000	0.004651
474.000000	0.004488
473.000000	0.004347
472.000000	0.004298
471.000000	0.004326
470.000000	0.004324
469.000000	0.004211
468.000000	0.004005
467.000000	0.003778
466.000000	0.003593
465.000000	0.003511
464.000000	0.003584
463.000000	0.003804
462.000000	0.004080
461.000000	0.004259
460.000000	0.004215
459.000000	0.003904
458.000000	0.003444
457.000000	0.003117
456.000000	0.003105
455.000000	0.003298
454.000000	0.003422
453.000000	0.003288
452.000000	0.002932
451.000000	0.002599
450.000000	0.002552
