PE IR       SUBTECH     SPECTRUM    ASCII       PEDS        4.00        
   -1
3G-H10-C002_1.ASC
22/02/23
14:27:03.00
22/02/23
14:27:28.00
uco
Sample 002 By uco Date Wednesday, February 23 2022
450.000000
#HDR
-1
-1
#GR
cm-1
A
1.0
0.0
4000.000000
-1.000000
3551
8
0.013456
0.000577
#DATA
4000.000000	0.000867
3999.000000	0.000864
3998.000000	0.000871
3997.000000	0.000887
3996.000000	0.000902
3995.000000	0.000906
3994.000000	0.000896
3993.000000	0.000882
3992.000000	0.000875
3991.000000	0.000879
3990.000000	0.000887
3989.000000	0.000892
3988.000000	0.000895
3987.000000	0.000902
3986.000000	0.000916
3985.000000	0.000935
3984.000000	0.000953
3983.000000	0.000966
3982.000000	0.000974
3981.000000	0.000978
3980.000000	0.000971
3979.000000	0.000952
3978.000000	0.000925
3977.000000	0.000901
3976.000000	0.000890
3975.000000	0.000898
3974.000000	0.000919
3973.000000	0.000941
3972.000000	0.000952
3971.000000	0.000947
3970.000000	0.000935
3969.000000	0.000926
3968.000000	0.000927
3967.000000	0.000936
3966.000000	0.000941
3965.000000	0.000930
3964.000000	0.000906
3963.000000	0.000877
3962.000000	0.000860
3961.000000	0.000863
3960.000000	0.000886
3959.000000	0.000918
3958.000000	0.000952
3957.000000	0.000981
3956.000000	0.001004
3955.000000	0.001020
3954.000000	0.001025
3953.000000	0.001019
3952.000000	0.001006
3951.000000	0.000994
3950.000000	0.000988
3949.000000	0.000986
3948.000000	0.000984
3947.000000	0.000981
3946.000000	0.000980
3945.000000	0.000983
3944.000000	0.000987
3943.000000	0.000986
3942.000000	0.000984
3941.000000	0.000984
3940.000000	0.000992
3939.000000	0.001003
3938.000000	0.001012
3937.000000	0.001012
3936.000000	0.001006
3935.000000	0.001005
3934.000000	0.001018
3933.000000	0.001047
3932.000000	0.001080
3931.000000	0.001098
3930.000000	0.001092
3929.000000	0.001065
3928.000000	0.001031
3927.000000	0.001003
3926.000000	0.000984
3925.000000	0.000974
3924.000000	0.000970
3923.000000	0.000972
3922.000000	0.000980
3921.000000	0.000990
3920.000000	0.000996
3919.000000	0.000994
3918.000000	0.000985
3917.000000	0.000976
3916.000000	0.000975
3915.000000	0.000983
3914.000000	0.000997
3913.000000	0.001005
3912.000000	0.001001
3911.000000	0.000982
3910.000000	0.000957
3909.000000	0.000936
3908.000000	0.000929
3907.000000	0.000941
3906.000000	0.000968
3905.000000	0.001000
3904.000000	0.001026
3903.000000	0.001046
3902.000000	0.001066
3901.000000	0.001089
3900.000000	0.001108
3899.000000	0.001111
3898.000000	0.001099
3897.000000	0.001075
3896.000000	0.001049
3895.000000	0.001027
3894.000000	0.001013
3893.000000	0.001012
3892.000000	0.001023
3891.000000	0.001037
3890.000000	0.001049
3889.000000	0.001060
3888.000000	0.001068
3887.000000	0.001072
3886.000000	0.001071
3885.000000	0.001067
3884.000000	0.001065
3883.000000	0.001070
3882.000000	0.001079
3881.000000	0.001081
3880.000000	0.001069
3879.000000	0.001047
3878.000000	0.001028
3877.000000	0.001020
3876.000000	0.001027
3875.000000	0.001044
3874.000000	0.001065
3873.000000	0.001085
3872.000000	0.001103
3871.000000	0.001114
3870.000000	0.001108
3869.000000	0.001078
3868.000000	0.001038
3867.000000	0.001009
3866.000000	0.001007
3865.000000	0.001032
3864.000000	0.001068
3863.000000	0.001098
3862.000000	0.001111
3861.000000	0.001111
3860.000000	0.001107
3859.000000	0.001106
3858.000000	0.001110
3857.000000	0.001113
3856.000000	0.001098
3855.000000	0.001054
3854.000000	0.000991
3853.000000	0.000934
3852.000000	0.000906
3851.000000	0.000913
3850.000000	0.000940
3849.000000	0.000971
3848.000000	0.000995
3847.000000	0.001011
3846.000000	0.001019
3845.000000	0.001024
3844.000000	0.001031
3843.000000	0.001039
3842.000000	0.001045
3841.000000	0.001049
3840.000000	0.001049
3839.000000	0.001050
3838.000000	0.001056
3837.000000	0.001071
3836.000000	0.001086
3835.000000	0.001091
3834.000000	0.001078
3833.000000	0.001058
3832.000000	0.001045
3831.000000	0.001052
3830.000000	0.001073
3829.000000	0.001097
3828.000000	0.001114
3827.000000	0.001121
3826.000000	0.001119
3825.000000	0.001109
3824.000000	0.001094
3823.000000	0.001080
3822.000000	0.001071
3821.000000	0.001060
3820.000000	0.001037
3819.000000	0.001008
3818.000000	0.000988
3817.000000	0.000988
3816.000000	0.001005
3815.000000	0.001023
3814.000000	0.001034
3813.000000	0.001038
3812.000000	0.001041
3811.000000	0.001044
3810.000000	0.001043
3809.000000	0.001035
3808.000000	0.001017
3807.000000	0.000996
3806.000000	0.000979
3805.000000	0.000977
3804.000000	0.000988
3803.000000	0.001003
3802.000000	0.001009
3801.000000	0.001000
3800.000000	0.000986
3799.000000	0.000983
3798.000000	0.000995
3797.000000	0.001013
3796.000000	0.001029
3795.000000	0.001038
3794.000000	0.001040
3793.000000	0.001035
3792.000000	0.001024
3791.000000	0.001012
3790.000000	0.001009
3789.000000	0.001021
3788.000000	0.001045
3787.000000	0.001074
3786.000000	0.001099
3785.000000	0.001117
3784.000000	0.001127
3783.000000	0.001127
3782.000000	0.001121
3781.000000	0.001111
3780.000000	0.001099
3779.000000	0.001084
3778.000000	0.001066
3777.000000	0.001052
3776.000000	0.001047
3775.000000	0.001054
3774.000000	0.001064
3773.000000	0.001069
3772.000000	0.001062
3771.000000	0.001049
3770.000000	0.001041
3769.000000	0.001039
3768.000000	0.001035
3767.000000	0.001019
3766.000000	0.000994
3765.000000	0.000972
3764.000000	0.000965
3763.000000	0.000971
3762.000000	0.000979
3761.000000	0.000977
3760.000000	0.000967
3759.000000	0.000956
3758.000000	0.000953
3757.000000	0.000960
3756.000000	0.000974
3755.000000	0.000980
3754.000000	0.000966
3753.000000	0.000932
3752.000000	0.000896
3751.000000	0.000883
3750.000000	0.000897
3749.000000	0.000924
3748.000000	0.000945
3747.000000	0.000955
3746.000000	0.000959
3745.000000	0.000971
3744.000000	0.000990
3743.000000	0.001005
3742.000000	0.001011
3741.000000	0.001005
3740.000000	0.000988
3739.000000	0.000969
3738.000000	0.000964
3737.000000	0.000979
3736.000000	0.001005
3735.000000	0.001015
3734.000000	0.000994
3733.000000	0.000954
3732.000000	0.000920
3731.000000	0.000909
3730.000000	0.000928
3729.000000	0.000968
3728.000000	0.001013
3727.000000	0.001041
3726.000000	0.001041
3725.000000	0.001018
3724.000000	0.000986
3723.000000	0.000961
3722.000000	0.000947
3721.000000	0.000941
3720.000000	0.000937
3719.000000	0.000930
3718.000000	0.000920
3717.000000	0.000906
3716.000000	0.000891
3715.000000	0.000878
3714.000000	0.000870
3713.000000	0.000871
3712.000000	0.000878
3711.000000	0.000882
3710.000000	0.000878
3709.000000	0.000872
3708.000000	0.000869
3707.000000	0.000870
3706.000000	0.000870
3705.000000	0.000870
3704.000000	0.000875
3703.000000	0.000889
3702.000000	0.000910
3701.000000	0.000932
3700.000000	0.000947
3699.000000	0.000952
3698.000000	0.000949
3697.000000	0.000940
3696.000000	0.000926
3695.000000	0.000906
3694.000000	0.000879
3693.000000	0.000850
3692.000000	0.000829
3691.000000	0.000828
3690.000000	0.000849
3689.000000	0.000879
3688.000000	0.000900
3687.000000	0.000903
3686.000000	0.000895
3685.000000	0.000890
3684.000000	0.000896
3683.000000	0.000914
3682.000000	0.000937
3681.000000	0.000956
3680.000000	0.000965
3679.000000	0.000959
3678.000000	0.000935
3677.000000	0.000905
3676.000000	0.000890
3675.000000	0.000894
3674.000000	0.000904
3673.000000	0.000905
3672.000000	0.000887
3671.000000	0.000855
3670.000000	0.000833
3669.000000	0.000837
3668.000000	0.000864
3667.000000	0.000901
3666.000000	0.000929
3665.000000	0.000946
3664.000000	0.000955
3663.000000	0.000963
3662.000000	0.000970
3661.000000	0.000967
3660.000000	0.000953
3659.000000	0.000936
3658.000000	0.000931
3657.000000	0.000949
3656.000000	0.000979
3655.000000	0.000998
3654.000000	0.000992
3653.000000	0.000969
3652.000000	0.000947
3651.000000	0.000954
3650.000000	0.000999
3649.000000	0.001062
3648.000000	0.001110
3647.000000	0.001125
3646.000000	0.001110
3645.000000	0.001078
3644.000000	0.001045
3643.000000	0.001026
3642.000000	0.001026
3641.000000	0.001036
3640.000000	0.001048
3639.000000	0.001059
3638.000000	0.001070
3637.000000	0.001086
3636.000000	0.001106
3635.000000	0.001127
3634.000000	0.001142
3633.000000	0.001145
3632.000000	0.001132
3631.000000	0.001105
3630.000000	0.001078
3629.000000	0.001067
3628.000000	0.001074
3627.000000	0.001096
3626.000000	0.001125
3625.000000	0.001151
3624.000000	0.001169
3623.000000	0.001182
3622.000000	0.001194
3621.000000	0.001210
3620.000000	0.001223
3619.000000	0.001225
3618.000000	0.001216
3617.000000	0.001209
3616.000000	0.001213
3615.000000	0.001232
3614.000000	0.001255
3613.000000	0.001269
3612.000000	0.001269
3611.000000	0.001262
3610.000000	0.001261
3609.000000	0.001273
3608.000000	0.001297
3607.000000	0.001321
3606.000000	0.001340
3605.000000	0.001351
3604.000000	0.001358
3603.000000	0.001359
3602.000000	0.001354
3601.000000	0.001342
3600.000000	0.001324
3599.000000	0.001308
3598.000000	0.001307
3597.000000	0.001332
3596.000000	0.001379
3595.000000	0.001430
3594.000000	0.001463
3593.000000	0.001469
3592.000000	0.001452
3591.000000	0.001430
3590.000000	0.001417
3589.000000	0.001427
3588.000000	0.001457
3587.000000	0.001485
3586.000000	0.001492
3585.000000	0.001480
3584.000000	0.001467
3583.000000	0.001468
3582.000000	0.001489
3581.000000	0.001526
3580.000000	0.001564
3579.000000	0.001593
3578.000000	0.001612
3577.000000	0.001627
3576.000000	0.001639
3575.000000	0.001644
3574.000000	0.001642
3573.000000	0.001641
3572.000000	0.001647
3571.000000	0.001661
3570.000000	0.001679
3569.000000	0.001702
3568.000000	0.001733
3567.000000	0.001770
3566.000000	0.001807
3565.000000	0.001844
3564.000000	0.001882
3563.000000	0.001915
3562.000000	0.001933
3561.000000	0.001931
3560.000000	0.001912
3559.000000	0.001886
3558.000000	0.001865
3557.000000	0.001859
3556.000000	0.001872
3555.000000	0.001899
3554.000000	0.001932
3553.000000	0.001963
3552.000000	0.001990
3551.000000	0.002009
3550.000000	0.002018
3549.000000	0.002020
3548.000000	0.002025
3547.000000	0.002043
3546.000000	0.002072
3545.000000	0.002099
3544.000000	0.002118
3543.000000	0.002134
3542.000000	0.002156
3541.000000	0.002181
3540.000000	0.002200
3539.000000	0.002204
3538.000000	0.002197
3537.000000	0.002187
3536.000000	0.002181
3535.000000	0.002179
3534.000000	0.002178
3533.000000	0.002180
3532.000000	0.002187
3531.000000	0.002195
3530.000000	0.002200
3529.000000	0.002200
3528.000000	0.002200
3527.000000	0.002208
3526.000000	0.002222
3525.000000	0.002242
3524.000000	0.002269
3523.000000	0.002309
3522.000000	0.002359
3521.000000	0.002409
3520.000000	0.002440
3519.000000	0.002442
3518.000000	0.002423
3517.000000	0.002401
3516.000000	0.002394
3515.000000	0.002408
3514.000000	0.002434
3513.000000	0.002460
3512.000000	0.002475
3511.000000	0.002476
3510.000000	0.002465
3509.000000	0.002448
3508.000000	0.002437
3507.000000	0.002440
3506.000000	0.002464
3505.000000	0.002509
3504.000000	0.002563
3503.000000	0.002612
3502.000000	0.002640
3501.000000	0.002650
3500.000000	0.002651
3499.000000	0.002651
3498.000000	0.002652
3497.000000	0.002654
3496.000000	0.002662
3495.000000	0.002678
3494.000000	0.002696
3493.000000	0.002708
3492.000000	0.002709
3491.000000	0.002705
3490.000000	0.002704
3489.000000	0.002711
3488.000000	0.002725
3487.000000	0.002743
3486.000000	0.002760
3485.000000	0.002772
3484.000000	0.002776
3483.000000	0.002775
3482.000000	0.002774
3481.000000	0.002783
3480.000000	0.002798
3479.000000	0.002813
3478.000000	0.002826
3477.000000	0.002841
3476.000000	0.002861
3475.000000	0.002886
3474.000000	0.002906
3473.000000	0.002915
3472.000000	0.002913
3471.000000	0.002907
3470.000000	0.002907
3469.000000	0.002920
3468.000000	0.002942
3467.000000	0.002959
3466.000000	0.002957
3465.000000	0.002936
3464.000000	0.002914
3463.000000	0.002910
3462.000000	0.002934
3461.000000	0.002977
3460.000000	0.003022
3459.000000	0.003053
3458.000000	0.003069
3457.000000	0.003075
3456.000000	0.003077
3455.000000	0.003072
3454.000000	0.003056
3453.000000	0.003038
3452.000000	0.003031
3451.000000	0.003052
3450.000000	0.003097
3449.000000	0.003149
3448.000000	0.003184
3447.000000	0.003190
3446.000000	0.003176
3445.000000	0.003159
3444.000000	0.003156
3443.000000	0.003169
3442.000000	0.003192
3441.000000	0.003214
3440.000000	0.003232
3439.000000	0.003246
3438.000000	0.003259
3437.000000	0.003275
3436.000000	0.003297
3435.000000	0.003323
3434.000000	0.003349
3433.000000	0.003363
3432.000000	0.003362
3431.000000	0.003347
3430.000000	0.003326
3429.000000	0.003310
3428.000000	0.003308
3427.000000	0.003326
3426.000000	0.003360
3425.000000	0.003402
3424.000000	0.003442
3423.000000	0.003471
3422.000000	0.003486
3421.000000	0.003491
3420.000000	0.003497
3419.000000	0.003510
3418.000000	0.003526
3417.000000	0.003539
3416.000000	0.003547
3415.000000	0.003555
3414.000000	0.003564
3413.000000	0.003570
3412.000000	0.003567
3411.000000	0.003557
3410.000000	0.003543
3409.000000	0.003531
3408.000000	0.003523
3407.000000	0.003525
3406.000000	0.003538
3405.000000	0.003559
3404.000000	0.003583
3403.000000	0.003606
3402.000000	0.003627
3401.000000	0.003643
3400.000000	0.003648
3399.000000	0.003644
3398.000000	0.003638
3397.000000	0.003640
3396.000000	0.003655
3395.000000	0.003679
3394.000000	0.003703
3393.000000	0.003724
3392.000000	0.003745
3391.000000	0.003768
3390.000000	0.003791
3389.000000	0.003804
3388.000000	0.003807
3387.000000	0.003806
3386.000000	0.003806
3385.000000	0.003806
3384.000000	0.003805
3383.000000	0.003806
3382.000000	0.003817
3381.000000	0.003837
3380.000000	0.003856
3379.000000	0.003864
3378.000000	0.003858
3377.000000	0.003845
3376.000000	0.003834
3375.000000	0.003833
3374.000000	0.003846
3373.000000	0.003868
3372.000000	0.003895
3371.000000	0.003920
3370.000000	0.003943
3369.000000	0.003964
3368.000000	0.003984
3367.000000	0.004002
3366.000000	0.004021
3365.000000	0.004046
3364.000000	0.004079
3363.000000	0.004115
3362.000000	0.004148
3361.000000	0.004167
3360.000000	0.004172
3359.000000	0.004168
3358.000000	0.004169
3357.000000	0.004182
3356.000000	0.004207
3355.000000	0.004240
3354.000000	0.004275
3353.000000	0.004307
3352.000000	0.004336
3351.000000	0.004361
3350.000000	0.004386
3349.000000	0.004414
3348.000000	0.004449
3347.000000	0.004490
3346.000000	0.004529
3345.000000	0.004558
3344.000000	0.004570
3343.000000	0.004567
3342.000000	0.004557
3341.000000	0.004553
3340.000000	0.004562
3339.000000	0.004589
3338.000000	0.004630
3337.000000	0.004675
3336.000000	0.004716
3335.000000	0.004747
3334.000000	0.004771
3333.000000	0.004793
3332.000000	0.004815
3331.000000	0.004833
3330.000000	0.004838
3329.000000	0.004829
3328.000000	0.004812
3327.000000	0.004799
3326.000000	0.004802
3325.000000	0.004822
3324.000000	0.004853
3323.000000	0.004884
3322.000000	0.004906
3321.000000	0.004917
3320.000000	0.004918
3319.000000	0.004912
3318.000000	0.004905
3317.000000	0.004902
3316.000000	0.004909
3315.000000	0.004928
3314.000000	0.004952
3313.000000	0.004976
3312.000000	0.004997
3311.000000	0.005012
3310.000000	0.005015
3309.000000	0.005003
3308.000000	0.004978
3307.000000	0.004953
3306.000000	0.004941
3305.000000	0.004953
3304.000000	0.004987
3303.000000	0.005029
3302.000000	0.005063
3301.000000	0.005076
3300.000000	0.005067
3299.000000	0.005050
3298.000000	0.005041
3297.000000	0.005046
3296.000000	0.005065
3295.000000	0.005091
3294.000000	0.005120
3293.000000	0.005140
3292.000000	0.005146
3291.000000	0.005140
3290.000000	0.005132
3289.000000	0.005131
3288.000000	0.005139
3287.000000	0.005146
3286.000000	0.005147
3285.000000	0.005145
3284.000000	0.005150
3283.000000	0.005172
3282.000000	0.005205
3281.000000	0.005232
3280.000000	0.005237
3279.000000	0.005220
3278.000000	0.005195
3277.000000	0.005173
3276.000000	0.005152
3275.000000	0.005127
3274.000000	0.005095
3273.000000	0.005062
3272.000000	0.005036
3271.000000	0.005023
3270.000000	0.005023
3269.000000	0.005030
3268.000000	0.005037
3267.000000	0.005040
3266.000000	0.005035
3265.000000	0.005024
3264.000000	0.005008
3263.000000	0.004990
3262.000000	0.004974
3261.000000	0.004959
3260.000000	0.004946
3259.000000	0.004937
3258.000000	0.004933
3257.000000	0.004931
3256.000000	0.004929
3255.000000	0.004921
3254.000000	0.004907
3253.000000	0.004886
3252.000000	0.004863
3251.000000	0.004843
3250.000000	0.004829
3249.000000	0.004817
3248.000000	0.004798
3247.000000	0.004773
3246.000000	0.004752
3245.000000	0.004745
3244.000000	0.004753
3243.000000	0.004767
3242.000000	0.004779
3241.000000	0.004783
3240.000000	0.004778
3239.000000	0.004768
3238.000000	0.004758
3237.000000	0.004753
3236.000000	0.004752
3235.000000	0.004751
3234.000000	0.004743
3233.000000	0.004726
3232.000000	0.004701
3231.000000	0.004676
3230.000000	0.004659
3229.000000	0.004660
3228.000000	0.004674
3227.000000	0.004688
3226.000000	0.004683
3225.000000	0.004656
3224.000000	0.004623
3223.000000	0.004603
3222.000000	0.004605
3221.000000	0.004620
3220.000000	0.004633
3219.000000	0.004636
3218.000000	0.004628
3217.000000	0.004614
3216.000000	0.004596
3215.000000	0.004579
3214.000000	0.004568
3213.000000	0.004570
3212.000000	0.004580
3211.000000	0.004591
3210.000000	0.004597
3209.000000	0.004594
3208.000000	0.004580
3207.000000	0.004557
3206.000000	0.004532
3205.000000	0.004518
3204.000000	0.004519
3203.000000	0.004524
3202.000000	0.004520
3201.000000	0.004501
3200.000000	0.004472
3199.000000	0.004446
3198.000000	0.004433
3197.000000	0.004435
3196.000000	0.004450
3195.000000	0.004470
3194.000000	0.004484
3193.000000	0.004484
3192.000000	0.004468
3191.000000	0.004442
3190.000000	0.004414
3189.000000	0.004388
3188.000000	0.004365
3187.000000	0.004347
3186.000000	0.004339
3185.000000	0.004342
3184.000000	0.004349
3183.000000	0.004351
3182.000000	0.004339
3181.000000	0.004310
3180.000000	0.004268
3179.000000	0.004225
3178.000000	0.004196
3177.000000	0.004186
3176.000000	0.004189
3175.000000	0.004191
3174.000000	0.004182
3173.000000	0.004165
3172.000000	0.004146
3171.000000	0.004127
3170.000000	0.004107
3169.000000	0.004084
3168.000000	0.004061
3167.000000	0.004039
3166.000000	0.004016
3165.000000	0.003994
3164.000000	0.003982
3163.000000	0.003987
3162.000000	0.004009
3161.000000	0.004036
3160.000000	0.004050
3159.000000	0.004045
3158.000000	0.004023
3157.000000	0.003994
3156.000000	0.003966
3155.000000	0.003940
3154.000000	0.003914
3153.000000	0.003888
3152.000000	0.003869
3151.000000	0.003861
3150.000000	0.003865
3149.000000	0.003875
3148.000000	0.003883
3147.000000	0.003884
3146.000000	0.003876
3145.000000	0.003858
3144.000000	0.003833
3143.000000	0.003805
3142.000000	0.003782
3141.000000	0.003773
3140.000000	0.003779
3139.000000	0.003792
3138.000000	0.003800
3137.000000	0.003795
3136.000000	0.003782
3135.000000	0.003772
3134.000000	0.003773
3133.000000	0.003782
3132.000000	0.003786
3131.000000	0.003778
3130.000000	0.003758
3129.000000	0.003730
3128.000000	0.003702
3127.000000	0.003679
3126.000000	0.003670
3125.000000	0.003677
3124.000000	0.003700
3123.000000	0.003731
3122.000000	0.003754
3121.000000	0.003759
3120.000000	0.003740
3119.000000	0.003706
3118.000000	0.003669
3117.000000	0.003642
3116.000000	0.003631
3115.000000	0.003638
3114.000000	0.003661
3113.000000	0.003694
3112.000000	0.003725
3111.000000	0.003746
3110.000000	0.003757
3109.000000	0.003761
3108.000000	0.003760
3107.000000	0.003755
3106.000000	0.003754
3105.000000	0.003763
3104.000000	0.003776
3103.000000	0.003784
3102.000000	0.003777
3101.000000	0.003765
3100.000000	0.003761
3099.000000	0.003773
3098.000000	0.003798
3097.000000	0.003821
3096.000000	0.003832
3095.000000	0.003823
3094.000000	0.003801
3093.000000	0.003784
3092.000000	0.003789
3091.000000	0.003812
3090.000000	0.003834
3089.000000	0.003839
3088.000000	0.003827
3087.000000	0.003815
3086.000000	0.003816
3085.000000	0.003830
3084.000000	0.003852
3083.000000	0.003876
3082.000000	0.003897
3081.000000	0.003900
3080.000000	0.003878
3079.000000	0.003839
3078.000000	0.003805
3077.000000	0.003794
3076.000000	0.003808
3075.000000	0.003832
3074.000000	0.003849
3073.000000	0.003850
3072.000000	0.003837
3071.000000	0.003824
3070.000000	0.003823
3069.000000	0.003840
3068.000000	0.003861
3067.000000	0.003873
3066.000000	0.003871
3065.000000	0.003862
3064.000000	0.003857
3063.000000	0.003858
3062.000000	0.003864
3061.000000	0.003871
3060.000000	0.003876
3059.000000	0.003873
3058.000000	0.003860
3057.000000	0.003842
3056.000000	0.003825
3055.000000	0.003811
3054.000000	0.003797
3053.000000	0.003778
3052.000000	0.003756
3051.000000	0.003739
3050.000000	0.003733
3049.000000	0.003734
3048.000000	0.003729
3047.000000	0.003711
3046.000000	0.003684
3045.000000	0.003659
3044.000000	0.003642
3043.000000	0.003627
3042.000000	0.003610
3041.000000	0.003592
3040.000000	0.003580
3039.000000	0.003573
3038.000000	0.003567
3037.000000	0.003555
3036.000000	0.003536
3035.000000	0.003514
3034.000000	0.003491
3033.000000	0.003470
3032.000000	0.003455
3031.000000	0.003445
3030.000000	0.003440
3029.000000	0.003439
3028.000000	0.003440
3027.000000	0.003445
3026.000000	0.003454
3025.000000	0.003464
3024.000000	0.003469
3023.000000	0.003464
3022.000000	0.003448
3021.000000	0.003426
3020.000000	0.003408
3019.000000	0.003395
3018.000000	0.003383
3017.000000	0.003368
3016.000000	0.003354
3015.000000	0.003347
3014.000000	0.003347
3013.000000	0.003346
3012.000000	0.003339
3011.000000	0.003324
3010.000000	0.003309
3009.000000	0.003298
3008.000000	0.003291
3007.000000	0.003287
3006.000000	0.003286
3005.000000	0.003281
3004.000000	0.003268
3003.000000	0.003247
3002.000000	0.003220
3001.000000	0.003192
3000.000000	0.003167
2999.000000	0.003152
2998.000000	0.003153
2997.000000	0.003171
2996.000000	0.003203
2995.000000	0.003241
2994.000000	0.003278
2993.000000	0.003308
2992.000000	0.003328
2991.000000	0.003339
2990.000000	0.003349
2989.000000	0.003367
2988.000000	0.003395
2987.000000	0.003427
2986.000000	0.003452
2985.000000	0.003467
2984.000000	0.003472
2983.000000	0.003471
2982.000000	0.003466
2981.000000	0.003457
2980.000000	0.003445
2979.000000	0.003438
2978.000000	0.003439
2977.000000	0.003445
2976.000000	0.003449
2975.000000	0.003446
2974.000000	0.003437
2973.000000	0.003424
2972.000000	0.003414
2971.000000	0.003411
2970.000000	0.003419
2969.000000	0.003436
2968.000000	0.003454
2967.000000	0.003468
2966.000000	0.003474
2965.000000	0.003474
2964.000000	0.003469
2963.000000	0.003463
2962.000000	0.003458
2961.000000	0.003458
2960.000000	0.003461
2959.000000	0.003463
2958.000000	0.003461
2957.000000	0.003455
2956.000000	0.003449
2955.000000	0.003446
2954.000000	0.003447
2953.000000	0.003456
2952.000000	0.003472
2951.000000	0.003493
2950.000000	0.003514
2949.000000	0.003534
2948.000000	0.003552
2947.000000	0.003566
2946.000000	0.003572
2945.000000	0.003563
2944.000000	0.003542
2943.000000	0.003519
2942.000000	0.003510
2941.000000	0.003522
2940.000000	0.003545
2939.000000	0.003565
2938.000000	0.003571
2937.000000	0.003568
2936.000000	0.003567
2935.000000	0.003574
2934.000000	0.003581
2933.000000	0.003581
2932.000000	0.003570
2931.000000	0.003555
2930.000000	0.003541
2929.000000	0.003528
2928.000000	0.003515
2927.000000	0.003501
2926.000000	0.003494
2925.000000	0.003498
2924.000000	0.003507
2923.000000	0.003515
2922.000000	0.003522
2921.000000	0.003535
2920.000000	0.003563
2919.000000	0.003599
2918.000000	0.003632
2917.000000	0.003649
2916.000000	0.003650
2915.000000	0.003642
2914.000000	0.003631
2913.000000	0.003614
2912.000000	0.003588
2911.000000	0.003551
2910.000000	0.003511
2909.000000	0.003471
2908.000000	0.003433
2907.000000	0.003399
2906.000000	0.003374
2905.000000	0.003360
2904.000000	0.003358
2903.000000	0.003361
2902.000000	0.003367
2901.000000	0.003375
2900.000000	0.003379
2899.000000	0.003374
2898.000000	0.003360
2897.000000	0.003345
2896.000000	0.003338
2895.000000	0.003343
2894.000000	0.003357
2893.000000	0.003376
2892.000000	0.003398
2891.000000	0.003418
2890.000000	0.003434
2889.000000	0.003443
2888.000000	0.003444
2887.000000	0.003434
2886.000000	0.003416
2885.000000	0.003396
2884.000000	0.003383
2883.000000	0.003380
2882.000000	0.003387
2881.000000	0.003403
2880.000000	0.003425
2879.000000	0.003450
2878.000000	0.003465
2877.000000	0.003462
2876.000000	0.003443
2875.000000	0.003414
2874.000000	0.003389
2873.000000	0.003376
2872.000000	0.003376
2871.000000	0.003380
2870.000000	0.003379
2869.000000	0.003368
2868.000000	0.003350
2867.000000	0.003328
2866.000000	0.003307
2865.000000	0.003291
2864.000000	0.003283
2863.000000	0.003280
2862.000000	0.003273
2861.000000	0.003259
2860.000000	0.003240
2859.000000	0.003218
2858.000000	0.003193
2857.000000	0.003162
2856.000000	0.003132
2855.000000	0.003118
2854.000000	0.003131
2853.000000	0.003166
2852.000000	0.003208
2851.000000	0.003246
2850.000000	0.003275
2849.000000	0.003294
2848.000000	0.003298
2847.000000	0.003286
2846.000000	0.003262
2845.000000	0.003241
2844.000000	0.003230
2843.000000	0.003228
2842.000000	0.003224
2841.000000	0.003208
2840.000000	0.003178
2839.000000	0.003143
2838.000000	0.003119
2837.000000	0.003118
2836.000000	0.003136
2835.000000	0.003158
2834.000000	0.003166
2833.000000	0.003154
2832.000000	0.003133
2831.000000	0.003116
2830.000000	0.003110
2829.000000	0.003111
2828.000000	0.003114
2827.000000	0.003120
2826.000000	0.003126
2825.000000	0.003126
2824.000000	0.003118
2823.000000	0.003102
2822.000000	0.003082
2821.000000	0.003067
2820.000000	0.003062
2819.000000	0.003066
2818.000000	0.003074
2817.000000	0.003077
2816.000000	0.003072
2815.000000	0.003064
2814.000000	0.003066
2813.000000	0.003081
2812.000000	0.003101
2811.000000	0.003113
2810.000000	0.003113
2809.000000	0.003106
2808.000000	0.003100
2807.000000	0.003103
2806.000000	0.003115
2805.000000	0.003134
2804.000000	0.003151
2803.000000	0.003158
2802.000000	0.003151
2801.000000	0.003136
2800.000000	0.003125
2799.000000	0.003121
2798.000000	0.003120
2797.000000	0.003116
2796.000000	0.003107
2795.000000	0.003094
2794.000000	0.003080
2793.000000	0.003064
2792.000000	0.003050
2791.000000	0.003039
2790.000000	0.003029
2789.000000	0.003021
2788.000000	0.003013
2787.000000	0.003010
2786.000000	0.003017
2785.000000	0.003031
2784.000000	0.003043
2783.000000	0.003043
2782.000000	0.003029
2781.000000	0.003008
2780.000000	0.002990
2779.000000	0.002981
2778.000000	0.002978
2777.000000	0.002975
2776.000000	0.002965
2775.000000	0.002951
2774.000000	0.002940
2773.000000	0.002938
2772.000000	0.002942
2771.000000	0.002943
2770.000000	0.002934
2769.000000	0.002921
2768.000000	0.002917
2767.000000	0.002929
2766.000000	0.002948
2765.000000	0.002965
2764.000000	0.002974
2763.000000	0.002978
2762.000000	0.002983
2761.000000	0.002992
2760.000000	0.003006
2759.000000	0.003017
2758.000000	0.003022
2757.000000	0.003016
2756.000000	0.003002
2755.000000	0.002982
2754.000000	0.002958
2753.000000	0.002929
2752.000000	0.002899
2751.000000	0.002879
2750.000000	0.002876
2749.000000	0.002894
2748.000000	0.002921
2747.000000	0.002942
2746.000000	0.002946
2745.000000	0.002932
2744.000000	0.002910
2743.000000	0.002898
2742.000000	0.002902
2741.000000	0.002913
2740.000000	0.002919
2739.000000	0.002913
2738.000000	0.002902
2737.000000	0.002889
2736.000000	0.002876
2735.000000	0.002862
2734.000000	0.002853
2733.000000	0.002854
2732.000000	0.002857
2731.000000	0.002852
2730.000000	0.002834
2729.000000	0.002813
2728.000000	0.002802
2727.000000	0.002806
2726.000000	0.002817
2725.000000	0.002821
2724.000000	0.002814
2723.000000	0.002800
2722.000000	0.002793
2721.000000	0.002799
2720.000000	0.002812
2719.000000	0.002820
2718.000000	0.002820
2717.000000	0.002819
2716.000000	0.002820
2715.000000	0.002817
2714.000000	0.002802
2713.000000	0.002778
2712.000000	0.002759
2711.000000	0.002757
2710.000000	0.002772
2709.000000	0.002789
2708.000000	0.002798
2707.000000	0.002794
2706.000000	0.002784
2705.000000	0.002776
2704.000000	0.002776
2703.000000	0.002785
2702.000000	0.002798
2701.000000	0.002810
2700.000000	0.002813
2699.000000	0.002804
2698.000000	0.002784
2697.000000	0.002764
2696.000000	0.002756
2695.000000	0.002762
2694.000000	0.002775
2693.000000	0.002782
2692.000000	0.002780
2691.000000	0.002773
2690.000000	0.002769
2689.000000	0.002766
2688.000000	0.002759
2687.000000	0.002745
2686.000000	0.002732
2685.000000	0.002729
2684.000000	0.002737
2683.000000	0.002745
2682.000000	0.002748
2681.000000	0.002751
2680.000000	0.002759
2679.000000	0.002771
2678.000000	0.002774
2677.000000	0.002762
2676.000000	0.002738
2675.000000	0.002717
2674.000000	0.002709
2673.000000	0.002717
2672.000000	0.002731
2671.000000	0.002745
2670.000000	0.002752
2669.000000	0.002756
2668.000000	0.002760
2667.000000	0.002766
2666.000000	0.002773
2665.000000	0.002777
2664.000000	0.002777
2663.000000	0.002773
2662.000000	0.002768
2661.000000	0.002763
2660.000000	0.002759
2659.000000	0.002754
2658.000000	0.002747
2657.000000	0.002738
2656.000000	0.002730
2655.000000	0.002722
2654.000000	0.002715
2653.000000	0.002712
2652.000000	0.002713
2651.000000	0.002714
2650.000000	0.002709
2649.000000	0.002694
2648.000000	0.002671
2647.000000	0.002646
2646.000000	0.002622
2645.000000	0.002602
2644.000000	0.002593
2643.000000	0.002594
2642.000000	0.002601
2641.000000	0.002603
2640.000000	0.002593
2639.000000	0.002567
2638.000000	0.002526
2637.000000	0.002483
2636.000000	0.002457
2635.000000	0.002458
2634.000000	0.002473
2633.000000	0.002481
2632.000000	0.002471
2631.000000	0.002455
2630.000000	0.002451
2629.000000	0.002457
2628.000000	0.002461
2627.000000	0.002452
2626.000000	0.002428
2625.000000	0.002402
2624.000000	0.002385
2623.000000	0.002382
2622.000000	0.002387
2621.000000	0.002384
2620.000000	0.002362
2619.000000	0.002328
2618.000000	0.002299
2617.000000	0.002287
2616.000000	0.002289
2615.000000	0.002296
2614.000000	0.002303
2613.000000	0.002308
2612.000000	0.002305
2611.000000	0.002293
2610.000000	0.002276
2609.000000	0.002265
2608.000000	0.002263
2607.000000	0.002260
2606.000000	0.002243
2605.000000	0.002216
2604.000000	0.002193
2603.000000	0.002190
2602.000000	0.002207
2601.000000	0.002229
2600.000000	0.002237
2599.000000	0.002223
2598.000000	0.002188
2597.000000	0.002145
2596.000000	0.002101
2595.000000	0.002065
2594.000000	0.002049
2593.000000	0.002068
2592.000000	0.002122
2591.000000	0.002190
2590.000000	0.002237
2589.000000	0.002241
2588.000000	0.002204
2587.000000	0.002147
2586.000000	0.002097
2585.000000	0.002068
2584.000000	0.002059
2583.000000	0.002060
2582.000000	0.002067
2581.000000	0.002077
2580.000000	0.002086
2579.000000	0.002088
2578.000000	0.002074
2577.000000	0.002052
2576.000000	0.002036
2575.000000	0.002039
2574.000000	0.002057
2573.000000	0.002077
2572.000000	0.002087
2571.000000	0.002088
2570.000000	0.002089
2569.000000	0.002095
2568.000000	0.002100
2567.000000	0.002091
2566.000000	0.002070
2565.000000	0.002047
2564.000000	0.002028
2563.000000	0.002012
2562.000000	0.002000
2561.000000	0.002002
2560.000000	0.002025
2559.000000	0.002062
2558.000000	0.002093
2557.000000	0.002098
2556.000000	0.002074
2555.000000	0.002028
2554.000000	0.001978
2553.000000	0.001949
2552.000000	0.001960
2551.000000	0.002003
2550.000000	0.002048
2549.000000	0.002071
2548.000000	0.002071
2547.000000	0.002071
2546.000000	0.002086
2545.000000	0.002110
2544.000000	0.002121
2543.000000	0.002098
2542.000000	0.002039
2541.000000	0.001969
2540.000000	0.001927
2539.000000	0.001934
2538.000000	0.001979
2537.000000	0.002022
2536.000000	0.002033
2535.000000	0.002013
2534.000000	0.001984
2533.000000	0.001966
2532.000000	0.001963
2531.000000	0.001966
2530.000000	0.001970
2529.000000	0.001980
2528.000000	0.001996
2527.000000	0.002006
2526.000000	0.001995
2525.000000	0.001966
2524.000000	0.001942
2523.000000	0.001944
2522.000000	0.001967
2521.000000	0.001989
2520.000000	0.001995
2519.000000	0.001989
2518.000000	0.001982
2517.000000	0.001987
2516.000000	0.002008
2515.000000	0.002040
2514.000000	0.002067
2513.000000	0.002068
2512.000000	0.002039
2511.000000	0.001997
2510.000000	0.001966
2509.000000	0.001954
2508.000000	0.001957
2507.000000	0.001966
2506.000000	0.001971
2505.000000	0.001968
2504.000000	0.001961
2503.000000	0.001963
2502.000000	0.001979
2501.000000	0.001999
2500.000000	0.002007
2499.000000	0.001998
2498.000000	0.001983
2497.000000	0.001976
2496.000000	0.001982
2495.000000	0.001992
2494.000000	0.001995
2493.000000	0.001982
2492.000000	0.001964
2491.000000	0.001962
2490.000000	0.001988
2489.000000	0.002030
2488.000000	0.002056
2487.000000	0.002050
2486.000000	0.002024
2485.000000	0.002003
2484.000000	0.001998
2483.000000	0.002004
2482.000000	0.002014
2481.000000	0.002023
2480.000000	0.002030
2479.000000	0.002032
2478.000000	0.002029
2477.000000	0.002027
2476.000000	0.002029
2475.000000	0.002031
2474.000000	0.002025
2473.000000	0.002004
2472.000000	0.001974
2471.000000	0.001948
2470.000000	0.001940
2469.000000	0.001951
2468.000000	0.001964
2467.000000	0.001963
2466.000000	0.001943
2465.000000	0.001922
2464.000000	0.001923
2463.000000	0.001948
2462.000000	0.001976
2461.000000	0.001982
2460.000000	0.001965
2459.000000	0.001943
2458.000000	0.001931
2457.000000	0.001928
2456.000000	0.001927
2455.000000	0.001930
2454.000000	0.001942
2453.000000	0.001961
2452.000000	0.001973
2451.000000	0.001971
2450.000000	0.001962
2449.000000	0.001954
2448.000000	0.001954
2447.000000	0.001957
2446.000000	0.001956
2445.000000	0.001948
2444.000000	0.001936
2443.000000	0.001928
2442.000000	0.001922
2441.000000	0.001907
2440.000000	0.001881
2439.000000	0.001859
2438.000000	0.001860
2437.000000	0.001884
2436.000000	0.001906
2435.000000	0.001910
2434.000000	0.001904
2433.000000	0.001908
2432.000000	0.001920
2431.000000	0.001922
2430.000000	0.001898
2429.000000	0.001854
2428.000000	0.001818
2427.000000	0.001820
2426.000000	0.001866
2425.000000	0.001929
2424.000000	0.001965
2423.000000	0.001950
2422.000000	0.001897
2421.000000	0.001841
2420.000000	0.001807
2419.000000	0.001802
2418.000000	0.001823
2417.000000	0.001852
2416.000000	0.001873
2415.000000	0.001875
2414.000000	0.001863
2413.000000	0.001853
2412.000000	0.001851
2411.000000	0.001857
2410.000000	0.001870
2409.000000	0.001891
2408.000000	0.001907
2407.000000	0.001897
2406.000000	0.001854
2405.000000	0.001806
2404.000000	0.001789
2403.000000	0.001816
2402.000000	0.001869
2401.000000	0.001916
2400.000000	0.001939
2399.000000	0.001942
2398.000000	0.001936
2397.000000	0.001935
2396.000000	0.001939
2395.000000	0.001942
2394.000000	0.001936
2393.000000	0.001922
2392.000000	0.001905
2391.000000	0.001889
2390.000000	0.001872
2389.000000	0.001855
2388.000000	0.001841
2387.000000	0.001829
2386.000000	0.001820
2385.000000	0.001813
2384.000000	0.001811
2383.000000	0.001815
2382.000000	0.001827
2381.000000	0.001844
2380.000000	0.001859
2379.000000	0.001862
2378.000000	0.001853
2377.000000	0.001841
2376.000000	0.001834
2375.000000	0.001831
2374.000000	0.001828
2373.000000	0.001824
2372.000000	0.001822
2371.000000	0.001823
2370.000000	0.001829
2369.000000	0.001834
2368.000000	0.001824
2367.000000	0.001789
2366.000000	0.001737
2365.000000	0.001709
2364.000000	0.001738
2363.000000	0.001814
2362.000000	0.001880
2361.000000	0.001884
2360.000000	0.001833
2359.000000	0.001782
2358.000000	0.001771
2357.000000	0.001799
2356.000000	0.001827
2355.000000	0.001840
2354.000000	0.001847
2353.000000	0.001858
2352.000000	0.001861
2351.000000	0.001848
2350.000000	0.001840
2349.000000	0.001852
2348.000000	0.001884
2347.000000	0.001913
2346.000000	0.001909
2345.000000	0.001875
2344.000000	0.001847
2343.000000	0.001857
2342.000000	0.001886
2341.000000	0.001897
2340.000000	0.001891
2339.000000	0.001886
2338.000000	0.001893
2337.000000	0.001903
2336.000000	0.001915
2335.000000	0.001924
2334.000000	0.001927
2333.000000	0.001918
2332.000000	0.001909
2331.000000	0.001901
2330.000000	0.001901
2329.000000	0.001897
2328.000000	0.001912
2327.000000	0.001962
2326.000000	0.002041
2325.000000	0.002105
2324.000000	0.002113
2323.000000	0.002074
2322.000000	0.002033
2321.000000	0.002019
2320.000000	0.002022
2319.000000	0.001998
2318.000000	0.001937
2317.000000	0.001857
2316.000000	0.001806
2315.000000	0.001801
2314.000000	0.001842
2313.000000	0.001897
2312.000000	0.001940
2311.000000	0.001945
2310.000000	0.001912
2309.000000	0.001856
2308.000000	0.001808
2307.000000	0.001786
2306.000000	0.001791
2305.000000	0.001808
2304.000000	0.001828
2303.000000	0.001855
2302.000000	0.001893
2301.000000	0.001926
2300.000000	0.001944
2299.000000	0.001939
2298.000000	0.001927
2297.000000	0.001923
2296.000000	0.001936
2295.000000	0.001960
2294.000000	0.001982
2293.000000	0.001996
2292.000000	0.002011
2291.000000	0.002037
2290.000000	0.002070
2289.000000	0.002085
2288.000000	0.002071
2287.000000	0.002037
2286.000000	0.002000
2285.000000	0.001957
2284.000000	0.001904
2283.000000	0.001854
2282.000000	0.001836
2281.000000	0.001856
2280.000000	0.001893
2279.000000	0.001920
2278.000000	0.001925
2277.000000	0.001905
2276.000000	0.001858
2275.000000	0.001794
2274.000000	0.001750
2273.000000	0.001762
2272.000000	0.001825
2271.000000	0.001901
2270.000000	0.001953
2269.000000	0.001983
2268.000000	0.002008
2267.000000	0.002026
2266.000000	0.002012
2265.000000	0.001952
2264.000000	0.001877
2263.000000	0.001843
2262.000000	0.001875
2261.000000	0.001943
2260.000000	0.001992
2259.000000	0.001996
2258.000000	0.001967
2257.000000	0.001930
2256.000000	0.001897
2255.000000	0.001858
2254.000000	0.001805
2253.000000	0.001744
2252.000000	0.001704
2251.000000	0.001721
2250.000000	0.001795
2249.000000	0.001877
2248.000000	0.001905
2247.000000	0.001867
2246.000000	0.001817
2245.000000	0.001818
2244.000000	0.001873
2243.000000	0.001926
2242.000000	0.001906
2241.000000	0.001788
2240.000000	0.001618
2239.000000	0.001483
2238.000000	0.001459
2237.000000	0.001556
2236.000000	0.001713
2235.000000	0.001844
2234.000000	0.001897
2233.000000	0.001878
2232.000000	0.001832
2231.000000	0.001806
2230.000000	0.001822
2229.000000	0.001872
2228.000000	0.001935
2227.000000	0.001988
2226.000000	0.002004
2225.000000	0.001963
2224.000000	0.001874
2223.000000	0.001784
2222.000000	0.001743
2221.000000	0.001752
2220.000000	0.001775
2219.000000	0.001792
2218.000000	0.001825
2217.000000	0.001893
2216.000000	0.001963
2215.000000	0.001971
2214.000000	0.001891
2213.000000	0.001761
2212.000000	0.001651
2211.000000	0.001624
2210.000000	0.001693
2209.000000	0.001809
2208.000000	0.001890
2207.000000	0.001878
2206.000000	0.001788
2205.000000	0.001695
2204.000000	0.001670
2203.000000	0.001725
2202.000000	0.001821
2201.000000	0.001905
2200.000000	0.001948
2199.000000	0.001965
2198.000000	0.001989
2197.000000	0.002035
2196.000000	0.002070
2195.000000	0.002045
2194.000000	0.001943
2193.000000	0.001794
2192.000000	0.001657
2191.000000	0.001582
2190.000000	0.001580
2189.000000	0.001629
2188.000000	0.001692
2187.000000	0.001742
2186.000000	0.001756
2185.000000	0.001720
2184.000000	0.001644
2183.000000	0.001574
2182.000000	0.001574
2181.000000	0.001661
2180.000000	0.001808
2179.000000	0.001983
2178.000000	0.002177
2177.000000	0.002351
2176.000000	0.002421
2175.000000	0.002328
2174.000000	0.002117
2173.000000	0.001910
2172.000000	0.001806
2171.000000	0.001817
2170.000000	0.001897
2169.000000	0.001988
2168.000000	0.002045
2167.000000	0.002046
2166.000000	0.002000
2165.000000	0.001953
2164.000000	0.001946
2163.000000	0.001963
2162.000000	0.001922
2161.000000	0.001732
2160.000000	0.001400
2159.000000	0.001079
2158.000000	0.000940
2157.000000	0.001004
2156.000000	0.001150
2155.000000	0.001268
2154.000000	0.001327
2153.000000	0.001321
2152.000000	0.001241
2151.000000	0.001118
2150.000000	0.001026
2149.000000	0.001019
2148.000000	0.001075
2147.000000	0.001150
2146.000000	0.001243
2145.000000	0.001376
2144.000000	0.001511
2143.000000	0.001563
2142.000000	0.001487
2141.000000	0.001340
2140.000000	0.001230
2139.000000	0.001229
2138.000000	0.001316
2137.000000	0.001407
2136.000000	0.001426
2135.000000	0.001355
2134.000000	0.001244
2133.000000	0.001164
2132.000000	0.001167
2131.000000	0.001256
2130.000000	0.001389
2129.000000	0.001496
2128.000000	0.001529
2127.000000	0.001507
2126.000000	0.001504
2125.000000	0.001568
2124.000000	0.001674
2123.000000	0.001756
2122.000000	0.001782
2121.000000	0.001772
2120.000000	0.001763
2119.000000	0.001760
2118.000000	0.001740
2117.000000	0.001680
2116.000000	0.001590
2115.000000	0.001517
2114.000000	0.001507
2113.000000	0.001562
2112.000000	0.001633
2111.000000	0.001671
2110.000000	0.001671
2109.000000	0.001658
2108.000000	0.001648
2107.000000	0.001644
2106.000000	0.001650
2105.000000	0.001675
2104.000000	0.001718
2103.000000	0.001768
2102.000000	0.001821
2101.000000	0.001881
2100.000000	0.001938
2099.000000	0.001959
2098.000000	0.001927
2097.000000	0.001864
2096.000000	0.001812
2095.000000	0.001790
2094.000000	0.001785
2093.000000	0.001779
2092.000000	0.001770
2091.000000	0.001778
2090.000000	0.001815
2089.000000	0.001869
2088.000000	0.001911
2087.000000	0.001912
2086.000000	0.001867
2085.000000	0.001785
2084.000000	0.001689
2083.000000	0.001614
2082.000000	0.001595
2081.000000	0.001639
2080.000000	0.001716
2079.000000	0.001778
2078.000000	0.001794
2077.000000	0.001768
2076.000000	0.001716
2075.000000	0.001653
2074.000000	0.001591
2073.000000	0.001551
2072.000000	0.001564
2071.000000	0.001647
2070.000000	0.001767
2069.000000	0.001852
2068.000000	0.001852
2067.000000	0.001801
2066.000000	0.001783
2065.000000	0.001833
2064.000000	0.001889
2063.000000	0.001868
2062.000000	0.001754
2061.000000	0.001599
2060.000000	0.001464
2059.000000	0.001390
2058.000000	0.001400
2057.000000	0.001485
2056.000000	0.001599
2055.000000	0.001694
2054.000000	0.001759
2053.000000	0.001799
2052.000000	0.001804
2051.000000	0.001751
2050.000000	0.001647
2049.000000	0.001540
2048.000000	0.001474
2047.000000	0.001473
2046.000000	0.001536
2045.000000	0.001626
2044.000000	0.001659
2043.000000	0.001572
2042.000000	0.001405
2041.000000	0.001262
2040.000000	0.001191
2039.000000	0.001139
2038.000000	0.001050
2037.000000	0.000937
2036.000000	0.000840
2035.000000	0.000778
2034.000000	0.000777
2033.000000	0.000901
2032.000000	0.001193
2031.000000	0.001588
2030.000000	0.001946
2029.000000	0.002145
2028.000000	0.002155
2027.000000	0.002041
2026.000000	0.001920
2025.000000	0.001873
2024.000000	0.001878
2023.000000	0.001822
2022.000000	0.001612
2021.000000	0.001287
2020.000000	0.000995
2019.000000	0.000873
2018.000000	0.000936
2017.000000	0.001072
2016.000000	0.001147
2015.000000	0.001111
2014.000000	0.001018
2013.000000	0.000952
2012.000000	0.000955
2011.000000	0.001029
2010.000000	0.001154
2009.000000	0.001296
2008.000000	0.001405
2007.000000	0.001451
2006.000000	0.001445
2005.000000	0.001408
2004.000000	0.001347
2003.000000	0.001279
2002.000000	0.001246
2001.000000	0.001267
2000.000000	0.001306
1999.000000	0.001326
1998.000000	0.001331
1997.000000	0.001334
1996.000000	0.001297
1995.000000	0.001169
1994.000000	0.000986
1993.000000	0.000869
1992.000000	0.000908
1991.000000	0.001075
1990.000000	0.001279
1989.000000	0.001460
1988.000000	0.001590
1987.000000	0.001651
1986.000000	0.001639
1985.000000	0.001587
1984.000000	0.001559
1983.000000	0.001598
1982.000000	0.001700
1981.000000	0.001816
1980.000000	0.001889
1979.000000	0.001895
1978.000000	0.001856
1977.000000	0.001789
1976.000000	0.001689
1975.000000	0.001560
1974.000000	0.001451
1973.000000	0.001391
1972.000000	0.001335
1971.000000	0.001204
1970.000000	0.000991
1969.000000	0.000772
1968.000000	0.000626
1967.000000	0.000577
1966.000000	0.000631
1965.000000	0.000796
1964.000000	0.001043
1963.000000	0.001286
1962.000000	0.001438
1961.000000	0.001476
1960.000000	0.001451
1959.000000	0.001429
1958.000000	0.001440
1957.000000	0.001469
1956.000000	0.001502
1955.000000	0.001545
1954.000000	0.001606
1953.000000	0.001646
1952.000000	0.001596
1951.000000	0.001439
1950.000000	0.001250
1949.000000	0.001133
1948.000000	0.001104
1947.000000	0.001102
1946.000000	0.001100
1945.000000	0.001143
1944.000000	0.001267
1943.000000	0.001412
1942.000000	0.001474
1941.000000	0.001430
1940.000000	0.001357
1939.000000	0.001324
1938.000000	0.001335
1937.000000	0.001350
1936.000000	0.001340
1935.000000	0.001307
1934.000000	0.001262
1933.000000	0.001219
1932.000000	0.001205
1931.000000	0.001244
1930.000000	0.001324
1929.000000	0.001398
1928.000000	0.001425
1927.000000	0.001423
1926.000000	0.001445
1925.000000	0.001517
1924.000000	0.001603
1923.000000	0.001631
1922.000000	0.001570
1921.000000	0.001448
1920.000000	0.001317
1919.000000	0.001228
1918.000000	0.001209
1917.000000	0.001259
1916.000000	0.001338
1915.000000	0.001409
1914.000000	0.001451
1913.000000	0.001452
1912.000000	0.001414
1911.000000	0.001360
1910.000000	0.001331
1909.000000	0.001344
1908.000000	0.001369
1907.000000	0.001381
1906.000000	0.001392
1905.000000	0.001428
1904.000000	0.001481
1903.000000	0.001513
1902.000000	0.001510
1901.000000	0.001487
1900.000000	0.001462
1899.000000	0.001441
1898.000000	0.001426
1897.000000	0.001428
1896.000000	0.001444
1895.000000	0.001454
1894.000000	0.001453
1893.000000	0.001454
1892.000000	0.001463
1891.000000	0.001470
1890.000000	0.001460
1889.000000	0.001431
1888.000000	0.001388
1887.000000	0.001337
1886.000000	0.001290
1885.000000	0.001263
1884.000000	0.001265
1883.000000	0.001295
1882.000000	0.001351
1881.000000	0.001421
1880.000000	0.001477
1879.000000	0.001484
1878.000000	0.001444
1877.000000	0.001397
1876.000000	0.001383
1875.000000	0.001402
1874.000000	0.001429
1873.000000	0.001443
1872.000000	0.001442
1871.000000	0.001427
1870.000000	0.001392
1869.000000	0.001339
1868.000000	0.001277
1867.000000	0.001226
1866.000000	0.001212
1865.000000	0.001239
1864.000000	0.001287
1863.000000	0.001325
1862.000000	0.001339
1861.000000	0.001339
1860.000000	0.001340
1859.000000	0.001343
1858.000000	0.001338
1857.000000	0.001321
1856.000000	0.001303
1855.000000	0.001300
1854.000000	0.001316
1853.000000	0.001341
1852.000000	0.001354
1851.000000	0.001353
1850.000000	0.001351
1849.000000	0.001348
1848.000000	0.001329
1847.000000	0.001294
1846.000000	0.001271
1845.000000	0.001286
1844.000000	0.001326
1843.000000	0.001356
1842.000000	0.001369
1841.000000	0.001380
1840.000000	0.001388
1839.000000	0.001379
1838.000000	0.001353
1837.000000	0.001336
1836.000000	0.001343
1835.000000	0.001355
1834.000000	0.001344
1833.000000	0.001307
1832.000000	0.001263
1831.000000	0.001234
1830.000000	0.001222
1829.000000	0.001213
1828.000000	0.001209
1827.000000	0.001231
1826.000000	0.001286
1825.000000	0.001352
1824.000000	0.001392
1823.000000	0.001391
1822.000000	0.001365
1821.000000	0.001336
1820.000000	0.001310
1819.000000	0.001289
1818.000000	0.001276
1817.000000	0.001288
1816.000000	0.001328
1815.000000	0.001374
1814.000000	0.001407
1813.000000	0.001419
1812.000000	0.001413
1811.000000	0.001392
1810.000000	0.001359
1809.000000	0.001327
1808.000000	0.001309
1807.000000	0.001302
1806.000000	0.001301
1805.000000	0.001303
1804.000000	0.001306
1803.000000	0.001310
1802.000000	0.001328
1801.000000	0.001365
1800.000000	0.001413
1799.000000	0.001453
1798.000000	0.001477
1797.000000	0.001484
1796.000000	0.001469
1795.000000	0.001429
1794.000000	0.001372
1793.000000	0.001317
1792.000000	0.001280
1791.000000	0.001261
1790.000000	0.001259
1789.000000	0.001278
1788.000000	0.001307
1787.000000	0.001323
1786.000000	0.001312
1785.000000	0.001281
1784.000000	0.001247
1783.000000	0.001226
1782.000000	0.001225
1781.000000	0.001233
1780.000000	0.001237
1779.000000	0.001235
1778.000000	0.001233
1777.000000	0.001230
1776.000000	0.001216
1775.000000	0.001194
1774.000000	0.001177
1773.000000	0.001160
1772.000000	0.001123
1771.000000	0.001063
1770.000000	0.001023
1769.000000	0.001037
1768.000000	0.001089
1767.000000	0.001127
1766.000000	0.001124
1765.000000	0.001098
1764.000000	0.001080
1763.000000	0.001080
1762.000000	0.001081
1761.000000	0.001068
1760.000000	0.001052
1759.000000	0.001046
1758.000000	0.001051
1757.000000	0.001047
1756.000000	0.001013
1755.000000	0.000963
1754.000000	0.000924
1753.000000	0.000903
1752.000000	0.000888
1751.000000	0.000869
1750.000000	0.000856
1749.000000	0.000867
1748.000000	0.000902
1747.000000	0.000938
1746.000000	0.000960
1745.000000	0.000958
1744.000000	0.000941
1743.000000	0.000916
1742.000000	0.000897
1741.000000	0.000898
1740.000000	0.000919
1739.000000	0.000936
1738.000000	0.000937
1737.000000	0.000941
1736.000000	0.000962
1735.000000	0.000986
1734.000000	0.000997
1733.000000	0.000988
1732.000000	0.000974
1731.000000	0.000979
1730.000000	0.001009
1729.000000	0.001048
1728.000000	0.001069
1727.000000	0.001067
1726.000000	0.001055
1725.000000	0.001043
1724.000000	0.001032
1723.000000	0.001002
1722.000000	0.000945
1721.000000	0.000882
1720.000000	0.000841
1719.000000	0.000824
1718.000000	0.000816
1717.000000	0.000810
1716.000000	0.000814
1715.000000	0.000835
1714.000000	0.000885
1713.000000	0.000970
1712.000000	0.001071
1711.000000	0.001165
1710.000000	0.001247
1709.000000	0.001329
1708.000000	0.001423
1707.000000	0.001541
1706.000000	0.001682
1705.000000	0.001818
1704.000000	0.001917
1703.000000	0.001998
1702.000000	0.002107
1701.000000	0.002278
1700.000000	0.002481
1699.000000	0.002637
1698.000000	0.002782
1697.000000	0.002996
1696.000000	0.003254
1695.000000	0.003454
1694.000000	0.003580
1693.000000	0.003704
1692.000000	0.003869
1691.000000	0.004051
1690.000000	0.004219
1689.000000	0.004371
1688.000000	0.004520
1687.000000	0.004682
1686.000000	0.004861
1685.000000	0.005079
1684.000000	0.005313
1683.000000	0.005496
1682.000000	0.005674
1681.000000	0.005903
1680.000000	0.006152
1679.000000	0.006370
1678.000000	0.006560
1677.000000	0.006775
1676.000000	0.007049
1675.000000	0.007346
1674.000000	0.007612
1673.000000	0.007851
1672.000000	0.008102
1671.000000	0.008376
1670.000000	0.008669
1669.000000	0.008972
1668.000000	0.009266
1667.000000	0.009529
1666.000000	0.009757
1665.000000	0.009979
1664.000000	0.010224
1663.000000	0.010480
1662.000000	0.010721
1661.000000	0.010938
1660.000000	0.011147
1659.000000	0.011346
1658.000000	0.011519
1657.000000	0.011664
1656.000000	0.011815
1655.000000	0.011997
1654.000000	0.012199
1653.000000	0.012359
1652.000000	0.012417
1651.000000	0.012411
1650.000000	0.012397
1649.000000	0.012428
1648.000000	0.012513
1647.000000	0.012610
1646.000000	0.012689
1645.000000	0.012774
1644.000000	0.012875
1643.000000	0.012973
1642.000000	0.013062
1641.000000	0.013133
1640.000000	0.013185
1639.000000	0.013228
1638.000000	0.013282
1637.000000	0.013348
1636.000000	0.013391
1635.000000	0.013386
1634.000000	0.013369
1633.000000	0.013387
1632.000000	0.013429
1631.000000	0.013456
1630.000000	0.013435
1629.000000	0.013367
1628.000000	0.013264
1627.000000	0.013129
1626.000000	0.012965
1625.000000	0.012771
1624.000000	0.012547
1623.000000	0.012307
1622.000000	0.012084
1621.000000	0.011896
1620.000000	0.011738
1619.000000	0.011586
1618.000000	0.011394
1617.000000	0.011118
1616.000000	0.010776
1615.000000	0.010441
1614.000000	0.010164
1613.000000	0.009934
1612.000000	0.009714
1611.000000	0.009482
1610.000000	0.009253
1609.000000	0.009041
1608.000000	0.008847
1607.000000	0.008663
1606.000000	0.008491
1605.000000	0.008323
1604.000000	0.008154
1603.000000	0.007995
1602.000000	0.007855
1601.000000	0.007732
1600.000000	0.007618
1599.000000	0.007510
1598.000000	0.007408
1597.000000	0.007306
1596.000000	0.007211
1595.000000	0.007144
1594.000000	0.007116
1593.000000	0.007103
1592.000000	0.007080
1591.000000	0.007049
1590.000000	0.007035
1589.000000	0.007047
1588.000000	0.007071
1587.000000	0.007097
1586.000000	0.007124
1585.000000	0.007153
1584.000000	0.007185
1583.000000	0.007235
1582.000000	0.007314
1581.000000	0.007404
1580.000000	0.007483
1579.000000	0.007570
1578.000000	0.007687
1577.000000	0.007824
1576.000000	0.007935
1575.000000	0.007999
1574.000000	0.008054
1573.000000	0.008139
1572.000000	0.008266
1571.000000	0.008425
1570.000000	0.008598
1569.000000	0.008755
1568.000000	0.008891
1567.000000	0.009039
1566.000000	0.009221
1565.000000	0.009424
1564.000000	0.009608
1563.000000	0.009763
1562.000000	0.009898
1561.000000	0.010007
1560.000000	0.010115
1559.000000	0.010302
1558.000000	0.010505
1557.000000	0.010707
1556.000000	0.010925
1555.000000	0.011136
1554.000000	0.011311
1553.000000	0.011431
1552.000000	0.011527
1551.000000	0.011632
1550.000000	0.011740
1549.000000	0.011826
1548.000000	0.011882
1547.000000	0.011921
1546.000000	0.011957
1545.000000	0.011991
1544.000000	0.012013
1543.000000	0.012017
1542.000000	0.012009
1541.000000	0.012000
1540.000000	0.011991
1539.000000	0.011972
1538.000000	0.011958
1537.000000	0.011939
1536.000000	0.011907
1535.000000	0.011852
1534.000000	0.011769
1533.000000	0.011669
1532.000000	0.011580
1531.000000	0.011502
1530.000000	0.011413
1529.000000	0.011305
1528.000000	0.011189
1527.000000	0.011066
1526.000000	0.010932
1525.000000	0.010801
1524.000000	0.010702
1523.000000	0.010633
1522.000000	0.010556
1521.000000	0.010436
1520.000000	0.010291
1519.000000	0.010157
1518.000000	0.010041
1517.000000	0.009937
1516.000000	0.009843
1515.000000	0.009769
1514.000000	0.009705
1513.000000	0.009618
1512.000000	0.009491
1511.000000	0.009341
1510.000000	0.009205
1509.000000	0.009095
1508.000000	0.008983
1507.000000	0.008795
1506.000000	0.008542
1505.000000	0.008363
1504.000000	0.008268
1503.000000	0.008192
1502.000000	0.008097
1501.000000	0.007968
1500.000000	0.007813
1499.000000	0.007653
1498.000000	0.007496
1497.000000	0.007348
1496.000000	0.007222
1495.000000	0.007113
1494.000000	0.007011
1493.000000	0.006911
1492.000000	0.006803
1491.000000	0.006670
1490.000000	0.006520
1489.000000	0.006390
1488.000000	0.006315
1487.000000	0.006278
1486.000000	0.006248
1485.000000	0.006218
1484.000000	0.006190
1483.000000	0.006174
1482.000000	0.006169
1481.000000	0.006175
1480.000000	0.006185
1479.000000	0.006193
1478.000000	0.006200
1477.000000	0.006218
1476.000000	0.006262
1475.000000	0.006326
1474.000000	0.006403
1473.000000	0.006484
1472.000000	0.006568
1471.000000	0.006663
1470.000000	0.006775
1469.000000	0.006890
1468.000000	0.006984
1467.000000	0.007046
1466.000000	0.007100
1465.000000	0.007174
1464.000000	0.007268
1463.000000	0.007362
1462.000000	0.007444
1461.000000	0.007514
1460.000000	0.007586
1459.000000	0.007680
1458.000000	0.007812
1457.000000	0.007970
1456.000000	0.008113
1455.000000	0.008234
1454.000000	0.008354
1453.000000	0.008478
1452.000000	0.008582
1451.000000	0.008637
1450.000000	0.008646
1449.000000	0.008630
1448.000000	0.008602
1447.000000	0.008564
1446.000000	0.008532
1445.000000	0.008509
1444.000000	0.008490
1443.000000	0.008464
1442.000000	0.008424
1441.000000	0.008364
1440.000000	0.008286
1439.000000	0.008187
1438.000000	0.008060
1437.000000	0.007913
1436.000000	0.007784
1435.000000	0.007702
1434.000000	0.007659
1433.000000	0.007626
1432.000000	0.007579
1431.000000	0.007516
1430.000000	0.007452
1429.000000	0.007406
1428.000000	0.007381
1427.000000	0.007366
1426.000000	0.007352
1425.000000	0.007328
1424.000000	0.007289
1423.000000	0.007244
1422.000000	0.007207
1421.000000	0.007172
1420.000000	0.007129
1419.000000	0.007089
1418.000000	0.007067
1417.000000	0.007073
1416.000000	0.007103
1415.000000	0.007139
1414.000000	0.007167
1413.000000	0.007186
1412.000000	0.007203
1411.000000	0.007223
1410.000000	0.007246
1409.000000	0.007277
1408.000000	0.007319
1407.000000	0.007364
1406.000000	0.007406
1405.000000	0.007443
1404.000000	0.007481
1403.000000	0.007519
1402.000000	0.007556
1401.000000	0.007585
1400.000000	0.007598
1399.000000	0.007592
1398.000000	0.007570
1397.000000	0.007546
1396.000000	0.007522
1395.000000	0.007495
1394.000000	0.007464
1393.000000	0.007435
1392.000000	0.007402
1391.000000	0.007352
1390.000000	0.007282
1389.000000	0.007204
1388.000000	0.007134
1387.000000	0.007076
1386.000000	0.007021
1385.000000	0.006967
1384.000000	0.006915
1383.000000	0.006865
1382.000000	0.006819
1381.000000	0.006771
1380.000000	0.006711
1379.000000	0.006630
1378.000000	0.006531
1377.000000	0.006433
1376.000000	0.006346
1375.000000	0.006272
1374.000000	0.006202
1373.000000	0.006130
1372.000000	0.006055
1371.000000	0.005974
1370.000000	0.005884
1369.000000	0.005782
1368.000000	0.005669
1367.000000	0.005552
1366.000000	0.005438
1365.000000	0.005323
1364.000000	0.005206
1363.000000	0.005091
1362.000000	0.004992
1361.000000	0.004924
1360.000000	0.004889
1359.000000	0.004879
1358.000000	0.004886
1357.000000	0.004903
1356.000000	0.004925
1355.000000	0.004949
1354.000000	0.004979
1353.000000	0.005026
1352.000000	0.005090
1351.000000	0.005168
1350.000000	0.005253
1349.000000	0.005343
1348.000000	0.005435
1347.000000	0.005527
1346.000000	0.005615
1345.000000	0.005697
1344.000000	0.005772
1343.000000	0.005846
1342.000000	0.005927
1341.000000	0.006023
1340.000000	0.006124
1339.000000	0.006212
1338.000000	0.006274
1337.000000	0.006310
1336.000000	0.006327
1335.000000	0.006327
1334.000000	0.006313
1333.000000	0.006283
1332.000000	0.006238
1331.000000	0.006180
1330.000000	0.006120
1329.000000	0.006063
1328.000000	0.006008
1327.000000	0.005947
1326.000000	0.005884
1325.000000	0.005828
1324.000000	0.005788
1323.000000	0.005760
1322.000000	0.005743
1321.000000	0.005734
1320.000000	0.005726
1319.000000	0.005713
1318.000000	0.005693
1317.000000	0.005673
1316.000000	0.005660
1315.000000	0.005650
1314.000000	0.005638
1313.000000	0.005618
1312.000000	0.005593
1311.000000	0.005562
1310.000000	0.005520
1309.000000	0.005464
1308.000000	0.005405
1307.000000	0.005356
1306.000000	0.005318
1305.000000	0.005284
1304.000000	0.005241
1303.000000	0.005193
1302.000000	0.005149
1301.000000	0.005116
1300.000000	0.005088
1299.000000	0.005059
1298.000000	0.005034
1297.000000	0.005020
1296.000000	0.005020
1295.000000	0.005032
1294.000000	0.005055
1293.000000	0.005082
1292.000000	0.005107
1291.000000	0.005124
1290.000000	0.005139
1289.000000	0.005167
1288.000000	0.005214
1287.000000	0.005272
1286.000000	0.005330
1285.000000	0.005384
1284.000000	0.005440
1283.000000	0.005498
1282.000000	0.005555
1281.000000	0.005599
1280.000000	0.005623
1279.000000	0.005622
1278.000000	0.005605
1277.000000	0.005584
1276.000000	0.005565
1275.000000	0.005552
1274.000000	0.005540
1273.000000	0.005521
1272.000000	0.005496
1271.000000	0.005474
1270.000000	0.005471
1269.000000	0.005494
1268.000000	0.005525
1267.000000	0.005542
1266.000000	0.005542
1265.000000	0.005544
1264.000000	0.005575
1263.000000	0.005640
1262.000000	0.005722
1261.000000	0.005796
1260.000000	0.005852
1259.000000	0.005901
1258.000000	0.005964
1257.000000	0.006046
1256.000000	0.006131
1255.000000	0.006203
1254.000000	0.006262
1253.000000	0.006319
1252.000000	0.006379
1251.000000	0.006440
1250.000000	0.006504
1249.000000	0.006582
1248.000000	0.006684
1247.000000	0.006805
1246.000000	0.006937
1245.000000	0.007067
1244.000000	0.007180
1243.000000	0.007267
1242.000000	0.007331
1241.000000	0.007382
1240.000000	0.007418
1239.000000	0.007436
1238.000000	0.007447
1237.000000	0.007470
1236.000000	0.007509
1235.000000	0.007538
1234.000000	0.007533
1233.000000	0.007493
1232.000000	0.007432
1231.000000	0.007349
1230.000000	0.007235
1229.000000	0.007086
1228.000000	0.006912
1227.000000	0.006727
1226.000000	0.006540
1225.000000	0.006360
1224.000000	0.006187
1223.000000	0.006015
1222.000000	0.005833
1221.000000	0.005636
1220.000000	0.005438
1219.000000	0.005266
1218.000000	0.005143
1217.000000	0.005076
1216.000000	0.005055
1215.000000	0.005067
1214.000000	0.005104
1213.000000	0.005158
1212.000000	0.005210
1211.000000	0.005246
1210.000000	0.005269
1209.000000	0.005296
1208.000000	0.005335
1207.000000	0.005379
1206.000000	0.005417
1205.000000	0.005449
1204.000000	0.005479
1203.000000	0.005502
1202.000000	0.005508
1201.000000	0.005494
1200.000000	0.005462
1199.000000	0.005412
1198.000000	0.005344
1197.000000	0.005266
1196.000000	0.005186
1195.000000	0.005101
1194.000000	0.005009
1193.000000	0.004914
1192.000000	0.004821
1191.000000	0.004729
1190.000000	0.004632
1189.000000	0.004532
1188.000000	0.004438
1187.000000	0.004351
1186.000000	0.004268
1185.000000	0.004188
1184.000000	0.004121
1183.000000	0.004066
1182.000000	0.004014
1181.000000	0.003961
1180.000000	0.003923
1179.000000	0.003913
1178.000000	0.003927
1177.000000	0.003939
1176.000000	0.003928
1175.000000	0.003897
1174.000000	0.003866
1173.000000	0.003854
1172.000000	0.003864
1171.000000	0.003880
1170.000000	0.003889
1169.000000	0.003895
1168.000000	0.003914
1167.000000	0.003953
1166.000000	0.003998
1165.000000	0.004026
1164.000000	0.004030
1163.000000	0.004017
1162.000000	0.004000
1161.000000	0.003984
1160.000000	0.003960
1159.000000	0.003922
1158.000000	0.003870
1157.000000	0.003819
1156.000000	0.003782
1155.000000	0.003754
1154.000000	0.003717
1153.000000	0.003661
1152.000000	0.003592
1151.000000	0.003524
1150.000000	0.003465
1149.000000	0.003411
1148.000000	0.003362
1147.000000	0.003319
1146.000000	0.003282
1145.000000	0.003239
1144.000000	0.003182
1143.000000	0.003117
1142.000000	0.003057
1141.000000	0.003008
1140.000000	0.002968
1139.000000	0.002943
1138.000000	0.002940
1137.000000	0.002956
1136.000000	0.002972
1135.000000	0.002971
1134.000000	0.002952
1133.000000	0.002929
1132.000000	0.002911
1131.000000	0.002896
1130.000000	0.002880
1129.000000	0.002866
1128.000000	0.002859
1127.000000	0.002857
1126.000000	0.002859
1125.000000	0.002873
1124.000000	0.002903
1123.000000	0.002942
1122.000000	0.002972
1121.000000	0.002980
1120.000000	0.002968
1119.000000	0.002954
1118.000000	0.002960
1117.000000	0.002999
1116.000000	0.003059
1115.000000	0.003115
1114.000000	0.003149
1113.000000	0.003162
1112.000000	0.003172
1111.000000	0.003189
1110.000000	0.003211
1109.000000	0.003228
1108.000000	0.003232
1107.000000	0.003222
1106.000000	0.003204
1105.000000	0.003193
1104.000000	0.003199
1103.000000	0.003212
1102.000000	0.003222
1101.000000	0.003228
1100.000000	0.003239
1099.000000	0.003258
1098.000000	0.003282
1097.000000	0.003309
1096.000000	0.003339
1095.000000	0.003367
1094.000000	0.003384
1093.000000	0.003398
1092.000000	0.003431
1091.000000	0.003492
1090.000000	0.003571
1089.000000	0.003649
1088.000000	0.003727
1087.000000	0.003825
1086.000000	0.003950
1085.000000	0.004091
1084.000000	0.004213
1083.000000	0.004289
1082.000000	0.004319
1081.000000	0.004331
1080.000000	0.004348
1079.000000	0.004360
1078.000000	0.004341
1077.000000	0.004282
1076.000000	0.004210
1075.000000	0.004157
1074.000000	0.004126
1073.000000	0.004096
1072.000000	0.004052
1071.000000	0.003997
1070.000000	0.003945
1069.000000	0.003910
1068.000000	0.003897
1067.000000	0.003902
1066.000000	0.003916
1065.000000	0.003938
1064.000000	0.003979
1063.000000	0.004039
1062.000000	0.004095
1061.000000	0.004115
1060.000000	0.004093
1059.000000	0.004057
1058.000000	0.004039
1057.000000	0.004044
1056.000000	0.004054
1055.000000	0.004052
1054.000000	0.004040
1053.000000	0.004025
1052.000000	0.004005
1051.000000	0.003980
1050.000000	0.003953
1049.000000	0.003935
1048.000000	0.003936
1047.000000	0.003950
1046.000000	0.003962
1045.000000	0.003947
1044.000000	0.003896
1043.000000	0.003826
1042.000000	0.003775
1041.000000	0.003774
1040.000000	0.003817
1039.000000	0.003879
1038.000000	0.003941
1037.000000	0.004005
1036.000000	0.004071
1035.000000	0.004131
1034.000000	0.004177
1033.000000	0.004218
1032.000000	0.004265
1031.000000	0.004306
1030.000000	0.004323
1029.000000	0.004311
1028.000000	0.004278
1027.000000	0.004233
1026.000000	0.004173
1025.000000	0.004103
1024.000000	0.004040
1023.000000	0.003991
1022.000000	0.003950
1021.000000	0.003904
1020.000000	0.003856
1019.000000	0.003816
1018.000000	0.003789
1017.000000	0.003773
1016.000000	0.003756
1015.000000	0.003732
1014.000000	0.003699
1013.000000	0.003657
1012.000000	0.003607
1011.000000	0.003549
1010.000000	0.003483
1009.000000	0.003413
1008.000000	0.003351
1007.000000	0.003304
1006.000000	0.003266
1005.000000	0.003226
1004.000000	0.003179
1003.000000	0.003122
1002.000000	0.003055
1001.000000	0.002981
1000.000000	0.002910
999.000000	0.002855
998.000000	0.002814
997.000000	0.002774
996.000000	0.002726
995.000000	0.002677
994.000000	0.002646
993.000000	0.002638
992.000000	0.002629
991.000000	0.002593
990.000000	0.002528
989.000000	0.002462
988.000000	0.002428
987.000000	0.002429
986.000000	0.002440
985.000000	0.002437
984.000000	0.002422
983.000000	0.002412
982.000000	0.002418
981.000000	0.002435
980.000000	0.002452
979.000000	0.002454
978.000000	0.002429
977.000000	0.002377
976.000000	0.002320
975.000000	0.002285
974.000000	0.002278
973.000000	0.002288
972.000000	0.002294
971.000000	0.002291
970.000000	0.002280
969.000000	0.002262
968.000000	0.002237
967.000000	0.002212
966.000000	0.002194
965.000000	0.002180
964.000000	0.002164
963.000000	0.002142
962.000000	0.002119
961.000000	0.002089
960.000000	0.002036
959.000000	0.001950
958.000000	0.001849
957.000000	0.001762
956.000000	0.001705
955.000000	0.001675
954.000000	0.001657
953.000000	0.001649
952.000000	0.001653
951.000000	0.001666
950.000000	0.001675
949.000000	0.001673
948.000000	0.001661
947.000000	0.001647
946.000000	0.001636
945.000000	0.001631
944.000000	0.001623
943.000000	0.001603
942.000000	0.001577
941.000000	0.001568
940.000000	0.001592
939.000000	0.001642
938.000000	0.001687
937.000000	0.001703
936.000000	0.001688
935.000000	0.001653
934.000000	0.001614
933.000000	0.001583
932.000000	0.001566
931.000000	0.001553
930.000000	0.001532
929.000000	0.001501
928.000000	0.001470
927.000000	0.001438
926.000000	0.001399
925.000000	0.001360
924.000000	0.001343
923.000000	0.001361
922.000000	0.001394
921.000000	0.001409
920.000000	0.001397
919.000000	0.001367
918.000000	0.001326
917.000000	0.001274
916.000000	0.001217
915.000000	0.001166
914.000000	0.001126
913.000000	0.001087
912.000000	0.001049
911.000000	0.001023
910.000000	0.001021
909.000000	0.001033
908.000000	0.001039
907.000000	0.001024
906.000000	0.000995
905.000000	0.000974
904.000000	0.000977
903.000000	0.001001
902.000000	0.001025
901.000000	0.001035
900.000000	0.001029
899.000000	0.001016
898.000000	0.000994
897.000000	0.000965
896.000000	0.000945
895.000000	0.000954
894.000000	0.000989
893.000000	0.001012
892.000000	0.000986
891.000000	0.000913
890.000000	0.000826
889.000000	0.000763
888.000000	0.000749
887.000000	0.000785
886.000000	0.000859
885.000000	0.000946
884.000000	0.001021
883.000000	0.001072
882.000000	0.001107
881.000000	0.001153
880.000000	0.001240
879.000000	0.001378
878.000000	0.001532
877.000000	0.001644
876.000000	0.001678
875.000000	0.001654
874.000000	0.001620
873.000000	0.001600
872.000000	0.001583
871.000000	0.001553
870.000000	0.001506
869.000000	0.001455
868.000000	0.001401
867.000000	0.001341
866.000000	0.001273
865.000000	0.001209
864.000000	0.001164
863.000000	0.001148
862.000000	0.001148
861.000000	0.001142
860.000000	0.001119
859.000000	0.001089
858.000000	0.001071
857.000000	0.001072
856.000000	0.001084
855.000000	0.001104
854.000000	0.001133
853.000000	0.001169
852.000000	0.001199
851.000000	0.001214
850.000000	0.001217
849.000000	0.001216
848.000000	0.001203
847.000000	0.001157
846.000000	0.001077
845.000000	0.000984
844.000000	0.000910
843.000000	0.000875
842.000000	0.000881
841.000000	0.000912
840.000000	0.000951
839.000000	0.000982
838.000000	0.000996
837.000000	0.000991
836.000000	0.000967
835.000000	0.000929
834.000000	0.000882
833.000000	0.000838
832.000000	0.000810
831.000000	0.000807
830.000000	0.000822
829.000000	0.000839
828.000000	0.000843
827.000000	0.000842
826.000000	0.000855
825.000000	0.000898
824.000000	0.000957
823.000000	0.001008
822.000000	0.001033
821.000000	0.001035
820.000000	0.001028
819.000000	0.001020
818.000000	0.001018
817.000000	0.001016
816.000000	0.001002
815.000000	0.000966
814.000000	0.000921
813.000000	0.000891
812.000000	0.000887
811.000000	0.000889
810.000000	0.000874
809.000000	0.000840
808.000000	0.000806
807.000000	0.000795
806.000000	0.000821
805.000000	0.000887
804.000000	0.000977
803.000000	0.001049
802.000000	0.001066
801.000000	0.001028
800.000000	0.000980
799.000000	0.000962
798.000000	0.000972
797.000000	0.000979
796.000000	0.000963
795.000000	0.000932
794.000000	0.000911
793.000000	0.000918
792.000000	0.000953
791.000000	0.000999
790.000000	0.001037
789.000000	0.001066
788.000000	0.001094
787.000000	0.001116
786.000000	0.001115
785.000000	0.001085
784.000000	0.001046
783.000000	0.001019
782.000000	0.001005
781.000000	0.000998
780.000000	0.001002
779.000000	0.001023
778.000000	0.001046
777.000000	0.001048
776.000000	0.001026
775.000000	0.001008
774.000000	0.001021
773.000000	0.001065
772.000000	0.001116
771.000000	0.001147
770.000000	0.001149
769.000000	0.001130
768.000000	0.001109
767.000000	0.001101
766.000000	0.001108
765.000000	0.001120
764.000000	0.001135
763.000000	0.001163
762.000000	0.001202
761.000000	0.001238
760.000000	0.001250
759.000000	0.001239
758.000000	0.001216
757.000000	0.001190
756.000000	0.001159
755.000000	0.001124
754.000000	0.001091
753.000000	0.001068
752.000000	0.001061
751.000000	0.001075
750.000000	0.001108
749.000000	0.001147
748.000000	0.001169
747.000000	0.001157
746.000000	0.001127
745.000000	0.001117
744.000000	0.001156
743.000000	0.001240
742.000000	0.001336
741.000000	0.001414
740.000000	0.001462
739.000000	0.001478
738.000000	0.001470
737.000000	0.001462
736.000000	0.001492
735.000000	0.001578
734.000000	0.001687
733.000000	0.001765
732.000000	0.001796
731.000000	0.001807
730.000000	0.001830
729.000000	0.001863
728.000000	0.001882
727.000000	0.001876
726.000000	0.001858
725.000000	0.001850
724.000000	0.001873
723.000000	0.001934
722.000000	0.002008
721.000000	0.002056
720.000000	0.002062
719.000000	0.002058
718.000000	0.002085
717.000000	0.002131
716.000000	0.002158
715.000000	0.002167
714.000000	0.002213
713.000000	0.002332
712.000000	0.002477
711.000000	0.002558
710.000000	0.002544
709.000000	0.002491
708.000000	0.002482
707.000000	0.002541
706.000000	0.002617
705.000000	0.002646
704.000000	0.002609
703.000000	0.002540
702.000000	0.002482
701.000000	0.002460
700.000000	0.002478
699.000000	0.002535
698.000000	0.002610
697.000000	0.002669
696.000000	0.002691
695.000000	0.002701
694.000000	0.002748
693.000000	0.002828
692.000000	0.002880
691.000000	0.002857
690.000000	0.002790
689.000000	0.002750
688.000000	0.002770
687.000000	0.002826
686.000000	0.002879
685.000000	0.002921
684.000000	0.002951
683.000000	0.002964
682.000000	0.002947
681.000000	0.002901
680.000000	0.002858
679.000000	0.002857
678.000000	0.002921
677.000000	0.003038
676.000000	0.003169
675.000000	0.003275
674.000000	0.003344
673.000000	0.003381
672.000000	0.003381
671.000000	0.003327
670.000000	0.003220
669.000000	0.003099
668.000000	0.003028
667.000000	0.003067
666.000000	0.003171
665.000000	0.003292
664.000000	0.003425
663.000000	0.003559
662.000000	0.003665
661.000000	0.003718
660.000000	0.003716
659.000000	0.003681
658.000000	0.003643
657.000000	0.003626
656.000000	0.003618
655.000000	0.003595
654.000000	0.003571
653.000000	0.003594
652.000000	0.003681
651.000000	0.003787
650.000000	0.003858
649.000000	0.003881
648.000000	0.003870
647.000000	0.003842
646.000000	0.003814
645.000000	0.003805
644.000000	0.003811
643.000000	0.003807
642.000000	0.003778
641.000000	0.003742
640.000000	0.003725
639.000000	0.003726
638.000000	0.003728
637.000000	0.003714
636.000000	0.003682
635.000000	0.003649
634.000000	0.003648
633.000000	0.003699
632.000000	0.003778
631.000000	0.003832
630.000000	0.003831
629.000000	0.003794
628.000000	0.003762
627.000000	0.003760
626.000000	0.003799
625.000000	0.003863
624.000000	0.003906
623.000000	0.003905
622.000000	0.003894
621.000000	0.003933
620.000000	0.004019
619.000000	0.004083
618.000000	0.004072
617.000000	0.004011
616.000000	0.003939
615.000000	0.003871
614.000000	0.003820
613.000000	0.003825
612.000000	0.003904
611.000000	0.004004
610.000000	0.004050
609.000000	0.004020
608.000000	0.003943
607.000000	0.003847
606.000000	0.003756
605.000000	0.003710
604.000000	0.003736
603.000000	0.003808
602.000000	0.003865
601.000000	0.003876
600.000000	0.003860
599.000000	0.003854
598.000000	0.003871
597.000000	0.003893
596.000000	0.003886
595.000000	0.003830
594.000000	0.003760
593.000000	0.003742
592.000000	0.003806
591.000000	0.003905
590.000000	0.003973
589.000000	0.003992
588.000000	0.003967
587.000000	0.003884
586.000000	0.003739
585.000000	0.003599
584.000000	0.003547
583.000000	0.003594
582.000000	0.003671
581.000000	0.003719
580.000000	0.003743
579.000000	0.003769
578.000000	0.003801
577.000000	0.003828
576.000000	0.003836
575.000000	0.003816
574.000000	0.003767
573.000000	0.003715
572.000000	0.003688
571.000000	0.003686
570.000000	0.003686
569.000000	0.003685
568.000000	0.003703
567.000000	0.003745
566.000000	0.003801
565.000000	0.003881
564.000000	0.004006
563.000000	0.004150
562.000000	0.004244
561.000000	0.004259
560.000000	0.004250
559.000000	0.004282
558.000000	0.004341
557.000000	0.004357
556.000000	0.004287
555.000000	0.004166
554.000000	0.004082
553.000000	0.004105
552.000000	0.004226
551.000000	0.004347
550.000000	0.004354
549.000000	0.004219
548.000000	0.004017
547.000000	0.003845
546.000000	0.003740
545.000000	0.003673
544.000000	0.003600
543.000000	0.003500
542.000000	0.003387
541.000000	0.003314
540.000000	0.003355
539.000000	0.003533
538.000000	0.003764
537.000000	0.003899
536.000000	0.003867
535.000000	0.003761
534.000000	0.003746
533.000000	0.003886
532.000000	0.004074
531.000000	0.004160
530.000000	0.004103
529.000000	0.003974
528.000000	0.003840
527.000000	0.003721
526.000000	0.003642
525.000000	0.003626
524.000000	0.003634
523.000000	0.003585
522.000000	0.003479
521.000000	0.003431
520.000000	0.003523
519.000000	0.003668
518.000000	0.003704
517.000000	0.003597
516.000000	0.003451
515.000000	0.003336
514.000000	0.003215
513.000000	0.003058
512.000000	0.002918
511.000000	0.002867
510.000000	0.002897
509.000000	0.002934
508.000000	0.002908
507.000000	0.002798
506.000000	0.002650
505.000000	0.002551
504.000000	0.002547
503.000000	0.002582
502.000000	0.002542
501.000000	0.002407
500.000000	0.002306
499.000000	0.002365
498.000000	0.002555
497.000000	0.002710
496.000000	0.002674
495.000000	0.002428
494.000000	0.002081
493.000000	0.001773
492.000000	0.001589
491.000000	0.001535
490.000000	0.001581
489.000000	0.001694
488.000000	0.001841
487.000000	0.001976
486.000000	0.002070
485.000000	0.002137
484.000000	0.002218
483.000000	0.002307
482.000000	0.002358
481.000000	0.002348
480.000000	0.002303
479.000000	0.002240
478.000000	0.002135
477.000000	0.001962
476.000000	0.001740
475.000000	0.001515
474.000000	0.001344
473.000000	0.001284
472.000000	0.001370
471.000000	0.001560
470.000000	0.001732
469.000000	0.001785
468.000000	0.001694
467.000000	0.001497
466.000000	0.001266
465.000000	0.001087
464.000000	0.001029
463.000000	0.001081
462.000000	0.001165
461.000000	0.001218
460.000000	0.001262
459.000000	0.001337
458.000000	0.001401
457.000000	0.001378
456.000000	0.001277
455.000000	0.001168
454.000000	0.001080
453.000000	0.000996
452.000000	0.000916
451.000000	0.000865
450.000000	0.000856
