PE IR       SUBTECH     SPECTRUM    ASCII       PEDS        4.00        
   -1
3G-H10-F002_1.ASC
22/02/23
15:15:04.00
22/02/23
15:55:22.00
uco
Sample 002 By uco Date Wednesday, February 23 2022
450.000000
#HDR
-1
-1
#GR
cm-1
A
1.0
0.0
4000.000000
-1.000000
3551
8
0.061738
0.004943
#DATA
4000.000000	0.005187
3999.000000	0.005181
3998.000000	0.005180
3997.000000	0.005182
3996.000000	0.005187
3995.000000	0.005189
3994.000000	0.005188
3993.000000	0.005187
3992.000000	0.005190
3991.000000	0.005199
3990.000000	0.005210
3989.000000	0.005223
3988.000000	0.005241
3987.000000	0.005266
3986.000000	0.005288
3985.000000	0.005296
3984.000000	0.005290
3983.000000	0.005280
3982.000000	0.005283
3981.000000	0.005302
3980.000000	0.005324
3979.000000	0.005336
3978.000000	0.005330
3977.000000	0.005310
3976.000000	0.005289
3975.000000	0.005277
3974.000000	0.005273
3973.000000	0.005275
3972.000000	0.005277
3971.000000	0.005278
3970.000000	0.005282
3969.000000	0.005293
3968.000000	0.005307
3967.000000	0.005317
3966.000000	0.005316
3965.000000	0.005303
3964.000000	0.005284
3963.000000	0.005265
3962.000000	0.005258
3961.000000	0.005266
3960.000000	0.005289
3959.000000	0.005323
3958.000000	0.005362
3957.000000	0.005399
3956.000000	0.005430
3955.000000	0.005449
3954.000000	0.005456
3953.000000	0.005452
3952.000000	0.005436
3951.000000	0.005411
3950.000000	0.005381
3949.000000	0.005348
3948.000000	0.005319
3947.000000	0.005300
3946.000000	0.005297
3945.000000	0.005312
3944.000000	0.005342
3943.000000	0.005376
3942.000000	0.005400
3941.000000	0.005413
3940.000000	0.005423
3939.000000	0.005436
3938.000000	0.005450
3937.000000	0.005451
3936.000000	0.005432
3935.000000	0.005400
3934.000000	0.005378
3933.000000	0.005387
3932.000000	0.005426
3931.000000	0.005473
3930.000000	0.005510
3929.000000	0.005531
3928.000000	0.005543
3927.000000	0.005550
3926.000000	0.005551
3925.000000	0.005541
3924.000000	0.005517
3923.000000	0.005486
3922.000000	0.005454
3921.000000	0.005425
3920.000000	0.005402
3919.000000	0.005386
3918.000000	0.005380
3917.000000	0.005386
3916.000000	0.005401
3915.000000	0.005422
3914.000000	0.005446
3913.000000	0.005471
3912.000000	0.005491
3911.000000	0.005501
3910.000000	0.005500
3909.000000	0.005494
3908.000000	0.005495
3907.000000	0.005505
3906.000000	0.005514
3905.000000	0.005507
3904.000000	0.005478
3903.000000	0.005441
3902.000000	0.005423
3901.000000	0.005436
3900.000000	0.005471
3899.000000	0.005503
3898.000000	0.005513
3897.000000	0.005501
3896.000000	0.005481
3895.000000	0.005468
3894.000000	0.005471
3893.000000	0.005489
3892.000000	0.005505
3891.000000	0.005505
3890.000000	0.005490
3889.000000	0.005468
3888.000000	0.005448
3887.000000	0.005438
3886.000000	0.005444
3885.000000	0.005462
3884.000000	0.005488
3883.000000	0.005521
3882.000000	0.005557
3881.000000	0.005579
3880.000000	0.005570
3879.000000	0.005536
3878.000000	0.005501
3877.000000	0.005481
3876.000000	0.005478
3875.000000	0.005487
3874.000000	0.005495
3873.000000	0.005493
3872.000000	0.005482
3871.000000	0.005471
3870.000000	0.005462
3869.000000	0.005453
3868.000000	0.005443
3867.000000	0.005439
3866.000000	0.005450
3865.000000	0.005475
3864.000000	0.005493
3863.000000	0.005491
3862.000000	0.005478
3861.000000	0.005471
3860.000000	0.005480
3859.000000	0.005507
3858.000000	0.005552
3857.000000	0.005609
3856.000000	0.005657
3855.000000	0.005680
3854.000000	0.005655
3853.000000	0.005584
3852.000000	0.005508
3851.000000	0.005463
3850.000000	0.005443
3849.000000	0.005437
3848.000000	0.005435
3847.000000	0.005436
3846.000000	0.005441
3845.000000	0.005455
3844.000000	0.005474
3843.000000	0.005496
3842.000000	0.005514
3841.000000	0.005531
3840.000000	0.005550
3839.000000	0.005572
3838.000000	0.005594
3837.000000	0.005615
3836.000000	0.005631
3835.000000	0.005634
3834.000000	0.005618
3833.000000	0.005587
3832.000000	0.005555
3831.000000	0.005530
3830.000000	0.005516
3829.000000	0.005512
3828.000000	0.005517
3827.000000	0.005528
3826.000000	0.005533
3825.000000	0.005521
3824.000000	0.005492
3823.000000	0.005473
3822.000000	0.005486
3821.000000	0.005514
3820.000000	0.005521
3819.000000	0.005505
3818.000000	0.005488
3817.000000	0.005489
3816.000000	0.005508
3815.000000	0.005526
3814.000000	0.005529
3813.000000	0.005522
3812.000000	0.005514
3811.000000	0.005511
3810.000000	0.005512
3809.000000	0.005514
3808.000000	0.005512
3807.000000	0.005505
3806.000000	0.005496
3805.000000	0.005499
3804.000000	0.005520
3803.000000	0.005554
3802.000000	0.005580
3801.000000	0.005576
3800.000000	0.005552
3799.000000	0.005539
3798.000000	0.005543
3797.000000	0.005552
3796.000000	0.005548
3795.000000	0.005533
3794.000000	0.005522
3793.000000	0.005521
3792.000000	0.005527
3791.000000	0.005533
3790.000000	0.005537
3789.000000	0.005541
3788.000000	0.005551
3787.000000	0.005564
3786.000000	0.005575
3785.000000	0.005581
3784.000000	0.005576
3783.000000	0.005562
3782.000000	0.005544
3781.000000	0.005533
3780.000000	0.005534
3779.000000	0.005538
3778.000000	0.005539
3777.000000	0.005539
3776.000000	0.005543
3775.000000	0.005554
3774.000000	0.005565
3773.000000	0.005568
3772.000000	0.005554
3771.000000	0.005523
3770.000000	0.005489
3769.000000	0.005463
3768.000000	0.005459
3767.000000	0.005476
3766.000000	0.005500
3765.000000	0.005515
3764.000000	0.005506
3763.000000	0.005474
3762.000000	0.005432
3761.000000	0.005400
3760.000000	0.005387
3759.000000	0.005385
3758.000000	0.005385
3757.000000	0.005386
3756.000000	0.005380
3755.000000	0.005354
3754.000000	0.005301
3753.000000	0.005234
3752.000000	0.005189
3751.000000	0.005187
3750.000000	0.005218
3749.000000	0.005259
3748.000000	0.005295
3747.000000	0.005317
3746.000000	0.005339
3745.000000	0.005372
3744.000000	0.005403
3743.000000	0.005405
3742.000000	0.005378
3741.000000	0.005334
3740.000000	0.005285
3739.000000	0.005231
3738.000000	0.005178
3737.000000	0.005142
3736.000000	0.005133
3735.000000	0.005136
3734.000000	0.005132
3733.000000	0.005138
3732.000000	0.005170
3731.000000	0.005226
3730.000000	0.005286
3729.000000	0.005331
3728.000000	0.005352
3727.000000	0.005354
3726.000000	0.005349
3725.000000	0.005347
3724.000000	0.005359
3723.000000	0.005380
3722.000000	0.005391
3721.000000	0.005377
3720.000000	0.005345
3719.000000	0.005311
3718.000000	0.005289
3717.000000	0.005282
3716.000000	0.005277
3715.000000	0.005263
3714.000000	0.005244
3713.000000	0.005235
3712.000000	0.005241
3711.000000	0.005245
3710.000000	0.005239
3709.000000	0.005230
3708.000000	0.005229
3707.000000	0.005238
3706.000000	0.005251
3705.000000	0.005262
3704.000000	0.005269
3703.000000	0.005278
3702.000000	0.005292
3701.000000	0.005309
3700.000000	0.005325
3699.000000	0.005336
3698.000000	0.005342
3697.000000	0.005343
3696.000000	0.005338
3695.000000	0.005325
3694.000000	0.005307
3693.000000	0.005294
3692.000000	0.005291
3691.000000	0.005289
3690.000000	0.005274
3689.000000	0.005250
3688.000000	0.005242
3687.000000	0.005258
3686.000000	0.005281
3685.000000	0.005291
3684.000000	0.005281
3683.000000	0.005258
3682.000000	0.005245
3681.000000	0.005262
3680.000000	0.005316
3679.000000	0.005380
3678.000000	0.005420
3677.000000	0.005434
3676.000000	0.005445
3675.000000	0.005455
3674.000000	0.005449
3673.000000	0.005418
3672.000000	0.005363
3671.000000	0.005309
3670.000000	0.005285
3669.000000	0.005296
3668.000000	0.005333
3667.000000	0.005383
3666.000000	0.005434
3665.000000	0.005483
3664.000000	0.005532
3663.000000	0.005575
3662.000000	0.005600
3661.000000	0.005596
3660.000000	0.005567
3659.000000	0.005531
3658.000000	0.005514
3657.000000	0.005532
3656.000000	0.005574
3655.000000	0.005612
3654.000000	0.005625
3653.000000	0.005612
3652.000000	0.005595
3651.000000	0.005608
3650.000000	0.005671
3649.000000	0.005758
3648.000000	0.005834
3647.000000	0.005883
3646.000000	0.005907
3645.000000	0.005922
3644.000000	0.005946
3643.000000	0.005988
3642.000000	0.006037
3641.000000	0.006076
3640.000000	0.006099
3639.000000	0.006114
3638.000000	0.006128
3637.000000	0.006141
3636.000000	0.006152
3635.000000	0.006164
3634.000000	0.006182
3633.000000	0.006202
3632.000000	0.006220
3631.000000	0.006245
3630.000000	0.006287
3629.000000	0.006334
3628.000000	0.006359
3627.000000	0.006367
3626.000000	0.006380
3625.000000	0.006399
3624.000000	0.006414
3623.000000	0.006423
3622.000000	0.006435
3621.000000	0.006461
3620.000000	0.006505
3619.000000	0.006552
3618.000000	0.006593
3617.000000	0.006635
3616.000000	0.006684
3615.000000	0.006741
3614.000000	0.006796
3613.000000	0.006838
3612.000000	0.006861
3611.000000	0.006878
3610.000000	0.006919
3609.000000	0.007004
3608.000000	0.007117
3607.000000	0.007215
3606.000000	0.007270
3605.000000	0.007293
3604.000000	0.007310
3603.000000	0.007345
3602.000000	0.007400
3601.000000	0.007455
3600.000000	0.007490
3599.000000	0.007499
3598.000000	0.007500
3597.000000	0.007523
3596.000000	0.007578
3595.000000	0.007652
3594.000000	0.007715
3593.000000	0.007752
3592.000000	0.007767
3591.000000	0.007773
3590.000000	0.007787
3589.000000	0.007825
3588.000000	0.007889
3587.000000	0.007957
3586.000000	0.008009
3585.000000	0.008052
3584.000000	0.008105
3583.000000	0.008182
3582.000000	0.008285
3581.000000	0.008398
3580.000000	0.008499
3579.000000	0.008577
3578.000000	0.008632
3577.000000	0.008675
3576.000000	0.008711
3575.000000	0.008744
3574.000000	0.008777
3573.000000	0.008813
3572.000000	0.008850
3571.000000	0.008880
3570.000000	0.008901
3569.000000	0.008934
3568.000000	0.009000
3567.000000	0.009098
3566.000000	0.009209
3565.000000	0.009325
3564.000000	0.009444
3563.000000	0.009560
3562.000000	0.009657
3561.000000	0.009721
3560.000000	0.009756
3559.000000	0.009778
3558.000000	0.009806
3557.000000	0.009852
3556.000000	0.009913
3555.000000	0.009975
3554.000000	0.010029
3553.000000	0.010073
3552.000000	0.010113
3551.000000	0.010157
3550.000000	0.010206
3549.000000	0.010257
3548.000000	0.010312
3547.000000	0.010373
3546.000000	0.010437
3545.000000	0.010503
3544.000000	0.010571
3543.000000	0.010648
3542.000000	0.010736
3541.000000	0.010831
3540.000000	0.010920
3539.000000	0.010996
3538.000000	0.011058
3537.000000	0.011107
3536.000000	0.011147
3535.000000	0.011183
3534.000000	0.011220
3533.000000	0.011266
3532.000000	0.011326
3531.000000	0.011401
3530.000000	0.011486
3529.000000	0.011569
3528.000000	0.011637
3527.000000	0.011685
3526.000000	0.011720
3525.000000	0.011752
3524.000000	0.011794
3523.000000	0.011850
3522.000000	0.011925
3521.000000	0.012015
3520.000000	0.012106
3519.000000	0.012184
3518.000000	0.012241
3517.000000	0.012282
3516.000000	0.012316
3515.000000	0.012349
3514.000000	0.012390
3513.000000	0.012445
3512.000000	0.012513
3511.000000	0.012587
3510.000000	0.012650
3509.000000	0.012690
3508.000000	0.012714
3507.000000	0.012739
3506.000000	0.012780
3505.000000	0.012839
3504.000000	0.012908
3503.000000	0.012976
3502.000000	0.013037
3501.000000	0.013095
3500.000000	0.013158
3499.000000	0.013227
3498.000000	0.013297
3497.000000	0.013357
3496.000000	0.013409
3495.000000	0.013462
3494.000000	0.013528
3493.000000	0.013608
3492.000000	0.013696
3491.000000	0.013774
3490.000000	0.013832
3489.000000	0.013865
3488.000000	0.013881
3487.000000	0.013894
3486.000000	0.013916
3485.000000	0.013948
3484.000000	0.013983
3483.000000	0.014020
3482.000000	0.014059
3481.000000	0.014108
3480.000000	0.014168
3479.000000	0.014235
3478.000000	0.014302
3477.000000	0.014359
3476.000000	0.014402
3475.000000	0.014435
3474.000000	0.014463
3473.000000	0.014497
3472.000000	0.014545
3471.000000	0.014606
3470.000000	0.014672
3469.000000	0.014733
3468.000000	0.014784
3467.000000	0.014822
3466.000000	0.014854
3465.000000	0.014889
3464.000000	0.014936
3463.000000	0.014998
3462.000000	0.015068
3461.000000	0.015136
3460.000000	0.015193
3459.000000	0.015240
3458.000000	0.015281
3457.000000	0.015324
3456.000000	0.015369
3455.000000	0.015416
3454.000000	0.015459
3453.000000	0.015496
3452.000000	0.015530
3451.000000	0.015564
3450.000000	0.015602
3449.000000	0.015643
3448.000000	0.015687
3447.000000	0.015733
3446.000000	0.015783
3445.000000	0.015836
3444.000000	0.015893
3443.000000	0.015955
3442.000000	0.016022
3441.000000	0.016093
3440.000000	0.016162
3439.000000	0.016223
3438.000000	0.016275
3437.000000	0.016319
3436.000000	0.016359
3435.000000	0.016406
3434.000000	0.016465
3433.000000	0.016534
3432.000000	0.016597
3431.000000	0.016645
3430.000000	0.016681
3429.000000	0.016720
3428.000000	0.016778
3427.000000	0.016859
3426.000000	0.016952
3425.000000	0.017040
3424.000000	0.017106
3423.000000	0.017149
3422.000000	0.017185
3421.000000	0.017230
3420.000000	0.017293
3419.000000	0.017368
3418.000000	0.017442
3417.000000	0.017501
3416.000000	0.017542
3415.000000	0.017573
3414.000000	0.017608
3413.000000	0.017653
3412.000000	0.017708
3411.000000	0.017766
3410.000000	0.017826
3409.000000	0.017888
3408.000000	0.017952
3407.000000	0.018016
3406.000000	0.018081
3405.000000	0.018143
3404.000000	0.018198
3403.000000	0.018248
3402.000000	0.018295
3401.000000	0.018341
3400.000000	0.018380
3399.000000	0.018412
3398.000000	0.018446
3397.000000	0.018490
3396.000000	0.018547
3395.000000	0.018611
3394.000000	0.018673
3393.000000	0.018730
3392.000000	0.018786
3391.000000	0.018843
3390.000000	0.018905
3389.000000	0.018966
3388.000000	0.019024
3387.000000	0.019080
3386.000000	0.019137
3385.000000	0.019192
3384.000000	0.019239
3383.000000	0.019281
3382.000000	0.019328
3381.000000	0.019391
3380.000000	0.019468
3379.000000	0.019541
3378.000000	0.019596
3377.000000	0.019637
3376.000000	0.019679
3375.000000	0.019738
3374.000000	0.019814
3373.000000	0.019897
3372.000000	0.019976
3371.000000	0.020051
3370.000000	0.020124
3369.000000	0.020199
3368.000000	0.020274
3367.000000	0.020350
3366.000000	0.020430
3365.000000	0.020520
3364.000000	0.020617
3363.000000	0.020717
3362.000000	0.020814
3361.000000	0.020901
3360.000000	0.020975
3359.000000	0.021045
3358.000000	0.021124
3357.000000	0.021224
3356.000000	0.021338
3355.000000	0.021446
3354.000000	0.021537
3353.000000	0.021611
3352.000000	0.021679
3351.000000	0.021748
3350.000000	0.021824
3349.000000	0.021910
3348.000000	0.022008
3347.000000	0.022122
3346.000000	0.022251
3345.000000	0.022385
3344.000000	0.022508
3343.000000	0.022612
3342.000000	0.022695
3341.000000	0.022759
3340.000000	0.022808
3339.000000	0.022853
3338.000000	0.022909
3337.000000	0.022988
3336.000000	0.023088
3335.000000	0.023195
3334.000000	0.023294
3333.000000	0.023381
3332.000000	0.023461
3331.000000	0.023533
3330.000000	0.023601
3329.000000	0.023665
3328.000000	0.023730
3327.000000	0.023803
3326.000000	0.023888
3325.000000	0.023984
3324.000000	0.024079
3323.000000	0.024158
3322.000000	0.024215
3321.000000	0.024253
3320.000000	0.024286
3319.000000	0.024326
3318.000000	0.024378
3317.000000	0.024441
3316.000000	0.024509
3315.000000	0.024576
3314.000000	0.024642
3313.000000	0.024707
3312.000000	0.024768
3311.000000	0.024822
3310.000000	0.024862
3309.000000	0.024887
3308.000000	0.024905
3307.000000	0.024930
3306.000000	0.024969
3305.000000	0.025029
3304.000000	0.025107
3303.000000	0.025191
3302.000000	0.025264
3301.000000	0.025313
3300.000000	0.025340
3299.000000	0.025357
3298.000000	0.025375
3297.000000	0.025394
3296.000000	0.025414
3295.000000	0.025435
3294.000000	0.025463
3293.000000	0.025494
3292.000000	0.025519
3291.000000	0.025535
3290.000000	0.025549
3289.000000	0.025566
3288.000000	0.025586
3287.000000	0.025598
3286.000000	0.025600
3285.000000	0.025594
3284.000000	0.025585
3283.000000	0.025574
3282.000000	0.025564
3281.000000	0.025559
3280.000000	0.025561
3279.000000	0.025564
3278.000000	0.025555
3277.000000	0.025523
3276.000000	0.025465
3275.000000	0.025388
3274.000000	0.025300
3273.000000	0.025211
3272.000000	0.025133
3271.000000	0.025073
3270.000000	0.025037
3269.000000	0.025024
3268.000000	0.025027
3267.000000	0.025033
3266.000000	0.025030
3265.000000	0.025009
3264.000000	0.024969
3263.000000	0.024917
3262.000000	0.024859
3261.000000	0.024792
3260.000000	0.024713
3259.000000	0.024628
3258.000000	0.024545
3257.000000	0.024474
3256.000000	0.024409
3255.000000	0.024344
3254.000000	0.024282
3253.000000	0.024230
3252.000000	0.024189
3251.000000	0.024151
3250.000000	0.024101
3249.000000	0.024033
3248.000000	0.023951
3247.000000	0.023871
3246.000000	0.023807
3245.000000	0.023766
3244.000000	0.023741
3243.000000	0.023720
3242.000000	0.023692
3241.000000	0.023656
3240.000000	0.023609
3239.000000	0.023555
3238.000000	0.023494
3237.000000	0.023430
3236.000000	0.023367
3235.000000	0.023305
3234.000000	0.023247
3233.000000	0.023192
3232.000000	0.023138
3231.000000	0.023084
3230.000000	0.023036
3229.000000	0.023000
3228.000000	0.022978
3227.000000	0.022958
3226.000000	0.022932
3225.000000	0.022897
3224.000000	0.022864
3223.000000	0.022840
3222.000000	0.022821
3221.000000	0.022794
3220.000000	0.022751
3219.000000	0.022696
3218.000000	0.022634
3217.000000	0.022567
3216.000000	0.022500
3215.000000	0.022440
3214.000000	0.022397
3213.000000	0.022370
3212.000000	0.022346
3211.000000	0.022311
3210.000000	0.022265
3209.000000	0.022216
3208.000000	0.022172
3207.000000	0.022130
3206.000000	0.022082
3205.000000	0.022028
3204.000000	0.021971
3203.000000	0.021912
3202.000000	0.021849
3201.000000	0.021780
3200.000000	0.021713
3199.000000	0.021658
3198.000000	0.021621
3197.000000	0.021592
3196.000000	0.021556
3195.000000	0.021507
3194.000000	0.021446
3193.000000	0.021382
3192.000000	0.021316
3191.000000	0.021246
3190.000000	0.021172
3189.000000	0.021094
3188.000000	0.021016
3187.000000	0.020944
3186.000000	0.020883
3185.000000	0.020834
3184.000000	0.020788
3183.000000	0.020735
3182.000000	0.020671
3181.000000	0.020598
3180.000000	0.020519
3179.000000	0.020437
3178.000000	0.020357
3177.000000	0.020284
3176.000000	0.020224
3175.000000	0.020174
3174.000000	0.020124
3173.000000	0.020069
3172.000000	0.020006
3171.000000	0.019935
3170.000000	0.019859
3169.000000	0.019785
3168.000000	0.019714
3167.000000	0.019646
3166.000000	0.019578
3165.000000	0.019507
3164.000000	0.019437
3163.000000	0.019374
3162.000000	0.019324
3161.000000	0.019287
3160.000000	0.019253
3159.000000	0.019208
3158.000000	0.019143
3157.000000	0.019065
3156.000000	0.018985
3155.000000	0.018909
3154.000000	0.018833
3153.000000	0.018757
3152.000000	0.018687
3151.000000	0.018634
3150.000000	0.018601
3149.000000	0.018580
3148.000000	0.018557
3147.000000	0.018524
3146.000000	0.018478
3145.000000	0.018420
3144.000000	0.018354
3143.000000	0.018283
3142.000000	0.018215
3141.000000	0.018158
3140.000000	0.018113
3139.000000	0.018076
3138.000000	0.018039
3137.000000	0.017995
3136.000000	0.017946
3135.000000	0.017900
3134.000000	0.017863
3133.000000	0.017833
3132.000000	0.017803
3131.000000	0.017765
3130.000000	0.017727
3129.000000	0.017698
3128.000000	0.017680
3127.000000	0.017669
3126.000000	0.017656
3125.000000	0.017637
3124.000000	0.017609
3123.000000	0.017575
3122.000000	0.017540
3121.000000	0.017509
3120.000000	0.017479
3119.000000	0.017445
3118.000000	0.017408
3117.000000	0.017376
3116.000000	0.017356
3115.000000	0.017353
3114.000000	0.017372
3113.000000	0.017410
3112.000000	0.017454
3111.000000	0.017492
3110.000000	0.017520
3109.000000	0.017545
3108.000000	0.017571
3107.000000	0.017591
3106.000000	0.017602
3105.000000	0.017610
3104.000000	0.017619
3103.000000	0.017623
3102.000000	0.017611
3101.000000	0.017591
3100.000000	0.017581
3099.000000	0.017597
3098.000000	0.017643
3097.000000	0.017704
3096.000000	0.017764
3095.000000	0.017806
3094.000000	0.017826
3093.000000	0.017835
3092.000000	0.017843
3091.000000	0.017854
3090.000000	0.017861
3089.000000	0.017856
3088.000000	0.017840
3087.000000	0.017827
3086.000000	0.017831
3085.000000	0.017860
3084.000000	0.017904
3083.000000	0.017943
3082.000000	0.017962
3081.000000	0.017961
3080.000000	0.017956
3079.000000	0.017957
3078.000000	0.017965
3077.000000	0.017976
3076.000000	0.017991
3075.000000	0.018016
3074.000000	0.018047
3073.000000	0.018074
3072.000000	0.018081
3071.000000	0.018064
3070.000000	0.018031
3069.000000	0.017997
3068.000000	0.017969
3067.000000	0.017946
3066.000000	0.017929
3065.000000	0.017929
3064.000000	0.017948
3063.000000	0.017972
3062.000000	0.017978
3061.000000	0.017952
3060.000000	0.017901
3059.000000	0.017843
3058.000000	0.017792
3057.000000	0.017748
3056.000000	0.017707
3055.000000	0.017660
3054.000000	0.017597
3053.000000	0.017517
3052.000000	0.017431
3051.000000	0.017359
3050.000000	0.017311
3049.000000	0.017278
3048.000000	0.017243
3047.000000	0.017194
3046.000000	0.017131
3045.000000	0.017061
3044.000000	0.016991
3043.000000	0.016925
3042.000000	0.016867
3041.000000	0.016818
3040.000000	0.016773
3039.000000	0.016726
3038.000000	0.016671
3037.000000	0.016612
3036.000000	0.016558
3035.000000	0.016514
3034.000000	0.016475
3033.000000	0.016422
3032.000000	0.016350
3031.000000	0.016272
3030.000000	0.016213
3029.000000	0.016178
3028.000000	0.016154
3027.000000	0.016123
3026.000000	0.016080
3025.000000	0.016030
3024.000000	0.015980
3023.000000	0.015931
3022.000000	0.015878
3021.000000	0.015819
3020.000000	0.015756
3019.000000	0.015691
3018.000000	0.015632
3017.000000	0.015584
3016.000000	0.015548
3015.000000	0.015525
3014.000000	0.015509
3013.000000	0.015496
3012.000000	0.015485
3011.000000	0.015474
3010.000000	0.015462
3009.000000	0.015444
3008.000000	0.015421
3007.000000	0.015403
3006.000000	0.015399
3005.000000	0.015406
3004.000000	0.015411
3003.000000	0.015401
3002.000000	0.015379
3001.000000	0.015359
3000.000000	0.015354
2999.000000	0.015367
2998.000000	0.015397
2997.000000	0.015439
2996.000000	0.015490
2995.000000	0.015545
2994.000000	0.015604
2993.000000	0.015670
2992.000000	0.015744
2991.000000	0.015823
2990.000000	0.015901
2989.000000	0.015973
2988.000000	0.016041
2987.000000	0.016110
2986.000000	0.016188
2985.000000	0.016277
2984.000000	0.016376
2983.000000	0.016478
2982.000000	0.016575
2981.000000	0.016660
2980.000000	0.016735
2979.000000	0.016812
2978.000000	0.016907
2977.000000	0.017017
2976.000000	0.017127
2975.000000	0.017223
2974.000000	0.017306
2973.000000	0.017383
2972.000000	0.017463
2971.000000	0.017555
2970.000000	0.017668
2969.000000	0.017806
2968.000000	0.017963
2967.000000	0.018118
2966.000000	0.018257
2965.000000	0.018374
2964.000000	0.018476
2963.000000	0.018570
2962.000000	0.018663
2961.000000	0.018756
2960.000000	0.018845
2959.000000	0.018928
2958.000000	0.019000
2957.000000	0.019061
2956.000000	0.019114
2955.000000	0.019155
2954.000000	0.019182
2953.000000	0.019196
2952.000000	0.019202
2951.000000	0.019206
2950.000000	0.019217
2949.000000	0.019238
2948.000000	0.019274
2947.000000	0.019323
2946.000000	0.019384
2945.000000	0.019451
2944.000000	0.019529
2943.000000	0.019631
2942.000000	0.019769
2941.000000	0.019938
2940.000000	0.020116
2939.000000	0.020284
2938.000000	0.020443
2937.000000	0.020607
2936.000000	0.020787
2935.000000	0.020986
2934.000000	0.021196
2933.000000	0.021406
2932.000000	0.021605
2931.000000	0.021793
2930.000000	0.021977
2929.000000	0.022162
2928.000000	0.022343
2927.000000	0.022514
2926.000000	0.022678
2925.000000	0.022837
2924.000000	0.022982
2923.000000	0.023098
2922.000000	0.023177
2921.000000	0.023223
2920.000000	0.023234
2919.000000	0.023194
2918.000000	0.023079
2917.000000	0.022876
2916.000000	0.022584
2915.000000	0.022221
2914.000000	0.021819
2913.000000	0.021409
2912.000000	0.021014
2911.000000	0.020644
2910.000000	0.020308
2909.000000	0.020011
2908.000000	0.019753
2907.000000	0.019525
2906.000000	0.019325
2905.000000	0.019153
2904.000000	0.019005
2903.000000	0.018870
2902.000000	0.018740
2901.000000	0.018615
2900.000000	0.018502
2899.000000	0.018399
2898.000000	0.018296
2897.000000	0.018188
2896.000000	0.018079
2895.000000	0.017980
2894.000000	0.017902
2893.000000	0.017840
2892.000000	0.017782
2891.000000	0.017722
2890.000000	0.017660
2889.000000	0.017604
2888.000000	0.017554
2887.000000	0.017508
2886.000000	0.017468
2885.000000	0.017443
2884.000000	0.017436
2883.000000	0.017437
2882.000000	0.017438
2881.000000	0.017441
2880.000000	0.017455
2879.000000	0.017485
2878.000000	0.017520
2877.000000	0.017542
2876.000000	0.017540
2875.000000	0.017515
2874.000000	0.017481
2873.000000	0.017453
2872.000000	0.017436
2871.000000	0.017423
2870.000000	0.017400
2869.000000	0.017357
2868.000000	0.017294
2867.000000	0.017220
2866.000000	0.017148
2865.000000	0.017094
2864.000000	0.017067
2863.000000	0.017061
2862.000000	0.017070
2861.000000	0.017098
2860.000000	0.017159
2859.000000	0.017258
2858.000000	0.017392
2857.000000	0.017553
2856.000000	0.017736
2855.000000	0.017940
2854.000000	0.018153
2853.000000	0.018354
2852.000000	0.018513
2851.000000	0.018596
2850.000000	0.018565
2849.000000	0.018398
2848.000000	0.018098
2847.000000	0.017706
2846.000000	0.017277
2845.000000	0.016865
2844.000000	0.016497
2843.000000	0.016184
2842.000000	0.015925
2841.000000	0.015711
2840.000000	0.015528
2839.000000	0.015365
2838.000000	0.015217
2837.000000	0.015088
2836.000000	0.014978
2835.000000	0.014881
2834.000000	0.014792
2833.000000	0.014707
2832.000000	0.014630
2831.000000	0.014558
2830.000000	0.014490
2829.000000	0.014426
2828.000000	0.014370
2827.000000	0.014321
2826.000000	0.014275
2825.000000	0.014228
2824.000000	0.014178
2823.000000	0.014128
2822.000000	0.014081
2821.000000	0.014042
2820.000000	0.014010
2819.000000	0.013978
2818.000000	0.013938
2817.000000	0.013886
2816.000000	0.013829
2815.000000	0.013776
2814.000000	0.013737
2813.000000	0.013710
2812.000000	0.013689
2811.000000	0.013666
2810.000000	0.013643
2809.000000	0.013621
2808.000000	0.013601
2807.000000	0.013580
2806.000000	0.013553
2805.000000	0.013521
2804.000000	0.013486
2803.000000	0.013453
2802.000000	0.013427
2801.000000	0.013410
2800.000000	0.013395
2799.000000	0.013374
2798.000000	0.013344
2797.000000	0.013309
2796.000000	0.013272
2795.000000	0.013232
2794.000000	0.013191
2793.000000	0.013153
2792.000000	0.013128
2791.000000	0.013118
2790.000000	0.013117
2789.000000	0.013112
2788.000000	0.013094
2787.000000	0.013070
2786.000000	0.013050
2785.000000	0.013038
2784.000000	0.013027
2783.000000	0.013005
2782.000000	0.012969
2781.000000	0.012930
2780.000000	0.012897
2779.000000	0.012874
2778.000000	0.012855
2777.000000	0.012833
2776.000000	0.012806
2775.000000	0.012777
2774.000000	0.012753
2773.000000	0.012736
2772.000000	0.012723
2771.000000	0.012706
2770.000000	0.012683
2769.000000	0.012663
2768.000000	0.012649
2767.000000	0.012640
2766.000000	0.012629
2765.000000	0.012614
2764.000000	0.012596
2763.000000	0.012578
2762.000000	0.012560
2761.000000	0.012542
2760.000000	0.012524
2759.000000	0.012504
2758.000000	0.012479
2757.000000	0.012447
2756.000000	0.012415
2755.000000	0.012389
2754.000000	0.012372
2753.000000	0.012354
2752.000000	0.012331
2751.000000	0.012306
2750.000000	0.012288
2749.000000	0.012280
2748.000000	0.012279
2747.000000	0.012276
2746.000000	0.012267
2745.000000	0.012249
2744.000000	0.012225
2743.000000	0.012198
2742.000000	0.012173
2741.000000	0.012153
2740.000000	0.012135
2739.000000	0.012117
2738.000000	0.012095
2737.000000	0.012071
2736.000000	0.012043
2735.000000	0.012014
2734.000000	0.011988
2733.000000	0.011968
2732.000000	0.011949
2731.000000	0.011923
2730.000000	0.011895
2729.000000	0.011875
2728.000000	0.011869
2727.000000	0.011869
2726.000000	0.011862
2725.000000	0.011844
2724.000000	0.011818
2723.000000	0.011796
2722.000000	0.011787
2721.000000	0.011788
2720.000000	0.011787
2719.000000	0.011770
2718.000000	0.011742
2717.000000	0.011721
2716.000000	0.011715
2715.000000	0.011714
2714.000000	0.011697
2713.000000	0.011660
2712.000000	0.011617
2711.000000	0.011587
2710.000000	0.011575
2709.000000	0.011575
2708.000000	0.011570
2707.000000	0.011557
2706.000000	0.011540
2705.000000	0.011525
2704.000000	0.011515
2703.000000	0.011504
2702.000000	0.011493
2701.000000	0.011484
2700.000000	0.011476
2699.000000	0.011462
2698.000000	0.011437
2697.000000	0.011408
2696.000000	0.011389
2695.000000	0.011382
2694.000000	0.011382
2693.000000	0.011382
2692.000000	0.011378
2691.000000	0.011374
2690.000000	0.011372
2689.000000	0.011365
2688.000000	0.011350
2687.000000	0.011327
2686.000000	0.011308
2685.000000	0.011302
2684.000000	0.011307
2683.000000	0.011313
2682.000000	0.011314
2681.000000	0.011314
2680.000000	0.011314
2679.000000	0.011308
2678.000000	0.011291
2677.000000	0.011265
2676.000000	0.011241
2675.000000	0.011225
2674.000000	0.011218
2673.000000	0.011217
2672.000000	0.011219
2671.000000	0.011220
2670.000000	0.011219
2669.000000	0.011224
2668.000000	0.011238
2667.000000	0.011257
2666.000000	0.011266
2665.000000	0.011257
2664.000000	0.011235
2663.000000	0.011211
2662.000000	0.011193
2661.000000	0.011183
2660.000000	0.011178
2659.000000	0.011172
2658.000000	0.011158
2657.000000	0.011134
2656.000000	0.011104
2655.000000	0.011077
2654.000000	0.011055
2653.000000	0.011036
2652.000000	0.011016
2651.000000	0.010995
2650.000000	0.010972
2649.000000	0.010949
2648.000000	0.010919
2647.000000	0.010880
2646.000000	0.010831
2645.000000	0.010782
2644.000000	0.010744
2643.000000	0.010725
2642.000000	0.010718
2641.000000	0.010710
2640.000000	0.010688
2639.000000	0.010654
2638.000000	0.010615
2637.000000	0.010578
2636.000000	0.010547
2635.000000	0.010522
2634.000000	0.010500
2633.000000	0.010475
2632.000000	0.010445
2631.000000	0.010414
2630.000000	0.010390
2629.000000	0.010368
2628.000000	0.010341
2627.000000	0.010307
2626.000000	0.010278
2625.000000	0.010265
2624.000000	0.010262
2623.000000	0.010257
2622.000000	0.010242
2621.000000	0.010218
2620.000000	0.010183
2619.000000	0.010139
2618.000000	0.010092
2617.000000	0.010051
2616.000000	0.010019
2615.000000	0.009996
2614.000000	0.009986
2613.000000	0.009983
2612.000000	0.009973
2611.000000	0.009946
2610.000000	0.009913
2609.000000	0.009896
2608.000000	0.009897
2607.000000	0.009894
2606.000000	0.009872
2605.000000	0.009837
2604.000000	0.009810
2603.000000	0.009803
2602.000000	0.009817
2601.000000	0.009839
2600.000000	0.009852
2599.000000	0.009844
2598.000000	0.009818
2597.000000	0.009786
2596.000000	0.009751
2595.000000	0.009708
2594.000000	0.009662
2593.000000	0.009633
2592.000000	0.009638
2591.000000	0.009667
2590.000000	0.009691
2589.000000	0.009685
2588.000000	0.009647
2587.000000	0.009586
2586.000000	0.009519
2585.000000	0.009461
2584.000000	0.009417
2583.000000	0.009393
2582.000000	0.009393
2581.000000	0.009416
2580.000000	0.009445
2579.000000	0.009457
2578.000000	0.009434
2577.000000	0.009386
2576.000000	0.009337
2575.000000	0.009308
2574.000000	0.009306
2573.000000	0.009319
2572.000000	0.009331
2571.000000	0.009329
2570.000000	0.009313
2569.000000	0.009294
2568.000000	0.009280
2567.000000	0.009267
2566.000000	0.009254
2565.000000	0.009242
2564.000000	0.009237
2563.000000	0.009241
2562.000000	0.009256
2561.000000	0.009280
2560.000000	0.009303
2559.000000	0.009308
2558.000000	0.009283
2557.000000	0.009239
2556.000000	0.009199
2555.000000	0.009174
2554.000000	0.009164
2553.000000	0.009162
2552.000000	0.009168
2551.000000	0.009183
2550.000000	0.009203
2549.000000	0.009221
2548.000000	0.009233
2547.000000	0.009239
2546.000000	0.009237
2545.000000	0.009217
2544.000000	0.009172
2543.000000	0.009110
2542.000000	0.009053
2541.000000	0.009023
2540.000000	0.009025
2539.000000	0.009050
2538.000000	0.009083
2537.000000	0.009111
2536.000000	0.009126
2535.000000	0.009125
2534.000000	0.009116
2533.000000	0.009104
2532.000000	0.009094
2531.000000	0.009084
2530.000000	0.009072
2529.000000	0.009063
2528.000000	0.009054
2527.000000	0.009045
2526.000000	0.009031
2525.000000	0.009012
2524.000000	0.008993
2523.000000	0.008982
2522.000000	0.008981
2521.000000	0.008990
2520.000000	0.009001
2519.000000	0.009009
2518.000000	0.009003
2517.000000	0.008979
2516.000000	0.008943
2515.000000	0.008913
2514.000000	0.008904
2513.000000	0.008911
2512.000000	0.008917
2511.000000	0.008918
2510.000000	0.008920
2509.000000	0.008919
2508.000000	0.008904
2507.000000	0.008875
2506.000000	0.008845
2505.000000	0.008826
2504.000000	0.008816
2503.000000	0.008814
2502.000000	0.008829
2501.000000	0.008862
2500.000000	0.008889
2499.000000	0.008892
2498.000000	0.008883
2497.000000	0.008891
2496.000000	0.008917
2495.000000	0.008937
2494.000000	0.008927
2493.000000	0.008888
2492.000000	0.008840
2491.000000	0.008803
2490.000000	0.008786
2489.000000	0.008782
2488.000000	0.008781
2487.000000	0.008776
2486.000000	0.008777
2485.000000	0.008786
2484.000000	0.008793
2483.000000	0.008784
2482.000000	0.008763
2481.000000	0.008746
2480.000000	0.008740
2479.000000	0.008743
2478.000000	0.008751
2477.000000	0.008763
2476.000000	0.008764
2475.000000	0.008743
2474.000000	0.008705
2473.000000	0.008664
2472.000000	0.008631
2471.000000	0.008612
2470.000000	0.008613
2469.000000	0.008635
2468.000000	0.008664
2467.000000	0.008679
2466.000000	0.008678
2465.000000	0.008674
2464.000000	0.008671
2463.000000	0.008663
2462.000000	0.008645
2461.000000	0.008629
2460.000000	0.008623
2459.000000	0.008622
2458.000000	0.008618
2457.000000	0.008607
2456.000000	0.008594
2455.000000	0.008583
2454.000000	0.008575
2453.000000	0.008564
2452.000000	0.008545
2451.000000	0.008521
2450.000000	0.008506
2449.000000	0.008508
2448.000000	0.008520
2447.000000	0.008526
2446.000000	0.008523
2445.000000	0.008519
2444.000000	0.008517
2443.000000	0.008517
2442.000000	0.008516
2441.000000	0.008508
2440.000000	0.008491
2439.000000	0.008475
2438.000000	0.008482
2437.000000	0.008517
2436.000000	0.008554
2435.000000	0.008562
2434.000000	0.008545
2433.000000	0.008531
2432.000000	0.008535
2431.000000	0.008543
2430.000000	0.008538
2429.000000	0.008523
2428.000000	0.008508
2427.000000	0.008499
2426.000000	0.008498
2425.000000	0.008503
2424.000000	0.008502
2423.000000	0.008479
2422.000000	0.008436
2421.000000	0.008386
2420.000000	0.008352
2419.000000	0.008353
2418.000000	0.008389
2417.000000	0.008438
2416.000000	0.008465
2415.000000	0.008458
2414.000000	0.008438
2413.000000	0.008425
2412.000000	0.008412
2411.000000	0.008384
2410.000000	0.008349
2409.000000	0.008333
2408.000000	0.008336
2407.000000	0.008332
2406.000000	0.008311
2405.000000	0.008286
2404.000000	0.008271
2403.000000	0.008263
2402.000000	0.008263
2401.000000	0.008279
2400.000000	0.008308
2399.000000	0.008325
2398.000000	0.008312
2397.000000	0.008278
2396.000000	0.008240
2395.000000	0.008212
2394.000000	0.008206
2393.000000	0.008235
2392.000000	0.008296
2391.000000	0.008361
2390.000000	0.008399
2389.000000	0.008403
2388.000000	0.008395
2387.000000	0.008396
2386.000000	0.008408
2385.000000	0.008409
2384.000000	0.008380
2383.000000	0.008318
2382.000000	0.008241
2381.000000	0.008174
2380.000000	0.008133
2379.000000	0.008124
2378.000000	0.008152
2377.000000	0.008213
2376.000000	0.008277
2375.000000	0.008312
2374.000000	0.008304
2373.000000	0.008267
2372.000000	0.008218
2371.000000	0.008162
2370.000000	0.008110
2369.000000	0.008072
2368.000000	0.008055
2367.000000	0.008067
2366.000000	0.008117
2365.000000	0.008203
2364.000000	0.008291
2363.000000	0.008350
2362.000000	0.008371
2361.000000	0.008362
2360.000000	0.008345
2359.000000	0.008335
2358.000000	0.008322
2357.000000	0.008293
2356.000000	0.008256
2355.000000	0.008259
2354.000000	0.008297
2353.000000	0.008318
2352.000000	0.008307
2351.000000	0.008313
2350.000000	0.008376
2349.000000	0.008475
2348.000000	0.008562
2347.000000	0.008584
2346.000000	0.008524
2345.000000	0.008428
2344.000000	0.008357
2343.000000	0.008341
2342.000000	0.008353
2341.000000	0.008364
2340.000000	0.008378
2339.000000	0.008406
2338.000000	0.008436
2337.000000	0.008446
2336.000000	0.008434
2335.000000	0.008397
2334.000000	0.008332
2333.000000	0.008245
2332.000000	0.008186
2331.000000	0.008186
2330.000000	0.008243
2329.000000	0.008306
2328.000000	0.008371
2327.000000	0.008457
2326.000000	0.008567
2325.000000	0.008648
2324.000000	0.008651
2323.000000	0.008587
2322.000000	0.008523
2321.000000	0.008511
2320.000000	0.008538
2319.000000	0.008544
2318.000000	0.008509
2317.000000	0.008451
2316.000000	0.008421
2315.000000	0.008435
2314.000000	0.008495
2313.000000	0.008568
2312.000000	0.008620
2311.000000	0.008614
2310.000000	0.008554
2309.000000	0.008472
2308.000000	0.008409
2307.000000	0.008378
2306.000000	0.008379
2305.000000	0.008392
2304.000000	0.008398
2303.000000	0.008378
2302.000000	0.008341
2301.000000	0.008306
2300.000000	0.008293
2299.000000	0.008301
2298.000000	0.008331
2297.000000	0.008372
2296.000000	0.008405
2295.000000	0.008407
2294.000000	0.008381
2293.000000	0.008353
2292.000000	0.008346
2291.000000	0.008358
2290.000000	0.008372
2289.000000	0.008378
2288.000000	0.008373
2287.000000	0.008368
2286.000000	0.008372
2285.000000	0.008374
2284.000000	0.008348
2283.000000	0.008282
2282.000000	0.008203
2281.000000	0.008157
2280.000000	0.008160
2279.000000	0.008188
2278.000000	0.008214
2277.000000	0.008224
2276.000000	0.008201
2275.000000	0.008134
2274.000000	0.008055
2273.000000	0.008013
2272.000000	0.008024
2271.000000	0.008053
2270.000000	0.008057
2269.000000	0.008029
2268.000000	0.007987
2267.000000	0.007945
2266.000000	0.007910
2265.000000	0.007880
2264.000000	0.007859
2263.000000	0.007868
2262.000000	0.007936
2261.000000	0.008061
2260.000000	0.008169
2259.000000	0.008177
2258.000000	0.008080
2257.000000	0.007957
2256.000000	0.007876
2255.000000	0.007837
2254.000000	0.007809
2253.000000	0.007787
2252.000000	0.007779
2251.000000	0.007779
2250.000000	0.007770
2249.000000	0.007750
2248.000000	0.007728
2247.000000	0.007722
2246.000000	0.007756
2245.000000	0.007838
2244.000000	0.007935
2243.000000	0.008002
2242.000000	0.008021
2241.000000	0.008005
2240.000000	0.007961
2239.000000	0.007890
2238.000000	0.007836
2237.000000	0.007856
2236.000000	0.007943
2235.000000	0.008007
2234.000000	0.007984
2233.000000	0.007903
2232.000000	0.007835
2231.000000	0.007808
2230.000000	0.007810
2229.000000	0.007840
2228.000000	0.007902
2227.000000	0.007972
2226.000000	0.008011
2225.000000	0.007992
2224.000000	0.007917
2223.000000	0.007803
2222.000000	0.007681
2221.000000	0.007587
2220.000000	0.007542
2219.000000	0.007546
2218.000000	0.007593
2217.000000	0.007667
2216.000000	0.007722
2215.000000	0.007703
2214.000000	0.007613
2213.000000	0.007522
2212.000000	0.007499
2211.000000	0.007553
2210.000000	0.007638
2209.000000	0.007701
2208.000000	0.007704
2207.000000	0.007635
2206.000000	0.007520
2205.000000	0.007415
2204.000000	0.007367
2203.000000	0.007392
2202.000000	0.007464
2201.000000	0.007529
2200.000000	0.007531
2199.000000	0.007471
2198.000000	0.007416
2197.000000	0.007428
2196.000000	0.007485
2195.000000	0.007508
2194.000000	0.007458
2193.000000	0.007377
2192.000000	0.007330
2191.000000	0.007331
2190.000000	0.007334
2189.000000	0.007279
2188.000000	0.007145
2187.000000	0.006988
2186.000000	0.006893
2185.000000	0.006880
2184.000000	0.006874
2183.000000	0.006808
2182.000000	0.006711
2181.000000	0.006660
2180.000000	0.006687
2179.000000	0.006784
2178.000000	0.006944
2177.000000	0.007135
2176.000000	0.007263
2175.000000	0.007253
2174.000000	0.007150
2173.000000	0.007057
2172.000000	0.007023
2171.000000	0.007049
2170.000000	0.007145
2169.000000	0.007290
2168.000000	0.007375
2167.000000	0.007295
2166.000000	0.007090
2165.000000	0.006903
2164.000000	0.006805
2163.000000	0.006748
2162.000000	0.006679
2161.000000	0.006576
2160.000000	0.006385
2159.000000	0.006091
2158.000000	0.005833
2157.000000	0.005773
2156.000000	0.005865
2155.000000	0.005932
2154.000000	0.005911
2153.000000	0.005870
2152.000000	0.005871
2151.000000	0.005928
2150.000000	0.006075
2149.000000	0.006335
2148.000000	0.006620
2147.000000	0.006783
2146.000000	0.006791
2145.000000	0.006748
2144.000000	0.006741
2143.000000	0.006760
2142.000000	0.006768
2141.000000	0.006760
2140.000000	0.006728
2139.000000	0.006656
2138.000000	0.006576
2137.000000	0.006554
2136.000000	0.006602
2135.000000	0.006649
2134.000000	0.006646
2133.000000	0.006620
2132.000000	0.006631
2131.000000	0.006702
2130.000000	0.006823
2129.000000	0.006965
2128.000000	0.007090
2127.000000	0.007166
2126.000000	0.007199
2125.000000	0.007220
2124.000000	0.007242
2123.000000	0.007264
2122.000000	0.007288
2121.000000	0.007310
2120.000000	0.007302
2119.000000	0.007244
2118.000000	0.007174
2117.000000	0.007157
2116.000000	0.007212
2115.000000	0.007303
2114.000000	0.007393
2113.000000	0.007467
2112.000000	0.007505
2111.000000	0.007499
2110.000000	0.007487
2109.000000	0.007519
2108.000000	0.007586
2107.000000	0.007619
2106.000000	0.007575
2105.000000	0.007486
2104.000000	0.007406
2103.000000	0.007367
2102.000000	0.007382
2101.000000	0.007450
2100.000000	0.007528
2099.000000	0.007551
2098.000000	0.007496
2097.000000	0.007408
2096.000000	0.007337
2095.000000	0.007294
2094.000000	0.007267
2093.000000	0.007250
2092.000000	0.007240
2091.000000	0.007241
2090.000000	0.007265
2089.000000	0.007312
2088.000000	0.007337
2087.000000	0.007305
2086.000000	0.007245
2085.000000	0.007221
2084.000000	0.007244
2083.000000	0.007268
2082.000000	0.007271
2081.000000	0.007281
2080.000000	0.007305
2079.000000	0.007312
2078.000000	0.007281
2077.000000	0.007230
2076.000000	0.007165
2075.000000	0.007061
2074.000000	0.006923
2073.000000	0.006809
2072.000000	0.006764
2071.000000	0.006778
2070.000000	0.006838
2069.000000	0.006950
2068.000000	0.007092
2067.000000	0.007196
2066.000000	0.007213
2065.000000	0.007157
2064.000000	0.007065
2063.000000	0.006947
2062.000000	0.006811
2061.000000	0.006687
2060.000000	0.006610
2059.000000	0.006595
2058.000000	0.006651
2057.000000	0.006780
2056.000000	0.006950
2055.000000	0.007106
2054.000000	0.007221
2053.000000	0.007292
2052.000000	0.007295
2051.000000	0.007196
2050.000000	0.007007
2049.000000	0.006796
2048.000000	0.006620
2047.000000	0.006494
2046.000000	0.006431
2045.000000	0.006425
2044.000000	0.006403
2043.000000	0.006295
2042.000000	0.006149
2041.000000	0.006074
2040.000000	0.006070
2039.000000	0.006018
2038.000000	0.005870
2037.000000	0.005718
2036.000000	0.005639
2035.000000	0.005602
2034.000000	0.005577
2033.000000	0.005616
2032.000000	0.005746
2031.000000	0.005895
2030.000000	0.005987
2029.000000	0.006008
2028.000000	0.005953
2027.000000	0.005821
2026.000000	0.005684
2025.000000	0.005645
2024.000000	0.005690
2023.000000	0.005682
2022.000000	0.005554
2021.000000	0.005418
2020.000000	0.005412
2019.000000	0.005534
2018.000000	0.005674
2017.000000	0.005736
2016.000000	0.005710
2015.000000	0.005652
2014.000000	0.005639
2013.000000	0.005691
2012.000000	0.005757
2011.000000	0.005803
2010.000000	0.005871
2009.000000	0.005991
2008.000000	0.006086
2007.000000	0.006076
2006.000000	0.006014
2005.000000	0.006009
2004.000000	0.006055
2003.000000	0.006067
2002.000000	0.006032
2001.000000	0.006012
2000.000000	0.006009
1999.000000	0.005978
1998.000000	0.005934
1997.000000	0.005946
1996.000000	0.006018
1995.000000	0.006070
1994.000000	0.006062
1993.000000	0.006034
1992.000000	0.006029
1991.000000	0.006044
1990.000000	0.006074
1989.000000	0.006107
1988.000000	0.006086
1987.000000	0.005973
1986.000000	0.005828
1985.000000	0.005754
1984.000000	0.005772
1983.000000	0.005833
1982.000000	0.005934
1981.000000	0.006089
1980.000000	0.006225
1979.000000	0.006228
1978.000000	0.006093
1977.000000	0.005910
1976.000000	0.005706
1975.000000	0.005451
1974.000000	0.005207
1973.000000	0.005085
1972.000000	0.005071
1971.000000	0.005053
1970.000000	0.005011
1969.000000	0.005037
1968.000000	0.005161
1967.000000	0.005308
1966.000000	0.005432
1965.000000	0.005557
1964.000000	0.005669
1963.000000	0.005709
1962.000000	0.005680
1961.000000	0.005662
1960.000000	0.005689
1959.000000	0.005717
1958.000000	0.005718
1957.000000	0.005719
1956.000000	0.005761
1955.000000	0.005863
1954.000000	0.006022
1953.000000	0.006176
1952.000000	0.006209
1951.000000	0.006069
1950.000000	0.005869
1949.000000	0.005776
1948.000000	0.005814
1947.000000	0.005881
1946.000000	0.005926
1945.000000	0.005991
1944.000000	0.006092
1943.000000	0.006162
1942.000000	0.006140
1941.000000	0.006039
1940.000000	0.005910
1939.000000	0.005802
1938.000000	0.005774
1937.000000	0.005850
1936.000000	0.005963
1935.000000	0.006025
1934.000000	0.006026
1933.000000	0.006031
1932.000000	0.006065
1931.000000	0.006092
1930.000000	0.006108
1929.000000	0.006148
1928.000000	0.006207
1927.000000	0.006235
1926.000000	0.006219
1925.000000	0.006211
1924.000000	0.006242
1923.000000	0.006277
1922.000000	0.006278
1921.000000	0.006255
1920.000000	0.006217
1919.000000	0.006157
1918.000000	0.006097
1917.000000	0.006081
1916.000000	0.006106
1915.000000	0.006131
1914.000000	0.006132
1913.000000	0.006117
1912.000000	0.006094
1911.000000	0.006065
1910.000000	0.006051
1909.000000	0.006064
1908.000000	0.006069
1907.000000	0.006042
1906.000000	0.006013
1905.000000	0.006026
1904.000000	0.006049
1903.000000	0.006027
1902.000000	0.005983
1901.000000	0.005986
1900.000000	0.006039
1899.000000	0.006088
1898.000000	0.006116
1897.000000	0.006156
1896.000000	0.006207
1895.000000	0.006218
1894.000000	0.006170
1893.000000	0.006095
1892.000000	0.006009
1891.000000	0.005909
1890.000000	0.005826
1889.000000	0.005807
1888.000000	0.005832
1887.000000	0.005852
1886.000000	0.005861
1885.000000	0.005891
1884.000000	0.005930
1883.000000	0.005945
1882.000000	0.005950
1881.000000	0.005989
1880.000000	0.006036
1879.000000	0.006020
1878.000000	0.005939
1877.000000	0.005874
1876.000000	0.005881
1875.000000	0.005927
1874.000000	0.005959
1873.000000	0.005964
1872.000000	0.005931
1871.000000	0.005849
1870.000000	0.005747
1869.000000	0.005696
1868.000000	0.005704
1867.000000	0.005720
1866.000000	0.005744
1865.000000	0.005799
1864.000000	0.005858
1863.000000	0.005863
1862.000000	0.005821
1861.000000	0.005801
1860.000000	0.005830
1859.000000	0.005860
1858.000000	0.005855
1857.000000	0.005838
1856.000000	0.005833
1855.000000	0.005834
1854.000000	0.005837
1853.000000	0.005847
1852.000000	0.005847
1851.000000	0.005820
1850.000000	0.005787
1849.000000	0.005775
1848.000000	0.005779
1847.000000	0.005767
1846.000000	0.005745
1845.000000	0.005754
1844.000000	0.005798
1843.000000	0.005822
1842.000000	0.005821
1841.000000	0.005836
1840.000000	0.005869
1839.000000	0.005876
1838.000000	0.005840
1837.000000	0.005800
1836.000000	0.005779
1835.000000	0.005758
1834.000000	0.005713
1833.000000	0.005648
1832.000000	0.005584
1831.000000	0.005552
1830.000000	0.005566
1829.000000	0.005602
1828.000000	0.005625
1827.000000	0.005629
1826.000000	0.005635
1825.000000	0.005671
1824.000000	0.005721
1823.000000	0.005741
1822.000000	0.005732
1821.000000	0.005723
1820.000000	0.005722
1819.000000	0.005706
1818.000000	0.005675
1817.000000	0.005670
1816.000000	0.005696
1815.000000	0.005708
1814.000000	0.005691
1813.000000	0.005674
1812.000000	0.005676
1811.000000	0.005666
1810.000000	0.005631
1809.000000	0.005616
1808.000000	0.005637
1807.000000	0.005655
1806.000000	0.005656
1805.000000	0.005672
1804.000000	0.005711
1803.000000	0.005734
1802.000000	0.005723
1801.000000	0.005707
1800.000000	0.005709
1799.000000	0.005712
1798.000000	0.005716
1797.000000	0.005741
1796.000000	0.005762
1795.000000	0.005723
1794.000000	0.005621
1793.000000	0.005533
1792.000000	0.005521
1791.000000	0.005531
1790.000000	0.005519
1789.000000	0.005517
1788.000000	0.005536
1787.000000	0.005541
1786.000000	0.005525
1785.000000	0.005516
1784.000000	0.005516
1783.000000	0.005492
1782.000000	0.005449
1781.000000	0.005417
1780.000000	0.005415
1779.000000	0.005421
1778.000000	0.005423
1777.000000	0.005429
1776.000000	0.005433
1775.000000	0.005414
1774.000000	0.005351
1773.000000	0.005257
1772.000000	0.005178
1771.000000	0.005121
1770.000000	0.005108
1769.000000	0.005167
1768.000000	0.005261
1767.000000	0.005304
1766.000000	0.005267
1765.000000	0.005206
1764.000000	0.005167
1763.000000	0.005147
1762.000000	0.005134
1761.000000	0.005129
1760.000000	0.005144
1759.000000	0.005168
1758.000000	0.005191
1757.000000	0.005207
1756.000000	0.005204
1755.000000	0.005184
1754.000000	0.005166
1753.000000	0.005158
1752.000000	0.005148
1751.000000	0.005129
1750.000000	0.005116
1749.000000	0.005143
1748.000000	0.005222
1747.000000	0.005323
1746.000000	0.005411
1745.000000	0.005479
1744.000000	0.005533
1743.000000	0.005550
1742.000000	0.005516
1741.000000	0.005479
1740.000000	0.005488
1739.000000	0.005522
1738.000000	0.005551
1737.000000	0.005608
1736.000000	0.005685
1735.000000	0.005712
1734.000000	0.005709
1733.000000	0.005692
1732.000000	0.005646
1731.000000	0.005599
1730.000000	0.005581
1729.000000	0.005588
1728.000000	0.005587
1727.000000	0.005557
1726.000000	0.005507
1725.000000	0.005477
1724.000000	0.005485
1723.000000	0.005475
1722.000000	0.005412
1721.000000	0.005351
1720.000000	0.005353
1719.000000	0.005418
1718.000000	0.005534
1717.000000	0.005711
1716.000000	0.005898
1715.000000	0.006046
1714.000000	0.006220
1713.000000	0.006508
1712.000000	0.006878
1711.000000	0.007241
1710.000000	0.007578
1709.000000	0.007937
1708.000000	0.008354
1707.000000	0.008836
1706.000000	0.009404
1705.000000	0.010055
1704.000000	0.010700
1703.000000	0.011278
1702.000000	0.011818
1701.000000	0.012497
1700.000000	0.013457
1699.000000	0.014396
1698.000000	0.015220
1697.000000	0.016152
1696.000000	0.017211
1695.000000	0.018118
1694.000000	0.018770
1693.000000	0.019381
1692.000000	0.020118
1691.000000	0.020946
1690.000000	0.021781
1689.000000	0.022608
1688.000000	0.023441
1687.000000	0.024264
1686.000000	0.025044
1685.000000	0.025896
1684.000000	0.026906
1683.000000	0.027825
1682.000000	0.028651
1681.000000	0.029557
1680.000000	0.030541
1679.000000	0.031481
1678.000000	0.032347
1677.000000	0.033237
1676.000000	0.034239
1675.000000	0.035315
1674.000000	0.036345
1673.000000	0.037315
1672.000000	0.038305
1671.000000	0.039358
1670.000000	0.040500
1669.000000	0.041713
1668.000000	0.042896
1667.000000	0.043962
1666.000000	0.044925
1665.000000	0.045876
1664.000000	0.046886
1663.000000	0.047942
1662.000000	0.048977
1661.000000	0.049957
1660.000000	0.050894
1659.000000	0.051780
1658.000000	0.052607
1657.000000	0.053428
1656.000000	0.054300
1655.000000	0.055164
1654.000000	0.055950
1653.000000	0.056716
1652.000000	0.057298
1651.000000	0.057628
1650.000000	0.057859
1649.000000	0.058204
1648.000000	0.058692
1647.000000	0.059194
1646.000000	0.059593
1645.000000	0.059935
1644.000000	0.060268
1643.000000	0.060571
1642.000000	0.060842
1641.000000	0.061087
1640.000000	0.061309
1639.000000	0.061509
1638.000000	0.061667
1637.000000	0.061738
1636.000000	0.061680
1635.000000	0.061533
1634.000000	0.061411
1633.000000	0.061376
1632.000000	0.061364
1631.000000	0.061256
1630.000000	0.060968
1629.000000	0.060507
1628.000000	0.059934
1627.000000	0.059306
1626.000000	0.058636
1625.000000	0.057870
1624.000000	0.056946
1623.000000	0.055904
1622.000000	0.054893
1621.000000	0.054018
1620.000000	0.053259
1619.000000	0.052486
1618.000000	0.051492
1617.000000	0.050165
1616.000000	0.048677
1615.000000	0.047336
1614.000000	0.046258
1613.000000	0.045329
1612.000000	0.044385
1611.000000	0.043370
1610.000000	0.042349
1609.000000	0.041361
1608.000000	0.040394
1607.000000	0.039471
1606.000000	0.038643
1605.000000	0.037888
1604.000000	0.037161
1603.000000	0.036479
1602.000000	0.035881
1601.000000	0.035347
1600.000000	0.034842
1599.000000	0.034378
1598.000000	0.033979
1597.000000	0.033619
1596.000000	0.033268
1595.000000	0.032957
1594.000000	0.032737
1593.000000	0.032592
1592.000000	0.032472
1591.000000	0.032382
1590.000000	0.032363
1589.000000	0.032404
1588.000000	0.032462
1587.000000	0.032538
1586.000000	0.032665
1585.000000	0.032826
1584.000000	0.032987
1583.000000	0.033191
1582.000000	0.033489
1581.000000	0.033842
1580.000000	0.034201
1579.000000	0.034603
1578.000000	0.035079
1577.000000	0.035554
1576.000000	0.035905
1575.000000	0.036137
1574.000000	0.036381
1573.000000	0.036711
1572.000000	0.037107
1571.000000	0.037531
1570.000000	0.038015
1569.000000	0.038540
1568.000000	0.039046
1567.000000	0.039575
1566.000000	0.040186
1565.000000	0.040867
1564.000000	0.041558
1563.000000	0.042261
1562.000000	0.042968
1561.000000	0.043530
1560.000000	0.043886
1559.000000	0.044426
1558.000000	0.045160
1557.000000	0.045916
1556.000000	0.046665
1555.000000	0.047392
1554.000000	0.048058
1553.000000	0.048626
1552.000000	0.049142
1551.000000	0.049662
1550.000000	0.050171
1549.000000	0.050620
1548.000000	0.050997
1547.000000	0.051346
1546.000000	0.051701
1545.000000	0.052071
1544.000000	0.052418
1543.000000	0.052692
1542.000000	0.052889
1541.000000	0.053051
1540.000000	0.053163
1539.000000	0.053169
1538.000000	0.053146
1537.000000	0.053149
1536.000000	0.053160
1535.000000	0.053099
1534.000000	0.052914
1533.000000	0.052683
1532.000000	0.052511
1531.000000	0.052398
1530.000000	0.052282
1529.000000	0.052147
1528.000000	0.051990
1527.000000	0.051764
1526.000000	0.051440
1525.000000	0.051099
1524.000000	0.050839
1523.000000	0.050624
1522.000000	0.050333
1521.000000	0.049935
1520.000000	0.049514
1519.000000	0.049140
1518.000000	0.048804
1517.000000	0.048469
1516.000000	0.048115
1515.000000	0.047745
1514.000000	0.047348
1513.000000	0.046882
1512.000000	0.046354
1511.000000	0.045824
1510.000000	0.045339
1509.000000	0.044857
1508.000000	0.044208
1507.000000	0.043201
1506.000000	0.041977
1505.000000	0.041029
1504.000000	0.040408
1503.000000	0.039896
1502.000000	0.039355
1501.000000	0.038725
1500.000000	0.038037
1499.000000	0.037343
1498.000000	0.036625
1497.000000	0.035860
1496.000000	0.035084
1495.000000	0.034331
1494.000000	0.033627
1493.000000	0.032996
1492.000000	0.032407
1491.000000	0.031793
1490.000000	0.031154
1489.000000	0.030583
1488.000000	0.030150
1487.000000	0.029801
1486.000000	0.029501
1485.000000	0.029280
1484.000000	0.029145
1483.000000	0.029066
1482.000000	0.029021
1481.000000	0.029044
1480.000000	0.029152
1479.000000	0.029303
1478.000000	0.029475
1477.000000	0.029709
1476.000000	0.030046
1475.000000	0.030443
1474.000000	0.030865
1473.000000	0.031346
1472.000000	0.031885
1471.000000	0.032404
1470.000000	0.032887
1469.000000	0.033373
1468.000000	0.033859
1467.000000	0.034295
1466.000000	0.034678
1465.000000	0.035077
1464.000000	0.035524
1463.000000	0.035973
1462.000000	0.036389
1461.000000	0.036810
1460.000000	0.037298
1459.000000	0.037879
1458.000000	0.038531
1457.000000	0.039191
1456.000000	0.039743
1455.000000	0.040155
1454.000000	0.040512
1453.000000	0.040883
1452.000000	0.041236
1451.000000	0.041492
1450.000000	0.041642
1449.000000	0.041732
1448.000000	0.041792
1447.000000	0.041818
1446.000000	0.041828
1445.000000	0.041831
1444.000000	0.041823
1443.000000	0.041781
1442.000000	0.041691
1441.000000	0.041572
1440.000000	0.041449
1439.000000	0.041302
1438.000000	0.041050
1437.000000	0.040675
1436.000000	0.040282
1435.000000	0.039966
1434.000000	0.039715
1433.000000	0.039469
1432.000000	0.039172
1431.000000	0.038820
1430.000000	0.038461
1429.000000	0.038155
1428.000000	0.037935
1427.000000	0.037782
1426.000000	0.037651
1425.000000	0.037498
1424.000000	0.037347
1423.000000	0.037260
1422.000000	0.037242
1421.000000	0.037219
1420.000000	0.037122
1419.000000	0.036989
1418.000000	0.036858
1417.000000	0.036754
1416.000000	0.036711
1415.000000	0.036713
1414.000000	0.036714
1413.000000	0.036696
1412.000000	0.036681
1411.000000	0.036682
1410.000000	0.036685
1409.000000	0.036691
1408.000000	0.036720
1407.000000	0.036772
1406.000000	0.036821
1405.000000	0.036836
1404.000000	0.036830
1403.000000	0.036834
1402.000000	0.036843
1401.000000	0.036820
1400.000000	0.036749
1399.000000	0.036654
1398.000000	0.036562
1397.000000	0.036472
1396.000000	0.036353
1395.000000	0.036176
1394.000000	0.035950
1393.000000	0.035699
1392.000000	0.035454
1391.000000	0.035221
1390.000000	0.034990
1389.000000	0.034742
1388.000000	0.034465
1387.000000	0.034158
1386.000000	0.033839
1385.000000	0.033530
1384.000000	0.033237
1383.000000	0.032945
1382.000000	0.032647
1381.000000	0.032346
1380.000000	0.032035
1379.000000	0.031700
1378.000000	0.031339
1377.000000	0.030968
1376.000000	0.030598
1375.000000	0.030226
1374.000000	0.029849
1373.000000	0.029469
1372.000000	0.029097
1371.000000	0.028731
1370.000000	0.028354
1369.000000	0.027941
1368.000000	0.027491
1367.000000	0.027034
1366.000000	0.026601
1365.000000	0.026199
1364.000000	0.025822
1363.000000	0.025462
1362.000000	0.025122
1361.000000	0.024818
1360.000000	0.024576
1359.000000	0.024403
1358.000000	0.024293
1357.000000	0.024229
1356.000000	0.024198
1355.000000	0.024200
1354.000000	0.024242
1353.000000	0.024334
1352.000000	0.024483
1351.000000	0.024683
1350.000000	0.024924
1349.000000	0.025183
1348.000000	0.025442
1347.000000	0.025700
1346.000000	0.025964
1345.000000	0.026233
1344.000000	0.026508
1343.000000	0.026794
1342.000000	0.027100
1341.000000	0.027416
1340.000000	0.027711
1339.000000	0.027940
1338.000000	0.028084
1337.000000	0.028158
1336.000000	0.028184
1335.000000	0.028176
1334.000000	0.028131
1333.000000	0.028043
1332.000000	0.027911
1331.000000	0.027746
1330.000000	0.027561
1329.000000	0.027358
1328.000000	0.027140
1327.000000	0.026921
1326.000000	0.026724
1325.000000	0.026558
1324.000000	0.026417
1323.000000	0.026302
1322.000000	0.026223
1321.000000	0.026178
1320.000000	0.026149
1319.000000	0.026113
1318.000000	0.026056
1317.000000	0.025984
1316.000000	0.025911
1315.000000	0.025838
1314.000000	0.025750
1313.000000	0.025633
1312.000000	0.025494
1311.000000	0.025350
1310.000000	0.025205
1309.000000	0.025045
1308.000000	0.024869
1307.000000	0.024689
1306.000000	0.024520
1305.000000	0.024356
1304.000000	0.024188
1303.000000	0.024023
1302.000000	0.023871
1301.000000	0.023735
1300.000000	0.023615
1299.000000	0.023508
1298.000000	0.023411
1297.000000	0.023324
1296.000000	0.023252
1295.000000	0.023211
1294.000000	0.023205
1293.000000	0.023234
1292.000000	0.023296
1291.000000	0.023398
1290.000000	0.023539
1289.000000	0.023706
1288.000000	0.023882
1287.000000	0.024060
1286.000000	0.024239
1285.000000	0.024419
1284.000000	0.024598
1283.000000	0.024773
1282.000000	0.024934
1281.000000	0.025066
1280.000000	0.025154
1279.000000	0.025196
1278.000000	0.025196
1277.000000	0.025171
1276.000000	0.025136
1275.000000	0.025106
1274.000000	0.025088
1273.000000	0.025080
1272.000000	0.025076
1271.000000	0.025081
1270.000000	0.025111
1269.000000	0.025171
1268.000000	0.025254
1267.000000	0.025338
1266.000000	0.025415
1265.000000	0.025500
1264.000000	0.025623
1263.000000	0.025795
1262.000000	0.025997
1261.000000	0.026200
1260.000000	0.026393
1259.000000	0.026585
1258.000000	0.026787
1257.000000	0.027002
1256.000000	0.027230
1255.000000	0.027471
1254.000000	0.027719
1253.000000	0.027971
1252.000000	0.028227
1251.000000	0.028493
1250.000000	0.028772
1249.000000	0.029070
1248.000000	0.029387
1247.000000	0.029724
1246.000000	0.030073
1245.000000	0.030412
1244.000000	0.030723
1243.000000	0.030996
1242.000000	0.031242
1241.000000	0.031471
1240.000000	0.031681
1239.000000	0.031856
1238.000000	0.031983
1237.000000	0.032068
1236.000000	0.032118
1235.000000	0.032138
1234.000000	0.032119
1233.000000	0.032055
1232.000000	0.031938
1231.000000	0.031760
1230.000000	0.031517
1229.000000	0.031213
1228.000000	0.030861
1227.000000	0.030465
1226.000000	0.030023
1225.000000	0.029534
1224.000000	0.029005
1223.000000	0.028449
1222.000000	0.027874
1221.000000	0.027282
1220.000000	0.026692
1219.000000	0.026143
1218.000000	0.025676
1217.000000	0.025309
1216.000000	0.025037
1215.000000	0.024841
1214.000000	0.024705
1213.000000	0.024613
1212.000000	0.024556
1211.000000	0.024531
1210.000000	0.024540
1209.000000	0.024581
1208.000000	0.024651
1207.000000	0.024736
1206.000000	0.024821
1205.000000	0.024892
1204.000000	0.024935
1203.000000	0.024938
1202.000000	0.024894
1201.000000	0.024803
1200.000000	0.024664
1199.000000	0.024473
1198.000000	0.024223
1197.000000	0.023920
1196.000000	0.023586
1195.000000	0.023242
1194.000000	0.022895
1193.000000	0.022545
1192.000000	0.022189
1191.000000	0.021829
1190.000000	0.021467
1189.000000	0.021110
1188.000000	0.020776
1187.000000	0.020472
1186.000000	0.020190
1185.000000	0.019919
1184.000000	0.019661
1183.000000	0.019433
1182.000000	0.019241
1181.000000	0.019079
1180.000000	0.018944
1179.000000	0.018841
1178.000000	0.018774
1177.000000	0.018738
1176.000000	0.018723
1175.000000	0.018727
1174.000000	0.018747
1173.000000	0.018777
1172.000000	0.018813
1171.000000	0.018853
1170.000000	0.018899
1169.000000	0.018957
1168.000000	0.019032
1167.000000	0.019130
1166.000000	0.019242
1165.000000	0.019358
1164.000000	0.019468
1163.000000	0.019571
1162.000000	0.019659
1161.000000	0.019721
1160.000000	0.019742
1159.000000	0.019716
1158.000000	0.019638
1157.000000	0.019512
1156.000000	0.019349
1155.000000	0.019161
1154.000000	0.018959
1153.000000	0.018750
1152.000000	0.018540
1151.000000	0.018327
1150.000000	0.018096
1149.000000	0.017832
1148.000000	0.017544
1147.000000	0.017257
1146.000000	0.016992
1145.000000	0.016758
1144.000000	0.016547
1143.000000	0.016352
1142.000000	0.016163
1141.000000	0.015972
1140.000000	0.015782
1139.000000	0.015611
1138.000000	0.015474
1137.000000	0.015371
1136.000000	0.015288
1135.000000	0.015217
1134.000000	0.015156
1133.000000	0.015108
1132.000000	0.015077
1131.000000	0.015060
1130.000000	0.015049
1129.000000	0.015041
1128.000000	0.015038
1127.000000	0.015047
1126.000000	0.015071
1125.000000	0.015112
1124.000000	0.015172
1123.000000	0.015245
1122.000000	0.015311
1121.000000	0.015355
1120.000000	0.015382
1119.000000	0.015412
1118.000000	0.015465
1117.000000	0.015543
1116.000000	0.015639
1115.000000	0.015738
1114.000000	0.015827
1113.000000	0.015906
1112.000000	0.015991
1111.000000	0.016098
1110.000000	0.016224
1109.000000	0.016356
1108.000000	0.016484
1107.000000	0.016597
1106.000000	0.016693
1105.000000	0.016773
1104.000000	0.016856
1103.000000	0.016957
1102.000000	0.017072
1101.000000	0.017178
1100.000000	0.017258
1099.000000	0.017313
1098.000000	0.017369
1097.000000	0.017455
1096.000000	0.017583
1095.000000	0.017745
1094.000000	0.017927
1093.000000	0.018130
1092.000000	0.018379
1091.000000	0.018699
1090.000000	0.019087
1089.000000	0.019515
1088.000000	0.019956
1087.000000	0.020398
1086.000000	0.020837
1085.000000	0.021257
1084.000000	0.021623
1083.000000	0.021900
1082.000000	0.022074
1081.000000	0.022156
1080.000000	0.022160
1079.000000	0.022088
1078.000000	0.021943
1077.000000	0.021735
1076.000000	0.021488
1075.000000	0.021218
1074.000000	0.020941
1073.000000	0.020678
1072.000000	0.020447
1071.000000	0.020257
1070.000000	0.020104
1069.000000	0.019990
1068.000000	0.019928
1067.000000	0.019921
1066.000000	0.019951
1065.000000	0.020001
1064.000000	0.020069
1063.000000	0.020159
1062.000000	0.020255
1061.000000	0.020319
1060.000000	0.020333
1059.000000	0.020313
1058.000000	0.020292
1057.000000	0.020278
1056.000000	0.020256
1055.000000	0.020210
1054.000000	0.020151
1053.000000	0.020110
1052.000000	0.020103
1051.000000	0.020114
1050.000000	0.020116
1049.000000	0.020089
1048.000000	0.020040
1047.000000	0.019988
1046.000000	0.019950
1045.000000	0.019940
1044.000000	0.019954
1043.000000	0.019983
1042.000000	0.020025
1041.000000	0.020094
1040.000000	0.020212
1039.000000	0.020392
1038.000000	0.020633
1037.000000	0.020919
1036.000000	0.021220
1035.000000	0.021501
1034.000000	0.021743
1033.000000	0.021953
1032.000000	0.022142
1031.000000	0.022294
1030.000000	0.022386
1029.000000	0.022415
1028.000000	0.022407
1027.000000	0.022382
1026.000000	0.022340
1025.000000	0.022275
1024.000000	0.022197
1023.000000	0.022121
1022.000000	0.022051
1021.000000	0.021982
1020.000000	0.021908
1019.000000	0.021826
1018.000000	0.021730
1017.000000	0.021613
1016.000000	0.021465
1015.000000	0.021266
1014.000000	0.020993
1013.000000	0.020648
1012.000000	0.020258
1011.000000	0.019861
1010.000000	0.019471
1009.000000	0.019083
1008.000000	0.018690
1007.000000	0.018307
1006.000000	0.017951
1005.000000	0.017623
1004.000000	0.017309
1003.000000	0.016991
1002.000000	0.016668
1001.000000	0.016354
1000.000000	0.016064
999.000000	0.015803
998.000000	0.015555
997.000000	0.015296
996.000000	0.015013
995.000000	0.014718
994.000000	0.014432
993.000000	0.014167
992.000000	0.013921
991.000000	0.013688
990.000000	0.013466
989.000000	0.013258
988.000000	0.013066
987.000000	0.012876
986.000000	0.012683
985.000000	0.012494
984.000000	0.012333
983.000000	0.012218
982.000000	0.012148
981.000000	0.012109
980.000000	0.012080
979.000000	0.012040
978.000000	0.011972
977.000000	0.011870
976.000000	0.011752
975.000000	0.011641
974.000000	0.011551
973.000000	0.011479
972.000000	0.011402
971.000000	0.011296
970.000000	0.011144
969.000000	0.010958
968.000000	0.010758
967.000000	0.010558
966.000000	0.010356
965.000000	0.010160
964.000000	0.009982
963.000000	0.009824
962.000000	0.009669
961.000000	0.009506
960.000000	0.009346
959.000000	0.009200
958.000000	0.009061
957.000000	0.008907
956.000000	0.008737
955.000000	0.008571
954.000000	0.008430
953.000000	0.008321
952.000000	0.008237
951.000000	0.008170
950.000000	0.008110
949.000000	0.008058
948.000000	0.008020
947.000000	0.007999
946.000000	0.007981
945.000000	0.007955
944.000000	0.007928
943.000000	0.007921
942.000000	0.007940
941.000000	0.007965
940.000000	0.007974
939.000000	0.007952
938.000000	0.007902
937.000000	0.007838
936.000000	0.007775
935.000000	0.007717
934.000000	0.007657
933.000000	0.007587
932.000000	0.007515
931.000000	0.007451
930.000000	0.007402
929.000000	0.007366
928.000000	0.007341
927.000000	0.007324
926.000000	0.007310
925.000000	0.007306
924.000000	0.007320
923.000000	0.007347
922.000000	0.007354
921.000000	0.007308
920.000000	0.007199
919.000000	0.007053
918.000000	0.006902
917.000000	0.006768
916.000000	0.006661
915.000000	0.006567
914.000000	0.006461
913.000000	0.006325
912.000000	0.006168
911.000000	0.006013
910.000000	0.005887
909.000000	0.005802
908.000000	0.005762
907.000000	0.005751
906.000000	0.005743
905.000000	0.005715
904.000000	0.005660
903.000000	0.005581
902.000000	0.005487
901.000000	0.005407
900.000000	0.005371
899.000000	0.005374
898.000000	0.005370
897.000000	0.005325
896.000000	0.005261
895.000000	0.005223
894.000000	0.005212
893.000000	0.005190
892.000000	0.005131
891.000000	0.005055
890.000000	0.004999
889.000000	0.004989
888.000000	0.005039
887.000000	0.005163
886.000000	0.005368
885.000000	0.005639
884.000000	0.005959
883.000000	0.006327
882.000000	0.006770
881.000000	0.007327
880.000000	0.008007
879.000000	0.008742
878.000000	0.009394
877.000000	0.009823
876.000000	0.009972
875.000000	0.009873
874.000000	0.009598
873.000000	0.009205
872.000000	0.008731
871.000000	0.008214
870.000000	0.007703
869.000000	0.007251
868.000000	0.006897
867.000000	0.006656
866.000000	0.006506
865.000000	0.006403
864.000000	0.006311
863.000000	0.006222
862.000000	0.006152
861.000000	0.006112
860.000000	0.006092
859.000000	0.006068
858.000000	0.006032
857.000000	0.006005
856.000000	0.006007
855.000000	0.006030
854.000000	0.006047
853.000000	0.006056
852.000000	0.006086
851.000000	0.006145
850.000000	0.006197
849.000000	0.006189
848.000000	0.006099
847.000000	0.005952
846.000000	0.005791
845.000000	0.005654
844.000000	0.005559
843.000000	0.005505
842.000000	0.005475
841.000000	0.005458
840.000000	0.005448
839.000000	0.005436
838.000000	0.005404
837.000000	0.005344
836.000000	0.005275
835.000000	0.005216
834.000000	0.005164
833.000000	0.005103
832.000000	0.005037
831.000000	0.004998
830.000000	0.005010
829.000000	0.005065
828.000000	0.005135
827.000000	0.005193
826.000000	0.005222
825.000000	0.005222
824.000000	0.005208
823.000000	0.005198
822.000000	0.005210
821.000000	0.005248
820.000000	0.005293
819.000000	0.005319
818.000000	0.005315
817.000000	0.005297
816.000000	0.005296
815.000000	0.005321
814.000000	0.005347
813.000000	0.005347
812.000000	0.005312
811.000000	0.005250
810.000000	0.005179
809.000000	0.005117
808.000000	0.005075
807.000000	0.005055
806.000000	0.005058
805.000000	0.005091
804.000000	0.005153
803.000000	0.005221
802.000000	0.005262
801.000000	0.005265
800.000000	0.005246
799.000000	0.005223
798.000000	0.005204
797.000000	0.005198
796.000000	0.005206
795.000000	0.005215
794.000000	0.005205
793.000000	0.005187
792.000000	0.005191
791.000000	0.005231
790.000000	0.005285
789.000000	0.005331
788.000000	0.005374
787.000000	0.005424
786.000000	0.005468
785.000000	0.005487
784.000000	0.005481
783.000000	0.005465
782.000000	0.005444
781.000000	0.005418
780.000000	0.005399
779.000000	0.005399
778.000000	0.005422
777.000000	0.005462
776.000000	0.005515
775.000000	0.005570
774.000000	0.005610
773.000000	0.005626
772.000000	0.005627
771.000000	0.005627
770.000000	0.005620
769.000000	0.005599
768.000000	0.005575
767.000000	0.005563
766.000000	0.005562
765.000000	0.005569
764.000000	0.005598
763.000000	0.005664
762.000000	0.005746
761.000000	0.005808
760.000000	0.005836
759.000000	0.005850
758.000000	0.005864
757.000000	0.005871
756.000000	0.005869
755.000000	0.005877
754.000000	0.005909
753.000000	0.005949
752.000000	0.005970
751.000000	0.005965
750.000000	0.005957
749.000000	0.005975
748.000000	0.006030
747.000000	0.006103
746.000000	0.006169
745.000000	0.006222
744.000000	0.006288
743.000000	0.006392
742.000000	0.006532
741.000000	0.006669
740.000000	0.006766
739.000000	0.006806
738.000000	0.006798
737.000000	0.006775
736.000000	0.006779
735.000000	0.006829
734.000000	0.006902
733.000000	0.006969
732.000000	0.007038
731.000000	0.007143
730.000000	0.007285
729.000000	0.007424
728.000000	0.007533
727.000000	0.007632
726.000000	0.007766
725.000000	0.007943
724.000000	0.008127
723.000000	0.008289
722.000000	0.008439
721.000000	0.008599
720.000000	0.008766
719.000000	0.008912
718.000000	0.009021
717.000000	0.009105
716.000000	0.009200
715.000000	0.009343
714.000000	0.009544
713.000000	0.009766
712.000000	0.009945
711.000000	0.010032
710.000000	0.010044
709.000000	0.010046
708.000000	0.010094
707.000000	0.010192
706.000000	0.010301
705.000000	0.010384
704.000000	0.010440
703.000000	0.010489
702.000000	0.010552
701.000000	0.010621
700.000000	0.010665
699.000000	0.010660
698.000000	0.010621
697.000000	0.010596
696.000000	0.010609
695.000000	0.010649
694.000000	0.010699
693.000000	0.010754
692.000000	0.010821
691.000000	0.010877
690.000000	0.010893
689.000000	0.010886
688.000000	0.010904
687.000000	0.010974
686.000000	0.011064
685.000000	0.011134
684.000000	0.011195
683.000000	0.011269
682.000000	0.011330
681.000000	0.011336
680.000000	0.011316
679.000000	0.011351
678.000000	0.011478
677.000000	0.011676
676.000000	0.011909
675.000000	0.012144
674.000000	0.012343
673.000000	0.012477
672.000000	0.012506
671.000000	0.012365
670.000000	0.011999
669.000000	0.011452
668.000000	0.011078
667.000000	0.011357
666.000000	0.011926
665.000000	0.012413
664.000000	0.012762
663.000000	0.012962
662.000000	0.013035
661.000000	0.013039
660.000000	0.013019
659.000000	0.012973
658.000000	0.012894
657.000000	0.012825
656.000000	0.012800
655.000000	0.012785
654.000000	0.012755
653.000000	0.012749
652.000000	0.012787
651.000000	0.012827
650.000000	0.012833
649.000000	0.012820
648.000000	0.012790
647.000000	0.012714
646.000000	0.012619
645.000000	0.012592
644.000000	0.012669
643.000000	0.012787
642.000000	0.012863
641.000000	0.012877
640.000000	0.012840
639.000000	0.012766
638.000000	0.012684
637.000000	0.012645
636.000000	0.012655
635.000000	0.012689
634.000000	0.012744
633.000000	0.012835
632.000000	0.012928
631.000000	0.012960
630.000000	0.012945
629.000000	0.012961
628.000000	0.013025
627.000000	0.013064
626.000000	0.013053
625.000000	0.013074
624.000000	0.013186
623.000000	0.013325
622.000000	0.013394
621.000000	0.013390
620.000000	0.013376
619.000000	0.013379
618.000000	0.013366
617.000000	0.013306
616.000000	0.013203
615.000000	0.013089
614.000000	0.013027
613.000000	0.013076
612.000000	0.013223
611.000000	0.013367
610.000000	0.013418
609.000000	0.013383
608.000000	0.013324
607.000000	0.013274
606.000000	0.013235
605.000000	0.013215
604.000000	0.013227
603.000000	0.013266
602.000000	0.013312
601.000000	0.013350
600.000000	0.013371
599.000000	0.013393
598.000000	0.013444
597.000000	0.013510
596.000000	0.013510
595.000000	0.013390
594.000000	0.013219
593.000000	0.013137
592.000000	0.013182
591.000000	0.013262
590.000000	0.013291
589.000000	0.013271
588.000000	0.013232
587.000000	0.013165
586.000000	0.013071
585.000000	0.013003
584.000000	0.013008
583.000000	0.013065
582.000000	0.013128
581.000000	0.013174
580.000000	0.013195
579.000000	0.013190
578.000000	0.013185
577.000000	0.013222
576.000000	0.013309
575.000000	0.013409
574.000000	0.013515
573.000000	0.013659
572.000000	0.013842
571.000000	0.014006
570.000000	0.014122
569.000000	0.014241
568.000000	0.014419
567.000000	0.014624
566.000000	0.014770
565.000000	0.014809
564.000000	0.014760
563.000000	0.014701
562.000000	0.014734
561.000000	0.014899
560.000000	0.015103
559.000000	0.015207
558.000000	0.015184
557.000000	0.015120
556.000000	0.015045
555.000000	0.014894
554.000000	0.014686
553.000000	0.014595
552.000000	0.014738
551.000000	0.014997
550.000000	0.015140
549.000000	0.015075
548.000000	0.014870
547.000000	0.014614
546.000000	0.014355
545.000000	0.014130
544.000000	0.013970
543.000000	0.013883
542.000000	0.013888
541.000000	0.014024
540.000000	0.014270
539.000000	0.014519
538.000000	0.014657
537.000000	0.014647
536.000000	0.014513
535.000000	0.014328
534.000000	0.014231
533.000000	0.014349
532.000000	0.014629
531.000000	0.014859
530.000000	0.014934
529.000000	0.014972
528.000000	0.015084
527.000000	0.015192
526.000000	0.015160
525.000000	0.014990
524.000000	0.014764
523.000000	0.014479
522.000000	0.014127
521.000000	0.013820
520.000000	0.013686
519.000000	0.013690
518.000000	0.013700
517.000000	0.013680
516.000000	0.013669
515.000000	0.013617
514.000000	0.013416
513.000000	0.013060
512.000000	0.012641
511.000000	0.012241
510.000000	0.011922
509.000000	0.011746
508.000000	0.011686
507.000000	0.011581
506.000000	0.011314
505.000000	0.010982
504.000000	0.010749
503.000000	0.010643
502.000000	0.010581
501.000000	0.010531
500.000000	0.010502
499.000000	0.010457
498.000000	0.010348
497.000000	0.010204
496.000000	0.010050
495.000000	0.009835
494.000000	0.009538
493.000000	0.009294
492.000000	0.009247
491.000000	0.009358
490.000000	0.009465
489.000000	0.009507
488.000000	0.009527
487.000000	0.009505
486.000000	0.009358
485.000000	0.009080
484.000000	0.008783
483.000000	0.008589
482.000000	0.008551
481.000000	0.008642
480.000000	0.008755
479.000000	0.008780
478.000000	0.008743
477.000000	0.008805
476.000000	0.009028
475.000000	0.009221
474.000000	0.009144
473.000000	0.008835
472.000000	0.008585
471.000000	0.008587
470.000000	0.008736
469.000000	0.008839
468.000000	0.008825
467.000000	0.008703
466.000000	0.008477
465.000000	0.008190
464.000000	0.007911
463.000000	0.007680
462.000000	0.007497
461.000000	0.007335
460.000000	0.007127
459.000000	0.006775
458.000000	0.006282
457.000000	0.005847
456.000000	0.005639
455.000000	0.005078
454.000000	0.005074
453.000000	0.004943
452.000000	0.004956
451.000000	0.005200
450.000000	0.005537
