PE IR       SUBTECH     SPECTRUM    ASCII       PEDS        4.00        
   -1
3G-H10-C005_1.ASC
22/02/23
14:31:22.00
22/02/23
15:10:46.00
uco
Sample 005 By uco Date Wednesday, February 23 2022
450.000000
#HDR
-1
-1
#GR
cm-1
A
1.0
0.0
4000.000000
-1.000000
3551
8
0.030920
0.002154
#DATA
4000.000000	0.002766
3999.000000	0.002751
3998.000000	0.002746
3997.000000	0.002756
3996.000000	0.002776
3995.000000	0.002819
3994.000000	0.002834
3993.000000	0.002838
3992.000000	0.002836
3991.000000	0.002831
3990.000000	0.002823
3989.000000	0.002815
3988.000000	0.002808
3987.000000	0.002811
3986.000000	0.002825
3985.000000	0.002847
3984.000000	0.002871
3983.000000	0.002889
3982.000000	0.002896
3981.000000	0.002890
3980.000000	0.002875
3979.000000	0.002856
3978.000000	0.002841
3977.000000	0.002836
3976.000000	0.002843
3975.000000	0.002862
3974.000000	0.002887
3973.000000	0.002911
3972.000000	0.002925
3971.000000	0.002927
3970.000000	0.002920
3969.000000	0.002907
3968.000000	0.002895
3967.000000	0.002883
3966.000000	0.002871
3965.000000	0.002856
3964.000000	0.002842
3963.000000	0.002833
3962.000000	0.002837
3961.000000	0.002858
3960.000000	0.002888
3959.000000	0.002916
3958.000000	0.002935
3957.000000	0.002946
3956.000000	0.002953
3955.000000	0.002957
3954.000000	0.002957
3953.000000	0.002956
3952.000000	0.002959
3951.000000	0.002974
3950.000000	0.002994
3949.000000	0.003008
3948.000000	0.003006
3947.000000	0.002990
3946.000000	0.002968
3945.000000	0.002949
3944.000000	0.002935
3943.000000	0.002925
3942.000000	0.002917
3941.000000	0.002916
3940.000000	0.002922
3939.000000	0.002933
3938.000000	0.002941
3937.000000	0.002940
3936.000000	0.002932
3935.000000	0.002929
3934.000000	0.002941
3933.000000	0.002970
3932.000000	0.003005
3931.000000	0.003030
3930.000000	0.003039
3929.000000	0.003037
3928.000000	0.003029
3927.000000	0.003017
3926.000000	0.002997
3925.000000	0.002966
3924.000000	0.002933
3923.000000	0.002909
3922.000000	0.002900
3921.000000	0.002899
3920.000000	0.002898
3919.000000	0.002894
3918.000000	0.002890
3917.000000	0.002887
3916.000000	0.002885
3915.000000	0.002884
3914.000000	0.002885
3913.000000	0.002887
3912.000000	0.002892
3911.000000	0.002896
3910.000000	0.002897
3909.000000	0.002900
3908.000000	0.002909
3907.000000	0.002926
3906.000000	0.002943
3905.000000	0.002950
3904.000000	0.002946
3903.000000	0.002943
3902.000000	0.002954
3901.000000	0.002978
3900.000000	0.003002
3899.000000	0.003016
3898.000000	0.003015
3897.000000	0.003002
3896.000000	0.002975
3895.000000	0.002941
3894.000000	0.002909
3893.000000	0.002890
3892.000000	0.002886
3891.000000	0.002891
3890.000000	0.002897
3889.000000	0.002898
3888.000000	0.002900
3887.000000	0.002911
3886.000000	0.002927
3885.000000	0.002943
3884.000000	0.002954
3883.000000	0.002962
3882.000000	0.002965
3881.000000	0.002956
3880.000000	0.002937
3879.000000	0.002921
3878.000000	0.002922
3877.000000	0.002940
3876.000000	0.002962
3875.000000	0.002973
3874.000000	0.002967
3873.000000	0.002960
3872.000000	0.002968
3871.000000	0.002986
3870.000000	0.002992
3869.000000	0.002977
3868.000000	0.002954
3867.000000	0.002939
3866.000000	0.002937
3865.000000	0.002943
3864.000000	0.002947
3863.000000	0.002949
3862.000000	0.002955
3861.000000	0.002971
3860.000000	0.002990
3859.000000	0.002999
3858.000000	0.002992
3857.000000	0.002972
3856.000000	0.002948
3855.000000	0.002924
3854.000000	0.002883
3853.000000	0.002838
3852.000000	0.002825
3851.000000	0.002849
3850.000000	0.002891
3849.000000	0.002933
3848.000000	0.002967
3847.000000	0.002992
3846.000000	0.003010
3845.000000	0.003027
3844.000000	0.003042
3843.000000	0.003049
3842.000000	0.003040
3841.000000	0.003015
3840.000000	0.002988
3839.000000	0.002974
3838.000000	0.002984
3837.000000	0.003010
3836.000000	0.003034
3835.000000	0.003041
3834.000000	0.003026
3833.000000	0.002995
3832.000000	0.002961
3831.000000	0.002938
3830.000000	0.002932
3829.000000	0.002941
3828.000000	0.002958
3827.000000	0.002975
3826.000000	0.002987
3825.000000	0.002996
3824.000000	0.003009
3823.000000	0.003028
3822.000000	0.003041
3821.000000	0.003033
3820.000000	0.003013
3819.000000	0.002996
3818.000000	0.002991
3817.000000	0.002996
3816.000000	0.002999
3815.000000	0.002994
3814.000000	0.002982
3813.000000	0.002964
3812.000000	0.002948
3811.000000	0.002940
3810.000000	0.002945
3809.000000	0.002959
3808.000000	0.002967
3807.000000	0.002961
3806.000000	0.002946
3805.000000	0.002942
3804.000000	0.002957
3803.000000	0.002985
3802.000000	0.003005
3801.000000	0.003011
3800.000000	0.003014
3799.000000	0.003017
3798.000000	0.003010
3797.000000	0.002986
3796.000000	0.002951
3795.000000	0.002922
3794.000000	0.002910
3793.000000	0.002912
3792.000000	0.002920
3791.000000	0.002930
3790.000000	0.002942
3789.000000	0.002956
3788.000000	0.002974
3787.000000	0.002991
3786.000000	0.003002
3785.000000	0.003004
3784.000000	0.002995
3783.000000	0.002980
3782.000000	0.002965
3781.000000	0.002952
3780.000000	0.002936
3779.000000	0.002919
3778.000000	0.002906
3777.000000	0.002903
3776.000000	0.002911
3775.000000	0.002929
3774.000000	0.002951
3773.000000	0.002971
3772.000000	0.002980
3771.000000	0.002969
3770.000000	0.002941
3769.000000	0.002909
3768.000000	0.002884
3767.000000	0.002864
3766.000000	0.002846
3765.000000	0.002829
3764.000000	0.002819
3763.000000	0.002818
3762.000000	0.002823
3761.000000	0.002832
3760.000000	0.002844
3759.000000	0.002861
3758.000000	0.002886
3757.000000	0.002915
3756.000000	0.002940
3755.000000	0.002955
3754.000000	0.002959
3753.000000	0.002952
3752.000000	0.002937
3751.000000	0.002920
3750.000000	0.002907
3749.000000	0.002894
3748.000000	0.002876
3747.000000	0.002857
3746.000000	0.002850
3745.000000	0.002857
3744.000000	0.002869
3743.000000	0.002881
3742.000000	0.002882
3741.000000	0.002865
3740.000000	0.002837
3739.000000	0.002813
3738.000000	0.002808
3737.000000	0.002822
3736.000000	0.002837
3735.000000	0.002836
3734.000000	0.002821
3733.000000	0.002801
3732.000000	0.002786
3731.000000	0.002779
3730.000000	0.002782
3729.000000	0.002795
3728.000000	0.002812
3727.000000	0.002823
3726.000000	0.002824
3725.000000	0.002824
3724.000000	0.002827
3723.000000	0.002832
3722.000000	0.002831
3721.000000	0.002818
3720.000000	0.002798
3719.000000	0.002780
3718.000000	0.002774
3717.000000	0.002777
3716.000000	0.002779
3715.000000	0.002772
3714.000000	0.002761
3713.000000	0.002757
3712.000000	0.002764
3711.000000	0.002772
3710.000000	0.002771
3709.000000	0.002763
3708.000000	0.002753
3707.000000	0.002745
3706.000000	0.002744
3705.000000	0.002753
3704.000000	0.002770
3703.000000	0.002784
3702.000000	0.002784
3701.000000	0.002777
3700.000000	0.002777
3699.000000	0.002790
3698.000000	0.002807
3697.000000	0.002815
3696.000000	0.002807
3695.000000	0.002787
3694.000000	0.002766
3693.000000	0.002752
3692.000000	0.002748
3691.000000	0.002748
3690.000000	0.002747
3689.000000	0.002750
3688.000000	0.002765
3687.000000	0.002786
3686.000000	0.002799
3685.000000	0.002798
3684.000000	0.002789
3683.000000	0.002777
3682.000000	0.002773
3681.000000	0.002780
3680.000000	0.002795
3679.000000	0.002812
3678.000000	0.002829
3677.000000	0.002844
3676.000000	0.002843
3675.000000	0.002826
3674.000000	0.002806
3673.000000	0.002788
3672.000000	0.002773
3671.000000	0.002760
3670.000000	0.002752
3669.000000	0.002759
3668.000000	0.002785
3667.000000	0.002821
3666.000000	0.002852
3665.000000	0.002878
3664.000000	0.002905
3663.000000	0.002936
3662.000000	0.002960
3661.000000	0.002962
3660.000000	0.002941
3659.000000	0.002914
3658.000000	0.002903
3657.000000	0.002918
3656.000000	0.002947
3655.000000	0.002973
3654.000000	0.002983
3653.000000	0.002979
3652.000000	0.002973
3651.000000	0.002978
3650.000000	0.002999
3649.000000	0.003038
3648.000000	0.003087
3647.000000	0.003126
3646.000000	0.003138
3645.000000	0.003126
3644.000000	0.003108
3643.000000	0.003103
3642.000000	0.003115
3641.000000	0.003136
3640.000000	0.003154
3639.000000	0.003160
3638.000000	0.003159
3637.000000	0.003161
3636.000000	0.003178
3635.000000	0.003206
3634.000000	0.003232
3633.000000	0.003244
3632.000000	0.003249
3631.000000	0.003260
3630.000000	0.003282
3629.000000	0.003299
3628.000000	0.003310
3627.000000	0.003322
3626.000000	0.003339
3625.000000	0.003358
3624.000000	0.003380
3623.000000	0.003404
3622.000000	0.003430
3621.000000	0.003457
3620.000000	0.003483
3619.000000	0.003505
3618.000000	0.003527
3617.000000	0.003548
3616.000000	0.003563
3615.000000	0.003568
3614.000000	0.003564
3613.000000	0.003555
3612.000000	0.003548
3611.000000	0.003554
3610.000000	0.003580
3609.000000	0.003619
3608.000000	0.003658
3607.000000	0.003686
3606.000000	0.003707
3605.000000	0.003730
3604.000000	0.003756
3603.000000	0.003777
3602.000000	0.003789
3601.000000	0.003789
3600.000000	0.003783
3599.000000	0.003781
3598.000000	0.003797
3597.000000	0.003841
3596.000000	0.003912
3595.000000	0.003983
3594.000000	0.004024
3593.000000	0.004027
3592.000000	0.004009
3591.000000	0.003996
3590.000000	0.004005
3589.000000	0.004033
3588.000000	0.004068
3587.000000	0.004097
3586.000000	0.004119
3585.000000	0.004138
3584.000000	0.004159
3583.000000	0.004187
3582.000000	0.004225
3581.000000	0.004270
3580.000000	0.004311
3579.000000	0.004345
3578.000000	0.004368
3577.000000	0.004380
3576.000000	0.004383
3575.000000	0.004383
3574.000000	0.004392
3573.000000	0.004417
3572.000000	0.004455
3571.000000	0.004496
3570.000000	0.004537
3569.000000	0.004575
3568.000000	0.004606
3567.000000	0.004625
3566.000000	0.004645
3565.000000	0.004684
3564.000000	0.004751
3563.000000	0.004831
3562.000000	0.004898
3561.000000	0.004936
3560.000000	0.004940
3559.000000	0.004928
3558.000000	0.004918
3557.000000	0.004927
3556.000000	0.004959
3555.000000	0.005010
3554.000000	0.005072
3553.000000	0.005137
3552.000000	0.005195
3551.000000	0.005242
3550.000000	0.005277
3549.000000	0.005308
3548.000000	0.005344
3547.000000	0.005383
3546.000000	0.005413
3545.000000	0.005427
3544.000000	0.005432
3543.000000	0.005445
3542.000000	0.005475
3541.000000	0.005517
3540.000000	0.005557
3539.000000	0.005588
3538.000000	0.005615
3537.000000	0.005648
3536.000000	0.005689
3535.000000	0.005727
3534.000000	0.005751
3533.000000	0.005764
3532.000000	0.005777
3531.000000	0.005800
3530.000000	0.005830
3529.000000	0.005855
3528.000000	0.005872
3527.000000	0.005889
3526.000000	0.005916
3525.000000	0.005955
3524.000000	0.005999
3523.000000	0.006039
3522.000000	0.006075
3521.000000	0.006108
3520.000000	0.006141
3519.000000	0.006168
3518.000000	0.006187
3517.000000	0.006199
3516.000000	0.006209
3515.000000	0.006218
3514.000000	0.006230
3513.000000	0.006247
3512.000000	0.006269
3511.000000	0.006295
3510.000000	0.006316
3509.000000	0.006334
3508.000000	0.006357
3507.000000	0.006393
3506.000000	0.006443
3505.000000	0.006497
3504.000000	0.006544
3503.000000	0.006581
3502.000000	0.006608
3501.000000	0.006631
3500.000000	0.006655
3499.000000	0.006683
3498.000000	0.006713
3497.000000	0.006743
3496.000000	0.006769
3495.000000	0.006790
3494.000000	0.006807
3493.000000	0.006822
3492.000000	0.006835
3491.000000	0.006849
3490.000000	0.006866
3489.000000	0.006888
3488.000000	0.006918
3487.000000	0.006955
3486.000000	0.006995
3485.000000	0.007028
3484.000000	0.007044
3483.000000	0.007040
3482.000000	0.007025
3481.000000	0.007014
3480.000000	0.007022
3479.000000	0.007057
3478.000000	0.007113
3477.000000	0.007173
3476.000000	0.007219
3475.000000	0.007246
3474.000000	0.007261
3473.000000	0.007275
3472.000000	0.007294
3471.000000	0.007317
3470.000000	0.007339
3469.000000	0.007360
3468.000000	0.007378
3467.000000	0.007389
3466.000000	0.007394
3465.000000	0.007393
3464.000000	0.007393
3463.000000	0.007403
3462.000000	0.007431
3461.000000	0.007475
3460.000000	0.007524
3459.000000	0.007568
3458.000000	0.007604
3457.000000	0.007637
3456.000000	0.007665
3455.000000	0.007680
3454.000000	0.007675
3453.000000	0.007657
3452.000000	0.007643
3451.000000	0.007650
3450.000000	0.007682
3449.000000	0.007730
3448.000000	0.007775
3447.000000	0.007808
3446.000000	0.007832
3445.000000	0.007855
3444.000000	0.007885
3443.000000	0.007919
3442.000000	0.007948
3441.000000	0.007969
3440.000000	0.007986
3439.000000	0.008005
3438.000000	0.008026
3437.000000	0.008046
3436.000000	0.008063
3435.000000	0.008084
3434.000000	0.008113
3433.000000	0.008150
3432.000000	0.008181
3431.000000	0.008193
3430.000000	0.008183
3429.000000	0.008170
3428.000000	0.008175
3427.000000	0.008209
3426.000000	0.008265
3425.000000	0.008326
3424.000000	0.008373
3423.000000	0.008400
3422.000000	0.008409
3421.000000	0.008411
3420.000000	0.008417
3419.000000	0.008434
3418.000000	0.008461
3417.000000	0.008494
3416.000000	0.008527
3415.000000	0.008557
3414.000000	0.008580
3413.000000	0.008590
3412.000000	0.008592
3411.000000	0.008595
3410.000000	0.008608
3409.000000	0.008628
3408.000000	0.008650
3407.000000	0.008673
3406.000000	0.008704
3405.000000	0.008742
3404.000000	0.008777
3403.000000	0.008803
3402.000000	0.008820
3401.000000	0.008834
3400.000000	0.008845
3399.000000	0.008850
3398.000000	0.008854
3397.000000	0.008869
3396.000000	0.008904
3395.000000	0.008951
3394.000000	0.008993
3393.000000	0.009021
3392.000000	0.009043
3391.000000	0.009066
3390.000000	0.009090
3389.000000	0.009105
3388.000000	0.009108
3387.000000	0.009110
3386.000000	0.009119
3385.000000	0.009135
3384.000000	0.009152
3383.000000	0.009169
3382.000000	0.009197
3381.000000	0.009239
3380.000000	0.009287
3379.000000	0.009326
3378.000000	0.009349
3377.000000	0.009361
3376.000000	0.009373
3375.000000	0.009395
3374.000000	0.009429
3373.000000	0.009470
3372.000000	0.009512
3371.000000	0.009552
3370.000000	0.009591
3369.000000	0.009633
3368.000000	0.009679
3367.000000	0.009726
3366.000000	0.009771
3365.000000	0.009812
3364.000000	0.009847
3363.000000	0.009880
3362.000000	0.009912
3361.000000	0.009942
3360.000000	0.009968
3359.000000	0.009993
3358.000000	0.010030
3357.000000	0.010090
3356.000000	0.010175
3355.000000	0.010273
3354.000000	0.010361
3353.000000	0.010421
3352.000000	0.010453
3351.000000	0.010475
3350.000000	0.010510
3349.000000	0.010568
3348.000000	0.010636
3347.000000	0.010700
3346.000000	0.010757
3345.000000	0.010812
3344.000000	0.010870
3343.000000	0.010929
3342.000000	0.010982
3341.000000	0.011027
3340.000000	0.011065
3339.000000	0.011102
3338.000000	0.011143
3337.000000	0.011193
3336.000000	0.011249
3335.000000	0.011308
3334.000000	0.011366
3333.000000	0.011414
3332.000000	0.011449
3331.000000	0.011474
3330.000000	0.011494
3329.000000	0.011512
3328.000000	0.011528
3327.000000	0.011550
3326.000000	0.011586
3325.000000	0.011643
3324.000000	0.011710
3323.000000	0.011769
3322.000000	0.011808
3321.000000	0.011829
3320.000000	0.011841
3319.000000	0.011852
3318.000000	0.011866
3317.000000	0.011883
3316.000000	0.011905
3315.000000	0.011933
3314.000000	0.011964
3313.000000	0.011993
3312.000000	0.012016
3311.000000	0.012033
3310.000000	0.012046
3309.000000	0.012055
3308.000000	0.012061
3307.000000	0.012064
3306.000000	0.012067
3305.000000	0.012077
3304.000000	0.012097
3303.000000	0.012125
3302.000000	0.012155
3301.000000	0.012179
3300.000000	0.012191
3299.000000	0.012195
3298.000000	0.012196
3297.000000	0.012201
3296.000000	0.012214
3295.000000	0.012238
3294.000000	0.012268
3293.000000	0.012293
3292.000000	0.012302
3291.000000	0.012296
3290.000000	0.012285
3289.000000	0.012276
3288.000000	0.012268
3287.000000	0.012258
3286.000000	0.012252
3285.000000	0.012258
3284.000000	0.012279
3283.000000	0.012306
3282.000000	0.012325
3281.000000	0.012326
3280.000000	0.012309
3279.000000	0.012285
3278.000000	0.012262
3277.000000	0.012238
3276.000000	0.012205
3275.000000	0.012161
3274.000000	0.012118
3273.000000	0.012087
3272.000000	0.012072
3271.000000	0.012069
3270.000000	0.012076
3269.000000	0.012085
3268.000000	0.012087
3267.000000	0.012074
3266.000000	0.012049
3265.000000	0.012021
3264.000000	0.011999
3263.000000	0.011987
3262.000000	0.011982
3261.000000	0.011976
3260.000000	0.011957
3259.000000	0.011920
3258.000000	0.011871
3257.000000	0.011825
3256.000000	0.011789
3255.000000	0.011763
3254.000000	0.011741
3253.000000	0.011719
3252.000000	0.011698
3251.000000	0.011679
3250.000000	0.011660
3249.000000	0.011641
3248.000000	0.011624
3247.000000	0.011612
3246.000000	0.011607
3245.000000	0.011607
3244.000000	0.011602
3243.000000	0.011589
3242.000000	0.011573
3241.000000	0.011559
3240.000000	0.011542
3239.000000	0.011515
3238.000000	0.011478
3237.000000	0.011441
3236.000000	0.011413
3235.000000	0.011392
3234.000000	0.011379
3233.000000	0.011372
3232.000000	0.011369
3231.000000	0.011366
3230.000000	0.011353
3229.000000	0.011330
3228.000000	0.011299
3227.000000	0.011265
3226.000000	0.011232
3225.000000	0.011203
3224.000000	0.011185
3223.000000	0.011183
3222.000000	0.011192
3221.000000	0.011200
3220.000000	0.011197
3219.000000	0.011184
3218.000000	0.011164
3217.000000	0.011138
3216.000000	0.011101
3215.000000	0.011055
3214.000000	0.011007
3213.000000	0.010962
3212.000000	0.010924
3211.000000	0.010891
3210.000000	0.010872
3209.000000	0.010873
3208.000000	0.010891
3207.000000	0.010913
3206.000000	0.010923
3205.000000	0.010918
3204.000000	0.010895
3203.000000	0.010857
3202.000000	0.010806
3201.000000	0.010750
3200.000000	0.010702
3199.000000	0.010675
3198.000000	0.010671
3197.000000	0.010684
3196.000000	0.010698
3195.000000	0.010697
3194.000000	0.010675
3193.000000	0.010646
3192.000000	0.010618
3191.000000	0.010592
3190.000000	0.010556
3189.000000	0.010505
3188.000000	0.010447
3187.000000	0.010398
3186.000000	0.010370
3185.000000	0.010362
3184.000000	0.010359
3183.000000	0.010347
3182.000000	0.010314
3181.000000	0.010261
3180.000000	0.010196
3179.000000	0.010128
3178.000000	0.010068
3177.000000	0.010020
3176.000000	0.009987
3175.000000	0.009965
3174.000000	0.009948
3173.000000	0.009930
3172.000000	0.009905
3171.000000	0.009875
3170.000000	0.009843
3169.000000	0.009817
3168.000000	0.009797
3167.000000	0.009777
3166.000000	0.009749
3165.000000	0.009713
3164.000000	0.009679
3163.000000	0.009656
3162.000000	0.009645
3161.000000	0.009641
3160.000000	0.009635
3159.000000	0.009619
3158.000000	0.009590
3157.000000	0.009547
3156.000000	0.009492
3155.000000	0.009434
3154.000000	0.009380
3153.000000	0.009337
3152.000000	0.009309
3151.000000	0.009295
3150.000000	0.009291
3149.000000	0.009287
3148.000000	0.009276
3147.000000	0.009257
3146.000000	0.009233
3145.000000	0.009204
3144.000000	0.009166
3143.000000	0.009115
3142.000000	0.009059
3141.000000	0.009017
3140.000000	0.009005
3139.000000	0.009023
3138.000000	0.009054
3137.000000	0.009075
3136.000000	0.009072
3135.000000	0.009049
3134.000000	0.009021
3133.000000	0.008999
3132.000000	0.008987
3131.000000	0.008978
3130.000000	0.008966
3129.000000	0.008949
3128.000000	0.008929
3127.000000	0.008910
3126.000000	0.008895
3125.000000	0.008887
3124.000000	0.008883
3123.000000	0.008880
3122.000000	0.008877
3121.000000	0.008874
3120.000000	0.008863
3119.000000	0.008838
3118.000000	0.008799
3117.000000	0.008760
3116.000000	0.008737
3115.000000	0.008737
3114.000000	0.008755
3113.000000	0.008783
3112.000000	0.008815
3111.000000	0.008846
3110.000000	0.008874
3109.000000	0.008899
3108.000000	0.008920
3107.000000	0.008939
3106.000000	0.008956
3105.000000	0.008975
3104.000000	0.008993
3103.000000	0.009002
3102.000000	0.008993
3101.000000	0.008975
3100.000000	0.008963
3099.000000	0.008972
3098.000000	0.008999
3097.000000	0.009032
3096.000000	0.009061
3095.000000	0.009084
3094.000000	0.009101
3093.000000	0.009120
3092.000000	0.009142
3091.000000	0.009160
3090.000000	0.009164
3089.000000	0.009149
3088.000000	0.009125
3087.000000	0.009111
3086.000000	0.009123
3085.000000	0.009159
3084.000000	0.009206
3083.000000	0.009247
3082.000000	0.009273
3081.000000	0.009280
3080.000000	0.009272
3079.000000	0.009254
3078.000000	0.009235
3077.000000	0.009220
3076.000000	0.009210
3075.000000	0.009206
3074.000000	0.009205
3073.000000	0.009205
3072.000000	0.009201
3071.000000	0.009193
3070.000000	0.009183
3069.000000	0.009173
3068.000000	0.009162
3067.000000	0.009152
3066.000000	0.009148
3065.000000	0.009160
3064.000000	0.009185
3063.000000	0.009207
3062.000000	0.009208
3061.000000	0.009188
3060.000000	0.009158
3059.000000	0.009133
3058.000000	0.009116
3057.000000	0.009100
3056.000000	0.009076
3055.000000	0.009038
3054.000000	0.008984
3053.000000	0.008919
3052.000000	0.008857
3051.000000	0.008810
3050.000000	0.008782
3049.000000	0.008768
3048.000000	0.008755
3047.000000	0.008733
3046.000000	0.008705
3045.000000	0.008674
3044.000000	0.008642
3043.000000	0.008610
3042.000000	0.008577
3041.000000	0.008548
3040.000000	0.008521
3039.000000	0.008491
3038.000000	0.008451
3037.000000	0.008405
3036.000000	0.008364
3035.000000	0.008336
3034.000000	0.008314
3033.000000	0.008286
3032.000000	0.008250
3031.000000	0.008215
3030.000000	0.008195
3029.000000	0.008192
3028.000000	0.008192
3027.000000	0.008180
3026.000000	0.008146
3025.000000	0.008099
3024.000000	0.008051
3023.000000	0.008012
3022.000000	0.007987
3021.000000	0.007977
3020.000000	0.007975
3019.000000	0.007972
3018.000000	0.007956
3017.000000	0.007924
3016.000000	0.007888
3015.000000	0.007860
3014.000000	0.007849
3013.000000	0.007848
3012.000000	0.007846
3011.000000	0.007839
3010.000000	0.007825
3009.000000	0.007811
3008.000000	0.007797
3007.000000	0.007782
3006.000000	0.007767
3005.000000	0.007754
3004.000000	0.007744
3003.000000	0.007730
3002.000000	0.007710
3001.000000	0.007686
3000.000000	0.007670
2999.000000	0.007670
2998.000000	0.007686
2997.000000	0.007709
2996.000000	0.007734
2995.000000	0.007762
2994.000000	0.007797
2993.000000	0.007837
2992.000000	0.007875
2991.000000	0.007906
2990.000000	0.007929
2989.000000	0.007948
2988.000000	0.007970
2987.000000	0.008000
2986.000000	0.008038
2985.000000	0.008079
2984.000000	0.008117
2983.000000	0.008147
2982.000000	0.008169
2981.000000	0.008184
2980.000000	0.008195
2979.000000	0.008204
2978.000000	0.008213
2977.000000	0.008222
2976.000000	0.008229
2975.000000	0.008231
2974.000000	0.008227
2973.000000	0.008222
2972.000000	0.008221
2971.000000	0.008233
2970.000000	0.008259
2969.000000	0.008295
2968.000000	0.008335
2967.000000	0.008380
2966.000000	0.008424
2965.000000	0.008460
2964.000000	0.008477
2963.000000	0.008473
2962.000000	0.008461
2961.000000	0.008459
2960.000000	0.008472
2959.000000	0.008498
2958.000000	0.008523
2957.000000	0.008539
2956.000000	0.008542
2955.000000	0.008538
2954.000000	0.008538
2953.000000	0.008549
2952.000000	0.008567
2951.000000	0.008585
2950.000000	0.008599
2949.000000	0.008611
2948.000000	0.008621
2947.000000	0.008631
2946.000000	0.008641
2945.000000	0.008647
2944.000000	0.008644
2943.000000	0.008637
2942.000000	0.008636
2941.000000	0.008649
2940.000000	0.008676
2939.000000	0.008703
2938.000000	0.008717
2937.000000	0.008718
2936.000000	0.008716
2935.000000	0.008725
2934.000000	0.008750
2933.000000	0.008783
2932.000000	0.008809
2931.000000	0.008824
2930.000000	0.008836
2929.000000	0.008853
2928.000000	0.008873
2927.000000	0.008891
2926.000000	0.008904
2925.000000	0.008916
2924.000000	0.008927
2923.000000	0.008939
2922.000000	0.008957
2921.000000	0.008985
2920.000000	0.009019
2919.000000	0.009041
2918.000000	0.009036
2917.000000	0.009001
2916.000000	0.008948
2915.000000	0.008887
2914.000000	0.008820
2913.000000	0.008742
2912.000000	0.008653
2911.000000	0.008559
2910.000000	0.008474
2909.000000	0.008405
2908.000000	0.008347
2907.000000	0.008294
2906.000000	0.008246
2905.000000	0.008207
2904.000000	0.008177
2903.000000	0.008151
2902.000000	0.008126
2901.000000	0.008101
2900.000000	0.008077
2899.000000	0.008047
2898.000000	0.008011
2897.000000	0.007977
2896.000000	0.007955
2895.000000	0.007947
2894.000000	0.007949
2893.000000	0.007951
2892.000000	0.007949
2891.000000	0.007946
2890.000000	0.007945
2889.000000	0.007947
2888.000000	0.007945
2887.000000	0.007938
2886.000000	0.007932
2885.000000	0.007936
2884.000000	0.007950
2883.000000	0.007960
2882.000000	0.007959
2881.000000	0.007952
2880.000000	0.007950
2879.000000	0.007957
2878.000000	0.007968
2877.000000	0.007974
2876.000000	0.007971
2875.000000	0.007958
2874.000000	0.007934
2873.000000	0.007902
2872.000000	0.007870
2871.000000	0.007840
2870.000000	0.007810
2869.000000	0.007779
2868.000000	0.007745
2867.000000	0.007712
2866.000000	0.007680
2865.000000	0.007652
2864.000000	0.007629
2863.000000	0.007610
2862.000000	0.007594
2861.000000	0.007577
2860.000000	0.007560
2859.000000	0.007546
2858.000000	0.007536
2857.000000	0.007535
2856.000000	0.007546
2855.000000	0.007572
2854.000000	0.007607
2853.000000	0.007643
2852.000000	0.007674
2851.000000	0.007703
2850.000000	0.007724
2849.000000	0.007728
2848.000000	0.007703
2847.000000	0.007647
2846.000000	0.007569
2845.000000	0.007485
2844.000000	0.007410
2843.000000	0.007356
2842.000000	0.007322
2841.000000	0.007298
2840.000000	0.007272
2839.000000	0.007234
2838.000000	0.007191
2837.000000	0.007155
2836.000000	0.007136
2835.000000	0.007130
2834.000000	0.007126
2833.000000	0.007116
2832.000000	0.007097
2831.000000	0.007072
2830.000000	0.007046
2829.000000	0.007022
2828.000000	0.007008
2827.000000	0.007006
2826.000000	0.007012
2825.000000	0.007014
2824.000000	0.007002
2823.000000	0.006978
2822.000000	0.006949
2821.000000	0.006925
2820.000000	0.006914
2819.000000	0.006915
2818.000000	0.006919
2817.000000	0.006914
2816.000000	0.006892
2815.000000	0.006863
2814.000000	0.006842
2813.000000	0.006842
2812.000000	0.006854
2811.000000	0.006866
2810.000000	0.006866
2809.000000	0.006853
2808.000000	0.006833
2807.000000	0.006818
2806.000000	0.006816
2805.000000	0.006827
2804.000000	0.006838
2803.000000	0.006842
2802.000000	0.006838
2801.000000	0.006834
2800.000000	0.006830
2799.000000	0.006821
2798.000000	0.006801
2797.000000	0.006775
2796.000000	0.006748
2795.000000	0.006723
2794.000000	0.006702
2793.000000	0.006687
2792.000000	0.006685
2791.000000	0.006697
2790.000000	0.006714
2789.000000	0.006722
2788.000000	0.006715
2787.000000	0.006701
2786.000000	0.006688
2785.000000	0.006680
2784.000000	0.006672
2783.000000	0.006655
2782.000000	0.006629
2781.000000	0.006606
2780.000000	0.006594
2779.000000	0.006593
2778.000000	0.006593
2777.000000	0.006585
2776.000000	0.006571
2775.000000	0.006556
2774.000000	0.006546
2773.000000	0.006535
2772.000000	0.006517
2771.000000	0.006493
2770.000000	0.006472
2769.000000	0.006465
2768.000000	0.006474
2767.000000	0.006488
2766.000000	0.006492
2765.000000	0.006478
2764.000000	0.006452
2763.000000	0.006429
2762.000000	0.006425
2761.000000	0.006438
2760.000000	0.006450
2759.000000	0.006446
2758.000000	0.006421
2757.000000	0.006392
2756.000000	0.006377
2755.000000	0.006381
2754.000000	0.006392
2753.000000	0.006392
2752.000000	0.006375
2751.000000	0.006352
2750.000000	0.006344
2749.000000	0.006357
2748.000000	0.006376
2747.000000	0.006382
2746.000000	0.006368
2745.000000	0.006339
2744.000000	0.006305
2743.000000	0.006274
2742.000000	0.006252
2741.000000	0.006241
2740.000000	0.006237
2739.000000	0.006231
2738.000000	0.006219
2737.000000	0.006201
2736.000000	0.006183
2735.000000	0.006177
2734.000000	0.006186
2733.000000	0.006202
2732.000000	0.006210
2731.000000	0.006203
2730.000000	0.006184
2729.000000	0.006163
2728.000000	0.006143
2727.000000	0.006125
2726.000000	0.006106
2725.000000	0.006086
2724.000000	0.006067
2723.000000	0.006049
2722.000000	0.006039
2721.000000	0.006039
2720.000000	0.006047
2719.000000	0.006049
2718.000000	0.006042
2717.000000	0.006032
2716.000000	0.006028
2715.000000	0.006030
2714.000000	0.006029
2713.000000	0.006015
2712.000000	0.005991
2711.000000	0.005972
2710.000000	0.005968
2709.000000	0.005977
2708.000000	0.005985
2707.000000	0.005982
2706.000000	0.005969
2705.000000	0.005960
2704.000000	0.005961
2703.000000	0.005971
2702.000000	0.005980
2701.000000	0.005980
2700.000000	0.005970
2699.000000	0.005951
2698.000000	0.005926
2697.000000	0.005906
2696.000000	0.005898
2695.000000	0.005907
2694.000000	0.005929
2693.000000	0.005953
2692.000000	0.005970
2691.000000	0.005977
2690.000000	0.005976
2689.000000	0.005968
2688.000000	0.005951
2687.000000	0.005925
2686.000000	0.005905
2685.000000	0.005898
2684.000000	0.005901
2683.000000	0.005900
2682.000000	0.005890
2681.000000	0.005880
2680.000000	0.005882
2679.000000	0.005890
2678.000000	0.005893
2677.000000	0.005881
2676.000000	0.005861
2675.000000	0.005849
2674.000000	0.005852
2673.000000	0.005865
2672.000000	0.005874
2671.000000	0.005871
2670.000000	0.005861
2669.000000	0.005856
2668.000000	0.005863
2667.000000	0.005876
2666.000000	0.005884
2665.000000	0.005881
2664.000000	0.005870
2663.000000	0.005856
2662.000000	0.005844
2661.000000	0.005841
2660.000000	0.005846
2659.000000	0.005855
2658.000000	0.005857
2657.000000	0.005849
2656.000000	0.005837
2655.000000	0.005829
2654.000000	0.005828
2653.000000	0.005828
2652.000000	0.005822
2651.000000	0.005807
2650.000000	0.005788
2649.000000	0.005768
2648.000000	0.005744
2647.000000	0.005715
2646.000000	0.005684
2645.000000	0.005660
2644.000000	0.005650
2643.000000	0.005652
2642.000000	0.005652
2641.000000	0.005637
2640.000000	0.005604
2639.000000	0.005564
2638.000000	0.005531
2637.000000	0.005510
2636.000000	0.005500
2635.000000	0.005501
2634.000000	0.005508
2633.000000	0.005515
2632.000000	0.005514
2631.000000	0.005503
2630.000000	0.005483
2629.000000	0.005455
2628.000000	0.005418
2627.000000	0.005382
2626.000000	0.005361
2625.000000	0.005361
2624.000000	0.005369
2623.000000	0.005370
2622.000000	0.005360
2621.000000	0.005344
2620.000000	0.005328
2619.000000	0.005313
2618.000000	0.005299
2617.000000	0.005289
2616.000000	0.005278
2615.000000	0.005266
2614.000000	0.005254
2613.000000	0.005247
2612.000000	0.005240
2611.000000	0.005225
2610.000000	0.005199
2609.000000	0.005168
2608.000000	0.005140
2607.000000	0.005121
2606.000000	0.005110
2605.000000	0.005109
2604.000000	0.005119
2603.000000	0.005135
2602.000000	0.005149
2601.000000	0.005154
2600.000000	0.005145
2599.000000	0.005123
2598.000000	0.005094
2597.000000	0.005057
2596.000000	0.005010
2595.000000	0.004957
2594.000000	0.004915
2593.000000	0.004907
2592.000000	0.004934
2591.000000	0.004978
2590.000000	0.005013
2589.000000	0.005030
2588.000000	0.005031
2587.000000	0.005018
2586.000000	0.004988
2585.000000	0.004952
2584.000000	0.004923
2583.000000	0.004913
2582.000000	0.004920
2581.000000	0.004930
2580.000000	0.004929
2579.000000	0.004910
2578.000000	0.004879
2577.000000	0.004849
2576.000000	0.004834
2575.000000	0.004837
2574.000000	0.004847
2573.000000	0.004854
2572.000000	0.004853
2571.000000	0.004848
2570.000000	0.004846
2569.000000	0.004845
2568.000000	0.004839
2567.000000	0.004820
2566.000000	0.004792
2565.000000	0.004767
2564.000000	0.004749
2563.000000	0.004740
2562.000000	0.004744
2561.000000	0.004763
2560.000000	0.004795
2559.000000	0.004823
2558.000000	0.004837
2557.000000	0.004836
2556.000000	0.004822
2555.000000	0.004795
2554.000000	0.004760
2553.000000	0.004729
2552.000000	0.004714
2551.000000	0.004713
2550.000000	0.004713
2549.000000	0.004709
2548.000000	0.004708
2547.000000	0.004722
2546.000000	0.004750
2545.000000	0.004779
2544.000000	0.004786
2543.000000	0.004758
2542.000000	0.004705
2541.000000	0.004657
2540.000000	0.004642
2539.000000	0.004663
2538.000000	0.004702
2537.000000	0.004737
2536.000000	0.004759
2535.000000	0.004768
2534.000000	0.004768
2533.000000	0.004763
2532.000000	0.004757
2531.000000	0.004752
2530.000000	0.004747
2529.000000	0.004744
2528.000000	0.004738
2527.000000	0.004724
2526.000000	0.004700
2525.000000	0.004677
2524.000000	0.004667
2523.000000	0.004673
2522.000000	0.004685
2521.000000	0.004696
2520.000000	0.004705
2519.000000	0.004713
2518.000000	0.004710
2517.000000	0.004686
2516.000000	0.004651
2515.000000	0.004624
2514.000000	0.004621
2513.000000	0.004638
2512.000000	0.004661
2511.000000	0.004680
2510.000000	0.004693
2509.000000	0.004691
2508.000000	0.004668
2507.000000	0.004630
2506.000000	0.004598
2505.000000	0.004585
2504.000000	0.004591
2503.000000	0.004607
2502.000000	0.004629
2501.000000	0.004655
2500.000000	0.004679
2499.000000	0.004689
2498.000000	0.004680
2497.000000	0.004654
2496.000000	0.004623
2495.000000	0.004594
2494.000000	0.004574
2493.000000	0.004569
2492.000000	0.004584
2491.000000	0.004618
2490.000000	0.004658
2489.000000	0.004683
2488.000000	0.004683
2487.000000	0.004667
2486.000000	0.004657
2485.000000	0.004663
2484.000000	0.004674
2483.000000	0.004673
2482.000000	0.004659
2481.000000	0.004643
2480.000000	0.004632
2479.000000	0.004622
2478.000000	0.004611
2477.000000	0.004602
2476.000000	0.004596
2475.000000	0.004583
2474.000000	0.004557
2473.000000	0.004527
2472.000000	0.004513
2471.000000	0.004521
2470.000000	0.004540
2469.000000	0.004556
2468.000000	0.004564
2467.000000	0.004566
2466.000000	0.004567
2465.000000	0.004569
2464.000000	0.004582
2463.000000	0.004612
2462.000000	0.004651
2461.000000	0.004674
2460.000000	0.004656
2459.000000	0.004598
2458.000000	0.004529
2457.000000	0.004484
2456.000000	0.004483
2455.000000	0.004521
2454.000000	0.004578
2453.000000	0.004633
2452.000000	0.004674
2451.000000	0.004696
2450.000000	0.004698
2449.000000	0.004682
2448.000000	0.004647
2447.000000	0.004598
2446.000000	0.004541
2445.000000	0.004488
2444.000000	0.004458
2443.000000	0.004457
2442.000000	0.004471
2441.000000	0.004474
2440.000000	0.004455
2439.000000	0.004437
2438.000000	0.004451
2437.000000	0.004496
2436.000000	0.004540
2435.000000	0.004553
2434.000000	0.004535
2433.000000	0.004505
2432.000000	0.004475
2431.000000	0.004442
2430.000000	0.004402
2429.000000	0.004359
2428.000000	0.004326
2427.000000	0.004320
2426.000000	0.004350
2425.000000	0.004408
2424.000000	0.004471
2423.000000	0.004515
2422.000000	0.004530
2421.000000	0.004520
2420.000000	0.004493
2419.000000	0.004468
2418.000000	0.004460
2417.000000	0.004471
2416.000000	0.004486
2415.000000	0.004488
2414.000000	0.004472
2413.000000	0.004446
2412.000000	0.004425
2411.000000	0.004418
2410.000000	0.004429
2409.000000	0.004445
2408.000000	0.004444
2407.000000	0.004416
2406.000000	0.004375
2405.000000	0.004349
2404.000000	0.004353
2403.000000	0.004380
2402.000000	0.004414
2401.000000	0.004442
2400.000000	0.004457
2399.000000	0.004463
2398.000000	0.004469
2397.000000	0.004483
2396.000000	0.004494
2395.000000	0.004487
2394.000000	0.004462
2393.000000	0.004437
2392.000000	0.004430
2391.000000	0.004444
2390.000000	0.004458
2389.000000	0.004457
2388.000000	0.004442
2387.000000	0.004431
2386.000000	0.004442
2385.000000	0.004470
2384.000000	0.004494
2383.000000	0.004494
2382.000000	0.004468
2381.000000	0.004433
2380.000000	0.004404
2379.000000	0.004388
2378.000000	0.004382
2377.000000	0.004378
2376.000000	0.004374
2375.000000	0.004377
2374.000000	0.004395
2373.000000	0.004425
2372.000000	0.004452
2371.000000	0.004466
2370.000000	0.004472
2369.000000	0.004473
2368.000000	0.004457
2367.000000	0.004412
2366.000000	0.004352
2365.000000	0.004309
2364.000000	0.004312
2363.000000	0.004363
2362.000000	0.004431
2361.000000	0.004477
2360.000000	0.004487
2359.000000	0.004482
2358.000000	0.004488
2357.000000	0.004507
2356.000000	0.004521
2355.000000	0.004524
2354.000000	0.004519
2353.000000	0.004509
2352.000000	0.004503
2351.000000	0.004514
2350.000000	0.004548
2349.000000	0.004590
2348.000000	0.004623
2347.000000	0.004634
2346.000000	0.004621
2345.000000	0.004600
2344.000000	0.004576
2343.000000	0.004549
2342.000000	0.004520
2341.000000	0.004506
2340.000000	0.004521
2339.000000	0.004554
2338.000000	0.004580
2337.000000	0.004590
2336.000000	0.004597
2335.000000	0.004608
2334.000000	0.004610
2333.000000	0.004589
2332.000000	0.004556
2331.000000	0.004535
2330.000000	0.004540
2329.000000	0.004563
2328.000000	0.004604
2327.000000	0.004669
2326.000000	0.004752
2325.000000	0.004820
2324.000000	0.004832
2323.000000	0.004779
2322.000000	0.004691
2321.000000	0.004613
2320.000000	0.004563
2319.000000	0.004529
2318.000000	0.004497
2317.000000	0.004470
2316.000000	0.004465
2315.000000	0.004493
2314.000000	0.004547
2313.000000	0.004602
2312.000000	0.004630
2311.000000	0.004615
2310.000000	0.004565
2309.000000	0.004504
2308.000000	0.004460
2307.000000	0.004441
2306.000000	0.004437
2305.000000	0.004432
2304.000000	0.004429
2303.000000	0.004441
2302.000000	0.004470
2301.000000	0.004493
2300.000000	0.004485
2299.000000	0.004453
2298.000000	0.004436
2297.000000	0.004464
2296.000000	0.004529
2295.000000	0.004602
2294.000000	0.004661
2293.000000	0.004697
2292.000000	0.004709
2291.000000	0.004702
2290.000000	0.004686
2289.000000	0.004666
2288.000000	0.004636
2287.000000	0.004595
2286.000000	0.004558
2285.000000	0.004534
2284.000000	0.004515
2283.000000	0.004485
2282.000000	0.004445
2281.000000	0.004415
2280.000000	0.004409
2279.000000	0.004421
2278.000000	0.004441
2277.000000	0.004454
2276.000000	0.004446
2275.000000	0.004411
2274.000000	0.004367
2273.000000	0.004352
2272.000000	0.004378
2271.000000	0.004418
2270.000000	0.004427
2269.000000	0.004400
2268.000000	0.004371
2267.000000	0.004368
2266.000000	0.004374
2265.000000	0.004345
2264.000000	0.004276
2263.000000	0.004228
2262.000000	0.004268
2261.000000	0.004384
2260.000000	0.004473
2259.000000	0.004448
2258.000000	0.004336
2257.000000	0.004236
2256.000000	0.004210
2255.000000	0.004225
2254.000000	0.004215
2253.000000	0.004164
2252.000000	0.004120
2251.000000	0.004128
2250.000000	0.004191
2249.000000	0.004270
2248.000000	0.004320
2247.000000	0.004325
2246.000000	0.004305
2245.000000	0.004289
2244.000000	0.004293
2243.000000	0.004308
2242.000000	0.004317
2241.000000	0.004301
2240.000000	0.004249
2239.000000	0.004177
2238.000000	0.004127
2237.000000	0.004136
2236.000000	0.004198
2235.000000	0.004264
2234.000000	0.004292
2233.000000	0.004284
2232.000000	0.004276
2231.000000	0.004296
2230.000000	0.004344
2229.000000	0.004397
2228.000000	0.004440
2227.000000	0.004466
2226.000000	0.004467
2225.000000	0.004430
2224.000000	0.004363
2223.000000	0.004294
2222.000000	0.004241
2221.000000	0.004184
2220.000000	0.004096
2219.000000	0.004007
2218.000000	0.003984
2217.000000	0.004055
2216.000000	0.004164
2215.000000	0.004233
2214.000000	0.004228
2213.000000	0.004166
2212.000000	0.004082
2211.000000	0.004030
2210.000000	0.004064
2209.000000	0.004188
2208.000000	0.004322
2207.000000	0.004365
2206.000000	0.004290
2205.000000	0.004166
2204.000000	0.004081
2203.000000	0.004074
2202.000000	0.004123
2201.000000	0.004174
2200.000000	0.004179
2199.000000	0.004132
2198.000000	0.004076
2197.000000	0.004065
2196.000000	0.004115
2195.000000	0.004202
2194.000000	0.004291
2193.000000	0.004375
2192.000000	0.004469
2191.000000	0.004570
2190.000000	0.004619
2189.000000	0.004516
2188.000000	0.004233
2187.000000	0.003896
2186.000000	0.003701
2185.000000	0.003719
2184.000000	0.003834
2183.000000	0.003906
2182.000000	0.003936
2181.000000	0.004020
2180.000000	0.004184
2179.000000	0.004340
2178.000000	0.004393
2177.000000	0.004331
2176.000000	0.004203
2175.000000	0.004073
2174.000000	0.003981
2173.000000	0.003940
2172.000000	0.003960
2171.000000	0.004062
2170.000000	0.004249
2169.000000	0.004436
2168.000000	0.004483
2167.000000	0.004345
2166.000000	0.004142
2165.000000	0.004039
2164.000000	0.004062
2163.000000	0.004092
2162.000000	0.004009
2161.000000	0.003766
2160.000000	0.003397
2159.000000	0.003022
2158.000000	0.002819
2157.000000	0.002850
2156.000000	0.002985
2155.000000	0.003084
2154.000000	0.003146
2153.000000	0.003246
2152.000000	0.003378
2151.000000	0.003468
2150.000000	0.003498
2149.000000	0.003523
2148.000000	0.003568
2147.000000	0.003594
2146.000000	0.003581
2145.000000	0.003578
2144.000000	0.003637
2143.000000	0.003745
2142.000000	0.003843
2141.000000	0.003872
2140.000000	0.003808
2139.000000	0.003679
2138.000000	0.003550
2137.000000	0.003484
2136.000000	0.003475
2135.000000	0.003466
2134.000000	0.003418
2133.000000	0.003361
2132.000000	0.003354
2131.000000	0.003439
2130.000000	0.003608
2129.000000	0.003802
2128.000000	0.003945
2127.000000	0.003996
2126.000000	0.003981
2125.000000	0.003957
2124.000000	0.003959
2123.000000	0.003983
2122.000000	0.004017
2121.000000	0.004048
2120.000000	0.004059
2119.000000	0.004036
2118.000000	0.003990
2117.000000	0.003954
2116.000000	0.003956
2115.000000	0.004006
2114.000000	0.004090
2113.000000	0.004179
2112.000000	0.004237
2111.000000	0.004255
2110.000000	0.004257
2109.000000	0.004271
2108.000000	0.004286
2107.000000	0.004273
2106.000000	0.004221
2105.000000	0.004146
2104.000000	0.004074
2103.000000	0.004036
2102.000000	0.004064
2101.000000	0.004156
2100.000000	0.004252
2099.000000	0.004286
2098.000000	0.004255
2097.000000	0.004214
2096.000000	0.004201
2095.000000	0.004200
2094.000000	0.004192
2093.000000	0.004179
2092.000000	0.004170
2091.000000	0.004161
2090.000000	0.004159
2089.000000	0.004177
2088.000000	0.004208
2087.000000	0.004209
2086.000000	0.004143
2085.000000	0.004020
2084.000000	0.003883
2083.000000	0.003781
2082.000000	0.003746
2081.000000	0.003791
2080.000000	0.003891
2079.000000	0.003995
2078.000000	0.004060
2077.000000	0.004067
2076.000000	0.004020
2075.000000	0.003948
2074.000000	0.003896
2073.000000	0.003894
2072.000000	0.003918
2071.000000	0.003912
2070.000000	0.003859
2069.000000	0.003795
2068.000000	0.003770
2067.000000	0.003797
2066.000000	0.003865
2065.000000	0.003960
2064.000000	0.004052
2063.000000	0.004095
2062.000000	0.004064
2061.000000	0.003976
2060.000000	0.003886
2059.000000	0.003837
2058.000000	0.003842
2057.000000	0.003881
2056.000000	0.003930
2055.000000	0.003976
2054.000000	0.004019
2053.000000	0.004049
2052.000000	0.004033
2051.000000	0.003949
2050.000000	0.003817
2049.000000	0.003688
2048.000000	0.003598
2047.000000	0.003561
2046.000000	0.003582
2045.000000	0.003656
2044.000000	0.003745
2043.000000	0.003808
2042.000000	0.003847
2041.000000	0.003880
2040.000000	0.003876
2039.000000	0.003782
2038.000000	0.003598
2037.000000	0.003395
2036.000000	0.003231
2035.000000	0.003109
2034.000000	0.003045
2033.000000	0.003098
2032.000000	0.003298
2031.000000	0.003581
2030.000000	0.003833
2029.000000	0.003967
2028.000000	0.003942
2027.000000	0.003764
2026.000000	0.003486
2025.000000	0.003195
2024.000000	0.002966
2023.000000	0.002816
2022.000000	0.002731
2021.000000	0.002708
2020.000000	0.002767
2019.000000	0.002918
2018.000000	0.003122
2017.000000	0.003281
2016.000000	0.003312
2015.000000	0.003237
2014.000000	0.003157
2013.000000	0.003157
2012.000000	0.003249
2011.000000	0.003406
2010.000000	0.003594
2009.000000	0.003747
2008.000000	0.003783
2007.000000	0.003692
2006.000000	0.003569
2005.000000	0.003512
2004.000000	0.003523
2003.000000	0.003546
2002.000000	0.003535
2001.000000	0.003451
2000.000000	0.003267
1999.000000	0.003037
1998.000000	0.002897
1997.000000	0.002931
1996.000000	0.003045
1995.000000	0.003075
1994.000000	0.002988
1993.000000	0.002910
1992.000000	0.002937
1991.000000	0.003021
1990.000000	0.003068
1989.000000	0.003067
1988.000000	0.003076
1987.000000	0.003117
1986.000000	0.003151
1985.000000	0.003136
1984.000000	0.003100
1983.000000	0.003131
1982.000000	0.003306
1981.000000	0.003598
1980.000000	0.003879
1979.000000	0.004039
1978.000000	0.004068
1977.000000	0.004001
1976.000000	0.003824
1975.000000	0.003528
1974.000000	0.003198
1973.000000	0.002960
1972.000000	0.002843
1971.000000	0.002776
1970.000000	0.002714
1969.000000	0.002695
1968.000000	0.002751
1967.000000	0.002838
1966.000000	0.002894
1965.000000	0.002914
1964.000000	0.002944
1963.000000	0.003009
1962.000000	0.003085
1961.000000	0.003114
1960.000000	0.003080
1959.000000	0.003029
1958.000000	0.003022
1957.000000	0.003058
1956.000000	0.003102
1955.000000	0.003161
1954.000000	0.003277
1953.000000	0.003425
1952.000000	0.003493
1951.000000	0.003416
1950.000000	0.003274
1949.000000	0.003197
1948.000000	0.003210
1947.000000	0.003237
1946.000000	0.003242
1945.000000	0.003277
1944.000000	0.003385
1943.000000	0.003514
1942.000000	0.003563
1941.000000	0.003483
1940.000000	0.003311
1939.000000	0.003135
1938.000000	0.003037
1937.000000	0.003043
1936.000000	0.003106
1935.000000	0.003151
1934.000000	0.003138
1933.000000	0.003083
1932.000000	0.003033
1931.000000	0.003035
1930.000000	0.003108
1929.000000	0.003224
1928.000000	0.003321
1927.000000	0.003369
1926.000000	0.003404
1925.000000	0.003474
1924.000000	0.003573
1923.000000	0.003645
1922.000000	0.003647
1921.000000	0.003580
1920.000000	0.003477
1919.000000	0.003380
1918.000000	0.003331
1917.000000	0.003332
1916.000000	0.003345
1915.000000	0.003335
1914.000000	0.003309
1913.000000	0.003283
1912.000000	0.003261
1911.000000	0.003250
1910.000000	0.003271
1909.000000	0.003323
1908.000000	0.003370
1907.000000	0.003385
1906.000000	0.003387
1905.000000	0.003401
1904.000000	0.003407
1903.000000	0.003378
1902.000000	0.003335
1901.000000	0.003325
1900.000000	0.003354
1899.000000	0.003394
1898.000000	0.003423
1897.000000	0.003434
1896.000000	0.003405
1895.000000	0.003333
1894.000000	0.003267
1893.000000	0.003267
1892.000000	0.003331
1891.000000	0.003400
1890.000000	0.003431
1889.000000	0.003423
1888.000000	0.003385
1887.000000	0.003319
1886.000000	0.003243
1885.000000	0.003196
1884.000000	0.003194
1883.000000	0.003224
1882.000000	0.003272
1881.000000	0.003332
1880.000000	0.003381
1879.000000	0.003391
1878.000000	0.003370
1877.000000	0.003355
1876.000000	0.003371
1875.000000	0.003410
1874.000000	0.003448
1873.000000	0.003465
1872.000000	0.003443
1871.000000	0.003369
1870.000000	0.003267
1869.000000	0.003189
1868.000000	0.003172
1867.000000	0.003203
1866.000000	0.003257
1865.000000	0.003311
1864.000000	0.003339
1863.000000	0.003326
1862.000000	0.003299
1861.000000	0.003300
1860.000000	0.003330
1859.000000	0.003350
1858.000000	0.003338
1857.000000	0.003319
1856.000000	0.003326
1855.000000	0.003357
1854.000000	0.003392
1853.000000	0.003408
1852.000000	0.003395
1851.000000	0.003363
1850.000000	0.003338
1849.000000	0.003337
1848.000000	0.003352
1847.000000	0.003366
1846.000000	0.003378
1845.000000	0.003395
1844.000000	0.003412
1843.000000	0.003413
1842.000000	0.003403
1841.000000	0.003394
1840.000000	0.003377
1839.000000	0.003329
1838.000000	0.003252
1837.000000	0.003188
1836.000000	0.003165
1835.000000	0.003178
1834.000000	0.003206
1833.000000	0.003235
1832.000000	0.003255
1831.000000	0.003257
1830.000000	0.003252
1829.000000	0.003262
1828.000000	0.003283
1827.000000	0.003297
1826.000000	0.003295
1825.000000	0.003291
1824.000000	0.003292
1823.000000	0.003291
1822.000000	0.003289
1821.000000	0.003299
1820.000000	0.003320
1819.000000	0.003326
1818.000000	0.003302
1817.000000	0.003268
1816.000000	0.003253
1815.000000	0.003268
1814.000000	0.003302
1813.000000	0.003344
1812.000000	0.003378
1811.000000	0.003390
1810.000000	0.003382
1809.000000	0.003364
1808.000000	0.003343
1807.000000	0.003317
1806.000000	0.003297
1805.000000	0.003292
1804.000000	0.003296
1803.000000	0.003296
1802.000000	0.003295
1801.000000	0.003305
1800.000000	0.003318
1799.000000	0.003317
1798.000000	0.003306
1797.000000	0.003300
1796.000000	0.003298
1795.000000	0.003285
1794.000000	0.003261
1793.000000	0.003247
1792.000000	0.003249
1791.000000	0.003241
1790.000000	0.003217
1789.000000	0.003206
1788.000000	0.003226
1787.000000	0.003257
1786.000000	0.003268
1785.000000	0.003250
1784.000000	0.003213
1783.000000	0.003173
1782.000000	0.003142
1781.000000	0.003131
1780.000000	0.003144
1779.000000	0.003170
1778.000000	0.003191
1777.000000	0.003195
1776.000000	0.003178
1775.000000	0.003146
1774.000000	0.003112
1773.000000	0.003088
1772.000000	0.003077
1771.000000	0.003070
1770.000000	0.003063
1769.000000	0.003067
1768.000000	0.003079
1767.000000	0.003077
1766.000000	0.003057
1765.000000	0.003034
1764.000000	0.003019
1763.000000	0.003000
1762.000000	0.002974
1761.000000	0.002956
1760.000000	0.002956
1759.000000	0.002964
1758.000000	0.002968
1757.000000	0.002965
1756.000000	0.002954
1755.000000	0.002941
1754.000000	0.002927
1753.000000	0.002912
1752.000000	0.002887
1751.000000	0.002852
1750.000000	0.002829
1749.000000	0.002837
1748.000000	0.002865
1747.000000	0.002885
1746.000000	0.002884
1745.000000	0.002868
1744.000000	0.002849
1743.000000	0.002830
1742.000000	0.002812
1741.000000	0.002800
1740.000000	0.002788
1739.000000	0.002766
1738.000000	0.002748
1737.000000	0.002759
1736.000000	0.002795
1735.000000	0.002813
1734.000000	0.002804
1733.000000	0.002795
1732.000000	0.002785
1731.000000	0.002766
1730.000000	0.002754
1729.000000	0.002767
1728.000000	0.002800
1727.000000	0.002826
1726.000000	0.002832
1725.000000	0.002830
1724.000000	0.002823
1723.000000	0.002794
1722.000000	0.002747
1721.000000	0.002711
1720.000000	0.002701
1719.000000	0.002694
1718.000000	0.002679
1717.000000	0.002698
1716.000000	0.002766
1715.000000	0.002861
1714.000000	0.002987
1713.000000	0.003155
1712.000000	0.003336
1711.000000	0.003497
1710.000000	0.003648
1709.000000	0.003830
1708.000000	0.004056
1707.000000	0.004305
1706.000000	0.004565
1705.000000	0.004840
1704.000000	0.005110
1703.000000	0.005371
1702.000000	0.005663
1701.000000	0.006053
1700.000000	0.006502
1699.000000	0.006862
1698.000000	0.007132
1697.000000	0.007449
1696.000000	0.007861
1695.000000	0.008271
1694.000000	0.008601
1693.000000	0.008897
1692.000000	0.009220
1691.000000	0.009573
1690.000000	0.009934
1689.000000	0.010290
1688.000000	0.010627
1687.000000	0.010948
1686.000000	0.011296
1685.000000	0.011761
1684.000000	0.012343
1683.000000	0.012874
1682.000000	0.013286
1681.000000	0.013679
1680.000000	0.014110
1679.000000	0.014557
1678.000000	0.015007
1677.000000	0.015518
1676.000000	0.016141
1675.000000	0.016812
1674.000000	0.017399
1673.000000	0.017888
1672.000000	0.018374
1671.000000	0.018945
1670.000000	0.019634
1669.000000	0.020380
1668.000000	0.021055
1667.000000	0.021587
1666.000000	0.022025
1665.000000	0.022481
1664.000000	0.023036
1663.000000	0.023665
1662.000000	0.024262
1661.000000	0.024758
1660.000000	0.025175
1659.000000	0.025546
1658.000000	0.025877
1657.000000	0.026158
1656.000000	0.026417
1655.000000	0.026712
1654.000000	0.027177
1653.000000	0.027827
1652.000000	0.028308
1651.000000	0.028430
1650.000000	0.028399
1649.000000	0.028421
1648.000000	0.028584
1647.000000	0.028866
1646.000000	0.029157
1645.000000	0.029370
1644.000000	0.029503
1643.000000	0.029595
1642.000000	0.029687
1641.000000	0.029795
1640.000000	0.029904
1639.000000	0.029991
1638.000000	0.030080
1637.000000	0.030244
1636.000000	0.030517
1635.000000	0.030787
1634.000000	0.030915
1633.000000	0.030920
1632.000000	0.030884
1631.000000	0.030838
1630.000000	0.030771
1629.000000	0.030660
1628.000000	0.030481
1627.000000	0.030218
1626.000000	0.029884
1625.000000	0.029505
1624.000000	0.029099
1623.000000	0.028666
1622.000000	0.028203
1621.000000	0.027716
1620.000000	0.027214
1619.000000	0.026698
1618.000000	0.026142
1617.000000	0.025532
1616.000000	0.024907
1615.000000	0.024318
1614.000000	0.023773
1613.000000	0.023247
1612.000000	0.022722
1611.000000	0.022199
1610.000000	0.021690
1609.000000	0.021192
1608.000000	0.020701
1607.000000	0.020228
1606.000000	0.019786
1605.000000	0.019368
1604.000000	0.018973
1603.000000	0.018619
1602.000000	0.018313
1601.000000	0.018031
1600.000000	0.017756
1599.000000	0.017493
1598.000000	0.017256
1597.000000	0.017043
1596.000000	0.016855
1595.000000	0.016707
1594.000000	0.016604
1593.000000	0.016520
1592.000000	0.016432
1591.000000	0.016356
1590.000000	0.016320
1589.000000	0.016323
1588.000000	0.016351
1587.000000	0.016406
1586.000000	0.016492
1585.000000	0.016585
1584.000000	0.016677
1583.000000	0.016795
1582.000000	0.016958
1581.000000	0.017135
1580.000000	0.017284
1579.000000	0.017421
1578.000000	0.017601
1577.000000	0.017874
1576.000000	0.018219
1575.000000	0.018543
1574.000000	0.018785
1573.000000	0.018975
1572.000000	0.019188
1571.000000	0.019489
1570.000000	0.019891
1569.000000	0.020306
1568.000000	0.020656
1567.000000	0.020975
1566.000000	0.021337
1565.000000	0.021744
1564.000000	0.022133
1563.000000	0.022451
1562.000000	0.022717
1561.000000	0.022991
1560.000000	0.023389
1559.000000	0.024005
1558.000000	0.024622
1557.000000	0.025004
1556.000000	0.025247
1555.000000	0.025507
1554.000000	0.025800
1553.000000	0.026074
1552.000000	0.026301
1551.000000	0.026509
1550.000000	0.026707
1549.000000	0.026870
1548.000000	0.026973
1547.000000	0.027037
1546.000000	0.027096
1545.000000	0.027162
1544.000000	0.027213
1543.000000	0.027233
1542.000000	0.027241
1541.000000	0.027288
1540.000000	0.027391
1539.000000	0.027464
1538.000000	0.027410
1537.000000	0.027250
1536.000000	0.027057
1535.000000	0.026879
1534.000000	0.026735
1533.000000	0.026608
1532.000000	0.026455
1531.000000	0.026254
1530.000000	0.026031
1529.000000	0.025822
1528.000000	0.025632
1527.000000	0.025438
1526.000000	0.025219
1525.000000	0.024986
1524.000000	0.024762
1523.000000	0.024548
1522.000000	0.024335
1521.000000	0.024119
1520.000000	0.023893
1519.000000	0.023652
1518.000000	0.023410
1517.000000	0.023179
1516.000000	0.022949
1515.000000	0.022698
1514.000000	0.022422
1513.000000	0.022135
1512.000000	0.021841
1511.000000	0.021530
1510.000000	0.021208
1509.000000	0.020883
1508.000000	0.020541
1507.000000	0.020161
1506.000000	0.019789
1505.000000	0.019457
1504.000000	0.019135
1503.000000	0.018798
1502.000000	0.018439
1501.000000	0.018079
1500.000000	0.017752
1499.000000	0.017466
1498.000000	0.017193
1497.000000	0.016913
1496.000000	0.016626
1495.000000	0.016332
1494.000000	0.016042
1493.000000	0.015777
1492.000000	0.015531
1491.000000	0.015275
1490.000000	0.015008
1489.000000	0.014779
1488.000000	0.014610
1487.000000	0.014465
1486.000000	0.014323
1485.000000	0.014197
1484.000000	0.014101
1483.000000	0.014039
1482.000000	0.014017
1481.000000	0.014045
1480.000000	0.014112
1479.000000	0.014193
1478.000000	0.014274
1477.000000	0.014371
1476.000000	0.014489
1475.000000	0.014625
1474.000000	0.014793
1473.000000	0.015019
1472.000000	0.015285
1471.000000	0.015522
1470.000000	0.015708
1469.000000	0.015873
1468.000000	0.016038
1467.000000	0.016206
1466.000000	0.016398
1465.000000	0.016636
1464.000000	0.016902
1463.000000	0.017139
1462.000000	0.017326
1461.000000	0.017491
1460.000000	0.017667
1459.000000	0.017894
1458.000000	0.018237
1457.000000	0.018695
1456.000000	0.019104
1455.000000	0.019331
1454.000000	0.019444
1453.000000	0.019548
1452.000000	0.019661
1451.000000	0.019748
1450.000000	0.019791
1449.000000	0.019804
1448.000000	0.019793
1447.000000	0.019750
1446.000000	0.019677
1445.000000	0.019592
1444.000000	0.019507
1443.000000	0.019417
1442.000000	0.019310
1441.000000	0.019180
1440.000000	0.019031
1439.000000	0.018867
1438.000000	0.018683
1437.000000	0.018482
1436.000000	0.018274
1435.000000	0.018062
1434.000000	0.017851
1433.000000	0.017653
1432.000000	0.017473
1431.000000	0.017306
1430.000000	0.017153
1429.000000	0.017033
1428.000000	0.016955
1427.000000	0.016901
1426.000000	0.016845
1425.000000	0.016776
1424.000000	0.016706
1423.000000	0.016650
1422.000000	0.016603
1421.000000	0.016564
1420.000000	0.016539
1419.000000	0.016535
1418.000000	0.016541
1417.000000	0.016537
1416.000000	0.016522
1415.000000	0.016499
1414.000000	0.016475
1413.000000	0.016469
1412.000000	0.016503
1411.000000	0.016576
1410.000000	0.016663
1409.000000	0.016750
1408.000000	0.016841
1407.000000	0.016942
1406.000000	0.017059
1405.000000	0.017184
1404.000000	0.017301
1403.000000	0.017387
1402.000000	0.017434
1401.000000	0.017459
1400.000000	0.017474
1399.000000	0.017474
1398.000000	0.017453
1397.000000	0.017419
1396.000000	0.017381
1395.000000	0.017332
1394.000000	0.017260
1393.000000	0.017163
1392.000000	0.017052
1391.000000	0.016936
1390.000000	0.016821
1389.000000	0.016712
1388.000000	0.016608
1387.000000	0.016506
1386.000000	0.016404
1385.000000	0.016302
1384.000000	0.016199
1383.000000	0.016088
1382.000000	0.015966
1381.000000	0.015832
1380.000000	0.015688
1379.000000	0.015532
1378.000000	0.015370
1377.000000	0.015211
1376.000000	0.015063
1375.000000	0.014920
1374.000000	0.014770
1373.000000	0.014603
1372.000000	0.014417
1371.000000	0.014216
1370.000000	0.014002
1369.000000	0.013776
1368.000000	0.013538
1367.000000	0.013300
1366.000000	0.013069
1365.000000	0.012847
1364.000000	0.012635
1363.000000	0.012438
1362.000000	0.012273
1361.000000	0.012148
1360.000000	0.012056
1359.000000	0.011991
1358.000000	0.011947
1357.000000	0.011922
1356.000000	0.011917
1355.000000	0.011939
1354.000000	0.011996
1353.000000	0.012092
1352.000000	0.012218
1351.000000	0.012365
1350.000000	0.012529
1349.000000	0.012701
1348.000000	0.012871
1347.000000	0.013033
1346.000000	0.013195
1345.000000	0.013363
1344.000000	0.013537
1343.000000	0.013710
1342.000000	0.013882
1341.000000	0.014057
1340.000000	0.014230
1339.000000	0.014378
1338.000000	0.014478
1337.000000	0.014528
1336.000000	0.014537
1335.000000	0.014511
1334.000000	0.014452
1333.000000	0.014365
1332.000000	0.014260
1331.000000	0.014144
1330.000000	0.014025
1329.000000	0.013901
1328.000000	0.013772
1327.000000	0.013644
1326.000000	0.013531
1325.000000	0.013438
1324.000000	0.013366
1323.000000	0.013312
1322.000000	0.013274
1321.000000	0.013251
1320.000000	0.013238
1319.000000	0.013224
1318.000000	0.013201
1317.000000	0.013167
1316.000000	0.013126
1315.000000	0.013079
1314.000000	0.013021
1313.000000	0.012946
1312.000000	0.012852
1311.000000	0.012746
1310.000000	0.012637
1309.000000	0.012534
1308.000000	0.012439
1307.000000	0.012353
1306.000000	0.012272
1305.000000	0.012190
1304.000000	0.012107
1303.000000	0.012024
1302.000000	0.011947
1301.000000	0.011875
1300.000000	0.011806
1299.000000	0.011741
1298.000000	0.011689
1297.000000	0.011657
1296.000000	0.011651
1295.000000	0.011668
1294.000000	0.011702
1293.000000	0.011747
1292.000000	0.011801
1291.000000	0.011864
1290.000000	0.011944
1289.000000	0.012049
1288.000000	0.012176
1287.000000	0.012313
1286.000000	0.012442
1285.000000	0.012553
1284.000000	0.012645
1283.000000	0.012731
1282.000000	0.012818
1281.000000	0.012897
1280.000000	0.012944
1279.000000	0.012939
1278.000000	0.012894
1277.000000	0.012841
1276.000000	0.012809
1275.000000	0.012797
1274.000000	0.012792
1273.000000	0.012779
1272.000000	0.012757
1271.000000	0.012739
1270.000000	0.012739
1269.000000	0.012765
1268.000000	0.012807
1267.000000	0.012850
1266.000000	0.012886
1265.000000	0.012926
1264.000000	0.012984
1263.000000	0.013068
1262.000000	0.013173
1261.000000	0.013285
1260.000000	0.013392
1259.000000	0.013495
1258.000000	0.013605
1257.000000	0.013730
1256.000000	0.013865
1255.000000	0.014003
1254.000000	0.014144
1253.000000	0.014296
1252.000000	0.014457
1251.000000	0.014620
1250.000000	0.014782
1249.000000	0.014955
1248.000000	0.015147
1247.000000	0.015359
1246.000000	0.015586
1245.000000	0.015820
1244.000000	0.016037
1243.000000	0.016219
1242.000000	0.016363
1241.000000	0.016482
1240.000000	0.016587
1239.000000	0.016670
1238.000000	0.016732
1237.000000	0.016779
1236.000000	0.016807
1235.000000	0.016794
1234.000000	0.016729
1233.000000	0.016629
1232.000000	0.016515
1231.000000	0.016386
1230.000000	0.016222
1229.000000	0.016008
1228.000000	0.015745
1227.000000	0.015438
1226.000000	0.015097
1225.000000	0.014743
1224.000000	0.014393
1223.000000	0.014054
1222.000000	0.013715
1221.000000	0.013361
1220.000000	0.013002
1219.000000	0.012673
1218.000000	0.012415
1217.000000	0.012252
1216.000000	0.012180
1215.000000	0.012171
1214.000000	0.012197
1213.000000	0.012235
1212.000000	0.012274
1211.000000	0.012313
1210.000000	0.012361
1209.000000	0.012427
1208.000000	0.012510
1207.000000	0.012595
1206.000000	0.012676
1205.000000	0.012754
1204.000000	0.012825
1203.000000	0.012869
1202.000000	0.012858
1201.000000	0.012781
1200.000000	0.012648
1199.000000	0.012479
1198.000000	0.012297
1197.000000	0.012121
1196.000000	0.011953
1195.000000	0.011784
1194.000000	0.011606
1193.000000	0.011420
1192.000000	0.011230
1191.000000	0.011038
1190.000000	0.010840
1189.000000	0.010641
1188.000000	0.010446
1187.000000	0.010261
1186.000000	0.010092
1185.000000	0.009940
1184.000000	0.009809
1183.000000	0.009699
1182.000000	0.009606
1181.000000	0.009532
1180.000000	0.009477
1179.000000	0.009439
1178.000000	0.009412
1177.000000	0.009389
1176.000000	0.009361
1175.000000	0.009323
1174.000000	0.009278
1173.000000	0.009240
1172.000000	0.009219
1171.000000	0.009214
1170.000000	0.009220
1169.000000	0.009236
1168.000000	0.009267
1167.000000	0.009307
1166.000000	0.009341
1165.000000	0.009363
1164.000000	0.009373
1163.000000	0.009378
1162.000000	0.009382
1161.000000	0.009386
1160.000000	0.009377
1159.000000	0.009339
1158.000000	0.009255
1157.000000	0.009135
1156.000000	0.009010
1155.000000	0.008901
1154.000000	0.008805
1153.000000	0.008699
1152.000000	0.008571
1151.000000	0.008427
1150.000000	0.008285
1149.000000	0.008152
1148.000000	0.008026
1147.000000	0.007906
1146.000000	0.007802
1145.000000	0.007726
1144.000000	0.007675
1143.000000	0.007628
1142.000000	0.007561
1141.000000	0.007468
1140.000000	0.007365
1139.000000	0.007286
1138.000000	0.007250
1137.000000	0.007247
1136.000000	0.007245
1135.000000	0.007220
1134.000000	0.007176
1133.000000	0.007135
1132.000000	0.007107
1131.000000	0.007081
1130.000000	0.007045
1129.000000	0.006999
1128.000000	0.006955
1127.000000	0.006922
1126.000000	0.006906
1125.000000	0.006913
1124.000000	0.006944
1123.000000	0.006983
1122.000000	0.007010
1121.000000	0.007011
1120.000000	0.006990
1119.000000	0.006969
1118.000000	0.006969
1117.000000	0.007000
1116.000000	0.007057
1115.000000	0.007118
1114.000000	0.007162
1113.000000	0.007177
1112.000000	0.007169
1111.000000	0.007156
1110.000000	0.007161
1109.000000	0.007195
1108.000000	0.007248
1107.000000	0.007297
1106.000000	0.007327
1105.000000	0.007341
1104.000000	0.007362
1103.000000	0.007405
1102.000000	0.007464
1101.000000	0.007513
1100.000000	0.007531
1099.000000	0.007522
1098.000000	0.007516
1097.000000	0.007543
1096.000000	0.007608
1095.000000	0.007695
1094.000000	0.007790
1093.000000	0.007899
1092.000000	0.008039
1091.000000	0.008213
1090.000000	0.008404
1089.000000	0.008594
1088.000000	0.008778
1087.000000	0.008963
1086.000000	0.009161
1085.000000	0.009364
1084.000000	0.009543
1083.000000	0.009669
1082.000000	0.009740
1081.000000	0.009780
1080.000000	0.009802
1079.000000	0.009797
1078.000000	0.009745
1077.000000	0.009640
1076.000000	0.009494
1075.000000	0.009325
1074.000000	0.009161
1073.000000	0.009033
1072.000000	0.008944
1071.000000	0.008869
1070.000000	0.008781
1069.000000	0.008690
1068.000000	0.008625
1067.000000	0.008596
1066.000000	0.008588
1065.000000	0.008591
1064.000000	0.008613
1063.000000	0.008653
1062.000000	0.008683
1061.000000	0.008671
1060.000000	0.008621
1059.000000	0.008568
1058.000000	0.008531
1057.000000	0.008497
1056.000000	0.008440
1055.000000	0.008362
1054.000000	0.008290
1053.000000	0.008245
1052.000000	0.008216
1051.000000	0.008180
1050.000000	0.008139
1049.000000	0.008112
1048.000000	0.008110
1047.000000	0.008117
1046.000000	0.008112
1045.000000	0.008087
1044.000000	0.008049
1043.000000	0.008012
1042.000000	0.007995
1041.000000	0.008019
1040.000000	0.008095
1039.000000	0.008215
1038.000000	0.008356
1037.000000	0.008499
1036.000000	0.008633
1035.000000	0.008753
1034.000000	0.008851
1033.000000	0.008927
1032.000000	0.008975
1031.000000	0.008992
1030.000000	0.008974
1029.000000	0.008925
1028.000000	0.008856
1027.000000	0.008776
1026.000000	0.008687
1025.000000	0.008585
1024.000000	0.008467
1023.000000	0.008336
1022.000000	0.008211
1021.000000	0.008111
1020.000000	0.008037
1019.000000	0.007975
1018.000000	0.007911
1017.000000	0.007844
1016.000000	0.007777
1015.000000	0.007708
1014.000000	0.007633
1013.000000	0.007553
1012.000000	0.007461
1011.000000	0.007343
1010.000000	0.007196
1009.000000	0.007041
1008.000000	0.006911
1007.000000	0.006815
1006.000000	0.006731
1005.000000	0.006631
1004.000000	0.006510
1003.000000	0.006387
1002.000000	0.006283
1001.000000	0.006200
1000.000000	0.006124
999.000000	0.006039
998.000000	0.005933
997.000000	0.005806
996.000000	0.005665
995.000000	0.005533
994.000000	0.005440
993.000000	0.005391
992.000000	0.005355
991.000000	0.005285
990.000000	0.005175
989.000000	0.005069
988.000000	0.005009
987.000000	0.004985
986.000000	0.004951
985.000000	0.004888
984.000000	0.004832
983.000000	0.004823
982.000000	0.004862
981.000000	0.004916
980.000000	0.004959
979.000000	0.004990
978.000000	0.005014
977.000000	0.005025
976.000000	0.005015
975.000000	0.004986
974.000000	0.004961
973.000000	0.004957
972.000000	0.004968
971.000000	0.004964
970.000000	0.004920
969.000000	0.004839
968.000000	0.004747
967.000000	0.004665
966.000000	0.004600
965.000000	0.004548
964.000000	0.004502
963.000000	0.004459
962.000000	0.004417
961.000000	0.004379
960.000000	0.004344
959.000000	0.004300
958.000000	0.004233
957.000000	0.004143
956.000000	0.004044
955.000000	0.003958
954.000000	0.003899
953.000000	0.003877
952.000000	0.003891
951.000000	0.003925
950.000000	0.003950
949.000000	0.003947
948.000000	0.003925
947.000000	0.003912
946.000000	0.003925
945.000000	0.003951
944.000000	0.003963
943.000000	0.003954
942.000000	0.003945
941.000000	0.003965
940.000000	0.004010
939.000000	0.004041
938.000000	0.004026
937.000000	0.003976
936.000000	0.003926
935.000000	0.003895
934.000000	0.003870
933.000000	0.003833
932.000000	0.003785
931.000000	0.003738
930.000000	0.003701
929.000000	0.003677
928.000000	0.003664
927.000000	0.003653
926.000000	0.003634
925.000000	0.003606
924.000000	0.003584
923.000000	0.003579
922.000000	0.003580
921.000000	0.003561
920.000000	0.003517
919.000000	0.003463
918.000000	0.003419
917.000000	0.003384
916.000000	0.003347
915.000000	0.003302
914.000000	0.003254
913.000000	0.003202
912.000000	0.003141
911.000000	0.003065
910.000000	0.002991
909.000000	0.002947
908.000000	0.002951
907.000000	0.002984
906.000000	0.003014
905.000000	0.003016
904.000000	0.002990
903.000000	0.002952
902.000000	0.002913
901.000000	0.002877
900.000000	0.002850
899.000000	0.002834
898.000000	0.002823
897.000000	0.002810
896.000000	0.002796
895.000000	0.002793
894.000000	0.002807
893.000000	0.002820
892.000000	0.002803
891.000000	0.002747
890.000000	0.002673
889.000000	0.002622
888.000000	0.002622
887.000000	0.002680
886.000000	0.002790
885.000000	0.002937
884.000000	0.003091
883.000000	0.003226
882.000000	0.003338
881.000000	0.003455
880.000000	0.003612
879.000000	0.003814
878.000000	0.004034
877.000000	0.004227
876.000000	0.004357
875.000000	0.004403
874.000000	0.004365
873.000000	0.004263
872.000000	0.004122
871.000000	0.003964
870.000000	0.003805
869.000000	0.003660
868.000000	0.003541
867.000000	0.003444
866.000000	0.003357
865.000000	0.003284
864.000000	0.003242
863.000000	0.003242
862.000000	0.003267
861.000000	0.003284
860.000000	0.003272
859.000000	0.003246
858.000000	0.003232
857.000000	0.003242
856.000000	0.003251
855.000000	0.003234
854.000000	0.003202
853.000000	0.003196
852.000000	0.003242
851.000000	0.003317
850.000000	0.003375
849.000000	0.003390
848.000000	0.003364
847.000000	0.003301
846.000000	0.003206
845.000000	0.003093
844.000000	0.002996
843.000000	0.002941
842.000000	0.002925
841.000000	0.002922
840.000000	0.002916
839.000000	0.002911
838.000000	0.002914
837.000000	0.002916
836.000000	0.002902
835.000000	0.002858
834.000000	0.002793
833.000000	0.002729
832.000000	0.002680
831.000000	0.002657
830.000000	0.002664
829.000000	0.002698
828.000000	0.002741
827.000000	0.002762
826.000000	0.002754
825.000000	0.002739
824.000000	0.002748
823.000000	0.002785
822.000000	0.002824
821.000000	0.002843
820.000000	0.002843
819.000000	0.002842
818.000000	0.002859
817.000000	0.002894
816.000000	0.002923
815.000000	0.002919
814.000000	0.002891
813.000000	0.002873
812.000000	0.002884
811.000000	0.002892
810.000000	0.002857
809.000000	0.002778
808.000000	0.002697
807.000000	0.002653
806.000000	0.002661
805.000000	0.002716
804.000000	0.002796
803.000000	0.002860
802.000000	0.002872
801.000000	0.002834
800.000000	0.002798
799.000000	0.002820
798.000000	0.002903
797.000000	0.002995
796.000000	0.003037
795.000000	0.003011
794.000000	0.002953
793.000000	0.002914
792.000000	0.002918
791.000000	0.002953
790.000000	0.002999
789.000000	0.003051
788.000000	0.003109
787.000000	0.003168
786.000000	0.003221
785.000000	0.003272
784.000000	0.003324
783.000000	0.003363
782.000000	0.003372
781.000000	0.003355
780.000000	0.003332
779.000000	0.003317
778.000000	0.003301
777.000000	0.003282
776.000000	0.003276
775.000000	0.003297
774.000000	0.003344
773.000000	0.003402
772.000000	0.003451
771.000000	0.003475
770.000000	0.003466
769.000000	0.003439
768.000000	0.003415
767.000000	0.003407
766.000000	0.003408
765.000000	0.003410
764.000000	0.003418
763.000000	0.003436
762.000000	0.003456
761.000000	0.003464
760.000000	0.003461
759.000000	0.003457
758.000000	0.003459
757.000000	0.003477
756.000000	0.003523
755.000000	0.003598
754.000000	0.003674
753.000000	0.003710
752.000000	0.003689
751.000000	0.003643
750.000000	0.003616
749.000000	0.003632
748.000000	0.003688
747.000000	0.003774
746.000000	0.003877
745.000000	0.003978
744.000000	0.004056
743.000000	0.004114
742.000000	0.004171
741.000000	0.004242
740.000000	0.004311
739.000000	0.004357
738.000000	0.004375
737.000000	0.004381
736.000000	0.004392
735.000000	0.004406
734.000000	0.004417
733.000000	0.004437
732.000000	0.004493
731.000000	0.004606
730.000000	0.004755
729.000000	0.004888
728.000000	0.004960
727.000000	0.004971
726.000000	0.004964
725.000000	0.004976
724.000000	0.005024
723.000000	0.005113
722.000000	0.005251
721.000000	0.005428
720.000000	0.005604
719.000000	0.005738
718.000000	0.005823
717.000000	0.005869
716.000000	0.005877
715.000000	0.005861
714.000000	0.005869
713.000000	0.005944
712.000000	0.006061
711.000000	0.006148
710.000000	0.006165
709.000000	0.006147
708.000000	0.006147
707.000000	0.006189
706.000000	0.006265
705.000000	0.006361
704.000000	0.006453
703.000000	0.006514
702.000000	0.006551
701.000000	0.006593
700.000000	0.006658
699.000000	0.006728
698.000000	0.006782
697.000000	0.006835
696.000000	0.006903
695.000000	0.006983
694.000000	0.007059
693.000000	0.007122
692.000000	0.007160
691.000000	0.007152
690.000000	0.007104
689.000000	0.007067
688.000000	0.007086
687.000000	0.007138
686.000000	0.007167
685.000000	0.007160
684.000000	0.007158
683.000000	0.007195
682.000000	0.007259
681.000000	0.007326
680.000000	0.007394
679.000000	0.007482
678.000000	0.007593
677.000000	0.007724
676.000000	0.007865
675.000000	0.007990
674.000000	0.008070
673.000000	0.008081
672.000000	0.008025
671.000000	0.007927
670.000000	0.007849
669.000000	0.007883
668.000000	0.008090
667.000000	0.008363
666.000000	0.008472
665.000000	0.008443
664.000000	0.008410
663.000000	0.008415
662.000000	0.008444
661.000000	0.008485
660.000000	0.008534
659.000000	0.008568
658.000000	0.008555
657.000000	0.008502
656.000000	0.008448
655.000000	0.008418
654.000000	0.008427
653.000000	0.008487
652.000000	0.008577
651.000000	0.008641
650.000000	0.008646
649.000000	0.008631
648.000000	0.008652
647.000000	0.008711
646.000000	0.008787
645.000000	0.008877
644.000000	0.008986
643.000000	0.009077
642.000000	0.009088
641.000000	0.009009
640.000000	0.008893
639.000000	0.008805
638.000000	0.008767
637.000000	0.008753
636.000000	0.008723
635.000000	0.008673
634.000000	0.008651
633.000000	0.008704
632.000000	0.008806
631.000000	0.008870
630.000000	0.008841
629.000000	0.008763
628.000000	0.008720
627.000000	0.008756
626.000000	0.008861
625.000000	0.008993
624.000000	0.009101
623.000000	0.009140
622.000000	0.009110
621.000000	0.009061
620.000000	0.009044
619.000000	0.009059
618.000000	0.009079
617.000000	0.009082
616.000000	0.009054
615.000000	0.008982
614.000000	0.008886
613.000000	0.008827
612.000000	0.008835
611.000000	0.008872
610.000000	0.008899
609.000000	0.008942
608.000000	0.009046
607.000000	0.009177
606.000000	0.009239
605.000000	0.009181
604.000000	0.009041
603.000000	0.008880
602.000000	0.008728
601.000000	0.008609
600.000000	0.008561
599.000000	0.008618
598.000000	0.008770
597.000000	0.008951
596.000000	0.009067
595.000000	0.009051
594.000000	0.008928
593.000000	0.008806
592.000000	0.008782
591.000000	0.008861
590.000000	0.008982
589.000000	0.009089
588.000000	0.009134
587.000000	0.009064
586.000000	0.008877
585.000000	0.008677
584.000000	0.008594
583.000000	0.008636
582.000000	0.008678
581.000000	0.008627
580.000000	0.008519
579.000000	0.008450
578.000000	0.008450
577.000000	0.008485
576.000000	0.008536
575.000000	0.008611
574.000000	0.008691
573.000000	0.008734
572.000000	0.008741
571.000000	0.008776
570.000000	0.008903
569.000000	0.009102
568.000000	0.009275
567.000000	0.009332
566.000000	0.009277
565.000000	0.009204
564.000000	0.009220
563.000000	0.009361
562.000000	0.009576
561.000000	0.009780
560.000000	0.009913
559.000000	0.009966
558.000000	0.009964
557.000000	0.009934
556.000000	0.009883
555.000000	0.009811
554.000000	0.009736
553.000000	0.009696
552.000000	0.009696
551.000000	0.009679
550.000000	0.009577
549.000000	0.009376
548.000000	0.009139
547.000000	0.008947
546.000000	0.008836
545.000000	0.008775
544.000000	0.008718
543.000000	0.008666
542.000000	0.008667
541.000000	0.008754
540.000000	0.008906
539.000000	0.009085
538.000000	0.009281
537.000000	0.009480
536.000000	0.009622
535.000000	0.009646
534.000000	0.009581
533.000000	0.009527
532.000000	0.009537
531.000000	0.009575
530.000000	0.009584
529.000000	0.009545
528.000000	0.009459
527.000000	0.009319
526.000000	0.009149
525.000000	0.008987
524.000000	0.008837
523.000000	0.008681
522.000000	0.008560
521.000000	0.008540
520.000000	0.008597
519.000000	0.008601
518.000000	0.008484
517.000000	0.008344
516.000000	0.008291
515.000000	0.008285
514.000000	0.008203
513.000000	0.008016
512.000000	0.007801
511.000000	0.007624
510.000000	0.007485
509.000000	0.007352
508.000000	0.007194
507.000000	0.007010
506.000000	0.006855
505.000000	0.006806
504.000000	0.006860
503.000000	0.006900
502.000000	0.006811
501.000000	0.006619
500.000000	0.006450
499.000000	0.006378
498.000000	0.006387
497.000000	0.006413
496.000000	0.006383
495.000000	0.006240
494.000000	0.005987
493.000000	0.005688
492.000000	0.005394
491.000000	0.005117
490.000000	0.004910
489.000000	0.004893
488.000000	0.005108
487.000000	0.005409
486.000000	0.005580
485.000000	0.005559
484.000000	0.005466
483.000000	0.005420
482.000000	0.005425
481.000000	0.005446
480.000000	0.005481
479.000000	0.005529
478.000000	0.005545
477.000000	0.005466
476.000000	0.005250
475.000000	0.004899
474.000000	0.004494
473.000000	0.004209
472.000000	0.004197
471.000000	0.004424
470.000000	0.004698
469.000000	0.004864
468.000000	0.004854
467.000000	0.004636
466.000000	0.004224
465.000000	0.003755
464.000000	0.003433
463.000000	0.003374
462.000000	0.003489
461.000000	0.003543
460.000000	0.003348
459.000000	0.002885
458.000000	0.002368
457.000000	0.002154
456.000000	0.002380
455.000000	0.002815
454.000000	0.003118
453.000000	0.003127
452.000000	0.002944
451.000000	0.002801
450.000000	0.002797
