PE IR       SUBTECH     SPECTRUM    ASCII       PEDS        4.00        
   -1
3G-H10-F012_1.ASC
22/02/23
15:24:18.00
22/02/23
15:55:22.00
uco
Sample 012 By uco Date Wednesday, February 23 2022
450.000000
#HDR
-1
-1
#GR
cm-1
A
1.0
0.0
4000.000000
-1.000000
3551
8
0.050595
0.005403
#DATA
4000.000000	0.005719
3999.000000	0.005689
3998.000000	0.005702
3997.000000	0.005700
3996.000000	0.005712
3995.000000	0.005731
3994.000000	0.005750
3993.000000	0.005763
3992.000000	0.005769
3991.000000	0.005769
3990.000000	0.005767
3989.000000	0.005769
3988.000000	0.005782
3987.000000	0.005809
3986.000000	0.005842
3985.000000	0.005869
3984.000000	0.005880
3983.000000	0.005875
3982.000000	0.005861
3981.000000	0.005846
3980.000000	0.005836
3979.000000	0.005833
3978.000000	0.005839
3977.000000	0.005854
3976.000000	0.005873
3975.000000	0.005889
3974.000000	0.005894
3973.000000	0.005887
3972.000000	0.005873
3971.000000	0.005864
3970.000000	0.005871
3969.000000	0.005894
3968.000000	0.005919
3967.000000	0.005928
3966.000000	0.005914
3965.000000	0.005888
3964.000000	0.005869
3963.000000	0.005871
3962.000000	0.005892
3961.000000	0.005920
3960.000000	0.005943
3959.000000	0.005957
3958.000000	0.005963
3957.000000	0.005966
3956.000000	0.005968
3955.000000	0.005971
3954.000000	0.005975
3953.000000	0.005977
3952.000000	0.005975
3951.000000	0.005964
3950.000000	0.005943
3949.000000	0.005913
3948.000000	0.005886
3947.000000	0.005873
3946.000000	0.005879
3945.000000	0.005900
3944.000000	0.005920
3943.000000	0.005927
3942.000000	0.005922
3941.000000	0.005915
3940.000000	0.005917
3939.000000	0.005931
3938.000000	0.005948
3937.000000	0.005956
3936.000000	0.005951
3935.000000	0.005941
3934.000000	0.005943
3933.000000	0.005965
3932.000000	0.006002
3931.000000	0.006035
3930.000000	0.006051
3929.000000	0.006049
3928.000000	0.006041
3927.000000	0.006034
3926.000000	0.006030
3925.000000	0.006025
3924.000000	0.006018
3923.000000	0.006008
3922.000000	0.005999
3921.000000	0.005991
3920.000000	0.005980
3919.000000	0.005962
3918.000000	0.005937
3917.000000	0.005916
3916.000000	0.005909
3915.000000	0.005921
3914.000000	0.005946
3913.000000	0.005978
3912.000000	0.006005
3911.000000	0.006019
3910.000000	0.006019
3909.000000	0.006017
3908.000000	0.006026
3907.000000	0.006046
3906.000000	0.006059
3905.000000	0.006044
3904.000000	0.006000
3903.000000	0.005952
3902.000000	0.005934
3901.000000	0.005953
3900.000000	0.005994
3899.000000	0.006033
3898.000000	0.006058
3897.000000	0.006068
3896.000000	0.006069
3895.000000	0.006066
3894.000000	0.006063
3893.000000	0.006065
3892.000000	0.006069
3891.000000	0.006069
3890.000000	0.006058
3889.000000	0.006031
3888.000000	0.006001
3887.000000	0.005988
3886.000000	0.006006
3885.000000	0.006041
3884.000000	0.006067
3883.000000	0.006077
3882.000000	0.006074
3881.000000	0.006063
3880.000000	0.006040
3879.000000	0.006014
3878.000000	0.005994
3877.000000	0.005989
3876.000000	0.006003
3875.000000	0.006032
3874.000000	0.006061
3873.000000	0.006071
3872.000000	0.006056
3871.000000	0.006023
3870.000000	0.005989
3869.000000	0.005965
3868.000000	0.005956
3867.000000	0.005964
3866.000000	0.005991
3865.000000	0.006029
3864.000000	0.006053
3863.000000	0.006053
3862.000000	0.006045
3861.000000	0.006047
3860.000000	0.006066
3859.000000	0.006106
3858.000000	0.006172
3857.000000	0.006258
3856.000000	0.006337
3855.000000	0.006367
3854.000000	0.006303
3853.000000	0.006169
3852.000000	0.006047
3851.000000	0.005983
3850.000000	0.005967
3849.000000	0.005984
3848.000000	0.006014
3847.000000	0.006038
3846.000000	0.006049
3845.000000	0.006046
3844.000000	0.006032
3843.000000	0.006016
3842.000000	0.006004
3841.000000	0.006002
3840.000000	0.006013
3839.000000	0.006037
3838.000000	0.006068
3837.000000	0.006102
3836.000000	0.006132
3835.000000	0.006146
3834.000000	0.006136
3833.000000	0.006104
3832.000000	0.006068
3831.000000	0.006040
3830.000000	0.006026
3829.000000	0.006027
3828.000000	0.006040
3827.000000	0.006054
3826.000000	0.006057
3825.000000	0.006039
3824.000000	0.006008
3823.000000	0.005989
3822.000000	0.006003
3821.000000	0.006034
3820.000000	0.006046
3819.000000	0.006028
3818.000000	0.006000
3817.000000	0.005986
3816.000000	0.005998
3815.000000	0.006022
3814.000000	0.006040
3813.000000	0.006047
3812.000000	0.006048
3811.000000	0.006046
3810.000000	0.006038
3809.000000	0.006021
3808.000000	0.005998
3807.000000	0.005970
3806.000000	0.005943
3805.000000	0.005926
3804.000000	0.005930
3803.000000	0.005963
3802.000000	0.006012
3801.000000	0.006046
3800.000000	0.006048
3799.000000	0.006031
3798.000000	0.006017
3797.000000	0.006018
3796.000000	0.006032
3795.000000	0.006049
3794.000000	0.006060
3793.000000	0.006061
3792.000000	0.006056
3791.000000	0.006049
3790.000000	0.006045
3789.000000	0.006050
3788.000000	0.006065
3787.000000	0.006086
3786.000000	0.006105
3785.000000	0.006116
3784.000000	0.006114
3783.000000	0.006102
3782.000000	0.006084
3781.000000	0.006067
3780.000000	0.006053
3779.000000	0.006041
3778.000000	0.006032
3777.000000	0.006032
3776.000000	0.006043
3775.000000	0.006061
3774.000000	0.006079
3773.000000	0.006086
3772.000000	0.006076
3771.000000	0.006058
3770.000000	0.006043
3769.000000	0.006035
3768.000000	0.006027
3767.000000	0.006014
3766.000000	0.005994
3765.000000	0.005979
3764.000000	0.005973
3763.000000	0.005973
3762.000000	0.005974
3761.000000	0.005976
3760.000000	0.005975
3759.000000	0.005961
3758.000000	0.005942
3757.000000	0.005931
3756.000000	0.005929
3755.000000	0.005923
3754.000000	0.005903
3753.000000	0.005875
3752.000000	0.005859
3751.000000	0.005860
3750.000000	0.005870
3749.000000	0.005882
3748.000000	0.005887
3747.000000	0.005889
3746.000000	0.005903
3745.000000	0.005935
3744.000000	0.005961
3743.000000	0.005948
3742.000000	0.005890
3741.000000	0.005814
3740.000000	0.005746
3739.000000	0.005700
3738.000000	0.005681
3737.000000	0.005690
3736.000000	0.005708
3735.000000	0.005704
3734.000000	0.005675
3733.000000	0.005655
3732.000000	0.005675
3731.000000	0.005723
3730.000000	0.005769
3729.000000	0.005796
3728.000000	0.005802
3727.000000	0.005797
3726.000000	0.005786
3725.000000	0.005774
3724.000000	0.005771
3723.000000	0.005785
3722.000000	0.005804
3721.000000	0.005814
3720.000000	0.005811
3719.000000	0.005801
3718.000000	0.005795
3717.000000	0.005797
3716.000000	0.005801
3715.000000	0.005800
3714.000000	0.005795
3713.000000	0.005796
3712.000000	0.005808
3711.000000	0.005816
3710.000000	0.005814
3709.000000	0.005805
3708.000000	0.005793
3707.000000	0.005778
3706.000000	0.005761
3705.000000	0.005751
3704.000000	0.005759
3703.000000	0.005790
3702.000000	0.005828
3701.000000	0.005856
3700.000000	0.005870
3699.000000	0.005875
3698.000000	0.005879
3697.000000	0.005884
3696.000000	0.005885
3695.000000	0.005881
3694.000000	0.005878
3693.000000	0.005880
3692.000000	0.005884
3691.000000	0.005868
3690.000000	0.005818
3689.000000	0.005756
3688.000000	0.005723
3687.000000	0.005729
3686.000000	0.005754
3685.000000	0.005780
3684.000000	0.005803
3683.000000	0.005823
3682.000000	0.005840
3681.000000	0.005858
3680.000000	0.005883
3679.000000	0.005913
3678.000000	0.005935
3677.000000	0.005951
3676.000000	0.005970
3675.000000	0.005986
3674.000000	0.005984
3673.000000	0.005958
3672.000000	0.005915
3671.000000	0.005884
3670.000000	0.005882
3669.000000	0.005901
3668.000000	0.005929
3667.000000	0.005956
3666.000000	0.005977
3665.000000	0.005991
3664.000000	0.006008
3663.000000	0.006037
3662.000000	0.006073
3661.000000	0.006100
3660.000000	0.006100
3659.000000	0.006077
3658.000000	0.006052
3657.000000	0.006052
3656.000000	0.006078
3655.000000	0.006109
3654.000000	0.006121
3653.000000	0.006110
3652.000000	0.006091
3651.000000	0.006087
3650.000000	0.006114
3649.000000	0.006166
3648.000000	0.006226
3647.000000	0.006279
3646.000000	0.006310
3645.000000	0.006328
3644.000000	0.006349
3643.000000	0.006383
3642.000000	0.006421
3641.000000	0.006442
3640.000000	0.006442
3639.000000	0.006438
3638.000000	0.006451
3637.000000	0.006489
3636.000000	0.006541
3635.000000	0.006592
3634.000000	0.006629
3633.000000	0.006648
3632.000000	0.006658
3631.000000	0.006674
3630.000000	0.006703
3629.000000	0.006731
3628.000000	0.006737
3627.000000	0.006728
3626.000000	0.006727
3625.000000	0.006738
3624.000000	0.006757
3623.000000	0.006776
3622.000000	0.006799
3621.000000	0.006837
3620.000000	0.006894
3619.000000	0.006957
3618.000000	0.007011
3617.000000	0.007053
3616.000000	0.007084
3615.000000	0.007103
3614.000000	0.007109
3613.000000	0.007105
3612.000000	0.007097
3611.000000	0.007103
3610.000000	0.007142
3609.000000	0.007219
3608.000000	0.007312
3607.000000	0.007389
3606.000000	0.007434
3605.000000	0.007452
3604.000000	0.007461
3603.000000	0.007472
3602.000000	0.007495
3601.000000	0.007533
3600.000000	0.007581
3599.000000	0.007631
3598.000000	0.007683
3597.000000	0.007747
3596.000000	0.007825
3595.000000	0.007903
3594.000000	0.007957
3593.000000	0.007978
3592.000000	0.007976
3591.000000	0.007973
3590.000000	0.007987
3589.000000	0.008028
3588.000000	0.008087
3587.000000	0.008144
3586.000000	0.008190
3585.000000	0.008229
3584.000000	0.008271
3583.000000	0.008323
3582.000000	0.008390
3581.000000	0.008469
3580.000000	0.008553
3579.000000	0.008630
3578.000000	0.008695
3577.000000	0.008749
3576.000000	0.008793
3575.000000	0.008829
3574.000000	0.008862
3573.000000	0.008899
3572.000000	0.008939
3571.000000	0.008976
3570.000000	0.009002
3569.000000	0.009024
3568.000000	0.009056
3567.000000	0.009107
3566.000000	0.009179
3565.000000	0.009271
3564.000000	0.009378
3563.000000	0.009487
3562.000000	0.009582
3561.000000	0.009650
3560.000000	0.009693
3559.000000	0.009721
3558.000000	0.009747
3557.000000	0.009783
3556.000000	0.009831
3555.000000	0.009888
3554.000000	0.009953
3553.000000	0.010021
3552.000000	0.010086
3551.000000	0.010139
3550.000000	0.010180
3549.000000	0.010215
3548.000000	0.010261
3547.000000	0.010326
3546.000000	0.010403
3545.000000	0.010475
3544.000000	0.010529
3543.000000	0.010568
3542.000000	0.010604
3541.000000	0.010648
3540.000000	0.010703
3539.000000	0.010765
3538.000000	0.010834
3537.000000	0.010906
3536.000000	0.010981
3535.000000	0.011050
3534.000000	0.011105
3533.000000	0.011148
3532.000000	0.011184
3531.000000	0.011219
3530.000000	0.011253
3529.000000	0.011287
3528.000000	0.011323
3527.000000	0.011365
3526.000000	0.011419
3525.000000	0.011482
3524.000000	0.011550
3523.000000	0.011616
3522.000000	0.011682
3521.000000	0.011752
3520.000000	0.011830
3519.000000	0.011907
3518.000000	0.011970
3517.000000	0.012010
3516.000000	0.012029
3515.000000	0.012040
3514.000000	0.012052
3513.000000	0.012073
3512.000000	0.012106
3511.000000	0.012147
3510.000000	0.012190
3509.000000	0.012234
3508.000000	0.012283
3507.000000	0.012339
3506.000000	0.012399
3505.000000	0.012456
3504.000000	0.012509
3503.000000	0.012560
3502.000000	0.012615
3501.000000	0.012673
3500.000000	0.012730
3499.000000	0.012782
3498.000000	0.012829
3497.000000	0.012877
3496.000000	0.012931
3495.000000	0.012998
3494.000000	0.013075
3493.000000	0.013151
3492.000000	0.013215
3491.000000	0.013261
3490.000000	0.013288
3489.000000	0.013302
3488.000000	0.013310
3487.000000	0.013324
3486.000000	0.013352
3485.000000	0.013392
3484.000000	0.013430
3483.000000	0.013456
3482.000000	0.013476
3481.000000	0.013505
3480.000000	0.013556
3479.000000	0.013627
3478.000000	0.013704
3477.000000	0.013773
3476.000000	0.013830
3475.000000	0.013877
3474.000000	0.013921
3473.000000	0.013966
3472.000000	0.014011
3471.000000	0.014055
3470.000000	0.014100
3469.000000	0.014147
3468.000000	0.014193
3467.000000	0.014231
3466.000000	0.014256
3465.000000	0.014272
3464.000000	0.014292
3463.000000	0.014328
3462.000000	0.014383
3461.000000	0.014449
3460.000000	0.014514
3459.000000	0.014570
3458.000000	0.014612
3457.000000	0.014643
3456.000000	0.014664
3455.000000	0.014682
3454.000000	0.014705
3453.000000	0.014742
3452.000000	0.014795
3451.000000	0.014859
3450.000000	0.014930
3449.000000	0.015004
3448.000000	0.015078
3447.000000	0.015145
3446.000000	0.015200
3445.000000	0.015245
3444.000000	0.015282
3443.000000	0.015314
3442.000000	0.015346
3441.000000	0.015383
3440.000000	0.015425
3439.000000	0.015470
3438.000000	0.015516
3437.000000	0.015560
3436.000000	0.015607
3435.000000	0.015660
3434.000000	0.015722
3433.000000	0.015787
3432.000000	0.015846
3431.000000	0.015889
3430.000000	0.015918
3429.000000	0.015946
3428.000000	0.015989
3427.000000	0.016056
3426.000000	0.016139
3425.000000	0.016218
3424.000000	0.016276
3423.000000	0.016309
3422.000000	0.016331
3421.000000	0.016360
3420.000000	0.016404
3419.000000	0.016464
3418.000000	0.016531
3417.000000	0.016600
3416.000000	0.016666
3415.000000	0.016728
3414.000000	0.016786
3413.000000	0.016836
3412.000000	0.016879
3411.000000	0.016919
3410.000000	0.016962
3409.000000	0.017010
3408.000000	0.017058
3407.000000	0.017101
3406.000000	0.017138
3405.000000	0.017173
3404.000000	0.017211
3403.000000	0.017254
3402.000000	0.017303
3401.000000	0.017352
3400.000000	0.017399
3399.000000	0.017443
3398.000000	0.017487
3397.000000	0.017531
3396.000000	0.017572
3395.000000	0.017610
3394.000000	0.017643
3393.000000	0.017678
3392.000000	0.017720
3391.000000	0.017772
3390.000000	0.017832
3389.000000	0.017891
3388.000000	0.017946
3387.000000	0.018000
3386.000000	0.018055
3385.000000	0.018109
3384.000000	0.018155
3383.000000	0.018190
3382.000000	0.018225
3381.000000	0.018269
3380.000000	0.018320
3379.000000	0.018368
3378.000000	0.018405
3377.000000	0.018441
3376.000000	0.018489
3375.000000	0.018558
3374.000000	0.018638
3373.000000	0.018712
3372.000000	0.018773
3371.000000	0.018830
3370.000000	0.018895
3369.000000	0.018973
3368.000000	0.019059
3367.000000	0.019141
3366.000000	0.019214
3365.000000	0.019279
3364.000000	0.019338
3363.000000	0.019392
3362.000000	0.019440
3361.000000	0.019489
3360.000000	0.019544
3359.000000	0.019611
3358.000000	0.019685
3357.000000	0.019761
3356.000000	0.019839
3355.000000	0.019922
3354.000000	0.020013
3353.000000	0.020108
3352.000000	0.020197
3351.000000	0.020274
3350.000000	0.020340
3349.000000	0.020402
3348.000000	0.020468
3347.000000	0.020539
3346.000000	0.020616
3345.000000	0.020694
3344.000000	0.020772
3343.000000	0.020849
3342.000000	0.020923
3341.000000	0.020989
3340.000000	0.021044
3339.000000	0.021095
3338.000000	0.021157
3337.000000	0.021237
3336.000000	0.021331
3335.000000	0.021423
3334.000000	0.021502
3333.000000	0.021566
3332.000000	0.021623
3331.000000	0.021677
3330.000000	0.021723
3329.000000	0.021757
3328.000000	0.021783
3327.000000	0.021814
3326.000000	0.021865
3325.000000	0.021941
3324.000000	0.022030
3323.000000	0.022121
3322.000000	0.022202
3321.000000	0.022271
3320.000000	0.022325
3319.000000	0.022362
3318.000000	0.022387
3317.000000	0.022406
3316.000000	0.022429
3315.000000	0.022459
3314.000000	0.022497
3313.000000	0.022544
3312.000000	0.022596
3311.000000	0.022651
3310.000000	0.022701
3309.000000	0.022741
3308.000000	0.022777
3307.000000	0.022816
3306.000000	0.022864
3305.000000	0.022917
3304.000000	0.022968
3303.000000	0.023017
3302.000000	0.023063
3301.000000	0.023106
3300.000000	0.023143
3299.000000	0.023171
3298.000000	0.023190
3297.000000	0.023200
3296.000000	0.023205
3295.000000	0.023214
3294.000000	0.023231
3293.000000	0.023254
3292.000000	0.023274
3291.000000	0.023288
3290.000000	0.023297
3289.000000	0.023309
3288.000000	0.023325
3287.000000	0.023341
3286.000000	0.023355
3285.000000	0.023362
3284.000000	0.023360
3283.000000	0.023349
3282.000000	0.023333
3281.000000	0.023319
3280.000000	0.023311
3279.000000	0.023303
3278.000000	0.023285
3277.000000	0.023251
3276.000000	0.023204
3275.000000	0.023147
3274.000000	0.023090
3273.000000	0.023039
3272.000000	0.022999
3271.000000	0.022972
3270.000000	0.022954
3269.000000	0.022941
3268.000000	0.022925
3267.000000	0.022894
3266.000000	0.022844
3265.000000	0.022782
3264.000000	0.022722
3263.000000	0.022677
3262.000000	0.022642
3261.000000	0.022599
3260.000000	0.022536
3259.000000	0.022455
3258.000000	0.022375
3257.000000	0.022313
3256.000000	0.022273
3255.000000	0.022243
3254.000000	0.022204
3253.000000	0.022148
3252.000000	0.022085
3251.000000	0.022022
3250.000000	0.021961
3249.000000	0.021894
3248.000000	0.021819
3247.000000	0.021745
3246.000000	0.021686
3245.000000	0.021646
3244.000000	0.021621
3243.000000	0.021602
3242.000000	0.021583
3241.000000	0.021559
3240.000000	0.021525
3239.000000	0.021480
3238.000000	0.021421
3237.000000	0.021351
3236.000000	0.021276
3235.000000	0.021209
3234.000000	0.021155
3233.000000	0.021114
3232.000000	0.021080
3231.000000	0.021051
3230.000000	0.021028
3229.000000	0.021014
3228.000000	0.021008
3227.000000	0.020998
3226.000000	0.020974
3225.000000	0.020934
3224.000000	0.020884
3223.000000	0.020833
3222.000000	0.020784
3221.000000	0.020733
3220.000000	0.020681
3219.000000	0.020632
3218.000000	0.020590
3217.000000	0.020557
3216.000000	0.020530
3215.000000	0.020507
3214.000000	0.020483
3213.000000	0.020452
3212.000000	0.020410
3211.000000	0.020355
3210.000000	0.020294
3209.000000	0.020238
3208.000000	0.020196
3207.000000	0.020165
3206.000000	0.020139
3205.000000	0.020109
3204.000000	0.020073
3203.000000	0.020030
3202.000000	0.019979
3201.000000	0.019922
3200.000000	0.019864
3199.000000	0.019814
3198.000000	0.019774
3197.000000	0.019743
3196.000000	0.019714
3195.000000	0.019684
3194.000000	0.019646
3193.000000	0.019592
3192.000000	0.019517
3191.000000	0.019428
3190.000000	0.019339
3189.000000	0.019267
3188.000000	0.019215
3187.000000	0.019176
3186.000000	0.019141
3185.000000	0.019103
3184.000000	0.019067
3183.000000	0.019034
3182.000000	0.019000
3181.000000	0.018954
3180.000000	0.018884
3179.000000	0.018795
3178.000000	0.018704
3177.000000	0.018627
3176.000000	0.018572
3175.000000	0.018531
3174.000000	0.018487
3173.000000	0.018431
3172.000000	0.018364
3171.000000	0.018297
3170.000000	0.018238
3169.000000	0.018187
3168.000000	0.018137
3167.000000	0.018081
3166.000000	0.018019
3165.000000	0.017954
3164.000000	0.017894
3163.000000	0.017846
3162.000000	0.017807
3161.000000	0.017769
3160.000000	0.017720
3159.000000	0.017658
3158.000000	0.017590
3157.000000	0.017522
3156.000000	0.017455
3155.000000	0.017384
3154.000000	0.017314
3153.000000	0.017249
3152.000000	0.017193
3151.000000	0.017145
3150.000000	0.017104
3149.000000	0.017072
3148.000000	0.017052
3147.000000	0.017039
3146.000000	0.017019
3145.000000	0.016979
3144.000000	0.016914
3143.000000	0.016837
3142.000000	0.016771
3141.000000	0.016728
3140.000000	0.016703
3139.000000	0.016681
3138.000000	0.016654
3137.000000	0.016622
3136.000000	0.016588
3135.000000	0.016550
3134.000000	0.016509
3133.000000	0.016467
3132.000000	0.016429
3131.000000	0.016394
3130.000000	0.016365
3129.000000	0.016340
3128.000000	0.016319
3127.000000	0.016297
3126.000000	0.016271
3125.000000	0.016246
3124.000000	0.016228
3123.000000	0.016219
3122.000000	0.016212
3121.000000	0.016197
3120.000000	0.016167
3119.000000	0.016126
3118.000000	0.016086
3117.000000	0.016056
3116.000000	0.016044
3115.000000	0.016050
3114.000000	0.016076
3113.000000	0.016115
3112.000000	0.016152
3111.000000	0.016175
3110.000000	0.016188
3109.000000	0.016203
3108.000000	0.016225
3107.000000	0.016244
3106.000000	0.016252
3105.000000	0.016250
3104.000000	0.016241
3103.000000	0.016221
3102.000000	0.016189
3101.000000	0.016159
3100.000000	0.016149
3099.000000	0.016167
3098.000000	0.016204
3097.000000	0.016243
3096.000000	0.016271
3095.000000	0.016284
3094.000000	0.016285
3093.000000	0.016284
3092.000000	0.016288
3091.000000	0.016296
3090.000000	0.016302
3089.000000	0.016306
3088.000000	0.016313
3087.000000	0.016325
3086.000000	0.016343
3085.000000	0.016362
3084.000000	0.016381
3083.000000	0.016400
3082.000000	0.016414
3081.000000	0.016416
3080.000000	0.016402
3079.000000	0.016374
3078.000000	0.016347
3077.000000	0.016341
3076.000000	0.016364
3075.000000	0.016409
3074.000000	0.016459
3073.000000	0.016495
3072.000000	0.016508
3071.000000	0.016496
3070.000000	0.016463
3069.000000	0.016421
3068.000000	0.016383
3067.000000	0.016354
3066.000000	0.016336
3065.000000	0.016325
3064.000000	0.016319
3063.000000	0.016315
3062.000000	0.016307
3061.000000	0.016290
3060.000000	0.016265
3059.000000	0.016232
3058.000000	0.016195
3057.000000	0.016157
3056.000000	0.016120
3055.000000	0.016082
3054.000000	0.016037
3053.000000	0.015981
3052.000000	0.015923
3051.000000	0.015873
3050.000000	0.015836
3049.000000	0.015804
3048.000000	0.015763
3047.000000	0.015701
3046.000000	0.015623
3045.000000	0.015544
3044.000000	0.015478
3043.000000	0.015429
3042.000000	0.015392
3041.000000	0.015357
3040.000000	0.015321
3039.000000	0.015285
3038.000000	0.015248
3037.000000	0.015207
3036.000000	0.015163
3035.000000	0.015120
3034.000000	0.015078
3033.000000	0.015030
3032.000000	0.014975
3031.000000	0.014920
3030.000000	0.014878
3029.000000	0.014850
3028.000000	0.014824
3027.000000	0.014786
3026.000000	0.014739
3025.000000	0.014696
3024.000000	0.014662
3023.000000	0.014630
3022.000000	0.014588
3021.000000	0.014535
3020.000000	0.014478
3019.000000	0.014424
3018.000000	0.014377
3017.000000	0.014340
3016.000000	0.014315
3015.000000	0.014302
3014.000000	0.014296
3013.000000	0.014287
3012.000000	0.014274
3011.000000	0.014260
3010.000000	0.014253
3009.000000	0.014255
3008.000000	0.014261
3007.000000	0.014266
3006.000000	0.014269
3005.000000	0.014272
3004.000000	0.014279
3003.000000	0.014289
3002.000000	0.014301
3001.000000	0.014315
3000.000000	0.014334
2999.000000	0.014360
2998.000000	0.014392
2997.000000	0.014434
2996.000000	0.014487
2995.000000	0.014553
2994.000000	0.014628
2993.000000	0.014710
2992.000000	0.014797
2991.000000	0.014885
2990.000000	0.014974
2989.000000	0.015070
2988.000000	0.015179
2987.000000	0.015306
2986.000000	0.015444
2985.000000	0.015582
2984.000000	0.015715
2983.000000	0.015845
2982.000000	0.015973
2981.000000	0.016101
2980.000000	0.016228
2979.000000	0.016364
2978.000000	0.016511
2977.000000	0.016666
2976.000000	0.016820
2975.000000	0.016970
2974.000000	0.017118
2973.000000	0.017268
2972.000000	0.017423
2971.000000	0.017586
2970.000000	0.017766
2969.000000	0.017969
2968.000000	0.018189
2967.000000	0.018407
2966.000000	0.018602
2965.000000	0.018761
2964.000000	0.018893
2963.000000	0.019016
2962.000000	0.019149
2961.000000	0.019289
2960.000000	0.019421
2959.000000	0.019530
2958.000000	0.019614
2957.000000	0.019686
2956.000000	0.019755
2955.000000	0.019825
2954.000000	0.019886
2953.000000	0.019931
2952.000000	0.019956
2951.000000	0.019970
2950.000000	0.019985
2949.000000	0.020011
2948.000000	0.020057
2947.000000	0.020128
2946.000000	0.020221
2945.000000	0.020327
2944.000000	0.020440
2943.000000	0.020568
2942.000000	0.020722
2941.000000	0.020911
2940.000000	0.021129
2939.000000	0.021367
2938.000000	0.021618
2937.000000	0.021885
2936.000000	0.022171
2935.000000	0.022474
2934.000000	0.022791
2933.000000	0.023124
2932.000000	0.023474
2931.000000	0.023836
2930.000000	0.024198
2929.000000	0.024542
2928.000000	0.024860
2927.000000	0.025159
2926.000000	0.025450
2925.000000	0.025733
2924.000000	0.025988
2923.000000	0.026196
2922.000000	0.026351
2921.000000	0.026457
2920.000000	0.026503
2919.000000	0.026459
2918.000000	0.026296
2917.000000	0.026001
2916.000000	0.025586
2915.000000	0.025076
2914.000000	0.024502
2913.000000	0.023894
2912.000000	0.023290
2911.000000	0.022728
2910.000000	0.022232
2909.000000	0.021806
2908.000000	0.021437
2907.000000	0.021114
2906.000000	0.020835
2905.000000	0.020595
2904.000000	0.020382
2903.000000	0.020184
2902.000000	0.019999
2901.000000	0.019832
2900.000000	0.019678
2899.000000	0.019524
2898.000000	0.019360
2897.000000	0.019195
2896.000000	0.019045
2895.000000	0.018919
2894.000000	0.018814
2893.000000	0.018718
2892.000000	0.018623
2891.000000	0.018528
2890.000000	0.018439
2889.000000	0.018359
2888.000000	0.018284
2887.000000	0.018209
2886.000000	0.018134
2885.000000	0.018067
2884.000000	0.018011
2883.000000	0.017967
2882.000000	0.017935
2881.000000	0.017922
2880.000000	0.017928
2879.000000	0.017947
2878.000000	0.017966
2877.000000	0.017977
2876.000000	0.017980
2875.000000	0.017979
2874.000000	0.017976
2873.000000	0.017973
2872.000000	0.017967
2871.000000	0.017952
2870.000000	0.017923
2869.000000	0.017880
2868.000000	0.017831
2867.000000	0.017783
2866.000000	0.017743
2865.000000	0.017717
2864.000000	0.017716
2863.000000	0.017749
2862.000000	0.017827
2861.000000	0.017961
2860.000000	0.018155
2859.000000	0.018398
2858.000000	0.018673
2857.000000	0.018972
2856.000000	0.019298
2855.000000	0.019656
2854.000000	0.020028
2853.000000	0.020377
2852.000000	0.020649
2851.000000	0.020784
2850.000000	0.020729
2849.000000	0.020455
2848.000000	0.019982
2847.000000	0.019370
2846.000000	0.018704
2845.000000	0.018059
2844.000000	0.017487
2843.000000	0.017007
2842.000000	0.016611
2841.000000	0.016275
2840.000000	0.015982
2839.000000	0.015725
2838.000000	0.015504
2837.000000	0.015319
2836.000000	0.015165
2835.000000	0.015037
2834.000000	0.014929
2833.000000	0.014833
2832.000000	0.014738
2831.000000	0.014636
2830.000000	0.014527
2829.000000	0.014416
2828.000000	0.014314
2827.000000	0.014228
2826.000000	0.014156
2825.000000	0.014091
2824.000000	0.014028
2823.000000	0.013968
2822.000000	0.013913
2821.000000	0.013863
2820.000000	0.013814
2819.000000	0.013763
2818.000000	0.013709
2817.000000	0.013648
2816.000000	0.013585
2815.000000	0.013527
2814.000000	0.013486
2813.000000	0.013459
2812.000000	0.013434
2811.000000	0.013398
2810.000000	0.013351
2809.000000	0.013300
2808.000000	0.013253
2807.000000	0.013216
2806.000000	0.013191
2805.000000	0.013175
2804.000000	0.013161
2803.000000	0.013138
2802.000000	0.013104
2801.000000	0.013063
2800.000000	0.013022
2799.000000	0.012985
2798.000000	0.012956
2797.000000	0.012931
2796.000000	0.012903
2795.000000	0.012867
2794.000000	0.012829
2793.000000	0.012798
2792.000000	0.012781
2791.000000	0.012776
2790.000000	0.012775
2789.000000	0.012766
2788.000000	0.012743
2787.000000	0.012707
2786.000000	0.012668
2785.000000	0.012638
2784.000000	0.012615
2783.000000	0.012592
2782.000000	0.012565
2781.000000	0.012537
2780.000000	0.012518
2779.000000	0.012507
2778.000000	0.012499
2777.000000	0.012482
2776.000000	0.012453
2775.000000	0.012421
2774.000000	0.012393
2773.000000	0.012375
2772.000000	0.012361
2771.000000	0.012341
2770.000000	0.012312
2769.000000	0.012278
2768.000000	0.012250
2767.000000	0.012231
2766.000000	0.012221
2765.000000	0.012212
2764.000000	0.012200
2763.000000	0.012185
2762.000000	0.012171
2761.000000	0.012158
2760.000000	0.012141
2759.000000	0.012117
2758.000000	0.012090
2757.000000	0.012067
2756.000000	0.012050
2755.000000	0.012035
2754.000000	0.012014
2753.000000	0.011983
2752.000000	0.011946
2751.000000	0.011914
2750.000000	0.011899
2749.000000	0.011901
2748.000000	0.011911
2747.000000	0.011914
2746.000000	0.011902
2745.000000	0.011878
2744.000000	0.011847
2743.000000	0.011819
2742.000000	0.011799
2741.000000	0.011789
2740.000000	0.011786
2739.000000	0.011784
2738.000000	0.011774
2737.000000	0.011751
2736.000000	0.011719
2735.000000	0.011689
2734.000000	0.011674
2733.000000	0.011673
2732.000000	0.011674
2731.000000	0.011661
2730.000000	0.011637
2729.000000	0.011611
2728.000000	0.011588
2727.000000	0.011564
2726.000000	0.011536
2725.000000	0.011507
2724.000000	0.011483
2723.000000	0.011471
2722.000000	0.011473
2721.000000	0.011486
2720.000000	0.011496
2719.000000	0.011495
2718.000000	0.011485
2717.000000	0.011477
2716.000000	0.011478
2715.000000	0.011473
2714.000000	0.011451
2713.000000	0.011414
2712.000000	0.011379
2711.000000	0.011359
2710.000000	0.011356
2709.000000	0.011359
2708.000000	0.011351
2707.000000	0.011327
2706.000000	0.011297
2705.000000	0.011277
2704.000000	0.011273
2703.000000	0.011280
2702.000000	0.011283
2701.000000	0.011279
2700.000000	0.011266
2699.000000	0.011245
2698.000000	0.011214
2697.000000	0.011182
2696.000000	0.011158
2695.000000	0.011149
2694.000000	0.011151
2693.000000	0.011157
2692.000000	0.011162
2691.000000	0.011164
2690.000000	0.011166
2689.000000	0.011166
2688.000000	0.011162
2687.000000	0.011148
2686.000000	0.011126
2685.000000	0.011104
2684.000000	0.011086
2683.000000	0.011073
2682.000000	0.011068
2681.000000	0.011072
2680.000000	0.011085
2679.000000	0.011094
2678.000000	0.011086
2677.000000	0.011062
2676.000000	0.011032
2675.000000	0.011008
2674.000000	0.010999
2673.000000	0.011004
2672.000000	0.011014
2671.000000	0.011020
2670.000000	0.011017
2669.000000	0.011012
2668.000000	0.011014
2667.000000	0.011019
2666.000000	0.011020
2665.000000	0.011012
2664.000000	0.010998
2663.000000	0.010982
2662.000000	0.010966
2661.000000	0.010948
2660.000000	0.010924
2659.000000	0.010897
2658.000000	0.010867
2657.000000	0.010841
2656.000000	0.010827
2655.000000	0.010824
2654.000000	0.010826
2653.000000	0.010823
2652.000000	0.010809
2651.000000	0.010788
2650.000000	0.010761
2649.000000	0.010730
2648.000000	0.010695
2647.000000	0.010656
2646.000000	0.010611
2645.000000	0.010567
2644.000000	0.010534
2643.000000	0.010515
2642.000000	0.010503
2641.000000	0.010486
2640.000000	0.010460
2639.000000	0.010427
2638.000000	0.010392
2637.000000	0.010358
2636.000000	0.010328
2635.000000	0.010309
2634.000000	0.010303
2633.000000	0.010304
2632.000000	0.010303
2631.000000	0.010295
2630.000000	0.010279
2629.000000	0.010253
2628.000000	0.010215
2627.000000	0.010164
2626.000000	0.010109
2625.000000	0.010060
2624.000000	0.010022
2623.000000	0.009993
2622.000000	0.009971
2621.000000	0.009961
2620.000000	0.009962
2619.000000	0.009962
2618.000000	0.009950
2617.000000	0.009924
2616.000000	0.009892
2615.000000	0.009867
2614.000000	0.009855
2613.000000	0.009850
2612.000000	0.009848
2611.000000	0.009844
2610.000000	0.009836
2609.000000	0.009820
2608.000000	0.009794
2607.000000	0.009761
2606.000000	0.009731
2605.000000	0.009713
2604.000000	0.009707
2603.000000	0.009700
2602.000000	0.009685
2601.000000	0.009664
2600.000000	0.009646
2599.000000	0.009633
2598.000000	0.009621
2597.000000	0.009608
2596.000000	0.009591
2595.000000	0.009573
2594.000000	0.009559
2593.000000	0.009556
2592.000000	0.009563
2591.000000	0.009569
2590.000000	0.009561
2589.000000	0.009534
2588.000000	0.009494
2587.000000	0.009449
2586.000000	0.009407
2585.000000	0.009374
2584.000000	0.009355
2583.000000	0.009355
2582.000000	0.009368
2581.000000	0.009382
2580.000000	0.009381
2579.000000	0.009357
2578.000000	0.009313
2577.000000	0.009262
2576.000000	0.009221
2575.000000	0.009202
2574.000000	0.009203
2573.000000	0.009213
2572.000000	0.009217
2571.000000	0.009211
2570.000000	0.009201
2569.000000	0.009197
2568.000000	0.009198
2567.000000	0.009200
2566.000000	0.009200
2565.000000	0.009199
2564.000000	0.009199
2563.000000	0.009207
2562.000000	0.009227
2561.000000	0.009257
2560.000000	0.009280
2559.000000	0.009279
2558.000000	0.009257
2557.000000	0.009227
2556.000000	0.009193
2555.000000	0.009148
2554.000000	0.009093
2553.000000	0.009053
2552.000000	0.009055
2551.000000	0.009100
2550.000000	0.009157
2549.000000	0.009195
2548.000000	0.009205
2547.000000	0.009197
2546.000000	0.009180
2545.000000	0.009156
2544.000000	0.009122
2543.000000	0.009077
2542.000000	0.009030
2541.000000	0.008994
2540.000000	0.008979
2539.000000	0.008981
2538.000000	0.008994
2537.000000	0.009009
2536.000000	0.009024
2535.000000	0.009038
2534.000000	0.009051
2533.000000	0.009064
2532.000000	0.009073
2531.000000	0.009070
2530.000000	0.009053
2529.000000	0.009025
2528.000000	0.008992
2527.000000	0.008957
2526.000000	0.008925
2525.000000	0.008910
2524.000000	0.008920
2523.000000	0.008951
2522.000000	0.008987
2521.000000	0.009014
2520.000000	0.009034
2519.000000	0.009046
2518.000000	0.009041
2517.000000	0.009009
2516.000000	0.008958
2515.000000	0.008912
2514.000000	0.008893
2513.000000	0.008899
2512.000000	0.008911
2511.000000	0.008917
2510.000000	0.008917
2509.000000	0.008914
2508.000000	0.008904
2507.000000	0.008879
2506.000000	0.008842
2505.000000	0.008804
2504.000000	0.008783
2503.000000	0.008786
2502.000000	0.008808
2501.000000	0.008829
2500.000000	0.008828
2499.000000	0.008805
2498.000000	0.008782
2497.000000	0.008777
2496.000000	0.008783
2495.000000	0.008779
2494.000000	0.008758
2493.000000	0.008735
2492.000000	0.008735
2491.000000	0.008765
2490.000000	0.008811
2489.000000	0.008850
2488.000000	0.008860
2487.000000	0.008840
2486.000000	0.008800
2485.000000	0.008758
2484.000000	0.008721
2483.000000	0.008696
2482.000000	0.008686
2481.000000	0.008694
2480.000000	0.008710
2479.000000	0.008720
2478.000000	0.008721
2477.000000	0.008718
2476.000000	0.008717
2475.000000	0.008711
2474.000000	0.008696
2473.000000	0.008679
2472.000000	0.008675
2471.000000	0.008691
2470.000000	0.008716
2469.000000	0.008726
2468.000000	0.008709
2467.000000	0.008671
2466.000000	0.008635
2465.000000	0.008622
2464.000000	0.008629
2463.000000	0.008642
2462.000000	0.008650
2461.000000	0.008650
2460.000000	0.008643
2459.000000	0.008625
2458.000000	0.008593
2457.000000	0.008553
2456.000000	0.008517
2455.000000	0.008497
2454.000000	0.008497
2453.000000	0.008513
2452.000000	0.008538
2451.000000	0.008562
2450.000000	0.008579
2449.000000	0.008587
2448.000000	0.008593
2447.000000	0.008605
2446.000000	0.008623
2445.000000	0.008633
2444.000000	0.008622
2443.000000	0.008596
2442.000000	0.008569
2441.000000	0.008550
2440.000000	0.008533
2439.000000	0.008514
2438.000000	0.008501
2437.000000	0.008497
2436.000000	0.008490
2435.000000	0.008467
2434.000000	0.008434
2433.000000	0.008403
2432.000000	0.008383
2431.000000	0.008368
2430.000000	0.008347
2429.000000	0.008321
2428.000000	0.008301
2427.000000	0.008308
2426.000000	0.008351
2425.000000	0.008412
2424.000000	0.008452
2423.000000	0.008450
2422.000000	0.008423
2421.000000	0.008403
2420.000000	0.008406
2419.000000	0.008425
2418.000000	0.008446
2417.000000	0.008457
2416.000000	0.008450
2415.000000	0.008429
2414.000000	0.008406
2413.000000	0.008391
2412.000000	0.008382
2411.000000	0.008375
2410.000000	0.008378
2409.000000	0.008389
2408.000000	0.008395
2407.000000	0.008380
2406.000000	0.008349
2405.000000	0.008326
2404.000000	0.008321
2403.000000	0.008328
2402.000000	0.008342
2401.000000	0.008360
2400.000000	0.008370
2399.000000	0.008359
2398.000000	0.008327
2397.000000	0.008292
2396.000000	0.008269
2395.000000	0.008262
2394.000000	0.008267
2393.000000	0.008281
2392.000000	0.008304
2391.000000	0.008331
2390.000000	0.008357
2389.000000	0.008369
2388.000000	0.008353
2387.000000	0.008311
2386.000000	0.008264
2385.000000	0.008232
2384.000000	0.008216
2383.000000	0.008195
2382.000000	0.008156
2381.000000	0.008108
2380.000000	0.008064
2379.000000	0.008038
2378.000000	0.008037
2377.000000	0.008062
2376.000000	0.008102
2375.000000	0.008141
2374.000000	0.008161
2373.000000	0.008144
2372.000000	0.008084
2371.000000	0.008005
2370.000000	0.007954
2369.000000	0.007955
2368.000000	0.007987
2367.000000	0.008014
2366.000000	0.008034
2365.000000	0.008059
2364.000000	0.008084
2363.000000	0.008108
2362.000000	0.008136
2361.000000	0.008158
2360.000000	0.008169
2359.000000	0.008151
2358.000000	0.008106
2357.000000	0.008058
2356.000000	0.008029
2355.000000	0.008057
2354.000000	0.008107
2353.000000	0.008105
2352.000000	0.008016
2351.000000	0.007899
2350.000000	0.007842
2349.000000	0.007880
2348.000000	0.007993
2347.000000	0.008104
2346.000000	0.008157
2345.000000	0.008164
2344.000000	0.008173
2343.000000	0.008215
2342.000000	0.008239
2341.000000	0.008211
2340.000000	0.008173
2339.000000	0.008180
2338.000000	0.008224
2337.000000	0.008244
2336.000000	0.008212
2335.000000	0.008146
2334.000000	0.008086
2333.000000	0.008053
2332.000000	0.008069
2331.000000	0.008126
2330.000000	0.008212
2329.000000	0.008274
2328.000000	0.008320
2327.000000	0.008362
2326.000000	0.008416
2325.000000	0.008451
2324.000000	0.008434
2323.000000	0.008378
2322.000000	0.008342
2321.000000	0.008373
2320.000000	0.008456
2319.000000	0.008517
2318.000000	0.008509
2317.000000	0.008434
2316.000000	0.008352
2315.000000	0.008302
2314.000000	0.008309
2313.000000	0.008339
2312.000000	0.008350
2311.000000	0.008303
2310.000000	0.008222
2309.000000	0.008149
2308.000000	0.008121
2307.000000	0.008121
2306.000000	0.008130
2305.000000	0.008138
2304.000000	0.008155
2303.000000	0.008180
2302.000000	0.008209
2301.000000	0.008228
2300.000000	0.008238
2299.000000	0.008237
2298.000000	0.008239
2297.000000	0.008244
2296.000000	0.008250
2295.000000	0.008246
2294.000000	0.008238
2293.000000	0.008237
2292.000000	0.008251
2291.000000	0.008268
2290.000000	0.008277
2289.000000	0.008280
2288.000000	0.008288
2287.000000	0.008305
2286.000000	0.008322
2285.000000	0.008323
2284.000000	0.008293
2283.000000	0.008236
2282.000000	0.008180
2281.000000	0.008152
2280.000000	0.008145
2279.000000	0.008133
2278.000000	0.008110
2277.000000	0.008095
2276.000000	0.008099
2275.000000	0.008110
2274.000000	0.008114
2273.000000	0.008105
2272.000000	0.008079
2271.000000	0.008034
2270.000000	0.007988
2269.000000	0.007968
2268.000000	0.007974
2267.000000	0.007972
2266.000000	0.007933
2265.000000	0.007856
2264.000000	0.007769
2263.000000	0.007716
2262.000000	0.007741
2261.000000	0.007848
2260.000000	0.007977
2259.000000	0.008048
2258.000000	0.008048
2257.000000	0.008032
2256.000000	0.008031
2255.000000	0.008001
2254.000000	0.007900
2253.000000	0.007762
2252.000000	0.007675
2251.000000	0.007684
2250.000000	0.007764
2249.000000	0.007852
2248.000000	0.007890
2247.000000	0.007864
2246.000000	0.007806
2245.000000	0.007778
2244.000000	0.007807
2243.000000	0.007863
2242.000000	0.007896
2241.000000	0.007892
2240.000000	0.007870
2239.000000	0.007858
2238.000000	0.007879
2237.000000	0.007942
2236.000000	0.008018
2235.000000	0.008048
2234.000000	0.007991
2233.000000	0.007867
2232.000000	0.007743
2231.000000	0.007679
2230.000000	0.007699
2229.000000	0.007782
2228.000000	0.007872
2227.000000	0.007914
2226.000000	0.007890
2225.000000	0.007820
2224.000000	0.007726
2223.000000	0.007616
2222.000000	0.007508
2221.000000	0.007429
2220.000000	0.007386
2219.000000	0.007356
2218.000000	0.007324
2217.000000	0.007301
2216.000000	0.007303
2215.000000	0.007324
2214.000000	0.007356
2213.000000	0.007403
2212.000000	0.007465
2211.000000	0.007528
2210.000000	0.007597
2209.000000	0.007693
2208.000000	0.007812
2207.000000	0.007895
2206.000000	0.007884
2205.000000	0.007787
2204.000000	0.007672
2203.000000	0.007594
2202.000000	0.007552
2201.000000	0.007508
2200.000000	0.007438
2199.000000	0.007367
2198.000000	0.007342
2197.000000	0.007378
2196.000000	0.007433
2195.000000	0.007458
2194.000000	0.007451
2193.000000	0.007461
2192.000000	0.007524
2191.000000	0.007622
2190.000000	0.007689
2189.000000	0.007656
2188.000000	0.007500
2187.000000	0.007277
2186.000000	0.007094
2185.000000	0.007020
2184.000000	0.007032
2183.000000	0.007062
2182.000000	0.007087
2181.000000	0.007131
2180.000000	0.007197
2179.000000	0.007244
2178.000000	0.007239
2177.000000	0.007196
2176.000000	0.007151
2175.000000	0.007125
2174.000000	0.007108
2173.000000	0.007069
2172.000000	0.007001
2171.000000	0.006958
2170.000000	0.007011
2169.000000	0.007153
2168.000000	0.007289
2167.000000	0.007349
2166.000000	0.007347
2165.000000	0.007320
2164.000000	0.007249
2163.000000	0.007114
2162.000000	0.006958
2161.000000	0.006806
2160.000000	0.006603
2159.000000	0.006339
2158.000000	0.006169
2157.000000	0.006221
2156.000000	0.006395
2155.000000	0.006500
2154.000000	0.006512
2153.000000	0.006553
2152.000000	0.006693
2151.000000	0.006885
2150.000000	0.007064
2149.000000	0.007202
2148.000000	0.007271
2147.000000	0.007243
2146.000000	0.007145
2145.000000	0.007048
2144.000000	0.006989
2143.000000	0.006961
2142.000000	0.006952
2141.000000	0.006954
2140.000000	0.006938
2139.000000	0.006883
2138.000000	0.006820
2137.000000	0.006801
2136.000000	0.006819
2135.000000	0.006828
2134.000000	0.006824
2133.000000	0.006851
2132.000000	0.006931
2131.000000	0.007027
2130.000000	0.007089
2129.000000	0.007100
2128.000000	0.007072
2127.000000	0.007045
2126.000000	0.007070
2125.000000	0.007162
2124.000000	0.007275
2123.000000	0.007344
2122.000000	0.007355
2121.000000	0.007349
2120.000000	0.007357
2119.000000	0.007374
2118.000000	0.007390
2117.000000	0.007408
2116.000000	0.007434
2115.000000	0.007462
2114.000000	0.007488
2113.000000	0.007504
2112.000000	0.007493
2111.000000	0.007461
2110.000000	0.007439
2109.000000	0.007452
2108.000000	0.007465
2107.000000	0.007432
2106.000000	0.007360
2105.000000	0.007311
2104.000000	0.007324
2103.000000	0.007387
2102.000000	0.007474
2101.000000	0.007559
2100.000000	0.007602
2099.000000	0.007569
2098.000000	0.007479
2097.000000	0.007391
2096.000000	0.007344
2095.000000	0.007338
2094.000000	0.007363
2093.000000	0.007401
2092.000000	0.007424
2091.000000	0.007414
2090.000000	0.007403
2089.000000	0.007428
2088.000000	0.007471
2087.000000	0.007480
2086.000000	0.007442
2085.000000	0.007397
2084.000000	0.007373
2083.000000	0.007360
2082.000000	0.007352
2081.000000	0.007360
2080.000000	0.007380
2079.000000	0.007393
2078.000000	0.007407
2077.000000	0.007423
2076.000000	0.007401
2075.000000	0.007294
2074.000000	0.007138
2073.000000	0.007041
2072.000000	0.007061
2071.000000	0.007153
2070.000000	0.007247
2069.000000	0.007300
2068.000000	0.007284
2067.000000	0.007184
2066.000000	0.007046
2065.000000	0.006953
2064.000000	0.006929
2063.000000	0.006921
2062.000000	0.006887
2061.000000	0.006838
2060.000000	0.006797
2059.000000	0.006772
2058.000000	0.006796
2057.000000	0.006897
2056.000000	0.007033
2055.000000	0.007109
2054.000000	0.007100
2053.000000	0.007066
2052.000000	0.007042
2051.000000	0.006984
2050.000000	0.006868
2049.000000	0.006751
2048.000000	0.006700
2047.000000	0.006710
2046.000000	0.006749
2045.000000	0.006798
2044.000000	0.006808
2043.000000	0.006706
2042.000000	0.006505
2041.000000	0.006312
2040.000000	0.006179
2039.000000	0.006041
2038.000000	0.005846
2037.000000	0.005656
2036.000000	0.005551
2035.000000	0.005528
2034.000000	0.005559
2033.000000	0.005643
2032.000000	0.005759
2031.000000	0.005869
2030.000000	0.006005
2029.000000	0.006233
2028.000000	0.006481
2027.000000	0.006549
2026.000000	0.006374
2025.000000	0.006146
2024.000000	0.006058
2023.000000	0.006075
2022.000000	0.006044
2021.000000	0.005953
2020.000000	0.005935
2019.000000	0.006067
2018.000000	0.006260
2017.000000	0.006343
2016.000000	0.006221
2015.000000	0.005967
2014.000000	0.005757
2013.000000	0.005710
2012.000000	0.005784
2011.000000	0.005874
2010.000000	0.005983
2009.000000	0.006173
2008.000000	0.006398
2007.000000	0.006501
2006.000000	0.006416
2005.000000	0.006257
2004.000000	0.006161
2003.000000	0.006156
2002.000000	0.006197
2001.000000	0.006231
2000.000000	0.006204
1999.000000	0.006098
1998.000000	0.005980
1997.000000	0.005931
1996.000000	0.005934
1995.000000	0.005911
1994.000000	0.005865
1993.000000	0.005894
1992.000000	0.006030
1991.000000	0.006174
1990.000000	0.006239
1989.000000	0.006261
1988.000000	0.006301
1987.000000	0.006349
1986.000000	0.006363
1985.000000	0.006357
1984.000000	0.006393
1983.000000	0.006519
1982.000000	0.006736
1981.000000	0.006978
1980.000000	0.007109
1979.000000	0.007014
1978.000000	0.006723
1977.000000	0.006384
1976.000000	0.006094
1975.000000	0.005848
1974.000000	0.005655
1973.000000	0.005565
1972.000000	0.005580
1971.000000	0.005627
1970.000000	0.005657
1969.000000	0.005692
1968.000000	0.005752
1967.000000	0.005812
1966.000000	0.005843
1965.000000	0.005839
1964.000000	0.005798
1963.000000	0.005730
1962.000000	0.005684
1961.000000	0.005710
1960.000000	0.005802
1959.000000	0.005922
1958.000000	0.006056
1957.000000	0.006186
1956.000000	0.006264
1955.000000	0.006274
1954.000000	0.006278
1953.000000	0.006329
1952.000000	0.006372
1951.000000	0.006320
1950.000000	0.006200
1949.000000	0.006120
1948.000000	0.006115
1947.000000	0.006131
1946.000000	0.006147
1945.000000	0.006199
1944.000000	0.006292
1943.000000	0.006364
1942.000000	0.006380
1941.000000	0.006366
1940.000000	0.006340
1939.000000	0.006290
1938.000000	0.006235
1937.000000	0.006237
1936.000000	0.006310
1935.000000	0.006394
1934.000000	0.006430
1933.000000	0.006424
1932.000000	0.006400
1931.000000	0.006361
1930.000000	0.006320
1929.000000	0.006314
1928.000000	0.006343
1927.000000	0.006368
1926.000000	0.006378
1925.000000	0.006409
1924.000000	0.006473
1923.000000	0.006517
1922.000000	0.006485
1921.000000	0.006382
1920.000000	0.006250
1919.000000	0.006130
1918.000000	0.006077
1917.000000	0.006125
1916.000000	0.006234
1915.000000	0.006333
1914.000000	0.006386
1913.000000	0.006406
1912.000000	0.006407
1911.000000	0.006392
1910.000000	0.006375
1909.000000	0.006364
1908.000000	0.006336
1907.000000	0.006278
1906.000000	0.006236
1905.000000	0.006267
1904.000000	0.006339
1903.000000	0.006366
1902.000000	0.006328
1901.000000	0.006288
1900.000000	0.006288
1899.000000	0.006305
1898.000000	0.006317
1897.000000	0.006339
1896.000000	0.006375
1895.000000	0.006387
1894.000000	0.006360
1893.000000	0.006322
1892.000000	0.006293
1891.000000	0.006264
1890.000000	0.006241
1889.000000	0.006242
1888.000000	0.006252
1887.000000	0.006235
1886.000000	0.006195
1885.000000	0.006169
1884.000000	0.006176
1883.000000	0.006194
1882.000000	0.006215
1881.000000	0.006251
1880.000000	0.006292
1879.000000	0.006319
1878.000000	0.006337
1877.000000	0.006371
1876.000000	0.006414
1875.000000	0.006428
1874.000000	0.006397
1873.000000	0.006338
1872.000000	0.006257
1871.000000	0.006141
1870.000000	0.006021
1869.000000	0.005973
1868.000000	0.006003
1867.000000	0.006044
1866.000000	0.006080
1865.000000	0.006131
1864.000000	0.006183
1863.000000	0.006198
1862.000000	0.006178
1861.000000	0.006169
1860.000000	0.006179
1859.000000	0.006173
1858.000000	0.006137
1857.000000	0.006104
1856.000000	0.006094
1855.000000	0.006103
1854.000000	0.006131
1853.000000	0.006175
1852.000000	0.006200
1851.000000	0.006178
1850.000000	0.006131
1849.000000	0.006101
1848.000000	0.006091
1847.000000	0.006076
1846.000000	0.006058
1845.000000	0.006073
1844.000000	0.006116
1843.000000	0.006121
1842.000000	0.006085
1841.000000	0.006067
1840.000000	0.006080
1839.000000	0.006084
1838.000000	0.006067
1837.000000	0.006072
1836.000000	0.006111
1835.000000	0.006134
1834.000000	0.006097
1833.000000	0.006008
1832.000000	0.005903
1831.000000	0.005828
1830.000000	0.005817
1829.000000	0.005853
1828.000000	0.005898
1827.000000	0.005941
1826.000000	0.005990
1825.000000	0.006062
1824.000000	0.006133
1823.000000	0.006156
1822.000000	0.006135
1821.000000	0.006115
1820.000000	0.006124
1819.000000	0.006138
1818.000000	0.006131
1817.000000	0.006122
1816.000000	0.006128
1815.000000	0.006127
1814.000000	0.006109
1813.000000	0.006098
1812.000000	0.006112
1811.000000	0.006127
1810.000000	0.006119
1809.000000	0.006121
1808.000000	0.006146
1807.000000	0.006155
1806.000000	0.006130
1805.000000	0.006107
1804.000000	0.006107
1803.000000	0.006101
1802.000000	0.006064
1801.000000	0.006023
1800.000000	0.006008
1799.000000	0.006015
1798.000000	0.006043
1797.000000	0.006100
1796.000000	0.006154
1795.000000	0.006141
1794.000000	0.006039
1793.000000	0.005927
1792.000000	0.005902
1791.000000	0.005933
1790.000000	0.005960
1789.000000	0.005993
1788.000000	0.006039
1787.000000	0.006063
1786.000000	0.006051
1785.000000	0.006027
1784.000000	0.006001
1783.000000	0.005961
1782.000000	0.005922
1781.000000	0.005910
1780.000000	0.005932
1779.000000	0.005958
1778.000000	0.005970
1777.000000	0.005967
1776.000000	0.005947
1775.000000	0.005899
1774.000000	0.005805
1773.000000	0.005685
1772.000000	0.005602
1771.000000	0.005568
1770.000000	0.005583
1769.000000	0.005662
1768.000000	0.005766
1767.000000	0.005816
1766.000000	0.005793
1765.000000	0.005758
1764.000000	0.005758
1763.000000	0.005780
1762.000000	0.005792
1761.000000	0.005774
1760.000000	0.005739
1759.000000	0.005706
1758.000000	0.005692
1757.000000	0.005700
1756.000000	0.005708
1755.000000	0.005700
1754.000000	0.005689
1753.000000	0.005681
1752.000000	0.005668
1751.000000	0.005660
1750.000000	0.005676
1749.000000	0.005754
1748.000000	0.005909
1747.000000	0.006098
1746.000000	0.006264
1745.000000	0.006396
1744.000000	0.006522
1743.000000	0.006638
1742.000000	0.006710
1741.000000	0.006762
1740.000000	0.006859
1739.000000	0.006998
1738.000000	0.007133
1737.000000	0.007272
1736.000000	0.007399
1735.000000	0.007453
1734.000000	0.007478
1733.000000	0.007470
1732.000000	0.007383
1731.000000	0.007276
1730.000000	0.007203
1729.000000	0.007151
1728.000000	0.007080
1727.000000	0.006973
1726.000000	0.006841
1725.000000	0.006717
1724.000000	0.006623
1723.000000	0.006520
1722.000000	0.006374
1721.000000	0.006222
1720.000000	0.006118
1719.000000	0.006068
1718.000000	0.006090
1717.000000	0.006210
1716.000000	0.006358
1715.000000	0.006478
1714.000000	0.006636
1713.000000	0.006896
1712.000000	0.007212
1711.000000	0.007497
1710.000000	0.007734
1709.000000	0.007961
1708.000000	0.008208
1707.000000	0.008502
1706.000000	0.008900
1705.000000	0.009426
1704.000000	0.009994
1703.000000	0.010521
1702.000000	0.010976
1701.000000	0.011451
1700.000000	0.012133
1699.000000	0.012851
1698.000000	0.013534
1697.000000	0.014368
1696.000000	0.015332
1695.000000	0.016131
1694.000000	0.016662
1693.000000	0.017152
1692.000000	0.017765
1691.000000	0.018460
1690.000000	0.019158
1689.000000	0.019867
1688.000000	0.020613
1687.000000	0.021357
1686.000000	0.021991
1685.000000	0.022562
1684.000000	0.023265
1683.000000	0.023990
1682.000000	0.024705
1681.000000	0.025516
1680.000000	0.026380
1679.000000	0.027184
1678.000000	0.027917
1677.000000	0.028656
1676.000000	0.029443
1675.000000	0.030256
1674.000000	0.031040
1673.000000	0.031803
1672.000000	0.032593
1671.000000	0.033410
1670.000000	0.034276
1669.000000	0.035227
1668.000000	0.036207
1667.000000	0.037135
1666.000000	0.037995
1665.000000	0.038821
1664.000000	0.039640
1663.000000	0.040451
1662.000000	0.041246
1661.000000	0.042029
1660.000000	0.042809
1659.000000	0.043563
1658.000000	0.044263
1657.000000	0.044958
1656.000000	0.045717
1655.000000	0.046439
1654.000000	0.046968
1653.000000	0.047403
1652.000000	0.047724
1651.000000	0.047900
1650.000000	0.048069
1649.000000	0.048351
1648.000000	0.048702
1647.000000	0.049013
1646.000000	0.049258
1645.000000	0.049508
1644.000000	0.049789
1643.000000	0.050053
1642.000000	0.050273
1641.000000	0.050424
1640.000000	0.050511
1639.000000	0.050570
1638.000000	0.050595
1637.000000	0.050495
1636.000000	0.050215
1635.000000	0.049874
1634.000000	0.049655
1633.000000	0.049608
1632.000000	0.049619
1631.000000	0.049526
1630.000000	0.049219
1629.000000	0.048707
1628.000000	0.048087
1627.000000	0.047459
1626.000000	0.046847
1625.000000	0.046169
1624.000000	0.045335
1623.000000	0.044409
1622.000000	0.043579
1621.000000	0.042952
1620.000000	0.042476
1619.000000	0.041985
1618.000000	0.041239
1617.000000	0.040128
1616.000000	0.038860
1615.000000	0.037764
1614.000000	0.036958
1613.000000	0.036309
1612.000000	0.035625
1611.000000	0.034840
1610.000000	0.034040
1609.000000	0.033291
1608.000000	0.032580
1607.000000	0.031913
1606.000000	0.031333
1605.000000	0.030811
1604.000000	0.030290
1603.000000	0.029780
1602.000000	0.029328
1601.000000	0.028933
1600.000000	0.028559
1599.000000	0.028209
1598.000000	0.027913
1597.000000	0.027658
1596.000000	0.027421
1595.000000	0.027222
1594.000000	0.027099
1593.000000	0.027027
1592.000000	0.026954
1591.000000	0.026883
1590.000000	0.026865
1589.000000	0.026903
1588.000000	0.026956
1587.000000	0.027020
1586.000000	0.027126
1585.000000	0.027263
1584.000000	0.027393
1583.000000	0.027549
1582.000000	0.027775
1581.000000	0.028047
1580.000000	0.028333
1579.000000	0.028676
1578.000000	0.029089
1577.000000	0.029457
1576.000000	0.029657
1575.000000	0.029736
1574.000000	0.029871
1573.000000	0.030143
1572.000000	0.030483
1571.000000	0.030785
1570.000000	0.031079
1569.000000	0.031431
1568.000000	0.031825
1567.000000	0.032269
1566.000000	0.032774
1565.000000	0.033313
1564.000000	0.033865
1563.000000	0.034480
1562.000000	0.035153
1561.000000	0.035629
1560.000000	0.035643
1559.000000	0.035660
1558.000000	0.036039
1557.000000	0.036661
1556.000000	0.037411
1555.000000	0.038159
1554.000000	0.038795
1553.000000	0.039273
1552.000000	0.039673
1551.000000	0.040076
1550.000000	0.040475
1549.000000	0.040825
1548.000000	0.041123
1547.000000	0.041392
1546.000000	0.041634
1545.000000	0.041849
1544.000000	0.042039
1543.000000	0.042179
1542.000000	0.042237
1541.000000	0.042239
1540.000000	0.042230
1539.000000	0.042204
1538.000000	0.042205
1537.000000	0.042260
1536.000000	0.042325
1535.000000	0.042272
1534.000000	0.042038
1533.000000	0.041772
1532.000000	0.041640
1531.000000	0.041613
1530.000000	0.041573
1529.000000	0.041462
1528.000000	0.041286
1527.000000	0.041038
1526.000000	0.040723
1525.000000	0.040423
1524.000000	0.040219
1523.000000	0.040044
1522.000000	0.039765
1521.000000	0.039379
1520.000000	0.038996
1519.000000	0.038686
1518.000000	0.038438
1517.000000	0.038214
1516.000000	0.037993
1515.000000	0.037771
1514.000000	0.037532
1513.000000	0.037224
1512.000000	0.036833
1511.000000	0.036412
1510.000000	0.036025
1509.000000	0.035630
1508.000000	0.035062
1507.000000	0.034192
1506.000000	0.033190
1505.000000	0.032482
1504.000000	0.032111
1503.000000	0.031858
1502.000000	0.031562
1501.000000	0.031137
1500.000000	0.030611
1499.000000	0.030072
1498.000000	0.029528
1497.000000	0.028958
1496.000000	0.028384
1495.000000	0.027833
1494.000000	0.027327
1493.000000	0.026884
1492.000000	0.026457
1491.000000	0.025980
1490.000000	0.025484
1489.000000	0.025084
1488.000000	0.024832
1487.000000	0.024665
1486.000000	0.024544
1485.000000	0.024492
1484.000000	0.024498
1483.000000	0.024526
1482.000000	0.024555
1481.000000	0.024621
1480.000000	0.024747
1479.000000	0.024906
1478.000000	0.025073
1477.000000	0.025293
1476.000000	0.025614
1475.000000	0.025997
1474.000000	0.026400
1473.000000	0.026858
1472.000000	0.027396
1471.000000	0.027944
1470.000000	0.028472
1469.000000	0.029002
1468.000000	0.029510
1467.000000	0.029922
1466.000000	0.030219
1465.000000	0.030472
1464.000000	0.030755
1463.000000	0.031053
1462.000000	0.031329
1461.000000	0.031603
1460.000000	0.031935
1459.000000	0.032357
1458.000000	0.032845
1457.000000	0.033339
1456.000000	0.033732
1455.000000	0.034008
1454.000000	0.034264
1453.000000	0.034552
1452.000000	0.034821
1451.000000	0.034994
1450.000000	0.035067
1449.000000	0.035086
1448.000000	0.035088
1447.000000	0.035089
1446.000000	0.035104
1445.000000	0.035124
1444.000000	0.035137
1443.000000	0.035124
1442.000000	0.035077
1441.000000	0.035007
1440.000000	0.034941
1439.000000	0.034859
1438.000000	0.034655
1437.000000	0.034292
1436.000000	0.033905
1435.000000	0.033634
1434.000000	0.033483
1433.000000	0.033370
1432.000000	0.033205
1431.000000	0.032962
1430.000000	0.032694
1429.000000	0.032466
1428.000000	0.032304
1427.000000	0.032188
1426.000000	0.032084
1425.000000	0.031950
1424.000000	0.031812
1423.000000	0.031748
1422.000000	0.031765
1421.000000	0.031759
1420.000000	0.031630
1419.000000	0.031452
1418.000000	0.031321
1417.000000	0.031247
1416.000000	0.031225
1415.000000	0.031215
1414.000000	0.031178
1413.000000	0.031114
1412.000000	0.031060
1411.000000	0.031036
1410.000000	0.031014
1409.000000	0.030969
1408.000000	0.030905
1407.000000	0.030835
1406.000000	0.030772
1405.000000	0.030717
1404.000000	0.030673
1403.000000	0.030641
1402.000000	0.030601
1401.000000	0.030521
1400.000000	0.030399
1399.000000	0.030280
1398.000000	0.030193
1397.000000	0.030124
1396.000000	0.030042
1395.000000	0.029931
1394.000000	0.029791
1393.000000	0.029620
1392.000000	0.029437
1391.000000	0.029258
1390.000000	0.029081
1389.000000	0.028884
1388.000000	0.028655
1387.000000	0.028405
1386.000000	0.028156
1385.000000	0.027928
1384.000000	0.027728
1383.000000	0.027541
1382.000000	0.027352
1381.000000	0.027161
1380.000000	0.026963
1379.000000	0.026741
1378.000000	0.026485
1377.000000	0.026201
1376.000000	0.025906
1375.000000	0.025626
1374.000000	0.025379
1373.000000	0.025147
1372.000000	0.024908
1371.000000	0.024643
1370.000000	0.024348
1369.000000	0.024010
1368.000000	0.023634
1367.000000	0.023248
1366.000000	0.022881
1365.000000	0.022539
1364.000000	0.022213
1363.000000	0.021907
1362.000000	0.021628
1361.000000	0.021384
1360.000000	0.021181
1359.000000	0.021023
1358.000000	0.020915
1357.000000	0.020854
1356.000000	0.020834
1355.000000	0.020846
1354.000000	0.020884
1353.000000	0.020948
1352.000000	0.021041
1351.000000	0.021160
1350.000000	0.021305
1349.000000	0.021468
1348.000000	0.021638
1347.000000	0.021814
1346.000000	0.021998
1345.000000	0.022184
1344.000000	0.022367
1343.000000	0.022554
1342.000000	0.022757
1341.000000	0.022979
1340.000000	0.023197
1339.000000	0.023374
1338.000000	0.023487
1337.000000	0.023542
1336.000000	0.023558
1335.000000	0.023552
1334.000000	0.023524
1333.000000	0.023460
1332.000000	0.023345
1331.000000	0.023189
1330.000000	0.023020
1329.000000	0.022857
1328.000000	0.022702
1327.000000	0.022552
1326.000000	0.022414
1325.000000	0.022299
1324.000000	0.022211
1323.000000	0.022153
1322.000000	0.022123
1321.000000	0.022108
1320.000000	0.022094
1319.000000	0.022070
1318.000000	0.022027
1317.000000	0.021962
1316.000000	0.021889
1315.000000	0.021828
1314.000000	0.021781
1313.000000	0.021725
1312.000000	0.021641
1311.000000	0.021532
1310.000000	0.021410
1309.000000	0.021282
1308.000000	0.021156
1307.000000	0.021037
1306.000000	0.020927
1305.000000	0.020809
1304.000000	0.020671
1303.000000	0.020528
1302.000000	0.020401
1301.000000	0.020298
1300.000000	0.020211
1299.000000	0.020132
1298.000000	0.020057
1297.000000	0.019984
1296.000000	0.019925
1295.000000	0.019904
1294.000000	0.019929
1293.000000	0.019983
1292.000000	0.020038
1291.000000	0.020090
1290.000000	0.020156
1289.000000	0.020246
1288.000000	0.020352
1287.000000	0.020458
1286.000000	0.020552
1285.000000	0.020640
1284.000000	0.020732
1283.000000	0.020834
1282.000000	0.020938
1281.000000	0.021027
1280.000000	0.021089
1279.000000	0.021123
1278.000000	0.021135
1277.000000	0.021133
1276.000000	0.021125
1275.000000	0.021123
1274.000000	0.021131
1273.000000	0.021143
1272.000000	0.021151
1271.000000	0.021164
1270.000000	0.021196
1269.000000	0.021254
1268.000000	0.021333
1267.000000	0.021425
1266.000000	0.021522
1265.000000	0.021625
1264.000000	0.021742
1263.000000	0.021882
1262.000000	0.022039
1261.000000	0.022190
1260.000000	0.022322
1259.000000	0.022448
1258.000000	0.022590
1257.000000	0.022754
1256.000000	0.022927
1255.000000	0.023098
1254.000000	0.023266
1253.000000	0.023440
1252.000000	0.023622
1251.000000	0.023811
1250.000000	0.024001
1249.000000	0.024186
1248.000000	0.024370
1247.000000	0.024560
1246.000000	0.024768
1245.000000	0.024989
1244.000000	0.025208
1243.000000	0.025406
1242.000000	0.025571
1241.000000	0.025692
1240.000000	0.025767
1239.000000	0.025798
1238.000000	0.025802
1237.000000	0.025797
1236.000000	0.025788
1235.000000	0.025760
1234.000000	0.025698
1233.000000	0.025598
1232.000000	0.025467
1231.000000	0.025306
1230.000000	0.025108
1229.000000	0.024861
1228.000000	0.024565
1227.000000	0.024239
1226.000000	0.023901
1225.000000	0.023551
1224.000000	0.023180
1223.000000	0.022779
1222.000000	0.022353
1221.000000	0.021917
1220.000000	0.021493
1219.000000	0.021109
1218.000000	0.020790
1217.000000	0.020547
1216.000000	0.020375
1215.000000	0.020266
1214.000000	0.020200
1213.000000	0.020155
1212.000000	0.020112
1211.000000	0.020071
1210.000000	0.020044
1209.000000	0.020041
1208.000000	0.020067
1207.000000	0.020111
1206.000000	0.020160
1205.000000	0.020202
1204.000000	0.020227
1203.000000	0.020225
1202.000000	0.020183
1201.000000	0.020098
1200.000000	0.019977
1199.000000	0.019835
1198.000000	0.019675
1197.000000	0.019496
1196.000000	0.019298
1195.000000	0.019092
1194.000000	0.018882
1193.000000	0.018668
1192.000000	0.018450
1191.000000	0.018233
1190.000000	0.018017
1189.000000	0.017797
1188.000000	0.017570
1187.000000	0.017351
1186.000000	0.017154
1185.000000	0.016981
1184.000000	0.016825
1183.000000	0.016682
1182.000000	0.016555
1181.000000	0.016458
1180.000000	0.016403
1179.000000	0.016396
1178.000000	0.016421
1177.000000	0.016456
1176.000000	0.016487
1175.000000	0.016515
1174.000000	0.016544
1173.000000	0.016574
1172.000000	0.016604
1171.000000	0.016641
1170.000000	0.016692
1169.000000	0.016761
1168.000000	0.016851
1167.000000	0.016958
1166.000000	0.017072
1165.000000	0.017180
1164.000000	0.017276
1163.000000	0.017365
1162.000000	0.017452
1161.000000	0.017530
1160.000000	0.017575
1159.000000	0.017567
1158.000000	0.017504
1157.000000	0.017406
1156.000000	0.017300
1155.000000	0.017202
1154.000000	0.017099
1153.000000	0.016967
1152.000000	0.016792
1151.000000	0.016586
1150.000000	0.016368
1149.000000	0.016152
1148.000000	0.015941
1147.000000	0.015740
1146.000000	0.015552
1145.000000	0.015375
1144.000000	0.015197
1143.000000	0.015012
1142.000000	0.014817
1141.000000	0.014619
1140.000000	0.014435
1139.000000	0.014282
1138.000000	0.014176
1137.000000	0.014112
1136.000000	0.014071
1135.000000	0.014033
1134.000000	0.013990
1133.000000	0.013949
1132.000000	0.013922
1131.000000	0.013913
1130.000000	0.013913
1129.000000	0.013910
1128.000000	0.013905
1127.000000	0.013911
1126.000000	0.013946
1125.000000	0.014013
1124.000000	0.014102
1123.000000	0.014188
1122.000000	0.014245
1121.000000	0.014263
1120.000000	0.014262
1119.000000	0.014278
1118.000000	0.014340
1117.000000	0.014451
1116.000000	0.014592
1115.000000	0.014736
1114.000000	0.014858
1113.000000	0.014955
1112.000000	0.015038
1111.000000	0.015121
1110.000000	0.015202
1109.000000	0.015273
1108.000000	0.015341
1107.000000	0.015415
1106.000000	0.015493
1105.000000	0.015562
1104.000000	0.015617
1103.000000	0.015669
1102.000000	0.015728
1101.000000	0.015790
1100.000000	0.015849
1099.000000	0.015904
1098.000000	0.015967
1097.000000	0.016046
1096.000000	0.016139
1095.000000	0.016244
1094.000000	0.016368
1093.000000	0.016528
1092.000000	0.016731
1091.000000	0.016972
1090.000000	0.017238
1089.000000	0.017515
1088.000000	0.017798
1087.000000	0.018091
1086.000000	0.018399
1085.000000	0.018712
1084.000000	0.019003
1083.000000	0.019233
1082.000000	0.019382
1081.000000	0.019461
1080.000000	0.019495
1079.000000	0.019486
1078.000000	0.019416
1077.000000	0.019276
1076.000000	0.019086
1075.000000	0.018882
1074.000000	0.018681
1073.000000	0.018487
1072.000000	0.018302
1071.000000	0.018136
1070.000000	0.018002
1069.000000	0.017910
1068.000000	0.017855
1067.000000	0.017832
1066.000000	0.017833
1065.000000	0.017866
1064.000000	0.017943
1063.000000	0.018056
1062.000000	0.018171
1061.000000	0.018244
1060.000000	0.018272
1059.000000	0.018291
1058.000000	0.018336
1057.000000	0.018401
1056.000000	0.018459
1055.000000	0.018494
1054.000000	0.018520
1053.000000	0.018552
1052.000000	0.018587
1051.000000	0.018611
1050.000000	0.018617
1049.000000	0.018615
1048.000000	0.018614
1047.000000	0.018617
1046.000000	0.018623
1045.000000	0.018631
1044.000000	0.018642
1043.000000	0.018658
1042.000000	0.018692
1041.000000	0.018762
1040.000000	0.018883
1039.000000	0.019051
1038.000000	0.019242
1037.000000	0.019434
1036.000000	0.019618
1035.000000	0.019798
1034.000000	0.019979
1033.000000	0.020158
1032.000000	0.020329
1031.000000	0.020489
1030.000000	0.020628
1029.000000	0.020732
1028.000000	0.020798
1027.000000	0.020842
1026.000000	0.020887
1025.000000	0.020951
1024.000000	0.021036
1023.000000	0.021136
1022.000000	0.021240
1021.000000	0.021338
1020.000000	0.021406
1019.000000	0.021431
1018.000000	0.021413
1017.000000	0.021363
1016.000000	0.021275
1015.000000	0.021127
1014.000000	0.020897
1013.000000	0.020584
1012.000000	0.020204
1011.000000	0.019778
1010.000000	0.019334
1009.000000	0.018900
1008.000000	0.018498
1007.000000	0.018131
1006.000000	0.017787
1005.000000	0.017460
1004.000000	0.017161
1003.000000	0.016900
1002.000000	0.016674
1001.000000	0.016463
1000.000000	0.016258
999.000000	0.016057
998.000000	0.015857
997.000000	0.015645
996.000000	0.015414
995.000000	0.015172
994.000000	0.014937
993.000000	0.014718
992.000000	0.014510
991.000000	0.014308
990.000000	0.014112
989.000000	0.013928
988.000000	0.013762
987.000000	0.013605
986.000000	0.013444
985.000000	0.013271
984.000000	0.013097
983.000000	0.012942
982.000000	0.012817
981.000000	0.012712
980.000000	0.012604
979.000000	0.012478
978.000000	0.012328
977.000000	0.012164
976.000000	0.012004
975.000000	0.011874
974.000000	0.011779
973.000000	0.011698
972.000000	0.011600
971.000000	0.011470
970.000000	0.011312
969.000000	0.011138
968.000000	0.010953
967.000000	0.010762
966.000000	0.010576
965.000000	0.010404
964.000000	0.010251
963.000000	0.010109
962.000000	0.009963
961.000000	0.009808
960.000000	0.009648
959.000000	0.009487
958.000000	0.009333
957.000000	0.009187
956.000000	0.009056
955.000000	0.008946
954.000000	0.008852
953.000000	0.008763
952.000000	0.008672
951.000000	0.008578
950.000000	0.008489
949.000000	0.008409
948.000000	0.008342
947.000000	0.008287
946.000000	0.008243
945.000000	0.008206
944.000000	0.008175
943.000000	0.008160
942.000000	0.008173
941.000000	0.008215
940.000000	0.008270
939.000000	0.008308
938.000000	0.008299
937.000000	0.008235
936.000000	0.008136
935.000000	0.008039
934.000000	0.007972
933.000000	0.007930
932.000000	0.007882
931.000000	0.007811
930.000000	0.007730
929.000000	0.007679
928.000000	0.007683
927.000000	0.007721
926.000000	0.007751
925.000000	0.007749
924.000000	0.007719
923.000000	0.007678
922.000000	0.007624
921.000000	0.007545
920.000000	0.007439
919.000000	0.007324
918.000000	0.007217
917.000000	0.007130
916.000000	0.007060
915.000000	0.006994
914.000000	0.006919
913.000000	0.006823
912.000000	0.006702
911.000000	0.006566
910.000000	0.006438
909.000000	0.006347
908.000000	0.006315
907.000000	0.006328
906.000000	0.006347
905.000000	0.006332
904.000000	0.006276
903.000000	0.006196
902.000000	0.006122
901.000000	0.006075
900.000000	0.006058
899.000000	0.006044
898.000000	0.005998
897.000000	0.005918
896.000000	0.005837
895.000000	0.005789
894.000000	0.005765
893.000000	0.005733
892.000000	0.005679
891.000000	0.005619
890.000000	0.005569
889.000000	0.005536
888.000000	0.005540
887.000000	0.005621
886.000000	0.005815
885.000000	0.006110
884.000000	0.006451
883.000000	0.006796
882.000000	0.007155
881.000000	0.007580
880.000000	0.008102
879.000000	0.008679
878.000000	0.009206
877.000000	0.009572
876.000000	0.009717
875.000000	0.009649
874.000000	0.009418
873.000000	0.009073
872.000000	0.008650
871.000000	0.008187
870.000000	0.007744
869.000000	0.007385
868.000000	0.007137
867.000000	0.006974
866.000000	0.006847
865.000000	0.006728
864.000000	0.006615
863.000000	0.006512
862.000000	0.006419
861.000000	0.006340
860.000000	0.006294
859.000000	0.006285
858.000000	0.006294
857.000000	0.006289
856.000000	0.006260
855.000000	0.006226
854.000000	0.006210
853.000000	0.006219
852.000000	0.006242
851.000000	0.006260
850.000000	0.006272
849.000000	0.006286
848.000000	0.006298
847.000000	0.006273
846.000000	0.006186
845.000000	0.006054
844.000000	0.005932
843.000000	0.005865
842.000000	0.005851
841.000000	0.005863
840.000000	0.005873
839.000000	0.005861
838.000000	0.005819
837.000000	0.005764
836.000000	0.005725
835.000000	0.005719
834.000000	0.005731
833.000000	0.005728
832.000000	0.005701
831.000000	0.005670
830.000000	0.005653
829.000000	0.005651
828.000000	0.005651
827.000000	0.005641
826.000000	0.005630
825.000000	0.005636
824.000000	0.005673
823.000000	0.005725
822.000000	0.005759
821.000000	0.005759
820.000000	0.005740
819.000000	0.005726
818.000000	0.005727
817.000000	0.005736
816.000000	0.005743
815.000000	0.005742
814.000000	0.005730
813.000000	0.005719
812.000000	0.005722
811.000000	0.005733
810.000000	0.005729
809.000000	0.005697
808.000000	0.005651
807.000000	0.005617
806.000000	0.005613
805.000000	0.005648
804.000000	0.005714
803.000000	0.005777
802.000000	0.005795
801.000000	0.005756
800.000000	0.005698
799.000000	0.005668
798.000000	0.005680
797.000000	0.005717
796.000000	0.005746
795.000000	0.005743
794.000000	0.005711
793.000000	0.005686
792.000000	0.005709
791.000000	0.005778
790.000000	0.005843
789.000000	0.005866
788.000000	0.005861
787.000000	0.005859
786.000000	0.005867
785.000000	0.005873
784.000000	0.005889
783.000000	0.005931
782.000000	0.005986
781.000000	0.006018
780.000000	0.006011
779.000000	0.005984
778.000000	0.005964
777.000000	0.005965
776.000000	0.005988
775.000000	0.006018
774.000000	0.006035
773.000000	0.006025
772.000000	0.006006
771.000000	0.006003
770.000000	0.006017
769.000000	0.006036
768.000000	0.006065
767.000000	0.006116
766.000000	0.006181
765.000000	0.006228
764.000000	0.006246
763.000000	0.006254
762.000000	0.006270
761.000000	0.006291
760.000000	0.006309
759.000000	0.006329
758.000000	0.006361
757.000000	0.006392
756.000000	0.006403
755.000000	0.006390
754.000000	0.006367
753.000000	0.006343
752.000000	0.006325
751.000000	0.006319
750.000000	0.006331
749.000000	0.006356
748.000000	0.006385
747.000000	0.006416
746.000000	0.006448
745.000000	0.006488
744.000000	0.006542
743.000000	0.006613
742.000000	0.006699
741.000000	0.006789
740.000000	0.006872
739.000000	0.006938
738.000000	0.006976
737.000000	0.006988
736.000000	0.007000
735.000000	0.007047
734.000000	0.007144
733.000000	0.007272
732.000000	0.007407
731.000000	0.007533
730.000000	0.007634
729.000000	0.007705
728.000000	0.007763
727.000000	0.007840
726.000000	0.007950
725.000000	0.008079
724.000000	0.008209
723.000000	0.008344
722.000000	0.008503
721.000000	0.008676
720.000000	0.008821
719.000000	0.008900
718.000000	0.008924
717.000000	0.008941
716.000000	0.009000
715.000000	0.009130
714.000000	0.009321
713.000000	0.009524
712.000000	0.009675
711.000000	0.009731
710.000000	0.009709
709.000000	0.009670
708.000000	0.009680
707.000000	0.009740
706.000000	0.009805
705.000000	0.009829
704.000000	0.009808
703.000000	0.009770
702.000000	0.009746
701.000000	0.009753
700.000000	0.009794
699.000000	0.009840
698.000000	0.009850
697.000000	0.009816
696.000000	0.009788
695.000000	0.009830
694.000000	0.009943
693.000000	0.010053
692.000000	0.010093
691.000000	0.010051
690.000000	0.009963
689.000000	0.009881
688.000000	0.009846
687.000000	0.009878
686.000000	0.009948
685.000000	0.010008
684.000000	0.010047
683.000000	0.010094
682.000000	0.010149
681.000000	0.010190
680.000000	0.010227
679.000000	0.010307
678.000000	0.010440
677.000000	0.010609
676.000000	0.010789
675.000000	0.010970
674.000000	0.011120
673.000000	0.011197
672.000000	0.011174
671.000000	0.011048
670.000000	0.010807
669.000000	0.010471
668.000000	0.010286
667.000000	0.010547
666.000000	0.010888
665.000000	0.011165
664.000000	0.011412
663.000000	0.011583
662.000000	0.011643
661.000000	0.011619
660.000000	0.011557
659.000000	0.011476
658.000000	0.011393
657.000000	0.011345
656.000000	0.011317
655.000000	0.011254
654.000000	0.011174
653.000000	0.011158
652.000000	0.011203
651.000000	0.011223
650.000000	0.011190
649.000000	0.011181
648.000000	0.011228
647.000000	0.011276
646.000000	0.011296
645.000000	0.011336
644.000000	0.011411
643.000000	0.011466
642.000000	0.011459
641.000000	0.011417
640.000000	0.011370
639.000000	0.011298
638.000000	0.011193
637.000000	0.011096
636.000000	0.011032
635.000000	0.010996
634.000000	0.010999
633.000000	0.011064
632.000000	0.011172
631.000000	0.011252
630.000000	0.011279
629.000000	0.011296
628.000000	0.011335
627.000000	0.011379
626.000000	0.011420
625.000000	0.011475
624.000000	0.011529
623.000000	0.011548
622.000000	0.011553
621.000000	0.011609
620.000000	0.011720
619.000000	0.011817
618.000000	0.011857
617.000000	0.011869
616.000000	0.011878
615.000000	0.011851
614.000000	0.011784
613.000000	0.011740
612.000000	0.011763
611.000000	0.011803
610.000000	0.011799
609.000000	0.011762
608.000000	0.011745
607.000000	0.011757
606.000000	0.011777
605.000000	0.011789
604.000000	0.011776
603.000000	0.011713
602.000000	0.011595
601.000000	0.011463
600.000000	0.011367
599.000000	0.011348
598.000000	0.011421
597.000000	0.011555
596.000000	0.011657
595.000000	0.011658
594.000000	0.011603
593.000000	0.011608
592.000000	0.011699
591.000000	0.011787
590.000000	0.011788
589.000000	0.011713
588.000000	0.011599
587.000000	0.011458
586.000000	0.011329
585.000000	0.011297
584.000000	0.011401
583.000000	0.011558
582.000000	0.011648
581.000000	0.011634
580.000000	0.011570
579.000000	0.011530
578.000000	0.011570
577.000000	0.011699
576.000000	0.011860
575.000000	0.011954
574.000000	0.011947
573.000000	0.011900
572.000000	0.011892
571.000000	0.011936
570.000000	0.011997
569.000000	0.012055
568.000000	0.012106
567.000000	0.012138
566.000000	0.012156
565.000000	0.012206
564.000000	0.012335
563.000000	0.012532
562.000000	0.012735
561.000000	0.012878
560.000000	0.012926
559.000000	0.012891
558.000000	0.012834
557.000000	0.012816
556.000000	0.012811
555.000000	0.012740
554.000000	0.012606
553.000000	0.012532
552.000000	0.012625
551.000000	0.012826
550.000000	0.012964
549.000000	0.012921
548.000000	0.012711
547.000000	0.012444
546.000000	0.012232
545.000000	0.012108
544.000000	0.012024
543.000000	0.011941
542.000000	0.011898
541.000000	0.011961
540.000000	0.012102
539.000000	0.012232
538.000000	0.012324
537.000000	0.012426
536.000000	0.012550
535.000000	0.012655
534.000000	0.012752
533.000000	0.012895
532.000000	0.013032
531.000000	0.013006
530.000000	0.012787
529.000000	0.012541
528.000000	0.012391
527.000000	0.012275
526.000000	0.012112
525.000000	0.011957
524.000000	0.011873
523.000000	0.011781
522.000000	0.011600
521.000000	0.011423
520.000000	0.011380
519.000000	0.011427
518.000000	0.011407
517.000000	0.011286
516.000000	0.011143
515.000000	0.010976
514.000000	0.010722
513.000000	0.010430
512.000000	0.010245
511.000000	0.010203
510.000000	0.010194
509.000000	0.010120
508.000000	0.009972
507.000000	0.009786
506.000000	0.009621
505.000000	0.009550
504.000000	0.009567
503.000000	0.009534
502.000000	0.009328
501.000000	0.009030
500.000000	0.008829
499.000000	0.008783
498.000000	0.008807
497.000000	0.008827
496.000000	0.008830
495.000000	0.008782
494.000000	0.008620
493.000000	0.008351
492.000000	0.008064
491.000000	0.007858
490.000000	0.007784
489.000000	0.007842
488.000000	0.007951
487.000000	0.007992
486.000000	0.007942
485.000000	0.007900
484.000000	0.007945
483.000000	0.008022
482.000000	0.008084
481.000000	0.008202
480.000000	0.008434
479.000000	0.008657
478.000000	0.008673
477.000000	0.008466
476.000000	0.008200
475.000000	0.007979
474.000000	0.007748
473.000000	0.007471
472.000000	0.007268
471.000000	0.007301
470.000000	0.007573
469.000000	0.007940
468.000000	0.008229
467.000000	0.008296
466.000000	0.008103
465.000000	0.007799
464.000000	0.007574
463.000000	0.007429
462.000000	0.007191
461.000000	0.006742
460.000000	0.006181
459.000000	0.005731
458.000000	0.005587
457.000000	0.005786
456.000000	0.006151
455.000000	0.005825
454.000000	0.005859
453.000000	0.005560
452.000000	0.005403
451.000000	0.005612
450.000000	0.005969
