PE UV       SUBTECH     SPECTRUM    ASCII       PEDS        4.00        
   -1
RTChevreUK 52.Sample.asc
18/03/02
10:59:32.00
18/03/02
10:59:32.00
Administrator

200.000000
1
Lambda 750
750N8071901
PerkinElmer UV WinLab 6.0.4.0738 / 1.61.00 Lambda 900

0
0
3350/servo 860.8/2
0
0
UV/VIS
1
1
1
CommonBeamDepol,150mm sphere / downward view
0
0
0
0
Program
Program
3350/servo 860.8/2
3350/0.2 860.8/0.2
3350/0.2 860.8/0.2
0
1
 
 
 
0
 
860.8
319.2
860.8
Front
100
on
 
 
0
0
0
 
0
 
 
 
0
 
 
0
0
0
0
0
 
 
 
 
0
0


0
0
#HDR
-1
-1
#GR
nm
%R
1.0
0.0
2350.000000
-1.000000
2151
8
57.081074
10.255971
#DATA
2350.000000	11.478656
2349.000000	11.492341
2348.000000	11.517811
2347.000000	12.059825
2346.000000	11.420250
2345.000000	11.518870
2344.000000	11.414309
2343.000000	11.402407
2342.000000	11.479388
2341.000000	11.744492
2340.000000	11.541657
2339.000000	11.902688
2338.000000	12.135689
2337.000000	12.096061
2336.000000	12.344743
2335.000000	12.381428
2334.000000	12.468552
2333.000000	12.399950
2332.000000	12.350560
2331.000000	12.371931
2330.000000	12.165917
2329.000000	12.352326
2328.000000	12.291584
2327.000000	12.163416
2326.000000	12.217946
2325.000000	12.066981
2324.000000	12.354382
2323.000000	12.058691
2322.000000	12.252297
2321.000000	11.862331
2320.000000	11.938328
2319.000000	11.825263
2318.000000	11.955473
2317.000000	11.795989
2316.000000	11.708261
2315.000000	11.463136
2314.000000	11.273874
2313.000000	11.309226
2312.000000	11.378843
2311.000000	11.556814
2310.000000	11.479965
2309.000000	11.460478
2308.000000	11.286715
2307.000000	11.169724
2306.000000	11.187512
2305.000000	11.227141
2304.000000	11.269947
2303.000000	11.148605
2302.000000	11.261242
2301.000000	11.462816
2300.000000	11.112677
2299.000000	11.085570
2298.000000	11.094570
2297.000000	10.944229
2296.000000	10.730839
2295.000000	10.738624
2294.000000	10.885201
2293.000000	11.012147
2292.000000	10.717431
2291.000000	10.875339
2290.000000	10.931479
2289.000000	10.938749
2288.000000	10.742526
2287.000000	10.729722
2286.000000	10.724754
2285.000000	10.657159
2284.000000	10.823528
2283.000000	10.779663
2282.000000	10.661836
2281.000000	10.554791
2280.000000	10.680617
2279.000000	10.744312
2278.000000	10.904688
2277.000000	10.880896
2276.000000	10.903496
2275.000000	10.873401
2274.000000	10.918704
2273.000000	11.049785
2272.000000	11.073975
2271.000000	11.001045
2270.000000	11.025160
2269.000000	10.988934
2268.000000	10.892049
2267.000000	11.110740
2266.000000	11.273406
2265.000000	11.359337
2264.000000	11.502544
2263.000000	11.546114
2262.000000	11.719793
2261.000000	11.847545
2260.000000	11.955195
2259.000000	12.090413
2258.000000	12.206197
2257.000000	12.139199
2256.000000	12.209058
2255.000000	12.398733
2254.000000	12.538975
2253.000000	12.583176
2252.000000	12.757555
2251.000000	12.986318
2250.000000	13.234116
2249.000000	13.487993
2248.000000	13.560407
2247.000000	13.575072
2246.000000	13.661523
2245.000000	13.902103
2244.000000	14.127725
2243.000000	14.227176
2242.000000	14.323070
2241.000000	14.432040
2240.000000	14.500327
2239.000000	14.603668
2238.000000	14.697753
2237.000000	14.743184
2236.000000	14.858924
2235.000000	15.001159
2234.000000	15.021356
2233.000000	14.991567
2232.000000	14.962824
2231.000000	15.158108
2230.000000	15.288154
2229.000000	15.303820
2228.000000	15.351339
2227.000000	15.359197
2226.000000	15.305419
2225.000000	15.379420
2224.000000	15.288057
2223.000000	15.192249
2222.000000	15.162924
2221.000000	15.172497
2220.000000	15.207135
2219.000000	15.109839
2218.000000	15.020309
2217.000000	15.084647
2216.000000	15.028911
2215.000000	15.089540
2214.000000	15.082020
2213.000000	15.102272
2212.000000	15.007983
2211.000000	14.820485
2210.000000	14.846151
2209.000000	14.763616
2208.000000	14.626618
2207.000000	14.590069
2206.000000	14.541029
2205.000000	14.402112
2204.000000	14.372700
2203.000000	14.393330
2202.000000	14.408200
2201.000000	14.373657
2200.000000	14.184514
2199.000000	14.222777
2198.000000	14.259012
2197.000000	14.161950
2196.000000	13.973443
2195.000000	13.905341
2194.000000	13.897070
2193.000000	13.839328
2192.000000	13.761054
2191.000000	13.633291
2190.000000	13.764015
2189.000000	13.591012
2188.000000	13.496167
2187.000000	13.584780
2186.000000	13.479779
2185.000000	13.509271
2184.000000	13.566228
2183.000000	13.485599
2182.000000	13.423329
2181.000000	13.486102
2180.000000	13.292288
2179.000000	13.291362
2178.000000	13.334233
2177.000000	13.426651
2176.000000	13.322087
2175.000000	13.407074
2174.000000	13.364038
2173.000000	13.177594
2172.000000	13.359090
2171.000000	13.354480
2170.000000	13.523570
2169.000000	13.430689
2168.000000	13.479685
2167.000000	13.652296
2166.000000	13.670587
2165.000000	13.851891
2164.000000	13.584777
2163.000000	13.835972
2162.000000	14.003994
2161.000000	14.069088
2160.000000	14.156404
2159.000000	14.437317
2158.000000	14.323014
2157.000000	14.530377
2156.000000	14.605491
2155.000000	14.726919
2154.000000	14.943814
2153.000000	15.123623
2152.000000	15.146083
2151.000000	15.098447
2150.000000	15.331048
2149.000000	15.353496
2148.000000	15.382125
2147.000000	15.703006
2146.000000	15.632707
2145.000000	15.856710
2144.000000	15.968575
2143.000000	16.072362
2142.000000	16.259996
2141.000000	16.413777
2140.000000	16.549865
2139.000000	16.576520
2138.000000	16.790909
2137.000000	16.870504
2136.000000	16.852782
2135.000000	16.924398
2134.000000	17.289363
2133.000000	17.108230
2132.000000	17.241900
2131.000000	17.359624
2130.000000	17.466878
2129.000000	17.408447
2128.000000	17.413917
2127.000000	17.655135
2126.000000	17.590640
2125.000000	17.661580
2124.000000	17.680271
2123.000000	17.829970
2122.000000	17.997869
2121.000000	18.115378
2120.000000	18.074362
2119.000000	18.066276
2118.000000	18.194650
2117.000000	18.238530
2116.000000	18.183037
2115.000000	18.309256
2114.000000	18.290515
2113.000000	18.302941
2112.000000	18.283821
2111.000000	18.228993
2110.000000	18.389517
2109.000000	18.445668
2108.000000	18.373664
2107.000000	18.508102
2106.000000	18.485854
2105.000000	18.530907
2104.000000	18.535560
2103.000000	18.624688
2102.000000	18.652659
2101.000000	18.679108
2100.000000	18.768380
2099.000000	18.710306
2098.000000	18.623642
2097.000000	18.651628
2096.000000	18.636746
2095.000000	18.569328
2094.000000	18.628312
2093.000000	18.715125
2092.000000	18.662983
2091.000000	18.672870
2090.000000	18.582279
2089.000000	18.539295
2088.000000	18.635511
2087.000000	18.553277
2086.000000	18.506863
2085.000000	18.484990
2084.000000	18.342029
2083.000000	18.272677
2082.000000	18.177283
2081.000000	18.155599
2080.000000	18.077492
2079.000000	18.104598
2078.000000	18.049595
2077.000000	17.892274
2076.000000	17.808281
2075.000000	17.722078
2074.000000	17.604145
2073.000000	17.528168
2072.000000	17.422152
2071.000000	17.324649
2070.000000	17.241975
2069.000000	17.061286
2068.000000	17.008698
2067.000000	16.937778
2066.000000	16.767227
2065.000000	16.624640
2064.000000	16.455669
2063.000000	16.342638
2062.000000	16.272058
2061.000000	16.149681
2060.000000	16.026401
2059.000000	15.937516
2058.000000	15.862124
2057.000000	15.690164
2056.000000	15.584253
2055.000000	15.521973
2054.000000	15.313629
2053.000000	15.195989
2052.000000	15.161871
2051.000000	15.100574
2050.000000	15.053766
2049.000000	14.929799
2048.000000	14.767083
2047.000000	14.723757
2046.000000	14.747053
2045.000000	14.757763
2044.000000	14.766106
2043.000000	14.801559
2042.000000	14.787409
2041.000000	14.856411
2040.000000	14.903229
2039.000000	14.894314
2038.000000	14.962834
2037.000000	15.027987
2036.000000	15.069383
2035.000000	15.144085
2034.000000	15.217279
2033.000000	15.278192
2032.000000	15.395578
2031.000000	15.508308
2030.000000	15.627807
2029.000000	15.725232
2028.000000	15.864906
2027.000000	16.008477
2026.000000	16.145781
2025.000000	16.249948
2024.000000	16.306980
2023.000000	16.406460
2022.000000	16.473922
2021.000000	16.545042
2020.000000	16.594554
2019.000000	16.626601
2018.000000	16.716981
2017.000000	16.762231
2016.000000	16.785978
2015.000000	16.804673
2014.000000	16.800790
2013.000000	16.837889
2012.000000	16.838215
2011.000000	16.827325
2010.000000	16.825646
2009.000000	16.791893
2008.000000	16.748134
2007.000000	16.702348
2006.000000	16.663964
2005.000000	16.584241
2004.000000	16.507993
2003.000000	16.484064
2002.000000	16.436037
2001.000000	16.372984
2000.000000	16.320565
1999.000000	16.264635
1998.000000	16.228708
1997.000000	16.130118
1996.000000	16.055276
1995.000000	15.998953
1994.000000	15.903223
1993.000000	15.844278
1992.000000	15.808908
1991.000000	15.753417
1990.000000	15.666172
1989.000000	15.557532
1988.000000	15.482525
1987.000000	15.439111
1986.000000	15.340864
1985.000000	15.272827
1984.000000	15.202833
1983.000000	15.159450
1982.000000	15.106748
1981.000000	15.064801
1980.000000	15.005119
1979.000000	14.905161
1978.000000	14.832325
1977.000000	14.769480
1976.000000	14.709476
1975.000000	14.682242
1974.000000	14.600721
1973.000000	14.566921
1972.000000	14.512918
1971.000000	14.476931
1970.000000	14.367707
1969.000000	14.334452
1968.000000	14.293700
1967.000000	14.233305
1966.000000	14.191879
1965.000000	14.144727
1964.000000	14.086096
1963.000000	14.006129
1962.000000	13.922547
1961.000000	13.884149
1960.000000	13.834930
1959.000000	13.827442
1958.000000	13.748878
1957.000000	13.677949
1956.000000	13.676260
1955.000000	13.663375
1954.000000	13.597818
1953.000000	13.575268
1952.000000	13.560693
1951.000000	13.588023
1950.000000	13.487087
1949.000000	13.499785
1948.000000	13.495176
1947.000000	13.491444
1946.000000	13.405323
1945.000000	13.486319
1944.000000	13.501026
1943.000000	13.544809
1942.000000	13.513766
1941.000000	13.604321
1940.000000	13.673350
1939.000000	13.692608
1938.000000	13.704038
1937.000000	13.850265
1936.000000	13.909952
1935.000000	14.023871
1934.000000	14.027548
1933.000000	14.104946
1932.000000	14.199594
1931.000000	14.363256
1930.000000	14.437192
1929.000000	14.599629
1928.000000	14.784610
1927.000000	14.977706
1926.000000	15.104235
1925.000000	15.311995
1924.000000	15.492658
1923.000000	15.651558
1922.000000	15.767836
1921.000000	16.152047
1920.000000	16.407736
1919.000000	16.650291
1918.000000	16.929021
1917.000000	17.200967
1916.000000	17.490261
1915.000000	17.784254
1914.000000	18.035485
1913.000000	18.403651
1912.000000	18.733411
1911.000000	19.001818
1910.000000	19.386982
1909.000000	19.795354
1908.000000	20.207940
1907.000000	20.590008
1906.000000	20.929985
1905.000000	21.463013
1904.000000	21.939514
1903.000000	22.344163
1902.000000	22.821811
1901.000000	23.329719
1900.000000	23.821102
1899.000000	24.366071
1898.000000	24.930241
1897.000000	25.355615
1896.000000	25.812815
1895.000000	26.328624
1894.000000	26.877748
1893.000000	27.349678
1892.000000	27.890141
1891.000000	28.421957
1890.000000	28.878942
1889.000000	29.346135
1888.000000	29.836612
1887.000000	30.292483
1886.000000	30.747254
1885.000000	31.228626
1884.000000	31.659563
1883.000000	32.059127
1882.000000	32.401903
1881.000000	32.815756
1880.000000	33.168095
1879.000000	33.518955
1878.000000	33.849528
1877.000000	34.208506
1876.000000	34.484002
1875.000000	34.719396
1874.000000	34.954744
1873.000000	35.208509
1872.000000	35.407138
1871.000000	35.629685
1870.000000	35.839970
1869.000000	36.036801
1868.000000	36.154715
1867.000000	36.235564
1866.000000	36.338898
1865.000000	36.483941
1864.000000	36.595511
1863.000000	36.732189
1862.000000	36.800405
1861.000000	36.870534
1860.000000	36.947840
1859.000000	36.955146
1858.000000	37.020818
1857.000000	37.071563
1856.000000	37.105328
1855.000000	37.165876
1854.000000	37.192271
1853.000000	37.198284
1852.000000	37.200614
1851.000000	37.202704
1850.000000	37.190694
1849.000000	37.192977
1848.000000	37.189246
1847.000000	37.170780
1846.000000	37.128754
1845.000000	37.108398
1844.000000	37.066529
1843.000000	37.022138
1842.000000	36.989605
1841.000000	36.972267
1840.000000	36.919092
1839.000000	36.839984
1838.000000	36.752879
1837.000000	36.693251
1836.000000	36.648844
1835.000000	36.602179
1834.000000	36.522760
1833.000000	36.455490
1832.000000	36.396870
1831.000000	36.326768
1830.000000	36.281391
1829.000000	36.246281
1828.000000	36.193815
1827.000000	36.152900
1826.000000	36.112069
1825.000000	36.036978
1824.000000	35.977508
1823.000000	35.942937
1822.000000	35.877613
1821.000000	35.848469
1820.000000	35.817393
1819.000000	35.764164
1818.000000	35.704376
1817.000000	35.659403
1816.000000	35.609949
1815.000000	35.545295
1814.000000	35.495341
1813.000000	35.449762
1812.000000	35.407366
1811.000000	35.376490
1810.000000	35.351322
1809.000000	35.330192
1808.000000	35.298999
1807.000000	35.243494
1806.000000	35.194772
1805.000000	35.150611
1804.000000	35.101436
1803.000000	35.068637
1802.000000	35.046993
1801.000000	35.011455
1800.000000	34.967940
1799.000000	34.928012
1798.000000	34.895116
1797.000000	34.873469
1796.000000	34.849483
1795.000000	34.823440
1794.000000	34.799822
1793.000000	34.756585
1792.000000	34.750355
1791.000000	34.724569
1790.000000	34.676884
1789.000000	34.651102
1788.000000	34.621587
1787.000000	34.604696
1786.000000	34.547235
1785.000000	34.500890
1784.000000	34.470964
1783.000000	34.398785
1782.000000	34.338300
1781.000000	34.287833
1780.000000	34.229700
1779.000000	34.178862
1778.000000	34.103581
1777.000000	34.018356
1776.000000	33.940847
1775.000000	33.840890
1774.000000	33.759988
1773.000000	33.677297
1772.000000	33.569664
1771.000000	33.470329
1770.000000	33.393398
1769.000000	33.288748
1768.000000	33.187996
1767.000000	33.077628
1766.000000	32.997827
1765.000000	32.916346
1764.000000	32.849218
1763.000000	32.751187
1762.000000	32.659361
1761.000000	32.561441
1760.000000	32.470893
1759.000000	32.389645
1758.000000	32.324486
1757.000000	32.241771
1756.000000	32.137132
1755.000000	32.056971
1754.000000	31.961095
1753.000000	31.887384
1752.000000	31.823205
1751.000000	31.723045
1750.000000	31.616277
1749.000000	31.569968
1748.000000	31.455538
1747.000000	31.320347
1746.000000	31.262227
1745.000000	31.161024
1744.000000	31.041452
1743.000000	31.006479
1742.000000	30.876472
1741.000000	30.793701
1740.000000	30.684404
1739.000000	30.624578
1738.000000	30.545054
1737.000000	30.489479
1736.000000	30.446097
1735.000000	30.400162
1734.000000	30.392903
1733.000000	30.342086
1732.000000	30.321222
1731.000000	30.316811
1730.000000	30.326395
1729.000000	30.372441
1728.000000	30.422554
1727.000000	30.492619
1726.000000	30.550573
1725.000000	30.655303
1724.000000	30.764868
1723.000000	30.867224
1722.000000	31.003679
1721.000000	31.138508
1720.000000	31.245346
1719.000000	31.383882
1718.000000	31.466962
1717.000000	31.619934
1716.000000	31.764782
1715.000000	31.875862
1714.000000	32.020034
1713.000000	32.135196
1712.000000	32.225408
1711.000000	32.329971
1710.000000	32.406693
1709.000000	32.490875
1708.000000	32.563970
1707.000000	32.633708
1706.000000	32.724157
1705.000000	32.770852
1704.000000	32.800247
1703.000000	32.820352
1702.000000	32.891862
1701.000000	32.943543
1700.000000	32.980961
1699.000000	32.990497
1698.000000	33.062298
1697.000000	33.175803
1696.000000	33.213684
1695.000000	33.264313
1694.000000	33.364780
1693.000000	33.459407
1692.000000	33.542689
1691.000000	33.674282
1690.000000	33.826590
1689.000000	33.971168
1688.000000	34.148501
1687.000000	34.327810
1686.000000	34.534222
1685.000000	34.731500
1684.000000	34.962507
1683.000000	35.195878
1682.000000	35.467265
1681.000000	35.729370
1680.000000	35.982615
1679.000000	36.222874
1678.000000	36.530398
1677.000000	36.783352
1676.000000	37.041717
1675.000000	37.323149
1674.000000	37.611950
1673.000000	37.860674
1672.000000	38.113682
1671.000000	38.364366
1670.000000	38.623530
1669.000000	38.889154
1668.000000	39.073178
1667.000000	39.279142
1666.000000	39.451437
1665.000000	39.625922
1664.000000	39.766267
1663.000000	39.910006
1662.000000	40.027173
1661.000000	40.150478
1660.000000	40.265190
1659.000000	40.361749
1658.000000	40.438742
1657.000000	40.494020
1656.000000	40.587898
1655.000000	40.651759
1654.000000	40.684736
1653.000000	40.717426
1652.000000	40.746313
1651.000000	40.755842
1650.000000	40.771951
1649.000000	40.773544
1648.000000	40.771922
1647.000000	40.764956
1646.000000	40.769062
1645.000000	40.725829
1644.000000	40.708334
1643.000000	40.662948
1642.000000	40.649366
1641.000000	40.637060
1640.000000	40.594882
1639.000000	40.536237
1638.000000	40.504851
1637.000000	40.458631
1636.000000	40.404619
1635.000000	40.362229
1634.000000	40.312118
1633.000000	40.254763
1632.000000	40.199792
1631.000000	40.127485
1630.000000	40.068569
1629.000000	40.022587
1628.000000	39.971230
1627.000000	39.913986
1626.000000	39.852442
1625.000000	39.774030
1624.000000	39.721540
1623.000000	39.679599
1622.000000	39.607777
1621.000000	39.525078
1620.000000	39.476774
1619.000000	39.396317
1618.000000	39.305061
1617.000000	39.240382
1616.000000	39.168517
1615.000000	39.089731
1614.000000	39.011156
1613.000000	38.941863
1612.000000	38.871758
1611.000000	38.798755
1610.000000	38.717763
1609.000000	38.630607
1608.000000	38.549201
1607.000000	38.465920
1606.000000	38.372781
1605.000000	38.279492
1604.000000	38.200764
1603.000000	38.109365
1602.000000	38.021192
1601.000000	37.943746
1600.000000	37.870611
1599.000000	37.783617
1598.000000	37.680581
1597.000000	37.614475
1596.000000	37.536762
1595.000000	37.454941
1594.000000	37.396087
1593.000000	37.315464
1592.000000	37.239464
1591.000000	37.163312
1590.000000	37.099964
1589.000000	37.041080
1588.000000	36.966372
1587.000000	36.886823
1586.000000	36.817893
1585.000000	36.759765
1584.000000	36.700586
1583.000000	36.639175
1582.000000	36.582116
1581.000000	36.520320
1580.000000	36.454809
1579.000000	36.387419
1578.000000	36.332692
1577.000000	36.278179
1576.000000	36.220492
1575.000000	36.167990
1574.000000	36.099953
1573.000000	36.048516
1572.000000	35.990064
1571.000000	35.921901
1570.000000	35.868367
1569.000000	35.818854
1568.000000	35.775931
1567.000000	35.721733
1566.000000	35.673294
1565.000000	35.627454
1564.000000	35.591587
1563.000000	35.563680
1562.000000	35.518594
1561.000000	35.472692
1560.000000	35.441061
1559.000000	35.401679
1558.000000	35.368107
1557.000000	35.337837
1556.000000	35.305706
1555.000000	35.263255
1554.000000	35.222297
1553.000000	35.195961
1552.000000	35.138377
1551.000000	35.098724
1550.000000	35.045956
1549.000000	34.996090
1548.000000	34.945963
1547.000000	34.866314
1546.000000	34.775685
1545.000000	34.684153
1544.000000	34.578595
1543.000000	34.493861
1542.000000	34.410778
1541.000000	34.306572
1540.000000	34.201806
1539.000000	34.080231
1538.000000	33.974991
1537.000000	33.863813
1536.000000	33.738340
1535.000000	33.617493
1534.000000	33.513603
1533.000000	33.412248
1532.000000	33.284335
1531.000000	33.158471
1530.000000	33.052381
1529.000000	32.934940
1528.000000	32.848929
1527.000000	32.752223
1526.000000	32.650448
1525.000000	32.556005
1524.000000	32.468034
1523.000000	32.390747
1522.000000	32.311356
1521.000000	32.259071
1520.000000	32.188250
1519.000000	32.131405
1518.000000	32.070576
1517.000000	32.007401
1516.000000	31.954744
1515.000000	31.907038
1514.000000	31.874330
1513.000000	31.840091
1512.000000	31.789231
1511.000000	31.762206
1510.000000	31.723160
1509.000000	31.695115
1508.000000	31.680342
1507.000000	31.657298
1506.000000	31.628011
1505.000000	31.611868
1504.000000	31.621742
1503.000000	31.600557
1502.000000	31.600572
1501.000000	31.617479
1500.000000	31.639587
1499.000000	31.669889
1498.000000	31.712418
1497.000000	31.713596
1496.000000	31.735460
1495.000000	31.768120
1494.000000	31.806865
1493.000000	31.855431
1492.000000	31.907971
1491.000000	31.955592
1490.000000	32.042744
1489.000000	32.107479
1488.000000	32.199470
1487.000000	32.277695
1486.000000	32.365341
1485.000000	32.459972
1484.000000	32.564773
1483.000000	32.659353
1482.000000	32.770918
1481.000000	32.873819
1480.000000	32.975147
1479.000000	33.097763
1478.000000	33.203430
1477.000000	33.306896
1476.000000	33.401602
1475.000000	33.506749
1474.000000	33.623050
1473.000000	33.717957
1472.000000	33.792617
1471.000000	33.890391
1470.000000	33.990936
1469.000000	34.067208
1468.000000	34.148410
1467.000000	34.259096
1466.000000	34.354932
1465.000000	34.425980
1464.000000	34.487097
1463.000000	34.571478
1462.000000	34.663866
1461.000000	34.728269
1460.000000	34.799310
1459.000000	34.885453
1458.000000	34.970808
1457.000000	35.048776
1456.000000	35.128271
1455.000000	35.207113
1454.000000	35.294666
1453.000000	35.378753
1452.000000	35.458343
1451.000000	35.541966
1450.000000	35.619465
1449.000000	35.719445
1448.000000	35.815216
1447.000000	35.919570
1446.000000	35.995815
1445.000000	36.104553
1444.000000	36.239036
1443.000000	36.339994
1442.000000	36.430289
1441.000000	36.536632
1440.000000	36.657131
1439.000000	36.774213
1438.000000	36.881694
1437.000000	37.021283
1436.000000	37.170861
1435.000000	37.313236
1434.000000	37.442209
1433.000000	37.590953
1432.000000	37.736812
1431.000000	37.890281
1430.000000	38.029160
1429.000000	38.191920
1428.000000	38.366857
1427.000000	38.551076
1426.000000	38.726854
1425.000000	38.909447
1424.000000	39.103698
1423.000000	39.312687
1422.000000	39.533414
1421.000000	39.747231
1420.000000	39.954627
1419.000000	40.191578
1418.000000	40.409660
1417.000000	40.640973
1416.000000	40.889958
1415.000000	41.129900
1414.000000	41.384893
1413.000000	41.622498
1412.000000	41.869099
1411.000000	42.119208
1410.000000	42.373956
1409.000000	42.627825
1408.000000	42.883754
1407.000000	43.139357
1406.000000	43.380132
1405.000000	43.620611
1404.000000	43.862041
1403.000000	44.106618
1402.000000	44.348308
1401.000000	44.565978
1400.000000	44.791905
1399.000000	45.020641
1398.000000	45.236876
1397.000000	45.459046
1396.000000	45.685443
1395.000000	45.899945
1394.000000	46.107007
1393.000000	46.317267
1392.000000	46.527738
1391.000000	46.712983
1390.000000	46.897008
1389.000000	47.093454
1388.000000	47.284720
1387.000000	47.466819
1386.000000	47.640507
1385.000000	47.792745
1384.000000	47.954559
1383.000000	48.120293
1382.000000	48.261646
1381.000000	48.401928
1380.000000	48.537139
1379.000000	48.653041
1378.000000	48.781340
1377.000000	48.909511
1376.000000	49.003170
1375.000000	49.099907
1374.000000	49.212714
1373.000000	49.318785
1372.000000	49.416364
1371.000000	49.518009
1370.000000	49.607842
1369.000000	49.683219
1368.000000	49.766909
1367.000000	49.866076
1366.000000	49.971316
1365.000000	50.090706
1364.000000	50.183814
1363.000000	50.273594
1362.000000	50.378063
1361.000000	50.465282
1360.000000	50.552624
1359.000000	50.647261
1358.000000	50.748483
1357.000000	50.854651
1356.000000	50.961234
1355.000000	51.081548
1354.000000	51.214897
1353.000000	51.319286
1352.000000	51.425574
1351.000000	51.529129
1350.000000	51.626368
1349.000000	51.746274
1348.000000	51.883877
1347.000000	51.975117
1346.000000	52.053045
1345.000000	52.160019
1344.000000	52.266300
1343.000000	52.383851
1342.000000	52.467915
1341.000000	52.547867
1340.000000	52.626433
1339.000000	52.713151
1338.000000	52.789910
1337.000000	52.852301
1336.000000	52.916793
1335.000000	52.987099
1334.000000	53.080501
1333.000000	53.131406
1332.000000	53.175409
1331.000000	53.235466
1330.000000	53.279072
1329.000000	53.322611
1328.000000	53.368042
1327.000000	53.403988
1326.000000	53.433892
1325.000000	53.454597
1324.000000	53.505361
1323.000000	53.558917
1322.000000	53.560808
1321.000000	53.594395
1320.000000	53.624995
1319.000000	53.635023
1318.000000	53.659619
1317.000000	53.698108
1316.000000	53.706081
1315.000000	53.717302
1314.000000	53.765553
1313.000000	53.784664
1312.000000	53.801541
1311.000000	53.817639
1310.000000	53.832279
1309.000000	53.861662
1308.000000	53.889225
1307.000000	53.892263
1306.000000	53.909250
1305.000000	53.933760
1304.000000	53.941954
1303.000000	53.972705
1302.000000	53.982610
1301.000000	53.972727
1300.000000	54.006904
1299.000000	54.010337
1298.000000	54.037614
1297.000000	54.037294
1296.000000	54.018237
1295.000000	54.005212
1294.000000	54.010379
1293.000000	54.007383
1292.000000	53.995251
1291.000000	53.974872
1290.000000	53.941045
1289.000000	53.941796
1288.000000	53.936777
1287.000000	53.937173
1286.000000	53.923204
1285.000000	53.901705
1284.000000	53.913967
1283.000000	53.897994
1282.000000	53.884808
1281.000000	53.867175
1280.000000	53.865280
1279.000000	53.863940
1278.000000	53.874700
1277.000000	53.882399
1276.000000	53.877385
1275.000000	53.881019
1274.000000	53.874246
1273.000000	53.876596
1272.000000	53.879038
1271.000000	53.900645
1270.000000	53.881128
1269.000000	53.893517
1268.000000	53.900561
1267.000000	53.924832
1266.000000	53.968655
1265.000000	53.944646
1264.000000	53.952154
1263.000000	53.978867
1262.000000	54.001157
1261.000000	54.007611
1260.000000	54.024359
1259.000000	54.031492
1258.000000	54.030359
1257.000000	54.049857
1256.000000	54.077574
1255.000000	54.074797
1254.000000	54.065151
1253.000000	54.080609
1252.000000	54.104232
1251.000000	54.088944
1250.000000	54.091248
1249.000000	54.081737
1248.000000	54.079822
1247.000000	54.049260
1246.000000	54.026537
1245.000000	54.013933
1244.000000	53.964555
1243.000000	53.935303
1242.000000	53.913073
1241.000000	53.879644
1240.000000	53.826419
1239.000000	53.779095
1238.000000	53.758128
1237.000000	53.715295
1236.000000	53.665275
1235.000000	53.597032
1234.000000	53.557500
1233.000000	53.512721
1232.000000	53.449850
1231.000000	53.393743
1230.000000	53.357189
1229.000000	53.319444
1228.000000	53.273369
1227.000000	53.212066
1226.000000	53.150862
1225.000000	53.088575
1224.000000	53.033768
1223.000000	52.987307
1222.000000	52.939695
1221.000000	52.866949
1220.000000	52.827027
1219.000000	52.773077
1218.000000	52.723822
1217.000000	52.651891
1216.000000	52.587488
1215.000000	52.530990
1214.000000	52.496808
1213.000000	52.437488
1212.000000	52.374929
1211.000000	52.279564
1210.000000	52.252270
1209.000000	52.184452
1208.000000	52.127799
1207.000000	52.076425
1206.000000	52.042161
1205.000000	51.948779
1204.000000	51.886972
1203.000000	51.852061
1202.000000	51.796137
1201.000000	51.713019
1200.000000	51.668723
1199.000000	51.637981
1198.000000	51.596522
1197.000000	51.520042
1196.000000	51.467697
1195.000000	51.431327
1194.000000	51.396960
1193.000000	51.371726
1192.000000	51.354953
1191.000000	51.330875
1190.000000	51.294372
1189.000000	51.245600
1188.000000	51.246630
1187.000000	51.256742
1186.000000	51.251543
1185.000000	51.275209
1184.000000	51.304362
1183.000000	51.325403
1182.000000	51.372001
1181.000000	51.422560
1180.000000	51.484042
1179.000000	51.562643
1178.000000	51.627257
1177.000000	51.706903
1176.000000	51.796114
1175.000000	51.888543
1174.000000	51.987928
1173.000000	52.100383
1172.000000	52.206168
1171.000000	52.317262
1170.000000	52.449314
1169.000000	52.574150
1168.000000	52.702693
1167.000000	52.837449
1166.000000	52.961574
1165.000000	53.093949
1164.000000	53.227473
1163.000000	53.359057
1162.000000	53.486068
1161.000000	53.617940
1160.000000	53.748674
1159.000000	53.872311
1158.000000	53.998367
1157.000000	54.109686
1156.000000	54.212252
1155.000000	54.332076
1154.000000	54.451028
1153.000000	54.548238
1152.000000	54.634151
1151.000000	54.722057
1150.000000	54.818979
1149.000000	54.906124
1148.000000	54.992432
1147.000000	55.072382
1146.000000	55.137972
1145.000000	55.220013
1144.000000	55.310156
1143.000000	55.390967
1142.000000	55.470677
1141.000000	55.549886
1140.000000	55.633976
1139.000000	55.708708
1138.000000	55.782433
1137.000000	55.857779
1136.000000	55.920827
1135.000000	55.995885
1134.000000	56.073659
1133.000000	56.136705
1132.000000	56.191057
1131.000000	56.248229
1130.000000	56.319340
1129.000000	56.372419
1128.000000	56.425384
1127.000000	56.449912
1126.000000	56.474700
1125.000000	56.530187
1124.000000	56.568335
1123.000000	56.595720
1122.000000	56.631770
1121.000000	56.649605
1120.000000	56.673840
1119.000000	56.694045
1118.000000	56.712213
1117.000000	56.735556
1116.000000	56.755225
1115.000000	56.769470
1114.000000	56.764817
1113.000000	56.776470
1112.000000	56.795567
1111.000000	56.791053
1110.000000	56.789788
1109.000000	56.798136
1108.000000	56.799915
1107.000000	56.806392
1106.000000	56.829709
1105.000000	56.846241
1104.000000	56.845479
1103.000000	56.856270
1102.000000	56.867362
1101.000000	56.870353
1100.000000	56.861091
1099.000000	56.846029
1098.000000	56.856017
1097.000000	56.864082
1096.000000	56.877474
1095.000000	56.878877
1094.000000	56.876832
1093.000000	56.873189
1092.000000	56.889945
1091.000000	56.865448
1090.000000	56.850914
1089.000000	56.850056
1088.000000	56.865173
1087.000000	56.866961
1086.000000	56.885783
1085.000000	56.840306
1084.000000	56.860743
1083.000000	56.858542
1082.000000	56.838561
1081.000000	56.831226
1080.000000	56.830015
1079.000000	56.836638
1078.000000	56.793423
1077.000000	56.795379
1076.000000	56.809065
1075.000000	56.804149
1074.000000	56.778057
1073.000000	56.780174
1072.000000	56.793166
1071.000000	56.744087
1070.000000	56.724901
1069.000000	56.706411
1068.000000	56.708466
1067.000000	56.696177
1066.000000	56.690433
1065.000000	56.686211
1064.000000	56.650892
1063.000000	56.632718
1062.000000	56.633289
1061.000000	56.627168
1060.000000	56.608145
1059.000000	56.611379
1058.000000	56.595313
1057.000000	56.572133
1056.000000	56.559275
1055.000000	56.546484
1054.000000	56.537419
1053.000000	56.537992
1052.000000	56.499907
1051.000000	56.479491
1050.000000	56.470127
1049.000000	56.470731
1048.000000	56.448586
1047.000000	56.423862
1046.000000	56.423787
1045.000000	56.419851
1044.000000	56.399898
1043.000000	56.402500
1042.000000	56.392464
1041.000000	56.390606
1040.000000	56.388375
1039.000000	56.371736
1038.000000	56.350503
1037.000000	56.346578
1036.000000	56.353772
1035.000000	56.367953
1034.000000	56.339909
1033.000000	56.332428
1032.000000	56.339783
1031.000000	56.333942
1030.000000	56.313560
1029.000000	56.334799
1028.000000	56.320952
1027.000000	56.317013
1026.000000	56.325327
1025.000000	56.334774
1024.000000	56.314754
1023.000000	56.314904
1022.000000	56.320248
1021.000000	56.336113
1020.000000	56.337611
1019.000000	56.348028
1018.000000	56.358941
1017.000000	56.345639
1016.000000	56.358857
1015.000000	56.378369
1014.000000	56.397566
1013.000000	56.401229
1012.000000	56.413895
1011.000000	56.430843
1010.000000	56.421520
1009.000000	56.433774
1008.000000	56.464160
1007.000000	56.478009
1006.000000	56.495546
1005.000000	56.503258
1004.000000	56.518269
1003.000000	56.543672
1002.000000	56.537601
1001.000000	56.554634
1000.000000	56.569258
999.000000	56.587690
998.000000	56.608260
997.000000	56.625427
996.000000	56.637114
995.000000	56.646263
994.000000	56.665615
993.000000	56.680841
992.000000	56.679717
991.000000	56.694271
990.000000	56.698663
989.000000	56.705375
988.000000	56.710737
987.000000	56.724687
986.000000	56.744701
985.000000	56.745416
984.000000	56.764817
983.000000	56.762616
982.000000	56.778310
981.000000	56.795944
980.000000	56.792243
979.000000	56.821752
978.000000	56.833130
977.000000	56.844834
976.000000	56.859707
975.000000	56.845517
974.000000	56.863785
973.000000	56.870928
972.000000	56.879241
971.000000	56.910532
970.000000	56.920903
969.000000	56.930652
968.000000	56.932033
967.000000	56.931051
966.000000	56.937003
965.000000	56.958197
964.000000	56.973153
963.000000	56.976131
962.000000	56.987519
961.000000	56.990962
960.000000	56.993672
959.000000	56.994846
958.000000	56.993377
957.000000	57.021882
956.000000	57.030077
955.000000	56.999809
954.000000	57.019413
953.000000	57.041707
952.000000	57.040480
951.000000	57.051835
950.000000	57.061704
949.000000	57.057495
948.000000	57.055870
947.000000	57.068308
946.000000	57.067379
945.000000	57.057445
944.000000	57.056063
943.000000	57.046020
942.000000	57.046051
941.000000	57.079091
940.000000	57.081074
939.000000	57.056347
938.000000	57.048991
937.000000	57.039256
936.000000	57.037223
935.000000	57.031851
934.000000	57.018430
933.000000	57.008466
932.000000	56.994819
931.000000	56.996700
930.000000	56.962504
929.000000	56.941400
928.000000	56.930840
927.000000	56.952461
926.000000	56.966095
925.000000	56.942061
924.000000	56.947449
923.000000	56.937903
922.000000	56.929319
921.000000	56.918941
920.000000	56.914888
919.000000	56.899359
918.000000	56.918845
917.000000	56.915902
916.000000	56.874143
915.000000	56.868445
914.000000	56.861604
913.000000	56.833242
912.000000	56.829347
911.000000	56.874309
910.000000	56.854985
909.000000	56.816865
908.000000	56.783160
907.000000	56.813442
906.000000	56.837968
905.000000	56.863719
904.000000	56.886015
903.000000	56.858461
902.000000	56.842903
901.000000	56.883501
900.000000	56.894109
899.000000	56.861032
898.000000	56.863407
897.000000	56.931492
896.000000	56.912441
895.000000	56.915347
894.000000	56.931713
893.000000	56.896162
892.000000	56.917679
891.000000	56.935841
890.000000	56.971762
889.000000	56.993574
888.000000	57.008733
887.000000	56.942877
886.000000	56.962567
885.000000	57.003530
884.000000	56.976396
883.000000	56.936632
882.000000	56.994616
881.000000	56.992987
880.000000	56.964724
879.000000	56.887401
878.000000	56.919928
877.000000	56.953742
876.000000	56.969402
875.000000	56.953250
874.000000	56.950302
873.000000	56.966678
872.000000	56.939455
871.000000	56.936770
870.000000	56.918162
869.000000	56.887464
868.000000	56.925380
867.000000	56.864702
866.000000	56.948192
865.000000	56.787256
864.000000	56.792277
863.000000	56.736981
862.000000	56.686163
861.000000	56.743415
860.000000	56.844624
859.000000	56.182823
858.000000	55.944042
857.000000	55.986913
856.000000	56.322947
855.000000	56.633495
854.000000	56.396668
853.000000	56.153256
852.000000	56.313796
851.000000	56.364622
850.000000	56.193450
849.000000	56.079887
848.000000	56.195470
847.000000	56.129394
846.000000	55.959780
845.000000	56.098091
844.000000	56.179432
843.000000	56.119997
842.000000	56.285144
841.000000	56.092889
840.000000	55.908241
839.000000	56.234870
838.000000	56.071510
837.000000	56.199953
836.000000	56.123716
835.000000	56.043392
834.000000	55.884649
833.000000	56.066211
832.000000	56.099800
831.000000	55.863740
830.000000	55.822445
829.000000	55.948482
828.000000	56.024297
827.000000	56.050304
826.000000	55.829626
825.000000	55.691728
824.000000	55.819246
823.000000	55.800177
822.000000	55.832716
821.000000	55.647577
820.000000	55.658539
819.000000	55.711097
818.000000	55.667961
817.000000	55.834878
816.000000	55.818228
815.000000	55.738155
814.000000	55.718588
813.000000	55.578653
812.000000	55.614218
811.000000	55.697622
810.000000	55.725169
809.000000	55.496243
808.000000	55.594052
807.000000	55.617001
806.000000	55.657019
805.000000	55.589053
804.000000	55.510392
803.000000	55.455360
802.000000	55.464788
801.000000	55.539446
800.000000	55.369922
799.000000	55.418303
798.000000	55.457082
797.000000	55.378807
796.000000	55.396635
795.000000	55.385221
794.000000	55.398171
793.000000	55.474947
792.000000	55.335498
791.000000	55.318235
790.000000	55.265005
789.000000	55.342177
788.000000	55.310109
787.000000	55.258132
786.000000	55.275226
785.000000	55.174180
784.000000	55.120447
783.000000	55.165948
782.000000	55.175827
781.000000	55.080355
780.000000	55.064109
779.000000	54.951313
778.000000	54.968157
777.000000	55.078366
776.000000	55.022511
775.000000	54.980396
774.000000	54.984295
773.000000	54.879639
772.000000	54.846884
771.000000	54.901347
770.000000	54.817950
769.000000	54.905746
768.000000	54.861647
767.000000	54.860811
766.000000	54.785786
765.000000	54.683154
764.000000	54.659040
763.000000	54.592121
762.000000	54.630016
761.000000	54.663061
760.000000	54.614355
759.000000	54.523735
758.000000	54.475678
757.000000	54.485279
756.000000	54.482333
755.000000	54.430549
754.000000	54.407726
753.000000	54.371741
752.000000	54.409880
751.000000	54.351086
750.000000	54.226324
749.000000	54.218607
748.000000	54.172560
747.000000	54.196232
746.000000	54.162064
745.000000	54.142505
744.000000	54.088730
743.000000	54.078429
742.000000	54.059793
741.000000	54.008847
740.000000	53.926887
739.000000	53.918407
738.000000	53.923552
737.000000	53.923026
736.000000	53.860135
735.000000	53.834897
734.000000	53.814774
733.000000	53.715569
732.000000	53.661892
731.000000	53.653614
730.000000	53.627660
729.000000	53.600602
728.000000	53.587732
727.000000	53.585589
726.000000	53.479883
725.000000	53.424600
724.000000	53.385499
723.000000	53.343326
722.000000	53.364873
721.000000	53.327802
720.000000	53.260589
719.000000	53.247486
718.000000	53.200322
717.000000	53.143246
716.000000	53.085409
715.000000	53.115794
714.000000	53.127855
713.000000	53.064685
712.000000	52.984802
711.000000	52.923010
710.000000	52.881559
709.000000	52.865967
708.000000	52.811593
707.000000	52.764632
706.000000	52.710351
705.000000	52.616545
704.000000	52.625956
703.000000	52.651539
702.000000	52.594823
701.000000	52.536194
700.000000	52.509981
699.000000	52.468443
698.000000	52.427311
697.000000	52.398483
696.000000	52.333636
695.000000	52.297218
694.000000	52.244188
693.000000	52.151911
692.000000	52.100050
691.000000	52.117659
690.000000	52.125569
689.000000	52.005422
688.000000	51.935390
687.000000	51.901318
686.000000	51.841587
685.000000	51.783098
684.000000	51.770062
683.000000	51.692130
682.000000	51.634516
681.000000	51.625522
680.000000	51.580741
679.000000	51.560905
678.000000	51.487463
677.000000	51.409186
676.000000	51.365038
675.000000	51.291412
674.000000	51.246763
673.000000	51.239037
672.000000	51.180801
671.000000	51.135235
670.000000	51.088311
669.000000	51.067050
668.000000	50.997375
667.000000	50.951731
666.000000	50.907845
665.000000	50.855557
664.000000	50.837699
663.000000	50.768450
662.000000	50.698847
661.000000	50.656495
660.000000	50.558828
659.000000	50.522418
658.000000	50.499656
657.000000	50.460818
656.000000	50.366870
655.000000	50.349283
654.000000	50.278233
653.000000	50.260986
652.000000	50.170962
651.000000	50.127989
650.000000	50.089256
649.000000	50.063638
648.000000	50.005030
647.000000	49.957450
646.000000	49.882577
645.000000	49.835468
644.000000	49.742388
643.000000	49.694166
642.000000	49.620313
641.000000	49.569296
640.000000	49.502285
639.000000	49.427136
638.000000	49.368855
637.000000	49.338255
636.000000	49.312029
635.000000	49.264153
634.000000	49.211764
633.000000	49.156941
632.000000	49.086146
631.000000	49.027538
630.000000	48.929186
629.000000	48.858038
628.000000	48.853829
627.000000	48.785292
626.000000	48.686061
625.000000	48.673994
624.000000	48.624913
623.000000	48.560769
622.000000	48.479166
621.000000	48.432028
620.000000	48.332858
619.000000	48.291849
618.000000	48.254591
617.000000	48.164647
616.000000	48.150276
615.000000	48.085693
614.000000	47.959055
613.000000	47.916514
612.000000	47.852818
611.000000	47.779384
610.000000	47.694482
609.000000	47.633845
608.000000	47.581321
607.000000	47.505878
606.000000	47.460598
605.000000	47.419553
604.000000	47.308901
603.000000	47.255222
602.000000	47.147461
601.000000	47.144721
600.000000	47.074573
599.000000	46.979630
598.000000	46.867983
597.000000	46.814386
596.000000	46.745904
595.000000	46.729975
594.000000	46.616470
593.000000	46.607804
592.000000	46.502588
591.000000	46.424181
590.000000	46.328142
589.000000	46.291976
588.000000	46.180576
587.000000	46.170514
586.000000	46.036080
585.000000	45.999563
584.000000	45.916365
583.000000	45.816077
582.000000	45.743485
581.000000	45.690228
580.000000	45.595685
579.000000	45.548857
578.000000	45.411733
577.000000	45.397961
576.000000	45.327307
575.000000	45.225415
574.000000	45.103425
573.000000	45.079610
572.000000	44.920388
571.000000	44.917984
570.000000	44.836050
569.000000	44.723879
568.000000	44.662577
567.000000	44.613144
566.000000	44.474795
565.000000	44.410410
564.000000	44.323359
563.000000	44.258438
562.000000	44.163594
561.000000	44.092112
560.000000	44.002350
559.000000	43.914818
558.000000	43.824235
557.000000	43.741571
556.000000	43.668221
555.000000	43.600744
554.000000	43.519709
553.000000	43.454291
552.000000	43.348319
551.000000	43.271953
550.000000	43.204537
549.000000	43.087712
548.000000	42.958322
547.000000	42.906054
546.000000	42.831589
545.000000	42.756403
544.000000	42.633826
543.000000	42.539914
542.000000	42.434598
541.000000	42.337839
540.000000	42.258503
539.000000	42.173786
538.000000	42.046125
537.000000	41.941337
536.000000	41.856407
535.000000	41.759096
534.000000	41.657625
533.000000	41.568272
532.000000	41.442076
531.000000	41.359979
530.000000	41.258432
529.000000	41.151197
528.000000	41.043805
527.000000	40.962947
526.000000	40.826930
525.000000	40.739261
524.000000	40.644575
523.000000	40.532606
522.000000	40.418745
521.000000	40.337284
520.000000	40.242109
519.000000	40.106333
518.000000	39.987061
517.000000	39.891849
516.000000	39.752081
515.000000	39.669302
514.000000	39.584757
513.000000	39.486514
512.000000	39.358332
511.000000	39.266514
510.000000	39.129371
509.000000	39.029593
508.000000	38.881937
507.000000	38.737901
506.000000	38.630236
505.000000	38.524184
504.000000	38.388860
503.000000	38.312878
502.000000	38.191882
501.000000	38.040985
500.000000	37.920635
499.000000	37.811559
498.000000	37.659640
497.000000	37.520064
496.000000	37.373021
495.000000	37.218674
494.000000	37.078869
493.000000	36.945966
492.000000	36.820741
491.000000	36.656491
490.000000	36.508644
489.000000	36.377096
488.000000	36.228671
487.000000	36.087879
486.000000	35.909138
485.000000	35.748911
484.000000	35.628106
483.000000	35.479406
482.000000	35.275845
481.000000	35.160204
480.000000	35.002141
479.000000	34.869164
478.000000	34.719093
477.000000	34.572734
476.000000	34.409422
475.000000	34.242831
474.000000	34.090786
473.000000	33.943726
472.000000	33.798144
471.000000	33.624469
470.000000	33.456210
469.000000	33.311867
468.000000	33.138727
467.000000	32.958810
466.000000	32.811943
465.000000	32.657278
464.000000	32.470181
463.000000	32.283357
462.000000	32.123815
461.000000	31.960566
460.000000	31.778858
459.000000	31.594753
458.000000	31.405925
457.000000	31.213103
456.000000	31.014299
455.000000	30.829334
454.000000	30.635022
453.000000	30.440034
452.000000	30.251646
451.000000	30.060345
450.000000	29.850273
449.000000	29.650609
448.000000	29.473150
447.000000	29.266067
446.000000	29.065552
445.000000	28.874670
444.000000	28.663879
443.000000	28.450501
442.000000	28.252223
441.000000	28.055930
440.000000	27.860609
439.000000	27.680862
438.000000	27.463821
437.000000	27.253670
436.000000	27.051203
435.000000	26.824660
434.000000	26.625518
433.000000	26.408819
432.000000	26.194760
431.000000	25.981414
430.000000	25.753392
429.000000	25.527682
428.000000	25.324254
427.000000	25.116198
426.000000	24.875698
425.000000	24.632909
424.000000	24.429619
423.000000	24.239750
422.000000	24.027484
421.000000	23.815554
420.000000	23.627879
419.000000	23.420998
418.000000	23.230856
417.000000	23.045336
416.000000	22.879352
415.000000	22.704035
414.000000	22.527059
413.000000	22.389486
412.000000	22.273363
411.000000	22.121196
410.000000	21.999858
409.000000	21.807211
408.000000	21.719824
407.000000	21.611891
406.000000	21.484150
405.000000	21.355197
404.000000	21.242240
403.000000	21.117173
402.000000	21.002751
401.000000	20.895684
400.000000	20.759817
399.000000	20.663198
398.000000	20.538852
397.000000	20.387370
396.000000	20.226050
395.000000	20.111810
394.000000	19.977136
393.000000	19.813107
392.000000	19.728992
391.000000	19.575446
390.000000	19.440826
389.000000	19.299380
388.000000	19.131305
387.000000	18.980794
386.000000	18.829746
385.000000	18.670098
384.000000	18.542267
383.000000	18.378221
382.000000	18.233948
381.000000	18.112999
380.000000	17.933398
379.000000	17.766203
378.000000	17.560985
377.000000	17.420639
376.000000	17.332711
375.000000	17.216654
374.000000	17.096815
373.000000	16.883289
372.000000	16.788166
371.000000	16.570527
370.000000	16.463602
369.000000	16.386503
368.000000	16.208597
367.000000	16.113798
366.000000	16.005121
365.000000	15.831747
364.000000	15.768690
363.000000	15.587657
362.000000	15.463578
361.000000	15.364057
360.000000	15.208883
359.000000	15.123592
358.000000	15.031265
357.000000	14.933544
356.000000	14.768863
355.000000	14.708437
354.000000	14.503756
353.000000	14.468323
352.000000	14.325715
351.000000	14.210309
350.000000	14.165679
349.000000	14.019591
348.000000	13.923692
347.000000	13.864126
346.000000	13.755696
345.000000	13.607889
344.000000	13.525330
343.000000	13.380909
342.000000	13.377873
341.000000	13.217708
340.000000	13.060692
339.000000	13.016533
338.000000	12.873015
337.000000	12.847858
336.000000	12.740954
335.000000	12.606573
334.000000	12.512968
333.000000	12.358346
332.000000	12.262846
331.000000	12.318673
330.000000	12.159739
329.000000	12.063704
328.000000	11.893187
327.000000	11.812079
326.000000	11.794694
325.000000	11.801490
324.000000	11.555835
323.000000	11.593415
322.000000	11.499236
321.000000	11.410117
320.000000	11.370550
319.000000	11.346935
318.000000	11.213476
317.000000	11.243525
316.000000	11.172416
315.000000	11.129519
314.000000	11.054823
313.000000	11.012782
312.000000	10.961462
311.000000	10.869413
310.000000	10.810730
309.000000	10.751499
308.000000	10.707302
307.000000	10.640824
306.000000	10.565715
305.000000	10.482441
304.000000	10.471393
303.000000	10.425886
302.000000	10.409593
301.000000	10.313058
300.000000	10.315810
299.000000	10.255971
298.000000	10.260453
297.000000	10.305290
296.000000	10.300153
295.000000	10.326518
294.000000	10.339454
293.000000	10.337054
292.000000	10.402292
291.000000	10.401636
290.000000	10.416099
289.000000	10.426713
288.000000	10.477997
287.000000	10.518104
286.000000	10.563351
285.000000	10.633808
284.000000	10.772447
283.000000	10.805789
282.000000	10.867797
281.000000	10.855780
280.000000	10.991128
279.000000	11.076696
278.000000	11.152774
277.000000	11.223682
276.000000	11.240400
275.000000	11.352172
274.000000	11.378947
273.000000	11.445288
272.000000	11.531397
271.000000	11.657939
270.000000	11.690329
269.000000	11.742664
268.000000	11.787561
267.000000	11.866847
266.000000	11.945713
265.000000	12.046782
264.000000	12.088304
263.000000	12.178546
262.000000	12.299994
261.000000	12.378959
260.000000	12.455579
259.000000	12.543141
258.000000	12.585419
257.000000	12.653388
256.000000	12.725893
255.000000	12.837371
254.000000	12.969992
253.000000	13.084389
252.000000	13.119718
251.000000	13.217847
250.000000	13.292668
249.000000	13.345337
248.000000	13.428836
247.000000	13.507256
246.000000	13.559618
245.000000	13.667434
244.000000	13.715700
243.000000	13.772209
242.000000	13.905704
241.000000	14.090639
240.000000	14.244923
239.000000	14.474587
238.000000	14.742638
237.000000	15.006436
236.000000	15.300806
235.000000	15.618874
234.000000	15.975711
233.000000	16.325831
232.000000	16.462183
231.000000	16.552058
230.000000	16.705053
229.000000	16.880660
228.000000	16.912362
227.000000	17.026692
226.000000	17.208977
225.000000	17.272721
224.000000	17.391803
223.000000	17.533093
222.000000	17.589266
221.000000	17.710449
220.000000	17.897544
219.000000	18.083865
218.000000	18.340547
217.000000	18.616282
216.000000	18.807442
215.000000	19.033837
214.000000	19.436158
213.000000	19.787283
212.000000	20.131762
211.000000	20.692791
210.000000	21.157726
209.000000	21.350316
208.000000	21.742853
207.000000	22.346459
206.000000	22.909448
205.000000	23.443042
204.000000	24.267783
203.000000	25.211806
202.000000	25.939729
201.000000	26.811701
200.000000	27.777143
