PE UV       SUBTECH     SPECTRUM    ASCII       PEDS        4.00        
   -1
RTChevreUK 12.Sample.asc
18/03/02
10:11:04.00
18/03/02
10:11:04.00
Administrator

200.000000
1
Lambda 750
750N8071901
PerkinElmer UV WinLab 6.0.4.0738 / 1.61.00 Lambda 900

0
0
3350/servo 860.8/2
0
0
UV/VIS
1
1
1
CommonBeamDepol,150mm sphere / downward view
0
0
0
0
Program
Program
3350/servo 860.8/2
3350/0.2 860.8/0.2
3350/0.2 860.8/0.2
0
1
 
 
 
0
 
860.8
319.2
860.8
Front
100
on
 
 
0
0
0
 
0
 
 
 
0
 
 
0
0
0
0
0
 
 
 
 
0
0


0
0
#HDR
-1
-1
#GR
nm
%R
1.0
0.0
2350.000000
-1.000000
2151
8
63.238268
10.177345
#DATA
2350.000000	13.610928
2349.000000	13.192563
2348.000000	13.386880
2347.000000	14.241864
2346.000000	13.884281
2345.000000	13.609885
2344.000000	13.601617
2343.000000	13.105887
2342.000000	13.277850
2341.000000	13.833569
2340.000000	13.408732
2339.000000	13.460513
2338.000000	14.293091
2337.000000	14.252148
2336.000000	14.133153
2335.000000	14.566404
2334.000000	14.137107
2333.000000	14.478428
2332.000000	14.492620
2331.000000	14.644030
2330.000000	14.386682
2329.000000	14.092023
2328.000000	14.287186
2327.000000	14.126635
2326.000000	14.234537
2325.000000	14.339031
2324.000000	14.294470
2323.000000	14.105107
2322.000000	13.933687
2321.000000	13.682638
2320.000000	13.843323
2319.000000	13.823101
2318.000000	13.750961
2317.000000	13.741673
2316.000000	13.659200
2315.000000	13.609621
2314.000000	13.574715
2313.000000	13.500847
2312.000000	13.461311
2311.000000	13.376221
2310.000000	13.468735
2309.000000	13.376236
2308.000000	13.300228
2307.000000	13.312280
2306.000000	13.298348
2305.000000	13.017598
2304.000000	12.962016
2303.000000	13.238722
2302.000000	13.021628
2301.000000	12.856841
2300.000000	12.769545
2299.000000	12.970159
2298.000000	12.860447
2297.000000	12.578907
2296.000000	12.545169
2295.000000	12.807743
2294.000000	12.799134
2293.000000	12.621186
2292.000000	12.774216
2291.000000	12.756735
2290.000000	12.537857
2289.000000	12.506077
2288.000000	12.589145
2287.000000	12.624141
2286.000000	12.566213
2285.000000	12.402565
2284.000000	12.335890
2283.000000	12.401509
2282.000000	12.339513
2281.000000	12.466794
2280.000000	12.496292
2279.000000	12.447101
2278.000000	12.588088
2277.000000	12.625822
2276.000000	12.576080
2275.000000	12.568193
2274.000000	12.687974
2273.000000	12.737734
2272.000000	12.856092
2271.000000	12.767374
2270.000000	12.794160
2269.000000	12.762585
2268.000000	12.820852
2267.000000	12.929454
2266.000000	13.110361
2265.000000	13.261585
2264.000000	13.311577
2263.000000	13.270398
2262.000000	13.420906
2261.000000	13.516165
2260.000000	13.695014
2259.000000	13.985963
2258.000000	14.152990
2257.000000	14.328740
2256.000000	14.337972
2255.000000	14.241020
2254.000000	14.391384
2253.000000	14.552025
2252.000000	14.815774
2251.000000	15.105599
2250.000000	15.315427
2249.000000	15.589003
2248.000000	15.747599
2247.000000	15.749570
2246.000000	15.675049
2245.000000	15.889403
2244.000000	16.211831
2243.000000	16.440993
2242.000000	16.428316
2241.000000	16.504540
2240.000000	16.620062
2239.000000	16.651768
2238.000000	16.816488
2237.000000	16.923312
2236.000000	17.043837
2235.000000	17.193935
2234.000000	17.271890
2233.000000	17.338534
2232.000000	17.356310
2231.000000	17.445416
2230.000000	17.381558
2229.000000	17.476022
2228.000000	17.590242
2227.000000	17.476618
2226.000000	17.349948
2225.000000	17.430738
2224.000000	17.530764
2223.000000	17.475133
2222.000000	17.411349
2221.000000	17.300133
2220.000000	17.197599
2219.000000	17.276489
2218.000000	17.217799
2217.000000	17.201965
2216.000000	17.075276
2215.000000	17.025516
2214.000000	17.155722
2213.000000	17.173802
2212.000000	17.115116
2211.000000	17.010461
2210.000000	16.751986
2209.000000	16.759839
2208.000000	16.759275
2207.000000	16.634866
2206.000000	16.553822
2205.000000	16.504255
2204.000000	16.556364
2203.000000	16.376958
2202.000000	16.410018
2201.000000	16.363376
2200.000000	16.331433
2199.000000	16.216868
2198.000000	16.183154
2197.000000	16.256569
2196.000000	16.133562
2195.000000	15.954641
2194.000000	15.895708
2193.000000	15.732334
2192.000000	15.788320
2191.000000	15.708302
2190.000000	15.564033
2189.000000	15.566187
2188.000000	15.494608
2187.000000	15.565553
2186.000000	15.511951
2185.000000	15.516885
2184.000000	15.493046
2183.000000	15.473451
2182.000000	15.250738
2181.000000	15.320723
2180.000000	15.383459
2179.000000	15.275828
2178.000000	15.185057
2177.000000	15.289445
2176.000000	15.326395
2175.000000	15.286606
2174.000000	15.314682
2173.000000	15.374666
2172.000000	15.381757
2171.000000	15.354846
2170.000000	15.460700
2169.000000	15.666971
2168.000000	15.752323
2167.000000	15.789352
2166.000000	15.711862
2165.000000	15.896815
2164.000000	15.927986
2163.000000	15.843642
2162.000000	15.975430
2161.000000	16.152849
2160.000000	16.414955
2159.000000	16.354362
2158.000000	16.565190
2157.000000	16.563999
2156.000000	16.766961
2155.000000	16.866645
2154.000000	16.827275
2153.000000	17.213562
2152.000000	17.253294
2151.000000	17.288626
2150.000000	17.423512
2149.000000	17.625363
2148.000000	17.698011
2147.000000	17.871280
2146.000000	18.007471
2145.000000	18.182312
2144.000000	18.392161
2143.000000	18.288253
2142.000000	18.542230
2141.000000	18.512326
2140.000000	18.579806
2139.000000	18.941348
2138.000000	19.021029
2137.000000	19.212033
2136.000000	19.316665
2135.000000	19.240766
2134.000000	19.439493
2133.000000	19.405214
2132.000000	19.470026
2131.000000	19.717731
2130.000000	19.989914
2129.000000	19.925571
2128.000000	20.041467
2127.000000	20.084315
2126.000000	20.122128
2125.000000	19.874507
2124.000000	20.315100
2123.000000	20.302726
2122.000000	20.385515
2121.000000	20.336643
2120.000000	20.391813
2119.000000	20.457602
2118.000000	20.483429
2117.000000	20.546521
2116.000000	20.727729
2115.000000	20.783575
2114.000000	20.720826
2113.000000	20.626480
2112.000000	20.872792
2111.000000	20.753375
2110.000000	20.863314
2109.000000	20.969401
2108.000000	20.968089
2107.000000	20.993522
2106.000000	20.928545
2105.000000	20.913026
2104.000000	20.896617
2103.000000	21.058709
2102.000000	21.095765
2101.000000	21.155982
2100.000000	21.101333
2099.000000	21.135916
2098.000000	21.101446
2097.000000	21.078762
2096.000000	21.009606
2095.000000	21.080481
2094.000000	21.138979
2093.000000	20.945633
2092.000000	20.985226
2091.000000	20.985970
2090.000000	20.981406
2089.000000	20.905651
2088.000000	20.958986
2087.000000	20.865369
2086.000000	20.920863
2085.000000	20.951676
2084.000000	20.796440
2083.000000	20.760233
2082.000000	20.648137
2081.000000	20.643076
2080.000000	20.604935
2079.000000	20.447657
2078.000000	20.340803
2077.000000	20.295398
2076.000000	20.135884
2075.000000	20.086993
2074.000000	19.974854
2073.000000	19.909025
2072.000000	19.821834
2071.000000	19.697363
2070.000000	19.601188
2069.000000	19.455867
2068.000000	19.355830
2067.000000	19.215519
2066.000000	19.045022
2065.000000	18.927426
2064.000000	18.820018
2063.000000	18.614660
2062.000000	18.439243
2061.000000	18.317780
2060.000000	18.251998
2059.000000	18.160322
2058.000000	18.010276
2057.000000	17.847739
2056.000000	17.770396
2055.000000	17.680650
2054.000000	17.513517
2053.000000	17.371392
2052.000000	17.290437
2051.000000	17.255994
2050.000000	17.149583
2049.000000	17.056807
2048.000000	16.967255
2047.000000	16.926284
2046.000000	16.949392
2045.000000	16.958128
2044.000000	16.893854
2043.000000	16.892197
2042.000000	16.949053
2041.000000	16.907255
2040.000000	16.962767
2039.000000	17.020470
2038.000000	17.092347
2037.000000	17.127550
2036.000000	17.142973
2035.000000	17.310315
2034.000000	17.432912
2033.000000	17.521988
2032.000000	17.617141
2031.000000	17.706176
2030.000000	17.835308
2029.000000	17.972170
2028.000000	18.079860
2027.000000	18.184448
2026.000000	18.335830
2025.000000	18.476596
2024.000000	18.560026
2023.000000	18.664473
2022.000000	18.722865
2021.000000	18.769708
2020.000000	18.865054
2019.000000	18.926922
2018.000000	19.012774
2017.000000	19.021024
2016.000000	19.013303
2015.000000	19.061649
2014.000000	19.109523
2013.000000	19.121772
2012.000000	19.086614
2011.000000	19.092899
2010.000000	19.046263
2009.000000	18.981620
2008.000000	18.989829
2007.000000	18.964077
2006.000000	18.896678
2005.000000	18.817332
2004.000000	18.753460
2003.000000	18.735222
2002.000000	18.668025
2001.000000	18.590789
2000.000000	18.522097
1999.000000	18.494876
1998.000000	18.426817
1997.000000	18.323920
1996.000000	18.259506
1995.000000	18.192605
1994.000000	18.106461
1993.000000	18.030042
1992.000000	17.915187
1991.000000	17.795260
1990.000000	17.745543
1989.000000	17.683314
1988.000000	17.598788
1987.000000	17.534824
1986.000000	17.477161
1985.000000	17.372486
1984.000000	17.286344
1983.000000	17.239256
1982.000000	17.172933
1981.000000	17.115891
1980.000000	17.041042
1979.000000	16.972852
1978.000000	16.855994
1977.000000	16.769862
1976.000000	16.693219
1975.000000	16.655605
1974.000000	16.570553
1973.000000	16.540339
1972.000000	16.508263
1971.000000	16.433315
1970.000000	16.360043
1969.000000	16.318417
1968.000000	16.188786
1967.000000	16.151094
1966.000000	16.139171
1965.000000	16.055009
1964.000000	15.969255
1963.000000	15.926896
1962.000000	15.859585
1961.000000	15.793622
1960.000000	15.733623
1959.000000	15.630854
1958.000000	15.633334
1957.000000	15.602452
1956.000000	15.557831
1955.000000	15.498449
1954.000000	15.490376
1953.000000	15.416245
1952.000000	15.367393
1951.000000	15.346707
1950.000000	15.373671
1949.000000	15.359009
1948.000000	15.316567
1947.000000	15.302679
1946.000000	15.262377
1945.000000	15.306084
1944.000000	15.322973
1943.000000	15.368248
1942.000000	15.348165
1941.000000	15.426819
1940.000000	15.474196
1939.000000	15.543187
1938.000000	15.642900
1937.000000	15.672042
1936.000000	15.734327
1935.000000	15.881080
1934.000000	15.899326
1933.000000	15.985592
1932.000000	16.160704
1931.000000	16.261773
1930.000000	16.402458
1929.000000	16.577903
1928.000000	16.782003
1927.000000	16.892065
1926.000000	17.118666
1925.000000	17.306117
1924.000000	17.496592
1923.000000	17.779194
1922.000000	17.970382
1921.000000	18.304363
1920.000000	18.528369
1919.000000	18.812841
1918.000000	19.059879
1917.000000	19.390508
1916.000000	19.685286
1915.000000	19.980983
1914.000000	20.371272
1913.000000	20.744639
1912.000000	21.070845
1911.000000	21.450722
1910.000000	21.871188
1909.000000	22.267470
1908.000000	22.633606
1907.000000	23.153516
1906.000000	23.569762
1905.000000	24.099931
1904.000000	24.577305
1903.000000	25.072171
1902.000000	25.609897
1901.000000	26.178536
1900.000000	26.677691
1899.000000	27.203029
1898.000000	27.827496
1897.000000	28.362008
1896.000000	28.864179
1895.000000	29.415601
1894.000000	29.988500
1893.000000	30.541175
1892.000000	31.083887
1891.000000	31.666636
1890.000000	32.182740
1889.000000	32.714867
1888.000000	33.283112
1887.000000	33.786748
1886.000000	34.246822
1885.000000	34.729199
1884.000000	35.234427
1883.000000	35.660676
1882.000000	36.035272
1881.000000	36.457910
1880.000000	36.916351
1879.000000	37.271289
1878.000000	37.630420
1877.000000	37.963717
1876.000000	38.286351
1875.000000	38.619748
1874.000000	38.860001
1873.000000	39.148594
1872.000000	39.425113
1871.000000	39.644911
1870.000000	39.847391
1869.000000	40.057279
1868.000000	40.264582
1867.000000	40.373595
1866.000000	40.481120
1865.000000	40.623126
1864.000000	40.738580
1863.000000	40.846625
1862.000000	40.930734
1861.000000	41.020796
1860.000000	41.078072
1859.000000	41.134417
1858.000000	41.201241
1857.000000	41.232593
1856.000000	41.288364
1855.000000	41.354770
1854.000000	41.366067
1853.000000	41.360832
1852.000000	41.357815
1851.000000	41.391507
1850.000000	41.371136
1849.000000	41.388564
1848.000000	41.375245
1847.000000	41.341764
1846.000000	41.259448
1845.000000	41.236886
1844.000000	41.232128
1843.000000	41.159413
1842.000000	41.117497
1841.000000	41.098665
1840.000000	41.036346
1839.000000	40.987862
1838.000000	40.954626
1837.000000	40.868007
1836.000000	40.803118
1835.000000	40.738688
1834.000000	40.666665
1833.000000	40.606680
1832.000000	40.564896
1831.000000	40.504553
1830.000000	40.433220
1829.000000	40.348532
1828.000000	40.280975
1827.000000	40.244773
1826.000000	40.200637
1825.000000	40.119106
1824.000000	40.050798
1823.000000	40.005980
1822.000000	39.945711
1821.000000	39.904657
1820.000000	39.864626
1819.000000	39.789418
1818.000000	39.739624
1817.000000	39.704340
1816.000000	39.648256
1815.000000	39.594372
1814.000000	39.536403
1813.000000	39.485800
1812.000000	39.427069
1811.000000	39.374437
1810.000000	39.340030
1809.000000	39.298548
1808.000000	39.228674
1807.000000	39.190696
1806.000000	39.150888
1805.000000	39.096231
1804.000000	39.062698
1803.000000	39.025811
1802.000000	38.962164
1801.000000	38.905303
1800.000000	38.858328
1799.000000	38.822993
1798.000000	38.795278
1797.000000	38.761161
1796.000000	38.707769
1795.000000	38.680061
1794.000000	38.651550
1793.000000	38.607797
1792.000000	38.567891
1791.000000	38.526820
1790.000000	38.500535
1789.000000	38.456465
1788.000000	38.421800
1787.000000	38.379606
1786.000000	38.325349
1785.000000	38.282700
1784.000000	38.231775
1783.000000	38.164064
1782.000000	38.099771
1781.000000	38.028048
1780.000000	37.983277
1779.000000	37.913005
1778.000000	37.822651
1777.000000	37.729674
1776.000000	37.645404
1775.000000	37.542846
1774.000000	37.441392
1773.000000	37.360928
1772.000000	37.263961
1771.000000	37.153379
1770.000000	37.058781
1769.000000	36.939598
1768.000000	36.839969
1767.000000	36.747001
1766.000000	36.672327
1765.000000	36.561664
1764.000000	36.459679
1763.000000	36.349012
1762.000000	36.248049
1761.000000	36.158904
1760.000000	36.064383
1759.000000	35.970004
1758.000000	35.882210
1757.000000	35.802946
1756.000000	35.696515
1755.000000	35.601348
1754.000000	35.482955
1753.000000	35.386860
1752.000000	35.320013
1751.000000	35.209326
1750.000000	35.130177
1749.000000	35.072341
1748.000000	34.929394
1747.000000	34.818434
1746.000000	34.709810
1745.000000	34.600979
1744.000000	34.500073
1743.000000	34.401932
1742.000000	34.300134
1741.000000	34.201394
1740.000000	34.150509
1739.000000	34.034828
1738.000000	33.918074
1737.000000	33.903565
1736.000000	33.829718
1735.000000	33.799259
1734.000000	33.768979
1733.000000	33.746412
1732.000000	33.706703
1731.000000	33.695309
1730.000000	33.761094
1729.000000	33.821732
1728.000000	33.843592
1727.000000	33.930900
1726.000000	34.029801
1725.000000	34.130355
1724.000000	34.232245
1723.000000	34.380408
1722.000000	34.509722
1721.000000	34.635053
1720.000000	34.781894
1719.000000	34.941814
1718.000000	35.081594
1717.000000	35.220791
1716.000000	35.372247
1715.000000	35.466554
1714.000000	35.633645
1713.000000	35.731333
1712.000000	35.819715
1711.000000	35.966339
1710.000000	36.074430
1709.000000	36.146205
1708.000000	36.235290
1707.000000	36.321856
1706.000000	36.372315
1705.000000	36.419690
1704.000000	36.483292
1703.000000	36.539123
1702.000000	36.542671
1701.000000	36.593760
1700.000000	36.651655
1699.000000	36.683291
1698.000000	36.735718
1697.000000	36.779858
1696.000000	36.885133
1695.000000	36.938254
1694.000000	37.018631
1693.000000	37.148170
1692.000000	37.238385
1691.000000	37.381982
1690.000000	37.538848
1689.000000	37.691077
1688.000000	37.885263
1687.000000	38.087071
1686.000000	38.301374
1685.000000	38.541170
1684.000000	38.797130
1683.000000	39.057351
1682.000000	39.317511
1681.000000	39.629133
1680.000000	39.901713
1679.000000	40.218151
1678.000000	40.527058
1677.000000	40.830155
1676.000000	41.122128
1675.000000	41.454212
1674.000000	41.742382
1673.000000	42.042700
1672.000000	42.301432
1671.000000	42.594796
1670.000000	42.868475
1669.000000	43.140205
1668.000000	43.382674
1667.000000	43.616658
1666.000000	43.798681
1665.000000	43.984280
1664.000000	44.136092
1663.000000	44.305778
1662.000000	44.455992
1661.000000	44.592233
1660.000000	44.717843
1659.000000	44.823845
1658.000000	44.901075
1657.000000	44.974415
1656.000000	45.062060
1655.000000	45.119715
1654.000000	45.171007
1653.000000	45.217330
1652.000000	45.243580
1651.000000	45.238380
1650.000000	45.251501
1649.000000	45.268345
1648.000000	45.260641
1647.000000	45.246472
1646.000000	45.236116
1645.000000	45.211290
1644.000000	45.197987
1643.000000	45.172154
1642.000000	45.120077
1641.000000	45.070955
1640.000000	45.055234
1639.000000	45.020793
1638.000000	44.959290
1637.000000	44.912669
1636.000000	44.835377
1635.000000	44.800684
1634.000000	44.739731
1633.000000	44.664045
1632.000000	44.602519
1631.000000	44.528840
1630.000000	44.480837
1629.000000	44.404940
1628.000000	44.336065
1627.000000	44.273857
1626.000000	44.205406
1625.000000	44.121948
1624.000000	44.055538
1623.000000	43.994020
1622.000000	43.922593
1621.000000	43.839661
1620.000000	43.767348
1619.000000	43.677609
1618.000000	43.577826
1617.000000	43.501246
1616.000000	43.422240
1615.000000	43.334252
1614.000000	43.238839
1613.000000	43.159917
1612.000000	43.071521
1611.000000	42.978511
1610.000000	42.887957
1609.000000	42.790454
1608.000000	42.682556
1607.000000	42.595177
1606.000000	42.501789
1605.000000	42.396618
1604.000000	42.293226
1603.000000	42.191074
1602.000000	42.091405
1601.000000	41.993394
1600.000000	41.901204
1599.000000	41.814501
1598.000000	41.712776
1597.000000	41.608861
1596.000000	41.523048
1595.000000	41.430412
1594.000000	41.338059
1593.000000	41.254791
1592.000000	41.163093
1591.000000	41.086564
1590.000000	41.018965
1589.000000	40.926116
1588.000000	40.849102
1587.000000	40.780423
1586.000000	40.699122
1585.000000	40.621532
1584.000000	40.556950
1583.000000	40.488872
1582.000000	40.410571
1581.000000	40.334409
1580.000000	40.249378
1579.000000	40.186392
1578.000000	40.138385
1577.000000	40.063439
1576.000000	39.987615
1575.000000	39.922230
1574.000000	39.849998
1573.000000	39.784215
1572.000000	39.723770
1571.000000	39.665001
1570.000000	39.618676
1569.000000	39.553012
1568.000000	39.489942
1567.000000	39.441225
1566.000000	39.378735
1565.000000	39.324043
1564.000000	39.288873
1563.000000	39.262201
1562.000000	39.212382
1561.000000	39.172474
1560.000000	39.141770
1559.000000	39.096147
1558.000000	39.066910
1557.000000	39.045770
1556.000000	39.008186
1555.000000	38.968378
1554.000000	38.923663
1553.000000	38.890285
1552.000000	38.834775
1551.000000	38.787290
1550.000000	38.727193
1549.000000	38.658935
1548.000000	38.588208
1547.000000	38.515257
1546.000000	38.442009
1545.000000	38.345846
1544.000000	38.239108
1543.000000	38.127209
1542.000000	38.020519
1541.000000	37.924781
1540.000000	37.798616
1539.000000	37.660031
1538.000000	37.541710
1537.000000	37.406512
1536.000000	37.285442
1535.000000	37.157264
1534.000000	37.017776
1533.000000	36.896936
1532.000000	36.762196
1531.000000	36.616247
1530.000000	36.503936
1529.000000	36.378986
1528.000000	36.276905
1527.000000	36.161980
1526.000000	36.056365
1525.000000	35.962788
1524.000000	35.851222
1523.000000	35.768555
1522.000000	35.687043
1521.000000	35.613399
1520.000000	35.519736
1519.000000	35.454819
1518.000000	35.402375
1517.000000	35.325052
1516.000000	35.268931
1515.000000	35.216158
1514.000000	35.136647
1513.000000	35.105988
1512.000000	35.065622
1511.000000	35.023423
1510.000000	34.981332
1509.000000	34.944699
1508.000000	34.903660
1507.000000	34.892171
1506.000000	34.865266
1505.000000	34.859134
1504.000000	34.853123
1503.000000	34.855125
1502.000000	34.892116
1501.000000	34.917984
1500.000000	34.933171
1499.000000	34.932631
1498.000000	34.932361
1497.000000	34.917903
1496.000000	34.933740
1495.000000	34.984009
1494.000000	35.014637
1493.000000	35.076491
1492.000000	35.142573
1491.000000	35.199290
1490.000000	35.291089
1489.000000	35.376684
1488.000000	35.468506
1487.000000	35.565408
1486.000000	35.670551
1485.000000	35.787236
1484.000000	35.891172
1483.000000	35.998930
1482.000000	36.136800
1481.000000	36.244549
1480.000000	36.353608
1479.000000	36.503162
1478.000000	36.621378
1477.000000	36.743883
1476.000000	36.859815
1475.000000	36.974993
1474.000000	37.098740
1473.000000	37.206822
1472.000000	37.312145
1471.000000	37.406447
1470.000000	37.552648
1469.000000	37.677922
1468.000000	37.763219
1467.000000	37.839516
1466.000000	37.921513
1465.000000	38.008557
1464.000000	38.117952
1463.000000	38.231105
1462.000000	38.294247
1461.000000	38.360030
1460.000000	38.474061
1459.000000	38.578825
1458.000000	38.661559
1457.000000	38.724377
1456.000000	38.815128
1455.000000	38.922023
1454.000000	39.031319
1453.000000	39.107385
1452.000000	39.205226
1451.000000	39.321841
1450.000000	39.417787
1449.000000	39.530619
1448.000000	39.631222
1447.000000	39.734054
1446.000000	39.861375
1445.000000	39.981710
1444.000000	40.086160
1443.000000	40.209087
1442.000000	40.312356
1441.000000	40.435129
1440.000000	40.566917
1439.000000	40.719228
1438.000000	40.879842
1437.000000	41.003771
1436.000000	41.142659
1435.000000	41.287501
1434.000000	41.448501
1433.000000	41.619641
1432.000000	41.773993
1431.000000	41.938605
1430.000000	42.116399
1429.000000	42.302694
1428.000000	42.488914
1427.000000	42.691366
1426.000000	42.901696
1425.000000	43.123738
1424.000000	43.324365
1423.000000	43.556427
1422.000000	43.798366
1421.000000	44.026235
1420.000000	44.273034
1419.000000	44.543194
1418.000000	44.813194
1417.000000	45.071794
1416.000000	45.326690
1415.000000	45.591490
1414.000000	45.867157
1413.000000	46.137542
1412.000000	46.429962
1411.000000	46.735812
1410.000000	47.023324
1409.000000	47.298988
1408.000000	47.569567
1407.000000	47.842648
1406.000000	48.129703
1405.000000	48.410940
1404.000000	48.677514
1403.000000	48.954040
1402.000000	49.218260
1401.000000	49.490194
1400.000000	49.758036
1399.000000	49.998130
1398.000000	50.241640
1397.000000	50.482390
1396.000000	50.721434
1395.000000	50.964734
1394.000000	51.193687
1393.000000	51.426335
1392.000000	51.660955
1391.000000	51.876225
1390.000000	52.110693
1389.000000	52.351673
1388.000000	52.576667
1387.000000	52.759944
1386.000000	52.943345
1385.000000	53.143101
1384.000000	53.342802
1383.000000	53.507725
1382.000000	53.666683
1381.000000	53.826372
1380.000000	53.969684
1379.000000	54.117841
1378.000000	54.253414
1377.000000	54.364736
1376.000000	54.466922
1375.000000	54.585101
1374.000000	54.716794
1373.000000	54.817408
1372.000000	54.896228
1371.000000	55.005294
1370.000000	55.114122
1369.000000	55.198336
1368.000000	55.294535
1367.000000	55.411004
1366.000000	55.514225
1365.000000	55.612345
1364.000000	55.720449
1363.000000	55.835973
1362.000000	55.952451
1361.000000	56.059068
1360.000000	56.169963
1359.000000	56.285845
1358.000000	56.416128
1357.000000	56.541816
1356.000000	56.671756
1355.000000	56.797520
1354.000000	56.913325
1353.000000	57.025494
1352.000000	57.165875
1351.000000	57.285576
1350.000000	57.389724
1349.000000	57.501039
1348.000000	57.640077
1347.000000	57.765199
1346.000000	57.873671
1345.000000	57.983982
1344.000000	58.080003
1343.000000	58.192909
1342.000000	58.293751
1341.000000	58.381531
1340.000000	58.483341
1339.000000	58.590953
1338.000000	58.688214
1337.000000	58.783071
1336.000000	58.859468
1335.000000	58.925210
1334.000000	58.995159
1333.000000	59.051754
1332.000000	59.111708
1331.000000	59.184142
1330.000000	59.262895
1329.000000	59.319930
1328.000000	59.352944
1327.000000	59.393802
1326.000000	59.438173
1325.000000	59.493068
1324.000000	59.525133
1323.000000	59.587353
1322.000000	59.602162
1321.000000	59.617464
1320.000000	59.653763
1319.000000	59.676058
1318.000000	59.690776
1317.000000	59.755889
1316.000000	59.765146
1315.000000	59.773981
1314.000000	59.811247
1313.000000	59.822597
1312.000000	59.846885
1311.000000	59.904606
1310.000000	59.915413
1309.000000	59.914244
1308.000000	59.952786
1307.000000	59.967623
1306.000000	59.986329
1305.000000	59.993772
1304.000000	59.996522
1303.000000	60.020750
1302.000000	60.059930
1301.000000	60.051892
1300.000000	60.069220
1299.000000	60.046802
1298.000000	60.063719
1297.000000	60.070680
1296.000000	60.052848
1295.000000	60.052139
1294.000000	60.044656
1293.000000	60.038100
1292.000000	60.043243
1291.000000	60.028718
1290.000000	60.007948
1289.000000	60.010477
1288.000000	59.985705
1287.000000	59.978604
1286.000000	59.921162
1285.000000	59.913603
1284.000000	59.920333
1283.000000	59.933023
1282.000000	59.917207
1281.000000	59.912278
1280.000000	59.928925
1279.000000	59.925501
1278.000000	59.918080
1277.000000	59.908854
1276.000000	59.912656
1275.000000	59.909594
1274.000000	59.916273
1273.000000	59.905577
1272.000000	59.913512
1271.000000	59.936485
1270.000000	59.937223
1269.000000	59.955821
1268.000000	59.944863
1267.000000	59.961560
1266.000000	59.973542
1265.000000	59.994669
1264.000000	59.994428
1263.000000	60.019891
1262.000000	60.079321
1261.000000	60.074935
1260.000000	60.083916
1259.000000	60.116921
1258.000000	60.110930
1257.000000	60.121615
1256.000000	60.178407
1255.000000	60.152203
1254.000000	60.162828
1253.000000	60.166536
1252.000000	60.163061
1251.000000	60.150908
1250.000000	60.147170
1249.000000	60.124498
1248.000000	60.111488
1247.000000	60.088016
1246.000000	60.068993
1245.000000	60.075824
1244.000000	60.034104
1243.000000	59.999192
1242.000000	59.941276
1241.000000	59.891182
1240.000000	59.858986
1239.000000	59.813556
1238.000000	59.771173
1237.000000	59.694404
1236.000000	59.650898
1235.000000	59.607186
1234.000000	59.558795
1233.000000	59.494480
1232.000000	59.436998
1231.000000	59.393700
1230.000000	59.347230
1229.000000	59.271178
1228.000000	59.235315
1227.000000	59.181826
1226.000000	59.132137
1225.000000	59.085503
1224.000000	59.040127
1223.000000	58.987217
1222.000000	58.939693
1221.000000	58.882762
1220.000000	58.823529
1219.000000	58.766516
1218.000000	58.709271
1217.000000	58.638412
1216.000000	58.559405
1215.000000	58.488203
1214.000000	58.434027
1213.000000	58.383406
1212.000000	58.341860
1211.000000	58.276153
1210.000000	58.210730
1209.000000	58.153566
1208.000000	58.090993
1207.000000	58.013946
1206.000000	57.935395
1205.000000	57.851290
1204.000000	57.804152
1203.000000	57.725133
1202.000000	57.682405
1201.000000	57.610058
1200.000000	57.530595
1199.000000	57.475919
1198.000000	57.414490
1197.000000	57.342985
1196.000000	57.306573
1195.000000	57.250753
1194.000000	57.204269
1193.000000	57.140283
1192.000000	57.098897
1191.000000	57.071441
1190.000000	57.042082
1189.000000	56.994068
1188.000000	56.992685
1187.000000	56.998758
1186.000000	56.987058
1185.000000	57.001948
1184.000000	57.026061
1183.000000	57.055786
1182.000000	57.099690
1181.000000	57.153753
1180.000000	57.224604
1179.000000	57.286918
1178.000000	57.368101
1177.000000	57.452506
1176.000000	57.549774
1175.000000	57.651076
1174.000000	57.766320
1173.000000	57.898410
1172.000000	58.000965
1171.000000	58.110240
1170.000000	58.269553
1169.000000	58.409232
1168.000000	58.552606
1167.000000	58.709371
1166.000000	58.839492
1165.000000	58.981853
1164.000000	59.135026
1163.000000	59.288287
1162.000000	59.427871
1161.000000	59.578525
1160.000000	59.723852
1159.000000	59.856673
1158.000000	59.999558
1157.000000	60.135117
1156.000000	60.260533
1155.000000	60.393951
1154.000000	60.512799
1153.000000	60.616603
1152.000000	60.727583
1151.000000	60.836161
1150.000000	60.940384
1149.000000	61.021107
1148.000000	61.095457
1147.000000	61.188973
1146.000000	61.280872
1145.000000	61.370490
1144.000000	61.467461
1143.000000	61.555868
1142.000000	61.641704
1141.000000	61.732944
1140.000000	61.815228
1139.000000	61.890203
1138.000000	61.985580
1137.000000	62.072293
1136.000000	62.151205
1135.000000	62.235748
1134.000000	62.314606
1133.000000	62.370756
1132.000000	62.438491
1131.000000	62.507521
1130.000000	62.580415
1129.000000	62.629482
1128.000000	62.669473
1127.000000	62.712495
1126.000000	62.757093
1125.000000	62.810441
1124.000000	62.849036
1123.000000	62.879887
1122.000000	62.915142
1121.000000	62.955773
1120.000000	62.979078
1119.000000	62.999705
1118.000000	63.018969
1117.000000	63.025667
1116.000000	63.042703
1115.000000	63.069337
1114.000000	63.076460
1113.000000	63.084889
1112.000000	63.091798
1111.000000	63.102946
1110.000000	63.098655
1109.000000	63.099929
1108.000000	63.096716
1107.000000	63.101542
1106.000000	63.114452
1105.000000	63.138167
1104.000000	63.151906
1103.000000	63.150336
1102.000000	63.161114
1101.000000	63.172487
1100.000000	63.163364
1099.000000	63.149225
1098.000000	63.152139
1097.000000	63.166342
1096.000000	63.162601
1095.000000	63.163744
1094.000000	63.164062
1093.000000	63.165104
1092.000000	63.174205
1091.000000	63.150309
1090.000000	63.136578
1089.000000	63.141143
1088.000000	63.135145
1087.000000	63.153106
1086.000000	63.164344
1085.000000	63.133883
1084.000000	63.156250
1083.000000	63.115617
1082.000000	63.115815
1081.000000	63.124804
1080.000000	63.114447
1079.000000	63.096665
1078.000000	63.076146
1077.000000	63.066547
1076.000000	63.056246
1075.000000	63.068527
1074.000000	63.037727
1073.000000	63.045641
1072.000000	63.043327
1071.000000	62.986191
1070.000000	62.996401
1069.000000	62.982016
1068.000000	62.964590
1067.000000	62.951482
1066.000000	62.934150
1065.000000	62.945139
1064.000000	62.930482
1063.000000	62.886601
1062.000000	62.874876
1061.000000	62.865575
1060.000000	62.838368
1059.000000	62.839112
1058.000000	62.819442
1057.000000	62.787959
1056.000000	62.779282
1055.000000	62.768740
1054.000000	62.746727
1053.000000	62.738404
1052.000000	62.721012
1051.000000	62.678284
1050.000000	62.689273
1049.000000	62.667130
1048.000000	62.654597
1047.000000	62.620565
1046.000000	62.617042
1045.000000	62.625626
1044.000000	62.617492
1043.000000	62.620555
1042.000000	62.588402
1041.000000	62.573630
1040.000000	62.566604
1039.000000	62.575812
1038.000000	62.539216
1037.000000	62.531423
1036.000000	62.542887
1035.000000	62.532829
1034.000000	62.507921
1033.000000	62.515874
1032.000000	62.520373
1031.000000	62.518495
1030.000000	62.491204
1029.000000	62.500491
1028.000000	62.501031
1027.000000	62.511624
1026.000000	62.484698
1025.000000	62.481009
1024.000000	62.479362
1023.000000	62.469316
1022.000000	62.483395
1021.000000	62.491668
1020.000000	62.503663
1019.000000	62.487841
1018.000000	62.486486
1017.000000	62.497052
1016.000000	62.508294
1015.000000	62.510064
1014.000000	62.542675
1013.000000	62.550715
1012.000000	62.554143
1011.000000	62.556586
1010.000000	62.562358
1009.000000	62.590612
1008.000000	62.598117
1007.000000	62.593018
1006.000000	62.621645
1005.000000	62.641509
1004.000000	62.653700
1003.000000	62.657957
1002.000000	62.662906
1001.000000	62.682844
1000.000000	62.695882
999.000000	62.714280
998.000000	62.723937
997.000000	62.742979
996.000000	62.739423
995.000000	62.763002
994.000000	62.779560
993.000000	62.809806
992.000000	62.810502
991.000000	62.808106
990.000000	62.805940
989.000000	62.824122
988.000000	62.840128
987.000000	62.850906
986.000000	62.867609
985.000000	62.865461
984.000000	62.885298
983.000000	62.893517
982.000000	62.900016
981.000000	62.916945
980.000000	62.938809
979.000000	62.937167
978.000000	62.951778
977.000000	62.973633
976.000000	62.974131
975.000000	62.993228
974.000000	62.997836
973.000000	63.016949
972.000000	63.021442
971.000000	63.025621
970.000000	63.037864
969.000000	63.047312
968.000000	63.059750
967.000000	63.076300
966.000000	63.072800
965.000000	63.104560
964.000000	63.121119
963.000000	63.132906
962.000000	63.128302
961.000000	63.126472
960.000000	63.147843
959.000000	63.155792
958.000000	63.172278
957.000000	63.179466
956.000000	63.191867
955.000000	63.183197
954.000000	63.182059
953.000000	63.203975
952.000000	63.200418
951.000000	63.200038
950.000000	63.215379
949.000000	63.230903
948.000000	63.235847
947.000000	63.238268
946.000000	63.226633
945.000000	63.223939
944.000000	63.210742
943.000000	63.194314
942.000000	63.206554
941.000000	63.220109
940.000000	63.222167
939.000000	63.213123
938.000000	63.208528
937.000000	63.203551
936.000000	63.193131
935.000000	63.194289
934.000000	63.201040
933.000000	63.184404
932.000000	63.169751
931.000000	63.152510
930.000000	63.127574
929.000000	63.111710
928.000000	63.112075
927.000000	63.133030
926.000000	63.133675
925.000000	63.102044
924.000000	63.074950
923.000000	63.077084
922.000000	63.071297
921.000000	63.048856
920.000000	63.037755
919.000000	63.043219
918.000000	63.070171
917.000000	63.053459
916.000000	62.989324
915.000000	62.989509
914.000000	62.978667
913.000000	62.967965
912.000000	62.964126
911.000000	62.988951
910.000000	62.975116
909.000000	62.936530
908.000000	62.934912
907.000000	62.919018
906.000000	62.897033
905.000000	62.972867
904.000000	62.971103
903.000000	62.967898
902.000000	62.947928
901.000000	62.980716
900.000000	62.938737
899.000000	62.913063
898.000000	63.015355
897.000000	63.043176
896.000000	62.976346
895.000000	63.008982
894.000000	63.009776
893.000000	63.019548
892.000000	63.025121
891.000000	63.067870
890.000000	63.090721
889.000000	63.123947
888.000000	63.104801
887.000000	63.051891
886.000000	63.116578
885.000000	63.087532
884.000000	63.068101
883.000000	63.104291
882.000000	63.127846
881.000000	63.067734
880.000000	63.082936
879.000000	63.023697
878.000000	63.059651
877.000000	62.978668
876.000000	63.053065
875.000000	63.013105
874.000000	63.062236
873.000000	63.102755
872.000000	63.022361
871.000000	63.069188
870.000000	63.026001
869.000000	62.975907
868.000000	63.075119
867.000000	63.012425
866.000000	63.068337
865.000000	62.926973
864.000000	63.078658
863.000000	62.950322
862.000000	62.848814
861.000000	62.865383
860.000000	62.949554
859.000000	62.513640
858.000000	62.244651
857.000000	62.268284
856.000000	62.669309
855.000000	62.745088
854.000000	62.813485
853.000000	62.666939
852.000000	62.648693
851.000000	62.493898
850.000000	62.690485
849.000000	62.535552
848.000000	62.410887
847.000000	62.382532
846.000000	62.383595
845.000000	62.449216
844.000000	62.329643
843.000000	62.535074
842.000000	62.386516
841.000000	62.368205
840.000000	62.248497
839.000000	62.503352
838.000000	62.447018
837.000000	62.379464
836.000000	62.473063
835.000000	62.474279
834.000000	62.282541
833.000000	62.222134
832.000000	62.243395
831.000000	62.215789
830.000000	62.160790
829.000000	62.119311
828.000000	62.217317
827.000000	62.257665
826.000000	62.215833
825.000000	62.125420
824.000000	62.127374
823.000000	62.045113
822.000000	61.977501
821.000000	62.052858
820.000000	61.917335
819.000000	62.157052
818.000000	62.092622
817.000000	62.087451
816.000000	62.043398
815.000000	62.027886
814.000000	61.991766
813.000000	61.982800
812.000000	62.058573
811.000000	61.913465
810.000000	62.050885
809.000000	61.908336
808.000000	61.898710
807.000000	61.817947
806.000000	61.798933
805.000000	61.771482
804.000000	61.834084
803.000000	61.720856
802.000000	61.786933
801.000000	61.894036
800.000000	61.673716
799.000000	61.585335
798.000000	61.688847
797.000000	61.601086
796.000000	61.791418
795.000000	61.667861
794.000000	61.654693
793.000000	61.676609
792.000000	61.549254
791.000000	61.584161
790.000000	61.523999
789.000000	61.569397
788.000000	61.566511
787.000000	61.588999
786.000000	61.563761
785.000000	61.555971
784.000000	61.436057
783.000000	61.509080
782.000000	61.464575
781.000000	61.383250
780.000000	61.324030
779.000000	61.298705
778.000000	61.242410
777.000000	61.305115
776.000000	61.258714
775.000000	61.312329
774.000000	61.274042
773.000000	61.152920
772.000000	61.120129
771.000000	61.144055
770.000000	61.153268
769.000000	61.134006
768.000000	61.102809
767.000000	61.109940
766.000000	61.057941
765.000000	61.000488
764.000000	61.004594
763.000000	60.869414
762.000000	60.902422
761.000000	60.986170
760.000000	60.924457
759.000000	60.802569
758.000000	60.720367
757.000000	60.753686
756.000000	60.766263
755.000000	60.718213
754.000000	60.688422
753.000000	60.646917
752.000000	60.735821
751.000000	60.615037
750.000000	60.514585
749.000000	60.531326
748.000000	60.481301
747.000000	60.480962
746.000000	60.488285
745.000000	60.416447
744.000000	60.384087
743.000000	60.293376
742.000000	60.251485
741.000000	60.258960
740.000000	60.245300
739.000000	60.235524
738.000000	60.229662
737.000000	60.222384
736.000000	60.146142
735.000000	60.094479
734.000000	60.107171
733.000000	60.016025
732.000000	59.985656
731.000000	59.955234
730.000000	59.902083
729.000000	59.889603
728.000000	59.866659
727.000000	59.872979
726.000000	59.779122
725.000000	59.753875
724.000000	59.730461
723.000000	59.689405
722.000000	59.658067
721.000000	59.658718
720.000000	59.627990
719.000000	59.542431
718.000000	59.482522
717.000000	59.477194
716.000000	59.403985
715.000000	59.368333
714.000000	59.356579
713.000000	59.320940
712.000000	59.287423
711.000000	59.269647
710.000000	59.246549
709.000000	59.189637
708.000000	59.100911
707.000000	59.103057
706.000000	59.036831
705.000000	58.963244
704.000000	58.960072
703.000000	58.929437
702.000000	58.873205
701.000000	58.806824
700.000000	58.744118
699.000000	58.695618
698.000000	58.708028
697.000000	58.673553
696.000000	58.651254
695.000000	58.628099
694.000000	58.538118
693.000000	58.440994
692.000000	58.398321
691.000000	58.406356
690.000000	58.373672
689.000000	58.307796
688.000000	58.205507
687.000000	58.113116
686.000000	58.094886
685.000000	58.051500
684.000000	58.010709
683.000000	57.934639
682.000000	57.887180
681.000000	57.885780
680.000000	57.873047
679.000000	57.832059
678.000000	57.728551
677.000000	57.694055
676.000000	57.643164
675.000000	57.538447
674.000000	57.492742
673.000000	57.470046
672.000000	57.442761
671.000000	57.405193
670.000000	57.337254
669.000000	57.256603
668.000000	57.209262
667.000000	57.158456
666.000000	57.106298
665.000000	57.071139
664.000000	57.045626
663.000000	57.005374
662.000000	56.910583
661.000000	56.815888
660.000000	56.763160
659.000000	56.782868
658.000000	56.691778
657.000000	56.689924
656.000000	56.609465
655.000000	56.515369
654.000000	56.499684
653.000000	56.490177
652.000000	56.390664
651.000000	56.324921
650.000000	56.265376
649.000000	56.256778
648.000000	56.191169
647.000000	56.128707
646.000000	56.058195
645.000000	56.041985
644.000000	55.846918
643.000000	55.838549
642.000000	55.804209
641.000000	55.757587
640.000000	55.667216
639.000000	55.607882
638.000000	55.554724
637.000000	55.501207
636.000000	55.476079
635.000000	55.389539
634.000000	55.372090
633.000000	55.304044
632.000000	55.194196
631.000000	55.133934
630.000000	55.039200
629.000000	54.972814
628.000000	54.951963
627.000000	54.900344
626.000000	54.824346
625.000000	54.790931
624.000000	54.701244
623.000000	54.659129
622.000000	54.516133
621.000000	54.488579
620.000000	54.394847
619.000000	54.352601
618.000000	54.315197
617.000000	54.233178
616.000000	54.183577
615.000000	54.078245
614.000000	54.049351
613.000000	53.997645
612.000000	53.890603
611.000000	53.856816
610.000000	53.756760
609.000000	53.616020
608.000000	53.637457
607.000000	53.541575
606.000000	53.476883
605.000000	53.381418
604.000000	53.341951
603.000000	53.270364
602.000000	53.134253
601.000000	53.085254
600.000000	53.010807
599.000000	52.941307
598.000000	52.850131
597.000000	52.765762
596.000000	52.705588
595.000000	52.661858
594.000000	52.543868
593.000000	52.558981
592.000000	52.392698
591.000000	52.352519
590.000000	52.268076
589.000000	52.249503
588.000000	52.123852
587.000000	52.102199
586.000000	51.964052
585.000000	51.884245
584.000000	51.840185
583.000000	51.709671
582.000000	51.664413
581.000000	51.569078
580.000000	51.473899
579.000000	51.434268
578.000000	51.291276
577.000000	51.268722
576.000000	51.211821
575.000000	51.078195
574.000000	50.957099
573.000000	50.949445
572.000000	50.782362
571.000000	50.748250
570.000000	50.643727
569.000000	50.550010
568.000000	50.503873
567.000000	50.396512
566.000000	50.300138
565.000000	50.211428
564.000000	50.132242
563.000000	50.043461
562.000000	49.952997
561.000000	49.896702
560.000000	49.772721
559.000000	49.726498
558.000000	49.629342
557.000000	49.527431
556.000000	49.444532
555.000000	49.414481
554.000000	49.259975
553.000000	49.188362
552.000000	49.113637
551.000000	49.030029
550.000000	48.938890
549.000000	48.869856
548.000000	48.697414
547.000000	48.619858
546.000000	48.532127
545.000000	48.453181
544.000000	48.329155
543.000000	48.242473
542.000000	48.129367
541.000000	48.036258
540.000000	47.908211
539.000000	47.826018
538.000000	47.699193
537.000000	47.572163
536.000000	47.479911
535.000000	47.380407
534.000000	47.267035
533.000000	47.141820
532.000000	47.035642
531.000000	46.959150
530.000000	46.830405
529.000000	46.713451
528.000000	46.605451
527.000000	46.507861
526.000000	46.395582
525.000000	46.271357
524.000000	46.156223
523.000000	46.034157
522.000000	45.924771
521.000000	45.828328
520.000000	45.699961
519.000000	45.571904
518.000000	45.455318
517.000000	45.366642
516.000000	45.224370
515.000000	45.131524
514.000000	45.008851
513.000000	44.869854
512.000000	44.728068
511.000000	44.621208
510.000000	44.482792
509.000000	44.366394
508.000000	44.225441
507.000000	44.079825
506.000000	43.944149
505.000000	43.824628
504.000000	43.676066
503.000000	43.549018
502.000000	43.410709
501.000000	43.263426
500.000000	43.126376
499.000000	43.018680
498.000000	42.881323
497.000000	42.715800
496.000000	42.554888
495.000000	42.382191
494.000000	42.228105
493.000000	42.087424
492.000000	41.955324
491.000000	41.813853
490.000000	41.631016
489.000000	41.467096
488.000000	41.323516
487.000000	41.146883
486.000000	40.962309
485.000000	40.802366
484.000000	40.661985
483.000000	40.503483
482.000000	40.291928
481.000000	40.150952
480.000000	39.977241
479.000000	39.811569
478.000000	39.636604
477.000000	39.447108
476.000000	39.272975
475.000000	39.098997
474.000000	38.907969
473.000000	38.734405
472.000000	38.576168
471.000000	38.383607
470.000000	38.192273
469.000000	38.008127
468.000000	37.813298
467.000000	37.638560
466.000000	37.488982
465.000000	37.304100
464.000000	37.093976
463.000000	36.889747
462.000000	36.707933
461.000000	36.521697
460.000000	36.316685
459.000000	36.078961
458.000000	35.865772
457.000000	35.676930
456.000000	35.447098
455.000000	35.230871
454.000000	35.004832
453.000000	34.779842
452.000000	34.562190
451.000000	34.352762
450.000000	34.115442
449.000000	33.894563
448.000000	33.679334
447.000000	33.435801
446.000000	33.205206
445.000000	33.007701
444.000000	32.771039
443.000000	32.535638
442.000000	32.340634
441.000000	32.108985
440.000000	31.908865
439.000000	31.671262
438.000000	31.397301
437.000000	31.186417
436.000000	30.937226
435.000000	30.662126
434.000000	30.447422
433.000000	30.198465
432.000000	29.947347
431.000000	29.729900
430.000000	29.493384
429.000000	29.227736
428.000000	28.975059
427.000000	28.719938
426.000000	28.473929
425.000000	28.234084
424.000000	27.979346
423.000000	27.741532
422.000000	27.492257
421.000000	27.275922
420.000000	27.063104
419.000000	26.817621
418.000000	26.571782
417.000000	26.410733
416.000000	26.233211
415.000000	26.022239
414.000000	25.836480
413.000000	25.664650
412.000000	25.554595
411.000000	25.405124
410.000000	25.240924
409.000000	25.072741
408.000000	24.951357
407.000000	24.866115
406.000000	24.745838
405.000000	24.578487
404.000000	24.464269
403.000000	24.356883
402.000000	24.232506
401.000000	24.108451
400.000000	23.932183
399.000000	23.829157
398.000000	23.685747
397.000000	23.535318
396.000000	23.416241
395.000000	23.271603
394.000000	23.102883
393.000000	22.972693
392.000000	22.793395
391.000000	22.639727
390.000000	22.498152
389.000000	22.317441
388.000000	22.165869
387.000000	21.992097
386.000000	21.812691
385.000000	21.641685
384.000000	21.461209
383.000000	21.312880
382.000000	21.142183
381.000000	20.979955
380.000000	20.828283
379.000000	20.568551
378.000000	20.383097
377.000000	20.190000
376.000000	20.116794
375.000000	19.949627
374.000000	19.765825
373.000000	19.603945
372.000000	19.496444
371.000000	19.212111
370.000000	19.058241
369.000000	18.987929
368.000000	18.831926
367.000000	18.616378
366.000000	18.518123
365.000000	18.326079
364.000000	18.190653
363.000000	18.065606
362.000000	17.894030
361.000000	17.754368
360.000000	17.668672
359.000000	17.441882
358.000000	17.305161
357.000000	17.157065
356.000000	17.118840
355.000000	16.978954
354.000000	16.795781
353.000000	16.679046
352.000000	16.516069
351.000000	16.394601
350.000000	16.313133
349.000000	16.065112
348.000000	15.927306
347.000000	15.908870
346.000000	15.707353
345.000000	15.596464
344.000000	15.525767
343.000000	15.298641
342.000000	15.251776
341.000000	15.043336
340.000000	14.932279
339.000000	14.788660
338.000000	14.690409
337.000000	14.593840
336.000000	14.378572
335.000000	14.178650
334.000000	14.106014
333.000000	13.979567
332.000000	13.898124
331.000000	13.752502
330.000000	13.574646
329.000000	13.456014
328.000000	13.323665
327.000000	13.153579
326.000000	13.140769
325.000000	13.108952
324.000000	12.954598
323.000000	12.949352
322.000000	12.768299
321.000000	12.647481
320.000000	12.494763
319.000000	12.432472
318.000000	12.328147
317.000000	12.273523
316.000000	12.258062
315.000000	12.217255
314.000000	11.992170
313.000000	11.981026
312.000000	11.908032
311.000000	11.706341
310.000000	11.683390
309.000000	11.605454
308.000000	11.473903
307.000000	11.367100
306.000000	11.238396
305.000000	11.101287
304.000000	10.923095
303.000000	10.842741
302.000000	10.688909
301.000000	10.559783
300.000000	10.511233
299.000000	10.395872
298.000000	10.324752
297.000000	10.276831
296.000000	10.231328
295.000000	10.179597
294.000000	10.177345
293.000000	10.200380
292.000000	10.203742
291.000000	10.240583
290.000000	10.276365
289.000000	10.311873
288.000000	10.279661
287.000000	10.251266
286.000000	10.356989
285.000000	10.450732
284.000000	10.455384
283.000000	10.536650
282.000000	10.652236
281.000000	10.680547
280.000000	10.765064
279.000000	10.842333
278.000000	10.883880
277.000000	10.969161
276.000000	10.965951
275.000000	11.049284
274.000000	11.075813
273.000000	11.156489
272.000000	11.259218
271.000000	11.321907
270.000000	11.357025
269.000000	11.345336
268.000000	11.412563
267.000000	11.516464
266.000000	11.529997
265.000000	11.632254
264.000000	11.645541
263.000000	11.742938
262.000000	11.837992
261.000000	11.903300
260.000000	11.979223
259.000000	12.060763
258.000000	12.128510
257.000000	12.213349
256.000000	12.270506
255.000000	12.373373
254.000000	12.497610
253.000000	12.612114
252.000000	12.666269
251.000000	12.757758
250.000000	12.923667
249.000000	13.002463
248.000000	13.105390
247.000000	13.236685
246.000000	13.354904
245.000000	13.487597
244.000000	13.591430
243.000000	13.761927
242.000000	13.936677
241.000000	14.087241
240.000000	14.307809
239.000000	14.585054
238.000000	14.870589
237.000000	15.196770
236.000000	15.607096
235.000000	16.012739
234.000000	16.406982
233.000000	16.720361
232.000000	16.974411
231.000000	17.183712
230.000000	17.370115
229.000000	17.530066
228.000000	17.620334
227.000000	17.716879
226.000000	17.877931
225.000000	17.975850
224.000000	18.074509
223.000000	18.171940
222.000000	18.278701
221.000000	18.491238
220.000000	18.667623
219.000000	18.733969
218.000000	18.978209
217.000000	19.313715
216.000000	19.540333
215.000000	19.761698
214.000000	20.194668
213.000000	20.606249
212.000000	20.881412
211.000000	21.283594
210.000000	21.698209
209.000000	22.001117
208.000000	22.497012
207.000000	23.117379
206.000000	23.749118
205.000000	24.549275
204.000000	25.395643
203.000000	26.064519
202.000000	26.450256
201.000000	27.451299
200.000000	28.567711
