PE UV       SUBTECH     SPECTRUM    ASCII       PEDS        4.00        
   -1
RTVeauAl 22.Sample.asc
18/03/02
14:24:23.00
18/03/02
14:24:23.00
Administrator

200.000000
1
Lambda 750
750N8071901
PerkinElmer UV WinLab 6.0.4.0738 / 1.61.00 Lambda 900

0
0
3350/servo 860.8/2
0
0
UV/VIS
1
1
1
CommonBeamDepol,150mm sphere / downward view
0
0
0
0
Program
Program
3350/servo 860.8/2
3350/0.2 860.8/0.2
3350/0.2 860.8/0.2
0
1
 
 
 
0
 
860.8
319.2
860.8
Front
100
on
 
 
0
0
0
 
0
 
 
 
0
 
 
0
0
0
0
0
 
 
 
 
0
0


0
0
#HDR
-1
-1
#GR
nm
%R
1.0
0.0
2350.000000
-1.000000
2151
8
66.540145
16.008065
#DATA
2350.000000	30.886254
2349.000000	30.573448
2348.000000	30.276875
2347.000000	31.328348
2346.000000	31.002936
2345.000000	30.916398
2344.000000	31.024666
2343.000000	30.604275
2342.000000	30.589599
2341.000000	31.065944
2340.000000	31.076747
2339.000000	31.225421
2338.000000	31.526553
2337.000000	31.046495
2336.000000	31.287457
2335.000000	31.588955
2334.000000	31.694012
2333.000000	31.673492
2332.000000	31.841014
2331.000000	31.352908
2330.000000	31.215286
2329.000000	31.431181
2328.000000	31.284032
2327.000000	31.093316
2326.000000	31.242718
2325.000000	31.189479
2324.000000	31.064354
2323.000000	31.361956
2322.000000	31.248410
2321.000000	30.833188
2320.000000	30.906757
2319.000000	31.060801
2318.000000	31.154158
2317.000000	31.172081
2316.000000	30.692979
2315.000000	30.700421
2314.000000	30.638623
2313.000000	30.551167
2312.000000	30.665401
2311.000000	30.622555
2310.000000	30.582801
2309.000000	30.602916
2308.000000	30.373594
2307.000000	30.267834
2306.000000	30.239430
2305.000000	30.330870
2304.000000	30.309555
2303.000000	30.188870
2302.000000	30.087823
2301.000000	29.836775
2300.000000	29.768898
2299.000000	29.710667
2298.000000	29.768502
2297.000000	29.673082
2296.000000	29.533641
2295.000000	29.518998
2294.000000	29.372873
2293.000000	29.327199
2292.000000	29.178841
2291.000000	29.120138
2290.000000	29.121334
2289.000000	29.200937
2288.000000	29.240217
2287.000000	29.034397
2286.000000	28.810982
2285.000000	28.782721
2284.000000	28.855784
2283.000000	28.899776
2282.000000	28.770705
2281.000000	29.000763
2280.000000	28.900913
2279.000000	28.799744
2278.000000	28.869110
2277.000000	28.793717
2276.000000	28.651149
2275.000000	28.731691
2274.000000	28.815286
2273.000000	28.817257
2272.000000	28.992296
2271.000000	29.149697
2270.000000	29.155823
2269.000000	29.081655
2268.000000	29.280484
2267.000000	29.327498
2266.000000	29.296091
2265.000000	29.399458
2264.000000	29.544975
2263.000000	29.601256
2262.000000	29.659110
2261.000000	29.794829
2260.000000	30.024602
2259.000000	30.116997
2258.000000	30.177198
2257.000000	30.408279
2256.000000	30.528552
2255.000000	30.775343
2254.000000	30.961133
2253.000000	30.930037
2252.000000	31.130369
2251.000000	31.482983
2250.000000	31.701695
2249.000000	31.899395
2248.000000	32.029033
2247.000000	32.228861
2246.000000	32.388854
2245.000000	32.555415
2244.000000	32.743151
2243.000000	32.890529
2242.000000	33.094105
2241.000000	33.147568
2240.000000	33.253570
2239.000000	33.422315
2238.000000	33.514535
2237.000000	33.653449
2236.000000	33.769919
2235.000000	33.787980
2234.000000	33.823414
2233.000000	34.000926
2232.000000	34.071865
2231.000000	34.105764
2230.000000	34.142802
2229.000000	34.169424
2228.000000	34.279478
2227.000000	34.356880
2226.000000	34.416147
2225.000000	34.295173
2224.000000	34.161739
2223.000000	34.086155
2222.000000	34.199110
2221.000000	34.205014
2220.000000	34.123523
2219.000000	34.102284
2218.000000	34.135773
2217.000000	34.096238
2216.000000	34.037264
2215.000000	33.984035
2214.000000	33.953623
2213.000000	33.936588
2212.000000	33.993646
2211.000000	33.890348
2210.000000	33.745428
2209.000000	33.687266
2208.000000	33.658110
2207.000000	33.523453
2206.000000	33.544237
2205.000000	33.431150
2204.000000	33.491174
2203.000000	33.446583
2202.000000	33.178095
2201.000000	33.180297
2200.000000	33.032978
2199.000000	32.965447
2198.000000	33.009878
2197.000000	32.955113
2196.000000	32.939273
2195.000000	32.792888
2194.000000	32.735365
2193.000000	32.650269
2192.000000	32.571468
2191.000000	32.492330
2190.000000	32.502466
2189.000000	32.439372
2188.000000	32.251568
2187.000000	32.259538
2186.000000	32.428689
2185.000000	32.396972
2184.000000	32.311116
2183.000000	32.199921
2182.000000	32.224432
2181.000000	32.260662
2180.000000	32.159930
2179.000000	32.088753
2178.000000	32.042339
2177.000000	32.150376
2176.000000	32.205667
2175.000000	32.108098
2174.000000	32.219220
2173.000000	32.223977
2172.000000	32.157978
2171.000000	32.220111
2170.000000	32.198388
2169.000000	32.343914
2168.000000	32.435925
2167.000000	32.702238
2166.000000	32.643218
2165.000000	32.634892
2164.000000	32.745928
2163.000000	32.911023
2162.000000	33.047129
2161.000000	33.192270
2160.000000	33.357599
2159.000000	33.349198
2158.000000	33.500822
2157.000000	33.663492
2156.000000	33.767733
2155.000000	33.887567
2154.000000	34.148310
2153.000000	34.238310
2152.000000	34.410634
2151.000000	34.438769
2150.000000	34.648020
2149.000000	34.707976
2148.000000	34.749521
2147.000000	35.077008
2146.000000	35.069674
2145.000000	35.330223
2144.000000	35.445899
2143.000000	35.476570
2142.000000	35.806716
2141.000000	35.986254
2140.000000	35.979774
2139.000000	36.205784
2138.000000	36.378433
2137.000000	36.301702
2136.000000	36.539011
2135.000000	36.534081
2134.000000	36.637283
2133.000000	36.549471
2132.000000	36.890294
2131.000000	36.972153
2130.000000	37.093236
2129.000000	37.271099
2128.000000	37.076780
2127.000000	37.205724
2126.000000	37.323276
2125.000000	37.158474
2124.000000	37.428846
2123.000000	37.590020
2122.000000	37.437180
2121.000000	37.457707
2120.000000	37.567998
2119.000000	37.696992
2118.000000	37.568518
2117.000000	37.787702
2116.000000	37.849244
2115.000000	37.784799
2114.000000	37.689765
2113.000000	37.781373
2112.000000	37.979287
2111.000000	37.911217
2110.000000	37.832885
2109.000000	37.942354
2108.000000	38.082214
2107.000000	38.001159
2106.000000	38.066221
2105.000000	37.904567
2104.000000	38.038248
2103.000000	38.161279
2102.000000	38.143837
2101.000000	38.098731
2100.000000	38.143523
2099.000000	38.117305
2098.000000	38.031229
2097.000000	38.096281
2096.000000	38.087255
2095.000000	38.138404
2094.000000	38.267487
2093.000000	38.223791
2092.000000	38.161985
2091.000000	38.187210
2090.000000	38.108580
2089.000000	38.118421
2088.000000	38.180207
2087.000000	38.139163
2086.000000	38.113896
2085.000000	38.081639
2084.000000	37.874699
2083.000000	37.841479
2082.000000	37.844284
2081.000000	37.791516
2080.000000	37.707719
2079.000000	37.727179
2078.000000	37.674622
2077.000000	37.590645
2076.000000	37.532565
2075.000000	37.410532
2074.000000	37.307785
2073.000000	37.215336
2072.000000	37.120359
2071.000000	37.095388
2070.000000	36.979064
2069.000000	36.860990
2068.000000	36.654272
2067.000000	36.451549
2066.000000	36.333113
2065.000000	36.186993
2064.000000	36.116031
2063.000000	35.988330
2062.000000	35.776093
2061.000000	35.568639
2060.000000	35.424011
2059.000000	35.329382
2058.000000	35.207537
2057.000000	35.107375
2056.000000	35.003701
2055.000000	34.893000
2054.000000	34.740979
2053.000000	34.532307
2052.000000	34.428353
2051.000000	34.344538
2050.000000	34.185285
2049.000000	34.066975
2048.000000	34.021116
2047.000000	33.961250
2046.000000	33.903876
2045.000000	33.843437
2044.000000	33.746069
2043.000000	33.758197
2042.000000	33.777698
2041.000000	33.787870
2040.000000	33.778023
2039.000000	33.805216
2038.000000	33.853682
2037.000000	33.908609
2036.000000	33.951592
2035.000000	34.050084
2034.000000	34.198520
2033.000000	34.344984
2032.000000	34.466869
2031.000000	34.544728
2030.000000	34.665204
2029.000000	34.839098
2028.000000	34.983488
2027.000000	35.103581
2026.000000	35.231250
2025.000000	35.341939
2024.000000	35.457878
2023.000000	35.594897
2022.000000	35.680414
2021.000000	35.742643
2020.000000	35.857655
2019.000000	35.913036
2018.000000	35.937903
2017.000000	36.046195
2016.000000	36.092282
2015.000000	36.059967
2014.000000	36.095822
2013.000000	36.157811
2012.000000	36.113274
2011.000000	36.081215
2010.000000	36.097064
2009.000000	36.065758
2008.000000	36.048581
2007.000000	36.011401
2006.000000	35.945258
2005.000000	35.908832
2004.000000	35.839096
2003.000000	35.782792
2002.000000	35.708499
2001.000000	35.587697
2000.000000	35.561888
1999.000000	35.534050
1998.000000	35.419432
1997.000000	35.341692
1996.000000	35.256729
1995.000000	35.161449
1994.000000	35.052885
1993.000000	34.964876
1992.000000	34.885943
1991.000000	34.794298
1990.000000	34.741488
1989.000000	34.670220
1988.000000	34.553076
1987.000000	34.470315
1986.000000	34.374531
1985.000000	34.318312
1984.000000	34.199389
1983.000000	34.107033
1982.000000	34.033310
1981.000000	33.968925
1980.000000	33.874177
1979.000000	33.760665
1978.000000	33.682655
1977.000000	33.642704
1976.000000	33.527846
1975.000000	33.476934
1974.000000	33.388894
1973.000000	33.304592
1972.000000	33.257479
1971.000000	33.124988
1970.000000	33.086610
1969.000000	32.979337
1968.000000	32.898655
1967.000000	32.856846
1966.000000	32.786860
1965.000000	32.683770
1964.000000	32.602691
1963.000000	32.544880
1962.000000	32.469983
1961.000000	32.398010
1960.000000	32.332676
1959.000000	32.238179
1958.000000	32.147910
1957.000000	32.109561
1956.000000	32.046558
1955.000000	31.946574
1954.000000	31.932099
1953.000000	31.884297
1952.000000	31.815384
1951.000000	31.718059
1950.000000	31.669395
1949.000000	31.651404
1948.000000	31.569564
1947.000000	31.592069
1946.000000	31.589957
1945.000000	31.572463
1944.000000	31.516986
1943.000000	31.534673
1942.000000	31.615065
1941.000000	31.620584
1940.000000	31.672879
1939.000000	31.693845
1938.000000	31.720763
1937.000000	31.812694
1936.000000	31.899497
1935.000000	31.941231
1934.000000	32.006474
1933.000000	32.216011
1932.000000	32.349496
1931.000000	32.449566
1930.000000	32.584921
1929.000000	32.769224
1928.000000	32.896887
1927.000000	33.048255
1926.000000	33.164955
1925.000000	33.441309
1924.000000	33.648045
1923.000000	33.910223
1922.000000	34.161697
1921.000000	34.412830
1920.000000	34.602712
1919.000000	34.859666
1918.000000	35.200183
1917.000000	35.497079
1916.000000	35.675388
1915.000000	36.125797
1914.000000	36.483956
1913.000000	36.809648
1912.000000	37.101771
1911.000000	37.396529
1910.000000	37.792243
1909.000000	38.199042
1908.000000	38.554877
1907.000000	38.903830
1906.000000	39.286513
1905.000000	39.817185
1904.000000	40.239013
1903.000000	40.684982
1902.000000	41.154023
1901.000000	41.548514
1900.000000	42.029047
1899.000000	42.438494
1898.000000	42.955464
1897.000000	43.437505
1896.000000	43.822866
1895.000000	44.297733
1894.000000	44.750564
1893.000000	45.148557
1892.000000	45.620044
1891.000000	46.054311
1890.000000	46.475870
1889.000000	46.880349
1888.000000	47.260639
1887.000000	47.676285
1886.000000	48.038766
1885.000000	48.370991
1884.000000	48.762643
1883.000000	49.074638
1882.000000	49.368600
1881.000000	49.703576
1880.000000	50.019406
1879.000000	50.272582
1878.000000	50.514067
1877.000000	50.801214
1876.000000	51.028900
1875.000000	51.271728
1874.000000	51.484157
1873.000000	51.636067
1872.000000	51.856121
1871.000000	52.022989
1870.000000	52.153278
1869.000000	52.314916
1868.000000	52.397496
1867.000000	52.474667
1866.000000	52.577545
1865.000000	52.698528
1864.000000	52.792501
1863.000000	52.839963
1862.000000	52.939387
1861.000000	52.961864
1860.000000	53.032859
1859.000000	53.059894
1858.000000	53.098496
1857.000000	53.142978
1856.000000	53.176000
1855.000000	53.193448
1854.000000	53.230553
1853.000000	53.248455
1852.000000	53.226142
1851.000000	53.258992
1850.000000	53.291710
1849.000000	53.242877
1848.000000	53.242399
1847.000000	53.251105
1846.000000	53.219041
1845.000000	53.196227
1844.000000	53.182177
1843.000000	53.123141
1842.000000	53.108940
1841.000000	53.075358
1840.000000	53.038163
1839.000000	53.047923
1838.000000	53.038160
1837.000000	53.008740
1836.000000	52.963567
1835.000000	52.919457
1834.000000	52.887465
1833.000000	52.833647
1832.000000	52.786623
1831.000000	52.729662
1830.000000	52.699592
1829.000000	52.660947
1828.000000	52.608385
1827.000000	52.571364
1826.000000	52.543004
1825.000000	52.504983
1824.000000	52.501253
1823.000000	52.465316
1822.000000	52.393965
1821.000000	52.376592
1820.000000	52.341187
1819.000000	52.299143
1818.000000	52.281862
1817.000000	52.249641
1816.000000	52.201066
1815.000000	52.177112
1814.000000	52.144485
1813.000000	52.111990
1812.000000	52.075385
1811.000000	52.047091
1810.000000	52.027184
1809.000000	52.014323
1808.000000	51.990904
1807.000000	51.930493
1806.000000	51.907844
1805.000000	51.851405
1804.000000	51.807052
1803.000000	51.802251
1802.000000	51.780392
1801.000000	51.775570
1800.000000	51.747209
1799.000000	51.711322
1798.000000	51.684976
1797.000000	51.644060
1796.000000	51.613999
1795.000000	51.601169
1794.000000	51.587992
1793.000000	51.568455
1792.000000	51.531036
1791.000000	51.498308
1790.000000	51.473674
1789.000000	51.452732
1788.000000	51.438612
1787.000000	51.403024
1786.000000	51.359436
1785.000000	51.345356
1784.000000	51.316961
1783.000000	51.290896
1782.000000	51.254873
1781.000000	51.200049
1780.000000	51.159215
1779.000000	51.117399
1778.000000	51.058044
1777.000000	51.005076
1776.000000	50.944690
1775.000000	50.897230
1774.000000	50.833267
1773.000000	50.761183
1772.000000	50.699185
1771.000000	50.654378
1770.000000	50.602014
1769.000000	50.510006
1768.000000	50.457773
1767.000000	50.396578
1766.000000	50.346109
1765.000000	50.293032
1764.000000	50.236274
1763.000000	50.164062
1762.000000	50.126985
1761.000000	50.059048
1760.000000	49.966828
1759.000000	49.912828
1758.000000	49.876906
1757.000000	49.810668
1756.000000	49.745357
1755.000000	49.696211
1754.000000	49.607160
1753.000000	49.548674
1752.000000	49.498809
1751.000000	49.435103
1750.000000	49.352821
1749.000000	49.309209
1748.000000	49.244920
1747.000000	49.174015
1746.000000	49.123964
1745.000000	49.054263
1744.000000	48.982707
1743.000000	48.916686
1742.000000	48.848210
1741.000000	48.794952
1740.000000	48.746554
1739.000000	48.642759
1738.000000	48.614226
1737.000000	48.582098
1736.000000	48.545336
1735.000000	48.525992
1734.000000	48.513597
1733.000000	48.504665
1732.000000	48.483131
1731.000000	48.535790
1730.000000	48.522835
1729.000000	48.538004
1728.000000	48.599446
1727.000000	48.635972
1726.000000	48.699083
1725.000000	48.776637
1724.000000	48.863608
1723.000000	48.938653
1722.000000	49.011491
1721.000000	49.109440
1720.000000	49.270697
1719.000000	49.339545
1718.000000	49.414641
1717.000000	49.524691
1716.000000	49.628491
1715.000000	49.686377
1714.000000	49.804472
1713.000000	49.892359
1712.000000	49.976982
1711.000000	50.064832
1710.000000	50.116696
1709.000000	50.162266
1708.000000	50.209611
1707.000000	50.282789
1706.000000	50.289588
1705.000000	50.337174
1704.000000	50.362909
1703.000000	50.389446
1702.000000	50.387975
1701.000000	50.432197
1700.000000	50.447786
1699.000000	50.433404
1698.000000	50.501267
1697.000000	50.515240
1696.000000	50.569136
1695.000000	50.582524
1694.000000	50.638206
1693.000000	50.694109
1692.000000	50.720113
1691.000000	50.813384
1690.000000	50.899992
1689.000000	50.993138
1688.000000	51.089918
1687.000000	51.224017
1686.000000	51.344921
1685.000000	51.482282
1684.000000	51.666515
1683.000000	51.822263
1682.000000	51.977939
1681.000000	52.168011
1680.000000	52.339845
1679.000000	52.520116
1678.000000	52.711354
1677.000000	52.907556
1676.000000	53.100563
1675.000000	53.284832
1674.000000	53.487509
1673.000000	53.677672
1672.000000	53.860532
1671.000000	54.017044
1670.000000	54.216005
1669.000000	54.390623
1668.000000	54.520541
1667.000000	54.695412
1666.000000	54.783001
1665.000000	54.903697
1664.000000	55.011500
1663.000000	55.118668
1662.000000	55.209912
1661.000000	55.281520
1660.000000	55.369114
1659.000000	55.431787
1658.000000	55.522554
1657.000000	55.572092
1656.000000	55.602385
1655.000000	55.640307
1654.000000	55.681069
1653.000000	55.704028
1652.000000	55.743575
1651.000000	55.731344
1650.000000	55.730730
1649.000000	55.760829
1648.000000	55.753115
1647.000000	55.747400
1646.000000	55.740363
1645.000000	55.736871
1644.000000	55.711814
1643.000000	55.693948
1642.000000	55.674117
1641.000000	55.657067
1640.000000	55.639917
1639.000000	55.605661
1638.000000	55.565449
1637.000000	55.555139
1636.000000	55.516900
1635.000000	55.479956
1634.000000	55.443611
1633.000000	55.400598
1632.000000	55.353719
1631.000000	55.332342
1630.000000	55.290069
1629.000000	55.245506
1628.000000	55.201334
1627.000000	55.158423
1626.000000	55.124397
1625.000000	55.074952
1624.000000	55.030104
1623.000000	54.989445
1622.000000	54.933057
1621.000000	54.883986
1620.000000	54.839383
1619.000000	54.775634
1618.000000	54.717058
1617.000000	54.680630
1616.000000	54.624650
1615.000000	54.561202
1614.000000	54.511335
1613.000000	54.459159
1612.000000	54.398147
1611.000000	54.339670
1610.000000	54.286797
1609.000000	54.239398
1608.000000	54.165763
1607.000000	54.085257
1606.000000	54.021449
1605.000000	53.971733
1604.000000	53.921421
1603.000000	53.857421
1602.000000	53.790138
1601.000000	53.728874
1600.000000	53.671940
1599.000000	53.608587
1598.000000	53.543966
1597.000000	53.485220
1596.000000	53.426528
1595.000000	53.365346
1594.000000	53.310449
1593.000000	53.251526
1592.000000	53.191168
1591.000000	53.151558
1590.000000	53.098991
1589.000000	53.037374
1588.000000	53.002851
1587.000000	52.957017
1586.000000	52.897365
1585.000000	52.858432
1584.000000	52.811538
1583.000000	52.759426
1582.000000	52.708964
1581.000000	52.656250
1580.000000	52.614983
1579.000000	52.588951
1578.000000	52.550336
1577.000000	52.490771
1576.000000	52.446230
1575.000000	52.415677
1574.000000	52.360479
1573.000000	52.302938
1572.000000	52.271072
1571.000000	52.224341
1570.000000	52.188949
1569.000000	52.153834
1568.000000	52.121059
1567.000000	52.084859
1566.000000	52.046835
1565.000000	52.019609
1564.000000	51.997614
1563.000000	51.973745
1562.000000	51.947978
1561.000000	51.927120
1560.000000	51.895963
1559.000000	51.872180
1558.000000	51.847107
1557.000000	51.838410
1556.000000	51.819852
1555.000000	51.799638
1554.000000	51.788325
1553.000000	51.767844
1552.000000	51.737046
1551.000000	51.717752
1550.000000	51.674636
1549.000000	51.643663
1548.000000	51.603903
1547.000000	51.549943
1546.000000	51.499041
1545.000000	51.441241
1544.000000	51.381852
1543.000000	51.303504
1542.000000	51.243564
1541.000000	51.159052
1540.000000	51.068131
1539.000000	50.991473
1538.000000	50.898114
1537.000000	50.802834
1536.000000	50.714884
1535.000000	50.624806
1534.000000	50.515993
1533.000000	50.434914
1532.000000	50.340332
1531.000000	50.249299
1530.000000	50.177156
1529.000000	50.088679
1528.000000	50.004404
1527.000000	49.933578
1526.000000	49.859461
1525.000000	49.783172
1524.000000	49.699530
1523.000000	49.643326
1522.000000	49.592167
1521.000000	49.527994
1520.000000	49.485040
1519.000000	49.422760
1518.000000	49.370319
1517.000000	49.330691
1516.000000	49.276092
1515.000000	49.214105
1514.000000	49.202815
1513.000000	49.162852
1512.000000	49.146001
1511.000000	49.129177
1510.000000	49.132568
1509.000000	49.178686
1508.000000	49.154005
1507.000000	49.143575
1506.000000	49.136708
1505.000000	49.082900
1504.000000	49.076085
1503.000000	49.038916
1502.000000	49.027206
1501.000000	49.021059
1500.000000	49.028606
1499.000000	49.029162
1498.000000	49.031675
1497.000000	49.035410
1496.000000	49.066615
1495.000000	49.072449
1494.000000	49.122400
1493.000000	49.141697
1492.000000	49.199118
1491.000000	49.252797
1490.000000	49.312125
1489.000000	49.369882
1488.000000	49.413981
1487.000000	49.482594
1486.000000	49.559135
1485.000000	49.612726
1484.000000	49.701484
1483.000000	49.779881
1482.000000	49.858438
1481.000000	49.963818
1480.000000	50.039370
1479.000000	50.149235
1478.000000	50.209442
1477.000000	50.308693
1476.000000	50.392316
1475.000000	50.475978
1474.000000	50.573859
1473.000000	50.636940
1472.000000	50.752588
1471.000000	50.842285
1470.000000	50.944313
1469.000000	50.984690
1468.000000	51.061986
1467.000000	51.111959
1466.000000	51.177165
1465.000000	51.236521
1464.000000	51.337945
1463.000000	51.376869
1462.000000	51.433253
1461.000000	51.480589
1460.000000	51.556694
1459.000000	51.652848
1458.000000	51.686968
1457.000000	51.741627
1456.000000	51.813888
1455.000000	51.894345
1454.000000	51.945335
1453.000000	52.003105
1452.000000	52.048761
1451.000000	52.125029
1450.000000	52.220262
1449.000000	52.288504
1448.000000	52.340959
1447.000000	52.405199
1446.000000	52.483464
1445.000000	52.563414
1444.000000	52.661663
1443.000000	52.747140
1442.000000	52.809221
1441.000000	52.887965
1440.000000	52.962355
1439.000000	53.058191
1438.000000	53.159595
1437.000000	53.255755
1436.000000	53.335155
1435.000000	53.426184
1434.000000	53.525496
1433.000000	53.624665
1432.000000	53.741691
1431.000000	53.841281
1430.000000	53.951083
1429.000000	54.064353
1428.000000	54.185971
1427.000000	54.314145
1426.000000	54.435885
1425.000000	54.570270
1424.000000	54.711601
1423.000000	54.857785
1422.000000	54.992081
1421.000000	55.151674
1420.000000	55.309187
1419.000000	55.454893
1418.000000	55.608282
1417.000000	55.769826
1416.000000	55.940615
1415.000000	56.115499
1414.000000	56.276939
1413.000000	56.436151
1412.000000	56.616666
1411.000000	56.787509
1410.000000	56.968521
1409.000000	57.140707
1408.000000	57.309954
1407.000000	57.470698
1406.000000	57.638012
1405.000000	57.812353
1404.000000	57.964546
1403.000000	58.120770
1402.000000	58.289568
1401.000000	58.448543
1400.000000	58.604407
1399.000000	58.754764
1398.000000	58.899316
1397.000000	59.051119
1396.000000	59.185934
1395.000000	59.317594
1394.000000	59.463342
1393.000000	59.598476
1392.000000	59.714435
1391.000000	59.842277
1390.000000	59.953876
1389.000000	60.059065
1388.000000	60.178988
1387.000000	60.316010
1386.000000	60.455912
1385.000000	60.559823
1384.000000	60.637899
1383.000000	60.748194
1382.000000	60.838683
1381.000000	60.905712
1380.000000	60.985853
1379.000000	61.071581
1378.000000	61.141408
1377.000000	61.206370
1376.000000	61.273463
1375.000000	61.323783
1374.000000	61.379760
1373.000000	61.424810
1372.000000	61.481218
1371.000000	61.548104
1370.000000	61.590425
1369.000000	61.623741
1368.000000	61.657860
1367.000000	61.710875
1366.000000	61.764860
1365.000000	61.823013
1364.000000	61.889409
1363.000000	61.943941
1362.000000	61.989451
1361.000000	62.050402
1360.000000	62.110180
1359.000000	62.192766
1358.000000	62.268473
1357.000000	62.317936
1356.000000	62.369165
1355.000000	62.428682
1354.000000	62.511002
1353.000000	62.573798
1352.000000	62.634595
1351.000000	62.691588
1350.000000	62.762992
1349.000000	62.826578
1348.000000	62.871329
1347.000000	62.941475
1346.000000	63.004756
1345.000000	63.053124
1344.000000	63.109840
1343.000000	63.160293
1342.000000	63.225941
1341.000000	63.295075
1340.000000	63.368377
1339.000000	63.395692
1338.000000	63.442534
1337.000000	63.462947
1336.000000	63.503936
1335.000000	63.547227
1334.000000	63.591345
1333.000000	63.639090
1332.000000	63.687761
1331.000000	63.705479
1330.000000	63.736845
1329.000000	63.767526
1328.000000	63.788418
1327.000000	63.847110
1326.000000	63.850931
1325.000000	63.855158
1324.000000	63.871829
1323.000000	63.918244
1322.000000	63.947611
1321.000000	63.949007
1320.000000	63.964785
1319.000000	63.956944
1318.000000	63.983040
1317.000000	64.017842
1316.000000	64.027293
1315.000000	64.010980
1314.000000	64.033715
1313.000000	64.077094
1312.000000	64.075217
1311.000000	64.096482
1310.000000	64.123273
1309.000000	64.119861
1308.000000	64.142524
1307.000000	64.143406
1306.000000	64.143919
1305.000000	64.146150
1304.000000	64.175044
1303.000000	64.191233
1302.000000	64.176686
1301.000000	64.178281
1300.000000	64.189312
1299.000000	64.191669
1298.000000	64.191378
1297.000000	64.179386
1296.000000	64.199884
1295.000000	64.197352
1294.000000	64.196256
1293.000000	64.196661
1292.000000	64.205501
1291.000000	64.190506
1290.000000	64.190478
1289.000000	64.174832
1288.000000	64.181466
1287.000000	64.180309
1286.000000	64.176705
1285.000000	64.153758
1284.000000	64.163263
1283.000000	64.162399
1282.000000	64.154851
1281.000000	64.107020
1280.000000	64.105176
1279.000000	64.111500
1278.000000	64.116834
1277.000000	64.120880
1276.000000	64.116802
1275.000000	64.120916
1274.000000	64.129603
1273.000000	64.129881
1272.000000	64.134346
1271.000000	64.136656
1270.000000	64.150601
1269.000000	64.155549
1268.000000	64.141706
1267.000000	64.165705
1266.000000	64.167485
1265.000000	64.211802
1264.000000	64.238836
1263.000000	64.211118
1262.000000	64.213088
1261.000000	64.213526
1260.000000	64.221573
1259.000000	64.279467
1258.000000	64.287884
1257.000000	64.276182
1256.000000	64.283264
1255.000000	64.267241
1254.000000	64.298354
1253.000000	64.286053
1252.000000	64.278956
1251.000000	64.300824
1250.000000	64.307796
1249.000000	64.322912
1248.000000	64.295411
1247.000000	64.286961
1246.000000	64.303948
1245.000000	64.287270
1244.000000	64.229636
1243.000000	64.225716
1242.000000	64.235675
1241.000000	64.204031
1240.000000	64.184312
1239.000000	64.141575
1238.000000	64.131811
1237.000000	64.122157
1236.000000	64.101463
1235.000000	64.058219
1234.000000	64.038974
1233.000000	64.038915
1232.000000	64.011254
1231.000000	63.989460
1230.000000	63.968009
1229.000000	63.936943
1228.000000	63.930390
1227.000000	63.922676
1226.000000	63.888592
1225.000000	63.846346
1224.000000	63.835846
1223.000000	63.817549
1222.000000	63.812263
1221.000000	63.783220
1220.000000	63.767535
1219.000000	63.733970
1218.000000	63.734358
1217.000000	63.711424
1216.000000	63.683141
1215.000000	63.651775
1214.000000	63.620791
1213.000000	63.637315
1212.000000	63.566009
1211.000000	63.532251
1210.000000	63.508423
1209.000000	63.499277
1208.000000	63.441095
1207.000000	63.402737
1206.000000	63.391280
1205.000000	63.329703
1204.000000	63.294076
1203.000000	63.283918
1202.000000	63.228501
1201.000000	63.187774
1200.000000	63.156428
1199.000000	63.128025
1198.000000	63.097445
1197.000000	63.045223
1196.000000	63.006002
1195.000000	62.989561
1194.000000	62.969895
1193.000000	62.944684
1192.000000	62.914264
1191.000000	62.902431
1190.000000	62.887320
1189.000000	62.854553
1188.000000	62.848852
1187.000000	62.840987
1186.000000	62.825995
1185.000000	62.841817
1184.000000	62.842458
1183.000000	62.841032
1182.000000	62.849875
1181.000000	62.877246
1180.000000	62.908531
1179.000000	62.941534
1178.000000	62.969567
1177.000000	63.004638
1176.000000	63.047699
1175.000000	63.103436
1174.000000	63.157112
1173.000000	63.206260
1172.000000	63.263459
1171.000000	63.325522
1170.000000	63.387048
1169.000000	63.440190
1168.000000	63.511793
1167.000000	63.599156
1166.000000	63.673966
1165.000000	63.735261
1164.000000	63.809742
1163.000000	63.889438
1162.000000	63.962949
1161.000000	64.037865
1160.000000	64.101682
1159.000000	64.174607
1158.000000	64.255933
1157.000000	64.311481
1156.000000	64.378721
1155.000000	64.451507
1154.000000	64.504243
1153.000000	64.547516
1152.000000	64.598552
1151.000000	64.658730
1150.000000	64.707628
1149.000000	64.763813
1148.000000	64.818575
1147.000000	64.856676
1146.000000	64.891664
1145.000000	64.925526
1144.000000	64.969106
1143.000000	65.025142
1142.000000	65.068486
1141.000000	65.104795
1140.000000	65.148893
1139.000000	65.199777
1138.000000	65.240993
1137.000000	65.271425
1136.000000	65.310683
1135.000000	65.343134
1134.000000	65.390607
1133.000000	65.411835
1132.000000	65.424200
1131.000000	65.458537
1130.000000	65.499584
1129.000000	65.526864
1128.000000	65.551263
1127.000000	65.582391
1126.000000	65.608741
1125.000000	65.632417
1124.000000	65.658155
1123.000000	65.686756
1122.000000	65.691625
1121.000000	65.703371
1120.000000	65.710153
1119.000000	65.722405
1118.000000	65.735107
1117.000000	65.741653
1116.000000	65.744584
1115.000000	65.744319
1114.000000	65.752923
1113.000000	65.760734
1112.000000	65.759477
1111.000000	65.762887
1110.000000	65.755544
1109.000000	65.772371
1108.000000	65.822545
1107.000000	65.813616
1106.000000	65.806446
1105.000000	65.800214
1104.000000	65.807868
1103.000000	65.815736
1102.000000	65.810829
1101.000000	65.796840
1100.000000	65.792683
1099.000000	65.796659
1098.000000	65.814553
1097.000000	65.819569
1096.000000	65.826692
1095.000000	65.806196
1094.000000	65.825453
1093.000000	65.830324
1092.000000	65.803642
1091.000000	65.804695
1090.000000	65.829685
1089.000000	65.828119
1088.000000	65.832081
1087.000000	65.815165
1086.000000	65.803324
1085.000000	65.802642
1084.000000	65.809234
1083.000000	65.811283
1082.000000	65.803864
1081.000000	65.816645
1080.000000	65.817490
1079.000000	65.801428
1078.000000	65.779917
1077.000000	65.779136
1076.000000	65.786045
1075.000000	65.788675
1074.000000	65.777488
1073.000000	65.789769
1072.000000	65.749914
1071.000000	65.748460
1070.000000	65.737412
1069.000000	65.730097
1068.000000	65.733914
1067.000000	65.748287
1066.000000	65.737084
1065.000000	65.713437
1064.000000	65.690996
1063.000000	65.707924
1062.000000	65.695975
1061.000000	65.707759
1060.000000	65.696122
1059.000000	65.694085
1058.000000	65.682262
1057.000000	65.678290
1056.000000	65.645521
1055.000000	65.647660
1054.000000	65.640343
1053.000000	65.640877
1052.000000	65.624963
1051.000000	65.615788
1050.000000	65.599912
1049.000000	65.614369
1048.000000	65.583638
1047.000000	65.597236
1046.000000	65.580435
1045.000000	65.594240
1044.000000	65.588859
1043.000000	65.546013
1042.000000	65.542068
1041.000000	65.559429
1040.000000	65.555892
1039.000000	65.544011
1038.000000	65.536520
1037.000000	65.530567
1036.000000	65.528356
1035.000000	65.539645
1034.000000	65.530374
1033.000000	65.535936
1032.000000	65.531459
1031.000000	65.523792
1030.000000	65.532387
1029.000000	65.519411
1028.000000	65.522794
1027.000000	65.525906
1026.000000	65.518604
1025.000000	65.525625
1024.000000	65.543263
1023.000000	65.519255
1022.000000	65.520176
1021.000000	65.530292
1020.000000	65.510457
1019.000000	65.524732
1018.000000	65.511642
1017.000000	65.538772
1016.000000	65.529850
1015.000000	65.533236
1014.000000	65.535810
1013.000000	65.550250
1012.000000	65.576416
1011.000000	65.569673
1010.000000	65.576611
1009.000000	65.584074
1008.000000	65.574915
1007.000000	65.575087
1006.000000	65.590124
1005.000000	65.587929
1004.000000	65.599246
1003.000000	65.601178
1002.000000	65.604074
1001.000000	65.604264
1000.000000	65.618327
999.000000	65.624353
998.000000	65.644579
997.000000	65.645079
996.000000	65.667340
995.000000	65.667240
994.000000	65.673190
993.000000	65.688270
992.000000	65.695573
991.000000	65.704189
990.000000	65.722694
989.000000	65.731499
988.000000	65.743764
987.000000	65.744477
986.000000	65.754345
985.000000	65.757709
984.000000	65.770740
983.000000	65.777524
982.000000	65.785770
981.000000	65.802675
980.000000	65.798718
979.000000	65.795648
978.000000	65.808192
977.000000	65.835698
976.000000	65.820082
975.000000	65.823900
974.000000	65.840119
973.000000	65.856175
972.000000	65.856722
971.000000	65.866933
970.000000	65.886987
969.000000	65.896094
968.000000	65.912465
967.000000	65.909799
966.000000	65.912302
965.000000	65.935173
964.000000	65.920620
963.000000	65.919487
962.000000	65.938717
961.000000	65.949044
960.000000	65.954042
959.000000	65.962148
958.000000	65.967071
957.000000	65.982543
956.000000	65.988481
955.000000	65.992261
954.000000	66.014164
953.000000	66.008453
952.000000	65.990317
951.000000	65.994733
950.000000	66.016119
949.000000	66.035871
948.000000	66.016959
947.000000	66.021032
946.000000	66.053937
945.000000	66.050318
944.000000	66.050157
943.000000	66.077428
942.000000	66.068877
941.000000	66.054766
940.000000	66.054478
939.000000	66.078206
938.000000	66.080938
937.000000	66.070499
936.000000	66.070687
935.000000	66.086261
934.000000	66.088324
933.000000	66.062068
932.000000	66.065140
931.000000	66.098239
930.000000	66.093839
929.000000	66.096796
928.000000	66.108000
927.000000	66.112318
926.000000	66.086700
925.000000	66.042367
924.000000	66.046062
923.000000	66.063174
922.000000	66.053509
921.000000	66.037513
920.000000	66.026373
919.000000	66.018740
918.000000	66.032809
917.000000	66.029428
916.000000	66.047324
915.000000	66.047656
914.000000	66.030353
913.000000	66.041387
912.000000	66.036654
911.000000	66.055532
910.000000	66.066822
909.000000	66.050120
908.000000	66.041790
907.000000	66.069692
906.000000	66.088596
905.000000	66.067468
904.000000	66.049645
903.000000	66.070515
902.000000	66.113483
901.000000	66.158312
900.000000	66.103095
899.000000	66.105147
898.000000	66.112414
897.000000	66.103843
896.000000	66.146996
895.000000	66.176011
894.000000	66.168214
893.000000	66.156512
892.000000	66.124458
891.000000	66.155203
890.000000	66.178534
889.000000	66.242192
888.000000	66.213133
887.000000	66.199730
886.000000	66.223216
885.000000	66.206630
884.000000	66.281489
883.000000	66.237671
882.000000	66.251401
881.000000	66.226596
880.000000	66.273824
879.000000	66.341255
878.000000	66.310391
877.000000	66.253142
876.000000	66.342900
875.000000	66.353219
874.000000	66.300178
873.000000	66.288591
872.000000	66.266921
871.000000	66.295207
870.000000	66.382178
869.000000	66.370347
868.000000	66.340035
867.000000	66.279946
866.000000	66.311125
865.000000	66.324315
864.000000	66.304922
863.000000	66.355240
862.000000	66.251621
861.000000	66.270848
860.000000	66.287545
859.000000	65.792449
858.000000	66.220358
857.000000	66.085331
856.000000	65.808008
855.000000	65.895122
854.000000	66.224754
853.000000	66.221306
852.000000	66.004099
851.000000	65.987344
850.000000	66.198022
849.000000	65.983029
848.000000	66.337869
847.000000	66.081926
846.000000	65.904821
845.000000	66.264215
844.000000	66.459497
843.000000	66.071232
842.000000	66.083361
841.000000	66.126288
840.000000	66.269581
839.000000	66.210381
838.000000	66.320302
837.000000	66.237006
836.000000	66.273996
835.000000	66.246434
834.000000	66.037060
833.000000	66.061469
832.000000	66.126422
831.000000	65.888980
830.000000	66.140727
829.000000	66.120227
828.000000	65.825908
827.000000	66.199107
826.000000	66.088239
825.000000	66.128740
824.000000	66.065799
823.000000	66.206041
822.000000	65.981582
821.000000	65.984490
820.000000	66.231908
819.000000	66.243561
818.000000	66.078320
817.000000	66.106233
816.000000	66.105600
815.000000	65.982345
814.000000	66.232084
813.000000	66.142257
812.000000	66.169810
811.000000	66.113968
810.000000	66.151879
809.000000	66.182002
808.000000	66.147889
807.000000	66.156530
806.000000	66.106222
805.000000	66.296689
804.000000	66.111718
803.000000	66.179338
802.000000	66.272697
801.000000	66.140250
800.000000	66.208581
799.000000	66.291560
798.000000	66.093739
797.000000	66.062590
796.000000	66.048012
795.000000	66.163858
794.000000	66.198100
793.000000	66.283386
792.000000	66.297412
791.000000	66.172817
790.000000	66.172971
789.000000	66.283739
788.000000	66.211087
787.000000	66.221516
786.000000	66.212177
785.000000	66.201905
784.000000	66.186260
783.000000	66.209265
782.000000	66.243065
781.000000	66.266352
780.000000	66.182197
779.000000	66.193684
778.000000	66.309795
777.000000	66.308267
776.000000	66.214848
775.000000	66.301559
774.000000	66.290485
773.000000	66.285174
772.000000	66.275187
771.000000	66.201766
770.000000	66.191086
769.000000	66.274100
768.000000	66.217575
767.000000	66.321119
766.000000	66.315767
765.000000	66.216264
764.000000	66.210598
763.000000	66.172853
762.000000	66.195436
761.000000	66.201277
760.000000	66.181882
759.000000	66.303535
758.000000	66.215195
757.000000	66.209793
756.000000	66.206425
755.000000	66.192278
754.000000	66.145255
753.000000	66.198064
752.000000	66.195249
751.000000	66.284234
750.000000	66.206358
749.000000	66.203044
748.000000	66.255425
747.000000	66.283081
746.000000	66.209886
745.000000	66.234955
744.000000	66.262219
743.000000	66.225508
742.000000	66.142586
741.000000	66.202548
740.000000	66.204893
739.000000	66.263553
738.000000	66.255095
737.000000	66.209874
736.000000	66.219201
735.000000	66.250080
734.000000	66.271612
733.000000	66.300584
732.000000	66.161916
731.000000	66.221271
730.000000	66.273989
729.000000	66.212958
728.000000	66.229990
727.000000	66.217338
726.000000	66.197446
725.000000	66.225406
724.000000	66.262249
723.000000	66.222869
722.000000	66.281679
721.000000	66.263485
720.000000	66.268495
719.000000	66.241432
718.000000	66.249273
717.000000	66.327709
716.000000	66.285262
715.000000	66.275718
714.000000	66.303767
713.000000	66.316223
712.000000	66.248688
711.000000	66.251471
710.000000	66.289892
709.000000	66.287370
708.000000	66.276487
707.000000	66.244025
706.000000	66.287362
705.000000	66.309659
704.000000	66.286030
703.000000	66.286753
702.000000	66.272058
701.000000	66.274614
700.000000	66.300937
699.000000	66.320743
698.000000	66.317684
697.000000	66.294528
696.000000	66.307443
695.000000	66.341512
694.000000	66.347142
693.000000	66.315340
692.000000	66.331632
691.000000	66.408542
690.000000	66.357828
689.000000	66.258976
688.000000	66.244107
687.000000	66.268048
686.000000	66.289275
685.000000	66.280054
684.000000	66.246984
683.000000	66.289772
682.000000	66.279453
681.000000	66.296610
680.000000	66.295377
679.000000	66.274999
678.000000	66.319323
677.000000	66.380474
676.000000	66.361629
675.000000	66.364091
674.000000	66.336010
673.000000	66.294332
672.000000	66.313746
671.000000	66.354970
670.000000	66.297408
669.000000	66.283926
668.000000	66.294849
667.000000	66.314097
666.000000	66.370173
665.000000	66.376562
664.000000	66.370989
663.000000	66.292469
662.000000	66.292173
661.000000	66.330026
660.000000	66.368050
659.000000	66.372693
658.000000	66.361676
657.000000	66.412566
656.000000	66.407498
655.000000	66.386811
654.000000	66.347737
653.000000	66.382283
652.000000	66.420290
651.000000	66.441534
650.000000	66.443463
649.000000	66.388457
648.000000	66.437646
647.000000	66.424865
646.000000	66.399407
645.000000	66.442502
644.000000	66.426230
643.000000	66.416955
642.000000	66.427714
641.000000	66.408918
640.000000	66.401862
639.000000	66.465541
638.000000	66.421535
637.000000	66.459820
636.000000	66.406750
635.000000	66.442195
634.000000	66.423683
633.000000	66.394759
632.000000	66.428900
631.000000	66.480057
630.000000	66.479332
629.000000	66.451149
628.000000	66.473601
627.000000	66.435299
626.000000	66.476831
625.000000	66.539814
624.000000	66.487498
623.000000	66.476672
622.000000	66.426950
621.000000	66.442319
620.000000	66.456301
619.000000	66.450704
618.000000	66.486087
617.000000	66.505171
616.000000	66.439117
615.000000	66.423118
614.000000	66.463349
613.000000	66.488152
612.000000	66.511409
611.000000	66.540145
610.000000	66.446665
609.000000	66.502572
608.000000	66.460320
607.000000	66.514145
606.000000	66.483555
605.000000	66.448294
604.000000	66.452805
603.000000	66.425864
602.000000	66.490671
601.000000	66.475924
600.000000	66.499069
599.000000	66.461695
598.000000	66.433432
597.000000	66.484722
596.000000	66.445645
595.000000	66.512489
594.000000	66.507256
593.000000	66.462858
592.000000	66.401869
591.000000	66.452409
590.000000	66.453598
589.000000	66.397811
588.000000	66.452279
587.000000	66.493085
586.000000	66.471344
585.000000	66.413714
584.000000	66.433042
583.000000	66.418641
582.000000	66.377700
581.000000	66.459867
580.000000	66.404943
579.000000	66.465275
578.000000	66.440598
577.000000	66.403417
576.000000	66.447501
575.000000	66.385439
574.000000	66.386945
573.000000	66.440517
572.000000	66.419296
571.000000	66.350148
570.000000	66.369730
569.000000	66.374830
568.000000	66.381856
567.000000	66.367505
566.000000	66.304238
565.000000	66.370622
564.000000	66.391597
563.000000	66.352812
562.000000	66.310362
561.000000	66.292618
560.000000	66.301912
559.000000	66.299292
558.000000	66.308231
557.000000	66.290928
556.000000	66.296198
555.000000	66.299461
554.000000	66.251772
553.000000	66.250280
552.000000	66.242781
551.000000	66.323799
550.000000	66.292889
549.000000	66.201402
548.000000	66.196280
547.000000	66.248097
546.000000	66.189167
545.000000	66.242356
544.000000	66.184535
543.000000	66.172628
542.000000	66.104939
541.000000	66.152483
540.000000	66.082656
539.000000	66.161031
538.000000	66.145853
537.000000	66.079566
536.000000	66.076162
535.000000	66.058191
534.000000	66.070470
533.000000	66.071138
532.000000	66.053000
531.000000	66.017815
530.000000	66.001765
529.000000	66.032152
528.000000	65.958919
527.000000	65.979189
526.000000	65.965412
525.000000	65.968375
524.000000	65.946829
523.000000	65.912061
522.000000	65.908267
521.000000	65.922221
520.000000	65.872557
519.000000	65.875774
518.000000	65.803609
517.000000	65.833670
516.000000	65.793378
515.000000	65.801439
514.000000	65.776183
513.000000	65.699346
512.000000	65.700909
511.000000	65.674058
510.000000	65.706261
509.000000	65.733146
508.000000	65.695065
507.000000	65.645079
506.000000	65.614868
505.000000	65.613756
504.000000	65.579904
503.000000	65.581311
502.000000	65.546862
501.000000	65.562757
500.000000	65.493850
499.000000	65.502389
498.000000	65.464237
497.000000	65.424789
496.000000	65.385431
495.000000	65.369296
494.000000	65.371335
493.000000	65.324994
492.000000	65.313470
491.000000	65.259672
490.000000	65.176577
489.000000	65.224461
488.000000	65.202079
487.000000	65.137844
486.000000	65.057974
485.000000	65.070582
484.000000	65.140948
483.000000	65.160562
482.000000	65.150747
481.000000	65.122386
480.000000	65.069635
479.000000	65.014148
478.000000	64.960863
477.000000	64.934864
476.000000	64.902749
475.000000	64.872290
474.000000	64.833915
473.000000	64.787503
472.000000	64.716431
471.000000	64.686747
470.000000	64.670595
469.000000	64.634440
468.000000	64.566568
467.000000	64.529396
466.000000	64.494788
465.000000	64.401371
464.000000	64.329947
463.000000	64.320714
462.000000	64.267029
461.000000	64.216843
460.000000	64.179096
459.000000	64.101920
458.000000	64.079933
457.000000	64.036440
456.000000	63.950651
455.000000	63.898597
454.000000	63.859995
453.000000	63.826003
452.000000	63.739519
451.000000	63.641587
450.000000	63.567989
449.000000	63.452116
448.000000	63.428270
447.000000	63.375860
446.000000	63.228540
445.000000	63.144261
444.000000	63.105242
443.000000	63.039008
442.000000	62.967556
441.000000	62.882246
440.000000	62.814500
439.000000	62.712443
438.000000	62.646161
437.000000	62.560353
436.000000	62.446450
435.000000	62.352427
434.000000	62.280305
433.000000	62.197390
432.000000	62.110685
431.000000	62.040623
430.000000	61.910654
429.000000	61.816083
428.000000	61.772475
427.000000	61.678496
426.000000	61.569460
425.000000	61.486889
424.000000	61.402217
423.000000	61.273485
422.000000	61.163576
421.000000	60.981006
420.000000	60.896490
419.000000	60.775647
418.000000	60.620758
417.000000	60.559457
416.000000	60.419815
415.000000	60.221632
414.000000	60.154020
413.000000	60.064769
412.000000	59.923649
411.000000	59.726643
410.000000	59.649875
409.000000	59.496892
408.000000	59.376508
407.000000	59.264065
406.000000	59.113114
405.000000	58.981524
404.000000	58.836615
403.000000	58.668475
402.000000	58.547076
401.000000	58.361183
400.000000	58.245615
399.000000	58.120754
398.000000	57.929775
397.000000	57.823768
396.000000	57.644671
395.000000	57.428020
394.000000	57.274279
393.000000	57.148462
392.000000	57.019841
391.000000	56.841792
390.000000	56.750524
389.000000	56.594521
388.000000	56.392149
387.000000	56.226559
386.000000	56.059084
385.000000	55.920644
384.000000	55.738927
383.000000	55.577124
382.000000	55.341056
381.000000	55.143273
380.000000	54.979067
379.000000	54.837415
378.000000	54.324823
377.000000	54.376796
376.000000	54.416926
375.000000	54.274663
374.000000	53.970460
373.000000	53.940871
372.000000	53.677535
371.000000	53.433273
370.000000	53.242329
369.000000	52.791356
368.000000	52.664562
367.000000	52.510686
366.000000	52.234099
365.000000	52.173074
364.000000	51.789429
363.000000	51.610216
362.000000	51.361357
361.000000	50.989068
360.000000	50.796544
359.000000	50.625039
358.000000	50.312572
357.000000	50.110155
356.000000	49.913060
355.000000	49.580836
354.000000	49.426831
353.000000	49.165827
352.000000	48.805994
351.000000	48.533980
350.000000	48.357269
349.000000	48.169097
348.000000	48.059776
347.000000	47.512763
346.000000	47.361941
345.000000	46.958634
344.000000	46.733480
343.000000	46.710953
342.000000	46.220631
341.000000	46.129800
340.000000	45.741269
339.000000	45.440520
338.000000	45.232244
337.000000	44.832563
336.000000	44.559033
335.000000	44.314386
334.000000	44.022108
333.000000	43.574695
332.000000	43.481191
331.000000	42.909298
330.000000	42.749613
329.000000	42.543226
328.000000	41.975823
327.000000	41.852625
326.000000	41.328490
325.000000	41.218838
324.000000	40.576540
323.000000	40.233389
322.000000	40.106078
321.000000	39.777869
320.000000	39.212590
319.000000	39.126017
318.000000	38.883128
317.000000	38.342068
316.000000	37.888641
315.000000	37.577353
314.000000	37.414086
313.000000	36.924956
312.000000	36.476868
311.000000	35.976037
310.000000	35.637348
309.000000	35.245742
308.000000	34.745305
307.000000	34.420989
306.000000	33.949787
305.000000	33.431740
304.000000	32.983395
303.000000	32.433134
302.000000	31.959753
301.000000	31.273733
300.000000	30.564882
299.000000	29.890929
298.000000	29.002223
297.000000	28.160540
296.000000	27.188849
295.000000	26.128202
294.000000	25.172632
293.000000	23.895395
292.000000	22.700068
291.000000	21.452918
290.000000	20.350464
289.000000	19.278643
288.000000	18.461626
287.000000	17.863046
286.000000	17.375160
285.000000	17.097654
284.000000	16.873511
283.000000	16.668030
282.000000	16.454115
281.000000	16.339440
280.000000	16.365823
279.000000	16.263874
278.000000	16.240756
277.000000	16.271439
276.000000	16.341816
275.000000	16.445111
274.000000	16.472179
273.000000	16.560779
272.000000	16.623824
271.000000	16.660943
270.000000	16.713456
269.000000	16.807861
268.000000	16.963767
267.000000	17.125858
266.000000	17.262635
265.000000	17.402312
264.000000	17.551528
263.000000	17.743616
262.000000	17.978039
261.000000	18.058067
260.000000	18.208534
259.000000	18.444971
258.000000	18.708978
257.000000	18.915098
256.000000	19.093811
255.000000	19.275515
254.000000	19.359458
253.000000	19.366498
252.000000	19.374272
251.000000	19.392757
250.000000	19.324120
249.000000	19.115417
248.000000	18.871117
247.000000	18.515029
246.000000	18.086515
245.000000	17.711369
244.000000	17.254020
243.000000	16.837455
242.000000	16.490111
241.000000	16.225928
240.000000	16.045111
239.000000	16.008065
238.000000	16.098143
237.000000	16.147781
236.000000	16.192267
235.000000	16.407447
234.000000	16.548664
233.000000	16.662484
232.000000	16.824077
231.000000	16.866709
230.000000	16.903966
229.000000	16.915105
228.000000	16.914785
227.000000	17.040336
226.000000	17.219848
225.000000	17.329565
224.000000	17.496060
223.000000	17.624266
222.000000	17.758168
221.000000	17.921160
220.000000	18.273281
219.000000	18.551570
218.000000	18.615431
217.000000	18.818980
216.000000	19.137726
215.000000	19.469579
214.000000	19.805885
213.000000	20.100318
212.000000	20.508332
211.000000	20.951736
210.000000	21.310610
209.000000	21.526939
208.000000	21.835966
207.000000	22.381961
206.000000	22.924666
205.000000	23.481110
204.000000	23.915414
203.000000	24.181831
202.000000	24.562495
201.000000	24.995762
200.000000	25.552355
