PE UV       SUBTECH     SPECTRUM    ASCII       PEDS        4.00        
   -1
Empty Chamber.Sample.asc
18/03/22
09:27:09.00
18/03/22
09:27:09.00
Administrator

200.000000
1
Lambda 750
750N8071901
PerkinElmer UV WinLab 6.0.4.0738 / 1.61.00 Lambda 900

0
0
3350/servo 860.8/2
0
0
UV/VIS
1
1
1
CommonBeamDepol,150mm sphere / downward view
0
0
0
0
Program
Program
3350/servo 860.8/2
3350/0.2 860.8/0.2
3350/0.2 860.8/0.2
0
1
 
 
 
0
 
860.8
319.2
860.8
Front
100
on
 
 
0
0
0
 
0
 
 
 
0
 
 
0
0
0
0
0
 
 
 
 
0
0


0
0
#HDR
-1
-1
#GR
nm
A
1.0
0.0
2350.000000
-1.000000
2151
8
0.004415
-0.003812
#DATA
2350.000000	0.002946
2349.000000	0.000594
2348.000000	0.001578
2347.000000	-0.001059
2346.000000	0.000619
2345.000000	-0.002458
2344.000000	-0.001680
2343.000000	0.001253
2342.000000	-0.000686
2341.000000	-0.001185
2340.000000	0.000108
2339.000000	0.000098
2338.000000	-0.000169
2337.000000	0.000516
2336.000000	-0.000338
2335.000000	0.000023
2334.000000	-0.000530
2333.000000	-0.000801
2332.000000	-0.000851
2331.000000	-0.000450
2330.000000	0.000297
2329.000000	0.000850
2328.000000	0.001154
2327.000000	-0.000354
2326.000000	-0.001675
2325.000000	-0.000731
2324.000000	-0.000495
2323.000000	0.000291
2322.000000	0.000788
2321.000000	0.000002
2320.000000	-0.000766
2319.000000	-0.000574
2318.000000	0.000139
2317.000000	-0.001061
2316.000000	0.000075
2315.000000	-0.000049
2314.000000	0.000018
2313.000000	0.000111
2312.000000	0.000318
2311.000000	0.000399
2310.000000	-0.000483
2309.000000	0.000133
2308.000000	0.000010
2307.000000	0.000483
2306.000000	0.000203
2305.000000	-0.000951
2304.000000	-0.000366
2303.000000	0.000374
2302.000000	0.001074
2301.000000	0.000952
2300.000000	0.000117
2299.000000	-0.000494
2298.000000	0.000116
2297.000000	0.000360
2296.000000	0.000254
2295.000000	-0.000179
2294.000000	-0.000842
2293.000000	0.000396
2292.000000	0.000585
2291.000000	-0.000143
2290.000000	-0.000091
2289.000000	0.000274
2288.000000	-0.000128
2287.000000	-0.001434
2286.000000	0.000550
2285.000000	0.000525
2284.000000	0.000619
2283.000000	0.000238
2282.000000	0.000259
2281.000000	-0.001212
2280.000000	-0.000698
2279.000000	-0.000293
2278.000000	-0.000585
2277.000000	0.000098
2276.000000	0.000970
2275.000000	0.001153
2274.000000	0.001310
2273.000000	0.000233
2272.000000	-0.000788
2271.000000	0.000142
2270.000000	-0.000487
2269.000000	-0.000162
2268.000000	0.000099
2267.000000	0.000368
2266.000000	-0.000413
2265.000000	-0.000979
2264.000000	-0.000835
2263.000000	0.000095
2262.000000	0.000315
2261.000000	-0.000386
2260.000000	-0.000974
2259.000000	-0.000226
2258.000000	-0.000189
2257.000000	-0.000409
2256.000000	0.000194
2255.000000	-0.000100
2254.000000	-0.000555
2253.000000	-0.000245
2252.000000	-0.001033
2251.000000	-0.000749
2250.000000	0.000142
2249.000000	0.000303
2248.000000	0.000839
2247.000000	0.000614
2246.000000	0.000098
2245.000000	0.000023
2244.000000	-0.000198
2243.000000	-0.000184
2242.000000	-0.000348
2241.000000	-0.000429
2240.000000	-0.000548
2239.000000	0.000251
2238.000000	0.000271
2237.000000	-0.000249
2236.000000	0.000105
2235.000000	0.000491
2234.000000	-0.000038
2233.000000	0.000312
2232.000000	0.000716
2231.000000	0.000089
2230.000000	0.000067
2229.000000	-0.000064
2228.000000	-0.000824
2227.000000	-0.000348
2226.000000	-0.000295
2225.000000	-0.000870
2224.000000	-0.000238
2223.000000	0.000279
2222.000000	-0.000496
2221.000000	-0.000527
2220.000000	-0.000181
2219.000000	-0.000947
2218.000000	-0.000578
2217.000000	-0.000114
2216.000000	0.000358
2215.000000	0.000289
2214.000000	0.000138
2213.000000	0.000006
2212.000000	0.000249
2211.000000	0.000265
2210.000000	-0.000266
2209.000000	-0.000157
2208.000000	-0.000323
2207.000000	-0.000315
2206.000000	-0.000508
2205.000000	0.000007
2204.000000	-0.000186
2203.000000	0.000193
2202.000000	0.000516
2201.000000	0.000182
2200.000000	-0.000037
2199.000000	0.000193
2198.000000	-0.000412
2197.000000	-0.000128
2196.000000	0.000567
2195.000000	0.000254
2194.000000	0.000079
2193.000000	0.000202
2192.000000	-0.000238
2191.000000	-0.000137
2190.000000	-0.000140
2189.000000	-0.000250
2188.000000	0.000301
2187.000000	0.000339
2186.000000	-0.000304
2185.000000	-0.000193
2184.000000	0.000218
2183.000000	-0.000563
2182.000000	-0.000228
2181.000000	0.000868
2180.000000	-0.000249
2179.000000	-0.000181
2178.000000	-0.000348
2177.000000	-0.000365
2176.000000	-0.000515
2175.000000	0.000051
2174.000000	0.000033
2173.000000	0.000378
2172.000000	0.000735
2171.000000	0.000564
2170.000000	0.000058
2169.000000	-0.000471
2168.000000	-0.000300
2167.000000	-0.000011
2166.000000	0.000431
2165.000000	-0.001114
2164.000000	0.000537
2163.000000	0.000545
2162.000000	0.000179
2161.000000	0.000397
2160.000000	0.000425
2159.000000	0.000019
2158.000000	-0.000605
2157.000000	0.000408
2156.000000	0.000252
2155.000000	-0.000779
2154.000000	-0.000171
2153.000000	0.000244
2152.000000	-0.000433
2151.000000	-0.000462
2150.000000	-0.001354
2149.000000	-0.000889
2148.000000	-0.000413
2147.000000	-0.000355
2146.000000	-0.000075
2145.000000	-0.001018
2144.000000	-0.000921
2143.000000	0.000581
2142.000000	0.000599
2141.000000	-0.000146
2140.000000	0.000787
2139.000000	0.000356
2138.000000	-0.000654
2137.000000	0.000544
2136.000000	-0.000026
2135.000000	-0.000211
2134.000000	0.000063
2133.000000	-0.001015
2132.000000	0.000328
2131.000000	-0.000609
2130.000000	-0.000424
2129.000000	-0.000813
2128.000000	0.000238
2127.000000	0.000233
2126.000000	0.000911
2125.000000	0.000255
2124.000000	-0.000722
2123.000000	0.000305
2122.000000	0.000273
2121.000000	-0.000708
2120.000000	-0.000219
2119.000000	0.000659
2118.000000	-0.000090
2117.000000	-0.000290
2116.000000	-0.000570
2115.000000	-0.000253
2114.000000	-0.000013
2113.000000	-0.000459
2112.000000	-0.000539
2111.000000	-0.000446
2110.000000	0.000051
2109.000000	0.000145
2108.000000	-0.000395
2107.000000	-0.000005
2106.000000	-0.000128
2105.000000	-0.000138
2104.000000	-0.000383
2103.000000	-0.000064
2102.000000	-0.000166
2101.000000	-0.000155
2100.000000	-0.000803
2099.000000	-0.000385
2098.000000	-0.000328
2097.000000	0.000009
2096.000000	0.000165
2095.000000	0.000237
2094.000000	-0.000386
2093.000000	-0.000444
2092.000000	-0.000339
2091.000000	-0.000073
2090.000000	0.000363
2089.000000	0.000167
2088.000000	-0.000000
2087.000000	-0.000247
2086.000000	0.000079
2085.000000	0.000311
2084.000000	0.000377
2083.000000	-0.000327
2082.000000	-0.000567
2081.000000	0.000010
2080.000000	-0.000447
2079.000000	-0.000309
2078.000000	0.000205
2077.000000	0.000111
2076.000000	0.000174
2075.000000	0.000037
2074.000000	0.000190
2073.000000	-0.000064
2072.000000	-0.000318
2071.000000	0.000071
2070.000000	-0.000146
2069.000000	0.000018
2068.000000	0.000085
2067.000000	-0.000126
2066.000000	0.000058
2065.000000	0.000049
2064.000000	0.000125
2063.000000	-0.000044
2062.000000	-0.000131
2061.000000	0.000255
2060.000000	-0.000058
2059.000000	0.000194
2058.000000	-0.000154
2057.000000	0.000271
2056.000000	0.000052
2055.000000	-0.000532
2054.000000	-0.000184
2053.000000	-0.000088
2052.000000	-0.000103
2051.000000	-0.000116
2050.000000	-0.000047
2049.000000	-0.000345
2048.000000	-0.000388
2047.000000	-0.000066
2046.000000	0.000177
2045.000000	0.000240
2044.000000	0.000095
2043.000000	-0.000167
2042.000000	-0.000195
2041.000000	0.000085
2040.000000	-0.000030
2039.000000	-0.000049
2038.000000	-0.000059
2037.000000	-0.000172
2036.000000	-0.000108
2035.000000	-0.000330
2034.000000	-0.000428
2033.000000	-0.000112
2032.000000	-0.000072
2031.000000	-0.000352
2030.000000	-0.000278
2029.000000	0.000186
2028.000000	0.000164
2027.000000	0.000063
2026.000000	-0.000125
2025.000000	-0.000076
2024.000000	0.000340
2023.000000	0.000156
2022.000000	-0.000078
2021.000000	-0.000122
2020.000000	-0.000327
2019.000000	-0.000162
2018.000000	0.000059
2017.000000	-0.000248
2016.000000	-0.000329
2015.000000	-0.000229
2014.000000	-0.000234
2013.000000	-0.000268
2012.000000	-0.000215
2011.000000	-0.000162
2010.000000	-0.000105
2009.000000	-0.000218
2008.000000	-0.000126
2007.000000	-0.000214
2006.000000	-0.000195
2005.000000	-0.000192
2004.000000	0.000012
2003.000000	0.000074
2002.000000	-0.000203
2001.000000	-0.000080
2000.000000	0.000204
1999.000000	0.000111
1998.000000	-0.000037
1997.000000	-0.000117
1996.000000	-0.000189
1995.000000	-0.000092
1994.000000	-0.000072
1993.000000	-0.000247
1992.000000	-0.000144
1991.000000	-0.000141
1990.000000	-0.000053
1989.000000	-0.000015
1988.000000	-0.000174
1987.000000	-0.000113
1986.000000	0.000038
1985.000000	0.000051
1984.000000	-0.000022
1983.000000	0.000004
1982.000000	-0.000145
1981.000000	-0.000039
1980.000000	0.000193
1979.000000	0.000182
1978.000000	-0.000087
1977.000000	-0.000004
1976.000000	0.000072
1975.000000	-0.000018
1974.000000	-0.000003
1973.000000	-0.000158
1972.000000	0.000002
1971.000000	0.000057
1970.000000	0.000139
1969.000000	-0.000129
1968.000000	0.000028
1967.000000	-0.000072
1966.000000	-0.000234
1965.000000	-0.000175
1964.000000	0.000092
1963.000000	-0.000267
1962.000000	0.000136
1961.000000	0.000104
1960.000000	-0.000276
1959.000000	-0.000345
1958.000000	-0.000120
1957.000000	-0.000215
1956.000000	0.000031
1955.000000	0.000056
1954.000000	-0.000036
1953.000000	0.000013
1952.000000	0.000068
1951.000000	-0.000230
1950.000000	-0.000030
1949.000000	-0.000067
1948.000000	-0.000022
1947.000000	-0.000015
1946.000000	0.000222
1945.000000	-0.000038
1944.000000	-0.000068
1943.000000	-0.000160
1942.000000	-0.000176
1941.000000	0.000221
1940.000000	0.000090
1939.000000	0.000284
1938.000000	0.000125
1937.000000	-0.000138
1936.000000	0.000049
1935.000000	0.000190
1934.000000	-0.000262
1933.000000	-0.000411
1932.000000	0.000112
1931.000000	0.000026
1930.000000	-0.000197
1929.000000	-0.000219
1928.000000	-0.000356
1927.000000	-0.000030
1926.000000	0.000002
1925.000000	0.000229
1924.000000	0.000182
1923.000000	-0.000163
1922.000000	0.000068
1921.000000	-0.000428
1920.000000	0.000095
1919.000000	0.000140
1918.000000	-0.000396
1917.000000	0.000123
1916.000000	0.000108
1915.000000	0.000019
1914.000000	0.000099
1913.000000	-0.000201
1912.000000	-0.000183
1911.000000	-0.000164
1910.000000	0.000042
1909.000000	0.000064
1908.000000	-0.000078
1907.000000	-0.000382
1906.000000	-0.000140
1905.000000	-0.000029
1904.000000	-0.000093
1903.000000	-0.000134
1902.000000	0.000232
1901.000000	0.000057
1900.000000	-0.000189
1899.000000	-0.000303
1898.000000	-0.000279
1897.000000	0.000209
1896.000000	0.000045
1895.000000	-0.000092
1894.000000	0.000125
1893.000000	-0.000202
1892.000000	-0.000108
1891.000000	0.000086
1890.000000	0.000095
1889.000000	-0.000181
1888.000000	-0.000134
1887.000000	0.000143
1886.000000	0.000005
1885.000000	-0.000258
1884.000000	-0.000082
1883.000000	0.000174
1882.000000	0.000259
1881.000000	-0.000015
1880.000000	-0.000167
1879.000000	-0.000019
1878.000000	-0.000004
1877.000000	-0.000002
1876.000000	-0.000176
1875.000000	-0.000011
1874.000000	-0.000152
1873.000000	0.000051
1872.000000	0.000121
1871.000000	0.000064
1870.000000	0.000027
1869.000000	0.000066
1868.000000	-0.000154
1867.000000	-0.000147
1866.000000	-0.000098
1865.000000	-0.000132
1864.000000	0.000210
1863.000000	0.000021
1862.000000	0.000032
1861.000000	-0.000199
1860.000000	-0.000070
1859.000000	0.000075
1858.000000	0.000148
1857.000000	0.000078
1856.000000	-0.000122
1855.000000	-0.000128
1854.000000	0.000007
1853.000000	-0.000145
1852.000000	-0.000065
1851.000000	-0.000243
1850.000000	-0.000080
1849.000000	0.000068
1848.000000	-0.000111
1847.000000	-0.000081
1846.000000	-0.000013
1845.000000	0.000148
1844.000000	-0.000059
1843.000000	-0.000065
1842.000000	0.000191
1841.000000	0.000076
1840.000000	0.000108
1839.000000	0.000082
1838.000000	0.000047
1837.000000	0.000019
1836.000000	-0.000080
1835.000000	-0.000074
1834.000000	-0.000069
1833.000000	-0.000135
1832.000000	-0.000129
1831.000000	-0.000028
1830.000000	0.000067
1829.000000	-0.000053
1828.000000	0.000090
1827.000000	0.000059
1826.000000	-0.000016
1825.000000	0.000029
1824.000000	0.000009
1823.000000	-0.000055
1822.000000	0.000082
1821.000000	0.000054
1820.000000	0.000009
1819.000000	0.000015
1818.000000	0.000026
1817.000000	-0.000086
1816.000000	-0.000047
1815.000000	0.000163
1814.000000	0.000138
1813.000000	-0.000007
1812.000000	0.000078
1811.000000	0.000059
1810.000000	-0.000010
1809.000000	0.000053
1808.000000	0.000052
1807.000000	0.000020
1806.000000	0.000053
1805.000000	-0.000058
1804.000000	-0.000226
1803.000000	-0.000146
1802.000000	-0.000058
1801.000000	-0.000139
1800.000000	-0.000205
1799.000000	-0.000142
1798.000000	0.000002
1797.000000	0.000019
1796.000000	-0.000008
1795.000000	-0.000030
1794.000000	-0.000056
1793.000000	0.000018
1792.000000	0.000035
1791.000000	-0.000039
1790.000000	0.000097
1789.000000	0.000113
1788.000000	0.000062
1787.000000	-0.000174
1786.000000	-0.000095
1785.000000	-0.000040
1784.000000	-0.000041
1783.000000	-0.000013
1782.000000	0.000017
1781.000000	0.000012
1780.000000	-0.000030
1779.000000	0.000071
1778.000000	0.000107
1777.000000	-0.000071
1776.000000	-0.000046
1775.000000	0.000075
1774.000000	0.000015
1773.000000	0.000055
1772.000000	-0.000126
1771.000000	-0.000095
1770.000000	-0.000049
1769.000000	-0.000049
1768.000000	0.000062
1767.000000	-0.000009
1766.000000	-0.000029
1765.000000	0.000030
1764.000000	-0.000085
1763.000000	0.000031
1762.000000	0.000026
1761.000000	-0.000089
1760.000000	-0.000160
1759.000000	-0.000023
1758.000000	-0.000017
1757.000000	-0.000140
1756.000000	-0.000107
1755.000000	-0.000131
1754.000000	-0.000139
1753.000000	0.000098
1752.000000	0.000199
1751.000000	-0.000029
1750.000000	-0.000136
1749.000000	-0.000099
1748.000000	-0.000110
1747.000000	0.000012
1746.000000	0.000011
1745.000000	0.000114
1744.000000	0.000002
1743.000000	-0.000059
1742.000000	0.000026
1741.000000	-0.000106
1740.000000	0.000048
1739.000000	0.000079
1738.000000	-0.000029
1737.000000	0.000000
1736.000000	0.000026
1735.000000	-0.000147
1734.000000	0.000081
1733.000000	-0.000093
1732.000000	0.000045
1731.000000	0.000087
1730.000000	-0.000074
1729.000000	-0.000012
1728.000000	-0.000085
1727.000000	0.000055
1726.000000	-0.000151
1725.000000	-0.000165
1724.000000	-0.000147
1723.000000	0.000137
1722.000000	-0.000000
1721.000000	-0.000062
1720.000000	-0.000093
1719.000000	-0.000052
1718.000000	-0.000026
1717.000000	-0.000150
1716.000000	0.000058
1715.000000	0.000103
1714.000000	0.000134
1713.000000	-0.000054
1712.000000	0.000010
1711.000000	-0.000045
1710.000000	-0.000104
1709.000000	0.000078
1708.000000	0.000040
1707.000000	0.000074
1706.000000	-0.000039
1705.000000	0.000056
1704.000000	0.000104
1703.000000	-0.000043
1702.000000	-0.000141
1701.000000	-0.000057
1700.000000	0.000098
1699.000000	0.000059
1698.000000	0.000182
1697.000000	-0.000027
1696.000000	-0.000030
1695.000000	0.000039
1694.000000	0.000027
1693.000000	-0.000043
1692.000000	-0.000046
1691.000000	-0.000030
1690.000000	-0.000005
1689.000000	-0.000067
1688.000000	-0.000046
1687.000000	-0.000090
1686.000000	-0.000034
1685.000000	-0.000088
1684.000000	-0.000018
1683.000000	-0.000152
1682.000000	-0.000065
1681.000000	-0.000158
1680.000000	-0.000036
1679.000000	-0.000084
1678.000000	-0.000098
1677.000000	-0.000129
1676.000000	-0.000016
1675.000000	-0.000074
1674.000000	-0.000162
1673.000000	-0.000142
1672.000000	-0.000078
1671.000000	-0.000185
1670.000000	-0.000212
1669.000000	-0.000032
1668.000000	-0.000002
1667.000000	-0.000096
1666.000000	0.000115
1665.000000	-0.000102
1664.000000	0.000031
1663.000000	0.000064
1662.000000	0.000017
1661.000000	0.000068
1660.000000	0.000008
1659.000000	-0.000111
1658.000000	-0.000044
1657.000000	-0.000028
1656.000000	-0.000086
1655.000000	-0.000083
1654.000000	0.000053
1653.000000	0.000044
1652.000000	-0.000060
1651.000000	-0.000005
1650.000000	-0.000064
1649.000000	-0.000099
1648.000000	0.000005
1647.000000	-0.000024
1646.000000	0.000004
1645.000000	-0.000020
1644.000000	0.000001
1643.000000	-0.000056
1642.000000	0.000044
1641.000000	-0.000081
1640.000000	-0.000078
1639.000000	-0.000026
1638.000000	-0.000031
1637.000000	0.000011
1636.000000	0.000091
1635.000000	-0.000007
1634.000000	-0.000038
1633.000000	-0.000002
1632.000000	0.000033
1631.000000	0.000045
1630.000000	0.000004
1629.000000	-0.000068
1628.000000	-0.000002
1627.000000	0.000016
1626.000000	-0.000008
1625.000000	-0.000030
1624.000000	-0.000030
1623.000000	-0.000015
1622.000000	-0.000085
1621.000000	-0.000111
1620.000000	-0.000161
1619.000000	-0.000086
1618.000000	0.000004
1617.000000	-0.000053
1616.000000	-0.000046
1615.000000	0.000034
1614.000000	0.000091
1613.000000	-0.000005
1612.000000	-0.000064
1611.000000	-0.000007
1610.000000	-0.000068
1609.000000	-0.000086
1608.000000	-0.000061
1607.000000	0.000029
1606.000000	0.000076
1605.000000	-0.000012
1604.000000	-0.000032
1603.000000	-0.000032
1602.000000	-0.000060
1601.000000	-0.000031
1600.000000	-0.000030
1599.000000	-0.000045
1598.000000	-0.000047
1597.000000	-0.000019
1596.000000	-0.000020
1595.000000	-0.000014
1594.000000	-0.000023
1593.000000	-0.000062
1592.000000	-0.000059
1591.000000	-0.000019
1590.000000	-0.000019
1589.000000	-0.000015
1588.000000	0.000005
1587.000000	0.000020
1586.000000	0.000031
1585.000000	0.000016
1584.000000	-0.000029
1583.000000	-0.000039
1582.000000	-0.000082
1581.000000	-0.000051
1580.000000	0.000005
1579.000000	-0.000070
1578.000000	-0.000110
1577.000000	-0.000090
1576.000000	-0.000087
1575.000000	-0.000008
1574.000000	0.000033
1573.000000	-0.000076
1572.000000	-0.000064
1571.000000	-0.000081
1570.000000	-0.000069
1569.000000	0.000005
1568.000000	0.000052
1567.000000	0.000068
1566.000000	0.000044
1565.000000	0.000041
1564.000000	-0.000003
1563.000000	0.000005
1562.000000	-0.000018
1561.000000	-0.000060
1560.000000	-0.000044
1559.000000	-0.000103
1558.000000	-0.000095
1557.000000	-0.000091
1556.000000	-0.000108
1555.000000	0.000015
1554.000000	-0.000008
1553.000000	-0.000005
1552.000000	0.000034
1551.000000	0.000075
1550.000000	0.000103
1549.000000	0.000058
1548.000000	-0.000029
1547.000000	0.000034
1546.000000	-0.000070
1545.000000	-0.000012
1544.000000	0.000048
1543.000000	0.000014
1542.000000	0.000086
1541.000000	0.000010
1540.000000	0.000023
1539.000000	-0.000052
1538.000000	-0.000042
1537.000000	0.000043
1536.000000	-0.000021
1535.000000	-0.000035
1534.000000	0.000009
1533.000000	-0.000112
1532.000000	-0.000023
1531.000000	-0.000093
1530.000000	-0.000034
1529.000000	-0.000023
1528.000000	-0.000068
1527.000000	-0.000066
1526.000000	-0.000034
1525.000000	-0.000142
1524.000000	-0.000110
1523.000000	-0.000062
1522.000000	-0.000005
1521.000000	-0.000038
1520.000000	-0.000026
1519.000000	-0.000025
1518.000000	-0.000026
1517.000000	0.000004
1516.000000	-0.000090
1515.000000	0.000005
1514.000000	0.000040
1513.000000	-0.000010
1512.000000	-0.000011
1511.000000	-0.000010
1510.000000	-0.000090
1509.000000	0.000005
1508.000000	-0.000087
1507.000000	-0.000093
1506.000000	-0.000054
1505.000000	0.000080
1504.000000	-0.000081
1503.000000	-0.000088
1502.000000	-0.000045
1501.000000	-0.000022
1500.000000	-0.000006
1499.000000	-0.000098
1498.000000	0.000010
1497.000000	-0.000021
1496.000000	-0.000016
1495.000000	-0.000081
1494.000000	-0.000062
1493.000000	-0.000151
1492.000000	0.000006
1491.000000	-0.000014
1490.000000	-0.000057
1489.000000	-0.000050
1488.000000	-0.000024
1487.000000	-0.000034
1486.000000	-0.000034
1485.000000	-0.000077
1484.000000	-0.000085
1483.000000	-0.000036
1482.000000	0.000064
1481.000000	-0.000067
1480.000000	-0.000054
1479.000000	0.000049
1478.000000	-0.000038
1477.000000	0.000007
1476.000000	-0.000060
1475.000000	0.000021
1474.000000	-0.000068
1473.000000	-0.000039
1472.000000	-0.000036
1471.000000	0.000009
1470.000000	0.000062
1469.000000	0.000015
1468.000000	0.000124
1467.000000	-0.000108
1466.000000	-0.000038
1465.000000	0.000034
1464.000000	-0.000049
1463.000000	-0.000031
1462.000000	-0.000053
1461.000000	-0.000020
1460.000000	-0.000018
1459.000000	-0.000074
1458.000000	-0.000063
1457.000000	0.000035
1456.000000	-0.000154
1455.000000	-0.000099
1454.000000	-0.000053
1453.000000	-0.000058
1452.000000	-0.000058
1451.000000	-0.000079
1450.000000	-0.000034
1449.000000	0.000115
1448.000000	0.000013
1447.000000	-0.000098
1446.000000	-0.000029
1445.000000	-0.000009
1444.000000	-0.000068
1443.000000	-0.000057
1442.000000	-0.000052
1441.000000	-0.000058
1440.000000	-0.000121
1439.000000	-0.000038
1438.000000	-0.000005
1437.000000	-0.000053
1436.000000	0.000000
1435.000000	-0.000104
1434.000000	-0.000037
1433.000000	-0.000117
1432.000000	-0.000091
1431.000000	-0.000035
1430.000000	0.000006
1429.000000	-0.000043
1428.000000	-0.000052
1427.000000	0.000010
1426.000000	-0.000084
1425.000000	0.000025
1424.000000	-0.000013
1423.000000	0.000029
1422.000000	0.000003
1421.000000	-0.000072
1420.000000	-0.000129
1419.000000	-0.000004
1418.000000	-0.000108
1417.000000	-0.000087
1416.000000	-0.000126
1415.000000	-0.000032
1414.000000	0.000006
1413.000000	-0.000034
1412.000000	-0.000027
1411.000000	0.000040
1410.000000	-0.000033
1409.000000	-0.000059
1408.000000	-0.000047
1407.000000	-0.000070
1406.000000	-0.000016
1405.000000	-0.000068
1404.000000	-0.000069
1403.000000	0.000018
1402.000000	0.000060
1401.000000	-0.000015
1400.000000	-0.000026
1399.000000	0.000040
1398.000000	-0.000077
1397.000000	-0.000050
1396.000000	-0.000017
1395.000000	-0.000035
1394.000000	0.000020
1393.000000	0.000096
1392.000000	0.000009
1391.000000	-0.000060
1390.000000	-0.000054
1389.000000	0.000011
1388.000000	-0.000052
1387.000000	-0.000018
1386.000000	0.000087
1385.000000	-0.000047
1384.000000	-0.000029
1383.000000	0.000000
1382.000000	-0.000088
1381.000000	-0.000082
1380.000000	-0.000033
1379.000000	0.000011
1378.000000	0.000093
1377.000000	0.000062
1376.000000	-0.000036
1375.000000	-0.000048
1374.000000	-0.000069
1373.000000	0.000046
1372.000000	0.000025
1371.000000	-0.000040
1370.000000	-0.000012
1369.000000	-0.000020
1368.000000	0.000026
1367.000000	-0.000018
1366.000000	-0.000033
1365.000000	0.000039
1364.000000	-0.000019
1363.000000	-0.000028
1362.000000	-0.000016
1361.000000	-0.000029
1360.000000	-0.000182
1359.000000	-0.000096
1358.000000	0.000030
1357.000000	-0.000000
1356.000000	0.000023
1355.000000	0.000061
1354.000000	-0.000005
1353.000000	0.000001
1352.000000	-0.000054
1351.000000	-0.000052
1350.000000	0.000023
1349.000000	-0.000019
1348.000000	-0.000107
1347.000000	-0.000058
1346.000000	0.000042
1345.000000	-0.000079
1344.000000	-0.000103
1343.000000	-0.000061
1342.000000	-0.000037
1341.000000	0.000030
1340.000000	0.000047
1339.000000	0.000085
1338.000000	0.000049
1337.000000	-0.000038
1336.000000	0.000030
1335.000000	-0.000083
1334.000000	-0.000180
1333.000000	-0.000152
1332.000000	-0.000117
1331.000000	-0.000048
1330.000000	-0.000022
1329.000000	0.000059
1328.000000	0.000028
1327.000000	-0.000027
1326.000000	-0.000014
1325.000000	0.000015
1324.000000	-0.000118
1323.000000	-0.000033
1322.000000	0.000026
1321.000000	-0.000100
1320.000000	-0.000052
1319.000000	-0.000008
1318.000000	-0.000109
1317.000000	-0.000077
1316.000000	-0.000037
1315.000000	0.000015
1314.000000	0.000029
1313.000000	-0.000052
1312.000000	0.000102
1311.000000	-0.000175
1310.000000	-0.000047
1309.000000	-0.000032
1308.000000	-0.000011
1307.000000	0.000044
1306.000000	-0.000000
1305.000000	0.000029
1304.000000	-0.000055
1303.000000	-0.000084
1302.000000	-0.000091
1301.000000	0.000104
1300.000000	-0.000046
1299.000000	-0.000025
1298.000000	0.000165
1297.000000	-0.000040
1296.000000	-0.000067
1295.000000	-0.000042
1294.000000	-0.000123
1293.000000	-0.000057
1292.000000	-0.000056
1291.000000	0.000007
1290.000000	-0.000055
1289.000000	-0.000067
1288.000000	0.000111
1287.000000	0.000050
1286.000000	0.000134
1285.000000	-0.000018
1284.000000	-0.000031
1283.000000	-0.000034
1282.000000	-0.000064
1281.000000	0.000018
1280.000000	-0.000007
1279.000000	0.000067
1278.000000	0.000045
1277.000000	-0.000092
1276.000000	-0.000107
1275.000000	-0.000183
1274.000000	-0.000168
1273.000000	-0.000016
1272.000000	-0.000039
1271.000000	0.000029
1270.000000	-0.000046
1269.000000	-0.000056
1268.000000	-0.000047
1267.000000	-0.000220
1266.000000	0.000043
1265.000000	0.000083
1264.000000	-0.000015
1263.000000	-0.000063
1262.000000	-0.000074
1261.000000	-0.000100
1260.000000	-0.000015
1259.000000	-0.000007
1258.000000	0.000009
1257.000000	-0.000041
1256.000000	-0.000034
1255.000000	0.000080
1254.000000	-0.000153
1253.000000	-0.000045
1252.000000	-0.000064
1251.000000	-0.000066
1250.000000	0.000018
1249.000000	-0.000121
1248.000000	-0.000042
1247.000000	0.000077
1246.000000	-0.000060
1245.000000	0.000068
1244.000000	-0.000008
1243.000000	0.000016
1242.000000	0.000010
1241.000000	-0.000015
1240.000000	-0.000069
1239.000000	0.000002
1238.000000	0.000055
1237.000000	0.000050
1236.000000	-0.000033
1235.000000	-0.000039
1234.000000	-0.000062
1233.000000	-0.000064
1232.000000	-0.000012
1231.000000	-0.000083
1230.000000	0.000002
1229.000000	-0.000024
1228.000000	-0.000064
1227.000000	-0.000163
1226.000000	-0.000081
1225.000000	-0.000016
1224.000000	0.000047
1223.000000	0.000017
1222.000000	-0.000085
1221.000000	-0.000129
1220.000000	-0.000099
1219.000000	-0.000033
1218.000000	-0.000048
1217.000000	-0.000062
1216.000000	-0.000093
1215.000000	-0.000074
1214.000000	0.000001
1213.000000	-0.000061
1212.000000	-0.000029
1211.000000	-0.000015
1210.000000	0.000028
1209.000000	-0.000042
1208.000000	-0.000089
1207.000000	0.000014
1206.000000	-0.000019
1205.000000	-0.000041
1204.000000	-0.000049
1203.000000	-0.000025
1202.000000	-0.000012
1201.000000	-0.000123
1200.000000	-0.000062
1199.000000	-0.000068
1198.000000	-0.000049
1197.000000	-0.000032
1196.000000	-0.000037
1195.000000	-0.000047
1194.000000	-0.000032
1193.000000	0.000037
1192.000000	0.000050
1191.000000	-0.000041
1190.000000	0.000013
1189.000000	-0.000029
1188.000000	-0.000075
1187.000000	-0.000076
1186.000000	-0.000153
1185.000000	-0.000127
1184.000000	-0.000016
1183.000000	-0.000030
1182.000000	-0.000078
1181.000000	-0.000143
1180.000000	-0.000089
1179.000000	-0.000007
1178.000000	-0.000064
1177.000000	0.000005
1176.000000	0.000035
1175.000000	-0.000019
1174.000000	0.000004
1173.000000	-0.000015
1172.000000	0.000024
1171.000000	-0.000030
1170.000000	-0.000088
1169.000000	-0.000003
1168.000000	-0.000002
1167.000000	-0.000087
1166.000000	-0.000043
1165.000000	-0.000006
1164.000000	-0.000047
1163.000000	0.000052
1162.000000	0.000088
1161.000000	0.000044
1160.000000	0.000012
1159.000000	-0.000042
1158.000000	-0.000037
1157.000000	0.000003
1156.000000	0.000035
1155.000000	0.000016
1154.000000	0.000031
1153.000000	0.000059
1152.000000	-0.000022
1151.000000	-0.000019
1150.000000	0.000019
1149.000000	-0.000050
1148.000000	-0.000079
1147.000000	-0.000059
1146.000000	-0.000010
1145.000000	0.000016
1144.000000	-0.000042
1143.000000	-0.000080
1142.000000	-0.000024
1141.000000	0.000036
1140.000000	0.000041
1139.000000	-0.000001
1138.000000	0.000046
1137.000000	-0.000010
1136.000000	-0.000073
1135.000000	-0.000054
1134.000000	-0.000124
1133.000000	-0.000089
1132.000000	-0.000034
1131.000000	0.000009
1130.000000	-0.000044
1129.000000	-0.000061
1128.000000	-0.000022
1127.000000	-0.000055
1126.000000	-0.000060
1125.000000	0.000028
1124.000000	-0.000000
1123.000000	-0.000012
1122.000000	-0.000053
1121.000000	-0.000085
1120.000000	-0.000040
1119.000000	-0.000018
1118.000000	-0.000090
1117.000000	-0.000013
1116.000000	-0.000056
1115.000000	-0.000096
1114.000000	-0.000152
1113.000000	-0.000125
1112.000000	-0.000105
1111.000000	-0.000043
1110.000000	-0.000024
1109.000000	-0.000046
1108.000000	-0.000008
1107.000000	0.000008
1106.000000	-0.000070
1105.000000	-0.000025
1104.000000	-0.000072
1103.000000	-0.000109
1102.000000	-0.000153
1101.000000	-0.000119
1100.000000	-0.000119
1099.000000	0.000047
1098.000000	-0.000027
1097.000000	-0.000041
1096.000000	-0.000091
1095.000000	-0.000112
1094.000000	-0.000134
1093.000000	-0.000139
1092.000000	0.000009
1091.000000	-0.000020
1090.000000	-0.000114
1089.000000	-0.000023
1088.000000	-0.000100
1087.000000	-0.000099
1086.000000	-0.000147
1085.000000	-0.000135
1084.000000	-0.000138
1083.000000	0.000002
1082.000000	-0.000025
1081.000000	0.000041
1080.000000	-0.000045
1079.000000	-0.000098
1078.000000	-0.000036
1077.000000	0.000035
1076.000000	-0.000041
1075.000000	-0.000044
1074.000000	-0.000080
1073.000000	-0.000085
1072.000000	-0.000031
1071.000000	-0.000056
1070.000000	-0.000037
1069.000000	-0.000051
1068.000000	-0.000003
1067.000000	-0.000016
1066.000000	0.000032
1065.000000	0.000044
1064.000000	-0.000004
1063.000000	-0.000024
1062.000000	0.000009
1061.000000	-0.000082
1060.000000	-0.000052
1059.000000	-0.000067
1058.000000	0.000082
1057.000000	0.000088
1056.000000	-0.000031
1055.000000	0.000061
1054.000000	-0.000013
1053.000000	-0.000034
1052.000000	0.000036
1051.000000	-0.000068
1050.000000	-0.000093
1049.000000	0.000027
1048.000000	-0.000109
1047.000000	0.000046
1046.000000	-0.000111
1045.000000	-0.000077
1044.000000	-0.000072
1043.000000	-0.000006
1042.000000	-0.000000
1041.000000	-0.000021
1040.000000	-0.000102
1039.000000	-0.000004
1038.000000	-0.000076
1037.000000	-0.000114
1036.000000	-0.000036
1035.000000	0.000017
1034.000000	0.000002
1033.000000	-0.000100
1032.000000	-0.000090
1031.000000	-0.000077
1030.000000	-0.000130
1029.000000	-0.000109
1028.000000	0.000035
1027.000000	-0.000012
1026.000000	-0.000025
1025.000000	-0.000064
1024.000000	0.000067
1023.000000	-0.000019
1022.000000	-0.000097
1021.000000	-0.000006
1020.000000	0.000048
1019.000000	-0.000019
1018.000000	-0.000140
1017.000000	-0.000075
1016.000000	-0.000017
1015.000000	0.000058
1014.000000	0.000040
1013.000000	-0.000160
1012.000000	-0.000057
1011.000000	-0.000060
1010.000000	-0.000106
1009.000000	-0.000084
1008.000000	0.000024
1007.000000	-0.000102
1006.000000	0.000010
1005.000000	0.000016
1004.000000	0.000017
1003.000000	0.000051
1002.000000	0.000015
1001.000000	-0.000012
1000.000000	-0.000119
999.000000	-0.000099
998.000000	-0.000062
997.000000	0.000042
996.000000	0.000030
995.000000	0.000005
994.000000	-0.000037
993.000000	-0.000067
992.000000	-0.000116
991.000000	-0.000108
990.000000	-0.000070
989.000000	-0.000043
988.000000	-0.000101
987.000000	-0.000107
986.000000	-0.000052
985.000000	-0.000034
984.000000	0.000026
983.000000	0.000013
982.000000	-0.000036
981.000000	0.000014
980.000000	0.000020
979.000000	0.000032
978.000000	0.000039
977.000000	-0.000038
976.000000	0.000007
975.000000	-0.000026
974.000000	-0.000042
973.000000	-0.000025
972.000000	0.000012
971.000000	0.000047
970.000000	0.000073
969.000000	-0.000044
968.000000	0.000028
967.000000	0.000089
966.000000	0.000055
965.000000	0.000048
964.000000	-0.000040
963.000000	-0.000173
962.000000	-0.000148
961.000000	-0.000051
960.000000	-0.000036
959.000000	0.000034
958.000000	-0.000005
957.000000	-0.000113
956.000000	-0.000086
955.000000	-0.000003
954.000000	0.000004
953.000000	0.000014
952.000000	0.000067
951.000000	0.000059
950.000000	0.000053
949.000000	0.000091
948.000000	0.000031
947.000000	-0.000090
946.000000	-0.000127
945.000000	-0.000052
944.000000	-0.000056
943.000000	0.000005
942.000000	0.000032
941.000000	-0.000073
940.000000	-0.000077
939.000000	-0.000094
938.000000	-0.000118
937.000000	-0.000058
936.000000	-0.000003
935.000000	-0.000002
934.000000	-0.000046
933.000000	-0.000041
932.000000	0.000025
931.000000	0.000042
930.000000	0.000023
929.000000	0.000040
928.000000	0.000025
927.000000	-0.000024
926.000000	-0.000173
925.000000	-0.000255
924.000000	-0.000029
923.000000	0.000108
922.000000	0.000121
921.000000	0.000048
920.000000	-0.000044
919.000000	-0.000105
918.000000	-0.000137
917.000000	-0.000143
916.000000	0.000031
915.000000	0.000035
914.000000	-0.000005
913.000000	-0.000084
912.000000	-0.000108
911.000000	0.000023
910.000000	0.000013
909.000000	-0.000074
908.000000	0.000058
907.000000	0.000187
906.000000	0.000065
905.000000	-0.000132
904.000000	-0.000061
903.000000	-0.000163
902.000000	-0.000276
901.000000	-0.000046
900.000000	0.000174
899.000000	-0.000106
898.000000	-0.000112
897.000000	-0.000325
896.000000	-0.000131
895.000000	0.000200
894.000000	-0.000010
893.000000	-0.000052
892.000000	-0.000082
891.000000	-0.000120
890.000000	-0.000166
889.000000	0.000007
888.000000	-0.000034
887.000000	-0.000092
886.000000	-0.000179
885.000000	-0.000128
884.000000	-0.000398
883.000000	0.000006
882.000000	0.000369
881.000000	0.000531
880.000000	0.000356
879.000000	0.000151
878.000000	0.000184
877.000000	0.000196
876.000000	-0.000214
875.000000	-0.000123
874.000000	0.000371
873.000000	-0.000334
872.000000	-0.000177
871.000000	0.000391
870.000000	0.000181
869.000000	-0.000126
868.000000	0.000186
867.000000	0.000359
866.000000	0.000173
865.000000	0.000309
864.000000	-0.000270
863.000000	-0.000041
862.000000	0.000134
861.000000	0.000600
860.000000	-0.000349
859.000000	-0.003812
858.000000	0.002378
857.000000	-0.000977
856.000000	0.001196
855.000000	-0.000701
854.000000	-0.000123
853.000000	-0.000434
852.000000	-0.000936
851.000000	-0.002336
850.000000	-0.000139
849.000000	0.000722
848.000000	-0.000320
847.000000	-0.000432
846.000000	-0.001105
845.000000	0.001069
844.000000	-0.000185
843.000000	0.000393
842.000000	-0.000986
841.000000	0.000965
840.000000	0.000043
839.000000	0.000002
838.000000	-0.000802
837.000000	-0.000872
836.000000	-0.000715
835.000000	0.000240
834.000000	-0.000202
833.000000	-0.000083
832.000000	0.000830
831.000000	0.000984
830.000000	-0.000789
829.000000	0.000742
828.000000	0.000068
827.000000	0.000116
826.000000	-0.000882
825.000000	0.001582
824.000000	0.001230
823.000000	-0.000360
822.000000	-0.000141
821.000000	-0.000781
820.000000	0.000239
819.000000	-0.001016
818.000000	0.000710
817.000000	0.000461
816.000000	-0.000467
815.000000	0.000344
814.000000	-0.000773
813.000000	-0.000346
812.000000	-0.000234
811.000000	0.000178
810.000000	0.000750
809.000000	0.000428
808.000000	0.000385
807.000000	-0.000509
806.000000	-0.000479
805.000000	-0.000202
804.000000	-0.000569
803.000000	-0.001282
802.000000	-0.000118
801.000000	-0.000440
800.000000	-0.000438
799.000000	0.000584
798.000000	0.000029
797.000000	0.000645
796.000000	0.001052
795.000000	-0.000592
794.000000	0.001099
793.000000	0.000754
792.000000	-0.000219
791.000000	-0.000018
790.000000	0.000162
789.000000	-0.000492
788.000000	-0.000349
787.000000	-0.000646
786.000000	-0.000626
785.000000	-0.000006
784.000000	-0.000206
783.000000	-0.000199
782.000000	-0.000314
781.000000	0.000174
780.000000	0.000233
779.000000	0.000166
778.000000	0.000048
777.000000	-0.000123
776.000000	0.000130
775.000000	0.000192
774.000000	-0.000219
773.000000	0.000197
772.000000	-0.000167
771.000000	-0.000418
770.000000	-0.000019
769.000000	0.000398
768.000000	0.000542
767.000000	0.000242
766.000000	0.000255
765.000000	-0.000254
764.000000	-0.000138
763.000000	-0.000056
762.000000	-0.000236
761.000000	-0.000465
760.000000	0.000056
759.000000	-0.000041
758.000000	0.000673
757.000000	0.000233
756.000000	-0.000149
755.000000	-0.000112
754.000000	-0.000208
753.000000	-0.000300
752.000000	-0.000362
751.000000	-0.000310
750.000000	0.000216
749.000000	-0.000164
748.000000	-0.000231
747.000000	-0.000483
746.000000	-0.000265
745.000000	-0.000681
744.000000	-0.000422
743.000000	0.000233
742.000000	0.000332
741.000000	-0.000153
740.000000	0.000384
739.000000	0.000527
738.000000	0.000557
737.000000	0.000544
736.000000	0.000382
735.000000	0.000394
734.000000	0.000423
733.000000	0.000124
732.000000	0.000224
731.000000	0.000307
730.000000	0.000061
729.000000	-0.000026
728.000000	-0.000118
727.000000	-0.000078
726.000000	-0.000213
725.000000	0.000056
724.000000	0.000213
723.000000	-0.000128
722.000000	-0.000009
721.000000	-0.000002
720.000000	0.000055
719.000000	0.000411
718.000000	0.000311
717.000000	-0.000186
716.000000	-0.000142
715.000000	-0.000061
714.000000	-0.000340
713.000000	-0.000068
712.000000	-0.000419
711.000000	-0.000520
710.000000	0.000247
709.000000	0.000290
708.000000	0.000137
707.000000	0.000519
706.000000	0.000398
705.000000	0.000044
704.000000	0.000288
703.000000	0.000524
702.000000	0.000420
701.000000	0.000315
700.000000	-0.000158
699.000000	-0.000521
698.000000	-0.000207
697.000000	0.000016
696.000000	0.000001
695.000000	0.000196
694.000000	0.000139
693.000000	-0.000006
692.000000	-0.000138
691.000000	-0.000060
690.000000	-0.000144
689.000000	-0.000264
688.000000	0.000141
687.000000	0.000035
686.000000	0.000084
685.000000	0.000604
684.000000	0.000297
683.000000	0.000092
682.000000	-0.000007
681.000000	-0.000207
680.000000	-0.000119
679.000000	-0.000110
678.000000	-0.000115
677.000000	-0.000051
676.000000	0.000316
675.000000	0.000210
674.000000	0.000151
673.000000	0.000484
672.000000	0.000075
671.000000	0.000028
670.000000	0.000134
669.000000	0.000039
668.000000	0.000041
667.000000	0.000272
666.000000	0.000087
665.000000	0.000067
664.000000	0.000282
663.000000	0.000075
662.000000	0.000002
661.000000	0.000411
660.000000	0.000093
659.000000	-0.000101
658.000000	0.000118
657.000000	-0.000296
656.000000	0.000010
655.000000	0.000276
654.000000	0.000242
653.000000	-0.000031
652.000000	0.000008
651.000000	-0.000361
650.000000	-0.000160
649.000000	-0.000276
648.000000	-0.000077
647.000000	-0.000172
646.000000	-0.000094
645.000000	-0.000063
644.000000	-0.000171
643.000000	0.000111
642.000000	0.000251
641.000000	0.000301
640.000000	-0.000147
639.000000	-0.000112
638.000000	0.000107
637.000000	0.000263
636.000000	0.000104
635.000000	0.000128
634.000000	0.000579
633.000000	-0.000118
632.000000	0.000342
631.000000	0.000241
630.000000	-0.000231
629.000000	-0.000155
628.000000	0.000149
627.000000	0.000172
626.000000	0.000384
625.000000	0.000038
624.000000	-0.000130
623.000000	-0.000206
622.000000	0.000304
621.000000	-0.000344
620.000000	0.000327
619.000000	0.000428
618.000000	-0.000050
617.000000	0.000254
616.000000	-0.000107
615.000000	-0.000089
614.000000	0.000672
613.000000	0.000264
612.000000	0.000102
611.000000	-0.000324
610.000000	0.000356
609.000000	-0.000023
608.000000	-0.000059
607.000000	0.000169
606.000000	0.000242
605.000000	-0.000176
604.000000	0.000234
603.000000	-0.000552
602.000000	-0.000046
601.000000	0.000328
600.000000	-0.000028
599.000000	-0.000134
598.000000	0.000182
597.000000	-0.000470
596.000000	0.000087
595.000000	0.000009
594.000000	0.000412
593.000000	0.000322
592.000000	-0.000245
591.000000	0.000118
590.000000	0.000115
589.000000	0.000235
588.000000	-0.000006
587.000000	-0.000237
586.000000	0.000271
585.000000	0.000051
584.000000	0.000126
583.000000	0.000103
582.000000	-0.000117
581.000000	0.000045
580.000000	-0.000049
579.000000	-0.000091
578.000000	-0.000045
577.000000	0.000333
576.000000	-0.000618
575.000000	-0.000329
574.000000	0.000062
573.000000	-0.000248
572.000000	0.000660
571.000000	0.000090
570.000000	0.000176
569.000000	0.000144
568.000000	0.000181
567.000000	-0.000149
566.000000	0.000120
565.000000	0.000197
564.000000	0.000249
563.000000	0.000118
562.000000	0.000031
561.000000	0.000136
560.000000	0.000175
559.000000	0.000248
558.000000	0.000125
557.000000	0.000164
556.000000	-0.000356
555.000000	0.000132
554.000000	-0.000054
553.000000	-0.000327
552.000000	0.000187
551.000000	-0.000105
550.000000	-0.000227
549.000000	0.000153
548.000000	0.000208
547.000000	-0.000264
546.000000	-0.000057
545.000000	-0.000002
544.000000	-0.000267
543.000000	-0.000382
542.000000	-0.000074
541.000000	0.000128
540.000000	0.000231
539.000000	-0.000234
538.000000	-0.000139
537.000000	0.000037
536.000000	0.000218
535.000000	-0.000023
534.000000	0.000011
533.000000	0.000198
532.000000	-0.000386
531.000000	-0.000166
530.000000	-0.000129
529.000000	-0.000200
528.000000	-0.000124
527.000000	-0.000317
526.000000	-0.000323
525.000000	0.000155
524.000000	0.000074
523.000000	-0.000139
522.000000	-0.000253
521.000000	-0.000403
520.000000	-0.000178
519.000000	-0.000133
518.000000	0.000203
517.000000	-0.000123
516.000000	-0.000201
515.000000	-0.000230
514.000000	-0.000219
513.000000	0.000043
512.000000	0.000094
511.000000	0.000023
510.000000	0.000037
509.000000	0.000153
508.000000	-0.000013
507.000000	-0.000075
506.000000	0.000029
505.000000	-0.000023
504.000000	-0.000188
503.000000	-0.000129
502.000000	0.000194
501.000000	0.000082
500.000000	0.000449
499.000000	0.000291
498.000000	-0.000054
497.000000	-0.000102
496.000000	-0.000011
495.000000	0.000125
494.000000	0.000016
493.000000	0.000337
492.000000	0.000370
491.000000	0.000205
490.000000	0.000251
489.000000	0.000390
488.000000	0.000122
487.000000	0.000167
486.000000	0.000185
485.000000	-0.000167
484.000000	-0.000283
483.000000	-0.000624
482.000000	-0.000535
481.000000	-0.000139
480.000000	-0.000057
479.000000	-0.000160
478.000000	-0.000101
477.000000	-0.000132
476.000000	0.000265
475.000000	0.000089
474.000000	-0.000231
473.000000	0.000029
472.000000	0.000076
471.000000	0.000137
470.000000	0.000268
469.000000	0.000091
468.000000	-0.000300
467.000000	-0.000345
466.000000	-0.000034
465.000000	-0.000027
464.000000	-0.000087
463.000000	0.000048
462.000000	0.000206
461.000000	0.000130
460.000000	-0.000116
459.000000	0.000201
458.000000	0.000220
457.000000	-0.000064
456.000000	0.000062
455.000000	0.000133
454.000000	0.000250
453.000000	-0.000057
452.000000	-0.000207
451.000000	0.000126
450.000000	0.000265
449.000000	0.000208
448.000000	0.000055
447.000000	0.000015
446.000000	0.000076
445.000000	0.000020
444.000000	-0.000089
443.000000	-0.000192
442.000000	-0.000143
441.000000	-0.000174
440.000000	-0.000085
439.000000	-0.000079
438.000000	0.000091
437.000000	0.000365
436.000000	0.000330
435.000000	0.000021
434.000000	-0.000015
433.000000	-0.000195
432.000000	0.000043
431.000000	0.000293
430.000000	0.000223
429.000000	0.000149
428.000000	0.000177
427.000000	0.000314
426.000000	0.000288
425.000000	0.000207
424.000000	0.000101
423.000000	-0.000001
422.000000	0.000183
421.000000	0.000097
420.000000	0.000133
419.000000	0.000271
418.000000	0.000447
417.000000	0.000122
416.000000	-0.000025
415.000000	0.000214
414.000000	-0.000273
413.000000	-0.000143
412.000000	0.000016
411.000000	-0.000017
410.000000	-0.000042
409.000000	-0.000326
408.000000	-0.000264
407.000000	-0.000002
406.000000	-0.000036
405.000000	-0.000284
404.000000	0.000439
403.000000	0.000267
402.000000	0.000038
401.000000	-0.000258
400.000000	-0.000222
399.000000	-0.000156
398.000000	0.000625
397.000000	0.000203
396.000000	-0.000258
395.000000	-0.000306
394.000000	-0.000006
393.000000	-0.000036
392.000000	-0.000047
391.000000	0.000086
390.000000	-0.000294
389.000000	-0.000210
388.000000	0.000130
387.000000	-0.000421
386.000000	-0.000418
385.000000	-0.000125
384.000000	-0.000198
383.000000	0.000606
382.000000	0.000045
381.000000	0.000131
380.000000	0.000091
379.000000	-0.000011
378.000000	0.000250
377.000000	-0.000435
376.000000	-0.001630
375.000000	-0.001662
374.000000	0.000147
373.000000	0.000537
372.000000	0.000982
371.000000	0.000365
370.000000	0.001940
369.000000	-0.000119
368.000000	-0.000671
367.000000	0.000666
366.000000	0.001045
365.000000	-0.000529
364.000000	0.000026
363.000000	-0.001235
362.000000	0.000278
361.000000	0.000732
360.000000	-0.000546
359.000000	0.000028
358.000000	-0.000260
357.000000	-0.000583
356.000000	-0.000191
355.000000	0.000981
354.000000	0.000658
353.000000	0.000700
352.000000	0.001195
351.000000	-0.000428
350.000000	-0.000119
349.000000	0.000052
348.000000	0.001920
347.000000	0.001217
346.000000	0.001798
345.000000	0.000136
344.000000	-0.000831
343.000000	0.000559
342.000000	-0.000241
341.000000	0.000860
340.000000	0.001128
339.000000	0.000386
338.000000	0.000038
337.000000	0.000692
336.000000	-0.001191
335.000000	0.000040
334.000000	-0.000151
333.000000	-0.000793
332.000000	0.000074
331.000000	0.000189
330.000000	0.000137
329.000000	-0.000336
328.000000	-0.000802
327.000000	0.000369
326.000000	-0.001245
325.000000	0.001170
324.000000	0.000378
323.000000	-0.001472
322.000000	-0.000717
321.000000	-0.001531
320.000000	-0.000460
319.000000	-0.000519
318.000000	0.002116
317.000000	-0.000539
316.000000	-0.000458
315.000000	0.000451
314.000000	-0.000066
313.000000	0.000126
312.000000	0.000961
311.000000	0.000250
310.000000	0.000079
309.000000	0.000823
308.000000	0.000512
307.000000	-0.000602
306.000000	0.000908
305.000000	0.000995
304.000000	0.000965
303.000000	-0.000534
302.000000	-0.000395
301.000000	0.000043
300.000000	-0.000212
299.000000	0.001419
298.000000	0.000669
297.000000	-0.000212
296.000000	0.001055
295.000000	0.000762
294.000000	-0.000518
293.000000	0.000860
292.000000	0.001464
291.000000	0.000501
290.000000	0.000076
289.000000	0.000400
288.000000	-0.000359
287.000000	-0.000265
286.000000	-0.001453
285.000000	-0.000386
284.000000	-0.000706
283.000000	-0.000263
282.000000	0.000507
281.000000	0.001047
280.000000	0.000331
279.000000	-0.000139
278.000000	-0.000224
277.000000	-0.000282
276.000000	0.000576
275.000000	0.000273
274.000000	-0.000148
273.000000	0.000036
272.000000	-0.000180
271.000000	-0.000288
270.000000	0.000764
269.000000	0.000122
268.000000	-0.001293
267.000000	-0.000377
266.000000	-0.000194
265.000000	-0.000387
264.000000	0.000190
263.000000	-0.000414
262.000000	-0.000972
261.000000	-0.000182
260.000000	-0.000337
259.000000	-0.000688
258.000000	0.000311
257.000000	0.001184
256.000000	0.000671
255.000000	0.000397
254.000000	0.000828
253.000000	0.000508
252.000000	0.000010
251.000000	-0.000252
250.000000	0.000223
249.000000	0.000925
248.000000	-0.000220
247.000000	0.000085
246.000000	-0.000079
245.000000	-0.000129
244.000000	0.000604
243.000000	0.000636
242.000000	-0.000093
241.000000	0.000314
240.000000	-0.000432
239.000000	-0.001507
238.000000	-0.000233
237.000000	0.000877
236.000000	0.000955
235.000000	0.000619
234.000000	-0.000765
233.000000	-0.001148
232.000000	-0.000698
231.000000	-0.000413
230.000000	0.000509
229.000000	0.000189
228.000000	-0.000479
227.000000	-0.000145
226.000000	0.000720
225.000000	0.001187
224.000000	0.000763
223.000000	0.000840
222.000000	0.000127
221.000000	0.000267
220.000000	0.000892
219.000000	0.001122
218.000000	0.000503
217.000000	-0.000115
216.000000	-0.000344
215.000000	0.000151
214.000000	-0.000478
213.000000	-0.000856
212.000000	-0.000269
211.000000	-0.000713
210.000000	-0.000311
209.000000	0.000317
208.000000	0.001092
207.000000	0.001393
206.000000	0.000972
205.000000	0.003857
204.000000	0.004415
203.000000	0.001480
202.000000	-0.001676
201.000000	-0.001163
200.000000	0.001951
