PE UV       SUBTECH     SPECTRUM    ASCII       PEDS        4.00        
   -1
TDms1482152.Sample.asc
18/03/22
09:49:06.00
18/03/22
09:49:06.00
Administrator

200.000000
1
Lambda 750
750N8071901
PerkinElmer UV WinLab 6.0.4.0738 / 1.61.00 Lambda 900

0
0
3350/servo 860.8/2
0
0
UV/VIS
1
1
1
CommonBeamDepol,150mm sphere / downward view
0
0
0
0
Program
Program
3350/servo 860.8/2
3350/0.2 860.8/0.2
3350/0.2 860.8/0.2
0
1
 
 
 
0
 
860.8
319.2
860.8
Front
100
on
 
 
0
0
0
 
0
 
 
 
0
 
 
0
0
0
0
0
 
 
 
 
0
0


0
0
#HDR
-1
-1
#GR
nm
%T
1.0
0.0
2350.000000
-1.000000
2151
8
8.158584
-0.020892
#DATA
2350.000000	0.432818
2349.000000	0.304691
2348.000000	0.230396
2347.000000	0.791228
2346.000000	0.756191
2345.000000	0.309989
2344.000000	0.467866
2343.000000	0.067301
2342.000000	0.423111
2341.000000	0.906931
2340.000000	0.690709
2339.000000	1.225688
2338.000000	1.343959
2337.000000	1.186804
2336.000000	1.228164
2335.000000	1.166324
2334.000000	1.240061
2333.000000	1.298254
2332.000000	1.405572
2331.000000	1.566430
2330.000000	1.410450
2329.000000	1.037724
2328.000000	1.395790
2327.000000	1.001336
2326.000000	1.224487
2325.000000	1.089988
2324.000000	1.392807
2323.000000	1.129032
2322.000000	1.232531
2321.000000	1.288245
2320.000000	1.047608
2319.000000	1.148313
2318.000000	1.274748
2317.000000	1.222003
2316.000000	1.109659
2315.000000	1.091505
2314.000000	0.848893
2313.000000	0.928737
2312.000000	0.857288
2311.000000	0.956323
2310.000000	0.904058
2309.000000	0.737278
2308.000000	0.932911
2307.000000	0.860976
2306.000000	0.848267
2305.000000	0.840583
2304.000000	1.189810
2303.000000	1.133625
2302.000000	0.919482
2301.000000	0.932341
2300.000000	0.859845
2299.000000	0.935600
2298.000000	0.837445
2297.000000	0.715809
2296.000000	0.851995
2295.000000	0.840943
2294.000000	0.964266
2293.000000	0.875513
2292.000000	0.675869
2291.000000	0.899392
2290.000000	0.866094
2289.000000	0.732158
2288.000000	0.664963
2287.000000	0.832816
2286.000000	0.921057
2285.000000	0.747291
2284.000000	0.781633
2283.000000	0.927012
2282.000000	0.898641
2281.000000	0.836366
2280.000000	0.789480
2279.000000	0.926398
2278.000000	0.926268
2277.000000	0.981567
2276.000000	0.922329
2275.000000	0.880246
2274.000000	0.790090
2273.000000	0.748607
2272.000000	0.865916
2271.000000	0.943168
2270.000000	0.855587
2269.000000	0.848128
2268.000000	0.809553
2267.000000	0.970524
2266.000000	1.015045
2265.000000	0.961650
2264.000000	1.006986
2263.000000	1.027351
2262.000000	1.019939
2261.000000	1.082227
2260.000000	0.935485
2259.000000	0.957772
2258.000000	1.034892
2257.000000	1.014556
2256.000000	0.920035
2255.000000	0.856195
2254.000000	0.980430
2253.000000	1.117467
2252.000000	1.281383
2251.000000	1.190876
2250.000000	1.182831
2249.000000	1.285989
2248.000000	1.189128
2247.000000	1.168166
2246.000000	1.256625
2245.000000	1.383882
2244.000000	1.474304
2243.000000	1.462318
2242.000000	1.364715
2241.000000	1.417604
2240.000000	1.354549
2239.000000	1.264692
2238.000000	1.307486
2237.000000	1.262308
2236.000000	1.201163
2235.000000	1.362076
2234.000000	1.491928
2233.000000	1.471491
2232.000000	1.438511
2231.000000	1.481536
2230.000000	1.536416
2229.000000	1.571741
2228.000000	1.597884
2227.000000	1.687145
2226.000000	1.645570
2225.000000	1.531751
2224.000000	1.590025
2223.000000	1.584799
2222.000000	1.418426
2221.000000	1.371969
2220.000000	1.409957
2219.000000	1.487825
2218.000000	1.496027
2217.000000	1.513306
2216.000000	1.593942
2215.000000	1.660217
2214.000000	1.565265
2213.000000	1.419970
2212.000000	1.316299
2211.000000	1.467989
2210.000000	1.387817
2209.000000	1.334727
2208.000000	1.420568
2207.000000	1.353450
2206.000000	1.276206
2205.000000	1.242400
2204.000000	1.286842
2203.000000	1.245940
2202.000000	1.146764
2201.000000	1.252457
2200.000000	1.313052
2199.000000	1.333460
2198.000000	1.334411
2197.000000	1.325114
2196.000000	1.469555
2195.000000	1.328414
2194.000000	1.247040
2193.000000	1.143229
2192.000000	1.246123
2191.000000	1.224580
2190.000000	1.052516
2189.000000	1.165539
2188.000000	1.133331
2187.000000	1.129276
2186.000000	1.247538
2185.000000	1.239259
2184.000000	1.250862
2183.000000	1.244447
2182.000000	1.239411
2181.000000	1.172727
2180.000000	1.159756
2179.000000	1.184212
2178.000000	1.129015
2177.000000	1.059230
2176.000000	1.269468
2175.000000	1.160577
2174.000000	1.055580
2173.000000	1.243824
2172.000000	1.075000
2171.000000	1.318558
2170.000000	1.316095
2169.000000	1.300217
2168.000000	1.258664
2167.000000	1.313914
2166.000000	1.331535
2165.000000	1.379752
2164.000000	1.263989
2163.000000	1.440271
2162.000000	1.407000
2161.000000	1.270252
2160.000000	1.341226
2159.000000	1.383355
2158.000000	1.323376
2157.000000	1.458028
2156.000000	1.543594
2155.000000	1.450296
2154.000000	1.526864
2153.000000	1.567915
2152.000000	1.407440
2151.000000	1.497974
2150.000000	1.500800
2149.000000	1.357005
2148.000000	1.522856
2147.000000	1.481151
2146.000000	1.394603
2145.000000	1.521189
2144.000000	1.403210
2143.000000	1.507439
2142.000000	1.478392
2141.000000	1.591809
2140.000000	1.619744
2139.000000	1.540335
2138.000000	1.698557
2137.000000	1.725267
2136.000000	1.934011
2135.000000	1.746188
2134.000000	1.738493
2133.000000	1.471046
2132.000000	1.788651
2131.000000	1.937681
2130.000000	1.714544
2129.000000	1.523212
2128.000000	1.698546
2127.000000	1.681823
2126.000000	1.531897
2125.000000	1.727796
2124.000000	1.548394
2123.000000	1.560808
2122.000000	1.613883
2121.000000	1.822004
2120.000000	1.768950
2119.000000	1.718473
2118.000000	1.636643
2117.000000	1.580547
2116.000000	1.643862
2115.000000	1.897787
2114.000000	1.829544
2113.000000	1.758367
2112.000000	1.603072
2111.000000	1.644431
2110.000000	1.626516
2109.000000	1.736933
2108.000000	1.728018
2107.000000	1.772315
2106.000000	1.627381
2105.000000	1.741769
2104.000000	1.743446
2103.000000	1.706761
2102.000000	1.799391
2101.000000	1.765930
2100.000000	1.843257
2099.000000	1.677418
2098.000000	1.776380
2097.000000	1.636995
2096.000000	1.770218
2095.000000	1.797272
2094.000000	1.740010
2093.000000	1.688830
2092.000000	1.767526
2091.000000	1.696637
2090.000000	1.748364
2089.000000	1.811056
2088.000000	1.695040
2087.000000	1.665388
2086.000000	1.784979
2085.000000	1.813858
2084.000000	1.767199
2083.000000	1.672035
2082.000000	1.615536
2081.000000	1.711823
2080.000000	1.724416
2079.000000	1.616355
2078.000000	1.566448
2077.000000	1.575732
2076.000000	1.555888
2075.000000	1.568998
2074.000000	1.562404
2073.000000	1.614420
2072.000000	1.574740
2071.000000	1.582418
2070.000000	1.621662
2069.000000	1.485996
2068.000000	1.417108
2067.000000	1.359791
2066.000000	1.351342
2065.000000	1.367144
2064.000000	1.400200
2063.000000	1.402741
2062.000000	1.300124
2061.000000	1.207881
2060.000000	1.170432
2059.000000	1.211151
2058.000000	1.220782
2057.000000	1.258588
2056.000000	1.279443
2055.000000	1.227009
2054.000000	1.216268
2053.000000	1.201415
2052.000000	1.155578
2051.000000	1.127872
2050.000000	1.091800
2049.000000	1.073769
2048.000000	1.095228
2047.000000	1.097237
2046.000000	1.054409
2045.000000	1.035224
2044.000000	1.052343
2043.000000	1.117790
2042.000000	1.106602
2041.000000	1.068331
2040.000000	1.152146
2039.000000	1.124924
2038.000000	1.051135
2037.000000	1.040469
2036.000000	1.046637
2035.000000	1.046219
2034.000000	1.033847
2033.000000	1.053855
2032.000000	1.095833
2031.000000	1.098388
2030.000000	1.116343
2029.000000	1.162610
2028.000000	1.204767
2027.000000	1.206157
2026.000000	1.216341
2025.000000	1.213503
2024.000000	1.224522
2023.000000	1.234295
2022.000000	1.204562
2021.000000	1.186617
2020.000000	1.188753
2019.000000	1.204420
2018.000000	1.238885
2017.000000	1.236686
2016.000000	1.230018
2015.000000	1.223791
2014.000000	1.226078
2013.000000	1.258287
2012.000000	1.254121
2011.000000	1.238794
2010.000000	1.265458
2009.000000	1.254316
2008.000000	1.212898
2007.000000	1.153378
2006.000000	1.147125
2005.000000	1.151940
2004.000000	1.142118
2003.000000	1.176189
2002.000000	1.160103
2001.000000	1.137802
2000.000000	1.124207
1999.000000	1.109177
1998.000000	1.069518
1997.000000	1.057932
1996.000000	1.082883
1995.000000	1.097319
1994.000000	1.082669
1993.000000	1.044162
1992.000000	1.018591
1991.000000	1.011054
1990.000000	1.018543
1989.000000	0.992637
1988.000000	1.023161
1987.000000	0.997447
1986.000000	0.980718
1985.000000	0.997274
1984.000000	0.986720
1983.000000	0.983124
1982.000000	1.000839
1981.000000	0.959464
1980.000000	0.960889
1979.000000	0.915645
1978.000000	0.931489
1977.000000	0.991696
1976.000000	0.972447
1975.000000	0.918929
1974.000000	0.937572
1973.000000	0.893469
1972.000000	0.902392
1971.000000	0.907693
1970.000000	0.906866
1969.000000	0.968979
1968.000000	0.959008
1967.000000	0.954080
1966.000000	0.954981
1965.000000	0.919880
1964.000000	0.875074
1963.000000	0.892644
1962.000000	0.879147
1961.000000	0.870877
1960.000000	0.874612
1959.000000	0.888668
1958.000000	0.930742
1957.000000	0.878115
1956.000000	0.871155
1955.000000	0.890314
1954.000000	0.869410
1953.000000	0.869303
1952.000000	0.913298
1951.000000	0.904019
1950.000000	0.947282
1949.000000	0.975155
1948.000000	0.920488
1947.000000	0.874817
1946.000000	0.948795
1945.000000	0.902489
1944.000000	0.880095
1943.000000	0.920499
1942.000000	0.985843
1941.000000	0.993035
1940.000000	1.051643
1939.000000	0.975857
1938.000000	0.991691
1937.000000	0.979742
1936.000000	1.008734
1935.000000	1.026819
1934.000000	1.010185
1933.000000	1.036308
1932.000000	1.032392
1931.000000	0.947012
1930.000000	0.993497
1929.000000	0.981963
1928.000000	1.090259
1927.000000	1.014698
1926.000000	1.031567
1925.000000	1.111751
1924.000000	1.112139
1923.000000	1.097761
1922.000000	1.224998
1921.000000	1.185176
1920.000000	1.231014
1919.000000	1.220223
1918.000000	1.209122
1917.000000	1.287315
1916.000000	1.213343
1915.000000	1.378495
1914.000000	1.429824
1913.000000	1.528048
1912.000000	1.494208
1911.000000	1.548830
1910.000000	1.607306
1909.000000	1.651122
1908.000000	1.724019
1907.000000	1.774466
1906.000000	1.761837
1905.000000	1.943641
1904.000000	2.036163
1903.000000	2.080014
1902.000000	2.128253
1901.000000	2.279784
1900.000000	2.291075
1899.000000	2.380476
1898.000000	2.552342
1897.000000	2.603725
1896.000000	2.673978
1895.000000	2.754297
1894.000000	2.914668
1893.000000	2.958349
1892.000000	3.098125
1891.000000	3.130004
1890.000000	3.286191
1889.000000	3.447750
1888.000000	3.647142
1887.000000	3.653833
1886.000000	3.766284
1885.000000	3.844963
1884.000000	3.962451
1883.000000	4.102425
1882.000000	4.214895
1881.000000	4.337638
1880.000000	4.413974
1879.000000	4.517123
1878.000000	4.593295
1877.000000	4.677528
1876.000000	4.754346
1875.000000	4.799423
1874.000000	4.896180
1873.000000	4.922925
1872.000000	4.962223
1871.000000	5.078573
1870.000000	5.114030
1869.000000	5.154561
1868.000000	5.147891
1867.000000	5.176528
1866.000000	5.215808
1865.000000	5.223100
1864.000000	5.238280
1863.000000	5.257603
1862.000000	5.252819
1861.000000	5.249045
1860.000000	5.308018
1859.000000	5.371408
1858.000000	5.363088
1857.000000	5.399847
1856.000000	5.382913
1855.000000	5.393134
1854.000000	5.416289
1853.000000	5.424836
1852.000000	5.372129
1851.000000	5.377600
1850.000000	5.391910
1849.000000	5.418252
1848.000000	5.405712
1847.000000	5.397460
1846.000000	5.384238
1845.000000	5.354152
1844.000000	5.354133
1843.000000	5.354919
1842.000000	5.308768
1841.000000	5.295674
1840.000000	5.329867
1839.000000	5.328548
1838.000000	5.288398
1837.000000	5.244320
1836.000000	5.216587
1835.000000	5.206683
1834.000000	5.203375
1833.000000	5.171156
1832.000000	5.107089
1831.000000	5.114041
1830.000000	5.119773
1829.000000	5.109573
1828.000000	5.069162
1827.000000	5.057601
1826.000000	5.056508
1825.000000	5.010436
1824.000000	4.995506
1823.000000	5.000422
1822.000000	4.970046
1821.000000	4.961090
1820.000000	4.951765
1819.000000	4.927887
1818.000000	4.931383
1817.000000	4.915863
1816.000000	4.898965
1815.000000	4.884252
1814.000000	4.861751
1813.000000	4.859662
1812.000000	4.865100
1811.000000	4.857085
1810.000000	4.862745
1809.000000	4.858498
1808.000000	4.830059
1807.000000	4.803883
1806.000000	4.793094
1805.000000	4.791431
1804.000000	4.774339
1803.000000	4.745867
1802.000000	4.736623
1801.000000	4.756130
1800.000000	4.765248
1799.000000	4.750687
1798.000000	4.737812
1797.000000	4.730405
1796.000000	4.741595
1795.000000	4.749161
1794.000000	4.757122
1793.000000	4.745992
1792.000000	4.727348
1791.000000	4.751359
1790.000000	4.739732
1789.000000	4.729130
1788.000000	4.746011
1787.000000	4.751435
1786.000000	4.767392
1785.000000	4.754813
1784.000000	4.730801
1783.000000	4.697345
1782.000000	4.706675
1781.000000	4.706579
1780.000000	4.692859
1779.000000	4.712360
1778.000000	4.701708
1777.000000	4.654772
1776.000000	4.629025
1775.000000	4.604672
1774.000000	4.585715
1773.000000	4.568841
1772.000000	4.547957
1771.000000	4.528804
1770.000000	4.513478
1769.000000	4.503171
1768.000000	4.476648
1767.000000	4.432401
1766.000000	4.440738
1765.000000	4.432747
1764.000000	4.373586
1763.000000	4.322706
1762.000000	4.337286
1761.000000	4.320065
1760.000000	4.262067
1759.000000	4.273543
1758.000000	4.255822
1757.000000	4.218483
1756.000000	4.195549
1755.000000	4.179359
1754.000000	4.167332
1753.000000	4.173877
1752.000000	4.143811
1751.000000	4.113976
1750.000000	4.102826
1749.000000	4.117490
1748.000000	4.110519
1747.000000	4.055674
1746.000000	4.000293
1745.000000	3.980465
1744.000000	3.949406
1743.000000	3.938469
1742.000000	3.937399
1741.000000	3.900669
1740.000000	3.877851
1739.000000	3.857208
1738.000000	3.855691
1737.000000	3.870037
1736.000000	3.856479
1735.000000	3.843688
1734.000000	3.824895
1733.000000	3.822075
1732.000000	3.849413
1731.000000	3.843505
1730.000000	3.814385
1729.000000	3.833410
1728.000000	3.842479
1727.000000	3.828649
1726.000000	3.884912
1725.000000	3.877248
1724.000000	3.860411
1723.000000	3.868578
1722.000000	3.943331
1721.000000	3.941815
1720.000000	3.988215
1719.000000	4.026965
1718.000000	4.031447
1717.000000	4.054099
1716.000000	4.066637
1715.000000	4.081095
1714.000000	4.089880
1713.000000	4.152527
1712.000000	4.147757
1711.000000	4.186809
1710.000000	4.183297
1709.000000	4.221709
1708.000000	4.224742
1707.000000	4.259042
1706.000000	4.256918
1705.000000	4.248110
1704.000000	4.302356
1703.000000	4.293957
1702.000000	4.302849
1701.000000	4.303168
1700.000000	4.298803
1699.000000	4.277034
1698.000000	4.310026
1697.000000	4.328394
1696.000000	4.343841
1695.000000	4.342704
1694.000000	4.357959
1693.000000	4.399440
1692.000000	4.411007
1691.000000	4.444675
1690.000000	4.434979
1689.000000	4.487132
1688.000000	4.536330
1687.000000	4.557562
1686.000000	4.596293
1685.000000	4.667251
1684.000000	4.702524
1683.000000	4.748813
1682.000000	4.814020
1681.000000	4.870640
1680.000000	4.909418
1679.000000	4.942226
1678.000000	4.999410
1677.000000	5.082192
1676.000000	5.133651
1675.000000	5.181224
1674.000000	5.258541
1673.000000	5.289752
1672.000000	5.329406
1671.000000	5.406805
1670.000000	5.464602
1669.000000	5.507924
1668.000000	5.534621
1667.000000	5.620170
1666.000000	5.620130
1665.000000	5.623765
1664.000000	5.661056
1663.000000	5.687482
1662.000000	5.712557
1661.000000	5.756265
1660.000000	5.792628
1659.000000	5.812067
1658.000000	5.843414
1657.000000	5.870528
1656.000000	5.890117
1655.000000	5.878627
1654.000000	5.894413
1653.000000	5.907198
1652.000000	5.912678
1651.000000	5.891319
1650.000000	5.904711
1649.000000	5.897654
1648.000000	5.891468
1647.000000	5.875589
1646.000000	5.877945
1645.000000	5.871756
1644.000000	5.853435
1643.000000	5.830396
1642.000000	5.814034
1641.000000	5.792580
1640.000000	5.785716
1639.000000	5.778791
1638.000000	5.770680
1637.000000	5.764220
1636.000000	5.752290
1635.000000	5.746252
1634.000000	5.735559
1633.000000	5.718785
1632.000000	5.681644
1631.000000	5.664058
1630.000000	5.641098
1629.000000	5.636220
1628.000000	5.625431
1627.000000	5.615015
1626.000000	5.610212
1625.000000	5.572572
1624.000000	5.545536
1623.000000	5.533635
1622.000000	5.513554
1621.000000	5.483170
1620.000000	5.470498
1619.000000	5.443325
1618.000000	5.422657
1617.000000	5.413805
1616.000000	5.397767
1615.000000	5.362630
1614.000000	5.340405
1613.000000	5.322219
1612.000000	5.312309
1611.000000	5.289408
1610.000000	5.272324
1609.000000	5.253494
1608.000000	5.232331
1607.000000	5.199468
1606.000000	5.178181
1605.000000	5.169345
1604.000000	5.148289
1603.000000	5.131085
1602.000000	5.099238
1601.000000	5.064976
1600.000000	5.056051
1599.000000	5.047629
1598.000000	5.031897
1597.000000	5.012646
1596.000000	4.987202
1595.000000	4.960165
1594.000000	4.951737
1593.000000	4.943525
1592.000000	4.932809
1591.000000	4.907349
1590.000000	4.876345
1589.000000	4.865597
1588.000000	4.854477
1587.000000	4.837154
1586.000000	4.815752
1585.000000	4.800203
1584.000000	4.783398
1583.000000	4.775033
1582.000000	4.771378
1581.000000	4.754252
1580.000000	4.736417
1579.000000	4.717293
1578.000000	4.704334
1577.000000	4.694986
1576.000000	4.672939
1575.000000	4.652810
1574.000000	4.648882
1573.000000	4.638013
1572.000000	4.612190
1571.000000	4.599361
1570.000000	4.592426
1569.000000	4.567413
1568.000000	4.539902
1567.000000	4.531374
1566.000000	4.526635
1565.000000	4.514295
1564.000000	4.505244
1563.000000	4.492155
1562.000000	4.480720
1561.000000	4.461575
1560.000000	4.438033
1559.000000	4.428174
1558.000000	4.420345
1557.000000	4.396846
1556.000000	4.394701
1555.000000	4.392891
1554.000000	4.372884
1553.000000	4.349081
1552.000000	4.353194
1551.000000	4.336891
1550.000000	4.303143
1549.000000	4.293013
1548.000000	4.292721
1547.000000	4.259570
1546.000000	4.222777
1545.000000	4.206729
1544.000000	4.176650
1543.000000	4.155481
1542.000000	4.137220
1541.000000	4.102535
1540.000000	4.075907
1539.000000	4.053171
1538.000000	4.025495
1537.000000	3.985215
1536.000000	3.957451
1535.000000	3.925977
1534.000000	3.887964
1533.000000	3.867123
1532.000000	3.855621
1531.000000	3.815245
1530.000000	3.792330
1529.000000	3.777567
1528.000000	3.760357
1527.000000	3.726418
1526.000000	3.694928
1525.000000	3.678639
1524.000000	3.668146
1523.000000	3.655007
1522.000000	3.636408
1521.000000	3.619699
1520.000000	3.617785
1519.000000	3.602682
1518.000000	3.591331
1517.000000	3.592274
1516.000000	3.572358
1515.000000	3.572968
1514.000000	3.576586
1513.000000	3.558482
1512.000000	3.562256
1511.000000	3.546653
1510.000000	3.548925
1509.000000	3.527919
1508.000000	3.528675
1507.000000	3.525427
1506.000000	3.509897
1505.000000	3.511415
1504.000000	3.533800
1503.000000	3.548580
1502.000000	3.538090
1501.000000	3.564020
1500.000000	3.585115
1499.000000	3.605156
1498.000000	3.594242
1497.000000	3.593699
1496.000000	3.593756
1495.000000	3.582476
1494.000000	3.585155
1493.000000	3.589418
1492.000000	3.575755
1491.000000	3.590437
1490.000000	3.594006
1489.000000	3.617247
1488.000000	3.631502
1487.000000	3.633818
1486.000000	3.656056
1485.000000	3.647713
1484.000000	3.664160
1483.000000	3.694137
1482.000000	3.655651
1481.000000	3.710701
1480.000000	3.725919
1479.000000	3.721630
1478.000000	3.730405
1477.000000	3.743312
1476.000000	3.740083
1475.000000	3.748589
1474.000000	3.770335
1473.000000	3.753166
1472.000000	3.779992
1471.000000	3.785683
1470.000000	3.803473
1469.000000	3.809100
1468.000000	3.803978
1467.000000	3.816355
1466.000000	3.828340
1465.000000	3.870964
1464.000000	3.879711
1463.000000	3.880858
1462.000000	3.892757
1461.000000	3.920325
1460.000000	3.933063
1459.000000	3.949778
1458.000000	3.940027
1457.000000	3.937000
1456.000000	4.010186
1455.000000	4.007062
1454.000000	4.001983
1453.000000	4.012780
1452.000000	4.025384
1451.000000	4.057209
1450.000000	4.084025
1449.000000	4.088723
1448.000000	4.093153
1447.000000	4.113755
1446.000000	4.175529
1445.000000	4.186665
1444.000000	4.195418
1443.000000	4.212137
1442.000000	4.216887
1441.000000	4.236256
1440.000000	4.257979
1439.000000	4.290908
1438.000000	4.345645
1437.000000	4.379366
1436.000000	4.392837
1435.000000	4.424677
1434.000000	4.444262
1433.000000	4.465510
1432.000000	4.488117
1431.000000	4.537205
1430.000000	4.576141
1429.000000	4.614661
1428.000000	4.655919
1427.000000	4.684265
1426.000000	4.718396
1425.000000	4.757099
1424.000000	4.813721
1423.000000	4.885840
1422.000000	4.918800
1421.000000	4.948581
1420.000000	4.992384
1419.000000	5.057636
1418.000000	5.114109
1417.000000	5.146264
1416.000000	5.209318
1415.000000	5.286935
1414.000000	5.362380
1413.000000	5.418375
1412.000000	5.457445
1411.000000	5.520585
1410.000000	5.597078
1409.000000	5.659733
1408.000000	5.709412
1407.000000	5.771026
1406.000000	5.830799
1405.000000	5.902987
1404.000000	5.978476
1403.000000	6.033468
1402.000000	6.064320
1401.000000	6.120161
1400.000000	6.189268
1399.000000	6.251500
1398.000000	6.307802
1397.000000	6.370156
1396.000000	6.434051
1395.000000	6.486635
1394.000000	6.533582
1393.000000	6.584943
1392.000000	6.631923
1391.000000	6.671532
1390.000000	6.723977
1389.000000	6.765834
1388.000000	6.807482
1387.000000	6.874882
1386.000000	6.928671
1385.000000	6.952869
1384.000000	6.984651
1383.000000	7.026358
1382.000000	7.050853
1381.000000	7.060111
1380.000000	7.102431
1379.000000	7.148372
1378.000000	7.156272
1377.000000	7.186657
1376.000000	7.224552
1375.000000	7.244048
1374.000000	7.250676
1373.000000	7.259144
1372.000000	7.276498
1371.000000	7.296170
1370.000000	7.324444
1369.000000	7.350816
1368.000000	7.354826
1367.000000	7.376039
1366.000000	7.399145
1365.000000	7.411131
1364.000000	7.426472
1363.000000	7.439525
1362.000000	7.446523
1361.000000	7.463990
1360.000000	7.509049
1359.000000	7.537897
1358.000000	7.552481
1357.000000	7.561905
1356.000000	7.570362
1355.000000	7.594859
1354.000000	7.616769
1353.000000	7.636981
1352.000000	7.658375
1351.000000	7.667919
1350.000000	7.687201
1349.000000	7.712261
1348.000000	7.724656
1347.000000	7.752961
1346.000000	7.774850
1345.000000	7.793807
1344.000000	7.788387
1343.000000	7.796224
1342.000000	7.827920
1341.000000	7.860463
1340.000000	7.870695
1339.000000	7.876376
1338.000000	7.885620
1337.000000	7.893912
1336.000000	7.913153
1335.000000	7.944273
1334.000000	7.964454
1333.000000	7.965390
1332.000000	7.960038
1331.000000	7.963239
1330.000000	7.965806
1329.000000	8.001010
1328.000000	8.027375
1327.000000	8.019561
1326.000000	8.029600
1325.000000	8.029609
1324.000000	8.031176
1323.000000	8.016438
1322.000000	8.038967
1321.000000	8.074443
1320.000000	8.080947
1319.000000	8.035131
1318.000000	8.031806
1317.000000	8.018876
1316.000000	8.044041
1315.000000	8.084016
1314.000000	8.087649
1313.000000	8.059936
1312.000000	8.049613
1311.000000	8.028367
1310.000000	8.050993
1309.000000	8.058906
1308.000000	8.054061
1307.000000	8.064372
1306.000000	8.062222
1305.000000	8.058020
1304.000000	8.041558
1303.000000	8.036686
1302.000000	8.028070
1301.000000	8.054667
1300.000000	8.057137
1299.000000	8.066241
1298.000000	8.052614
1297.000000	8.048213
1296.000000	8.039338
1295.000000	8.032900
1294.000000	8.029962
1293.000000	8.031945
1292.000000	8.028063
1291.000000	8.018884
1290.000000	8.011088
1289.000000	8.002701
1288.000000	7.962531
1287.000000	7.959065
1286.000000	7.957895
1285.000000	7.968342
1284.000000	7.967504
1283.000000	7.972169
1282.000000	7.969206
1281.000000	7.967710
1280.000000	7.963742
1279.000000	7.937314
1278.000000	7.929548
1277.000000	7.925546
1276.000000	7.914219
1275.000000	7.923247
1274.000000	7.929420
1273.000000	7.921310
1272.000000	7.929180
1271.000000	7.922256
1270.000000	7.919604
1269.000000	7.925803
1268.000000	7.948030
1267.000000	7.984470
1266.000000	7.966209
1265.000000	7.937796
1264.000000	7.947021
1263.000000	7.940919
1262.000000	7.942816
1261.000000	7.965237
1260.000000	7.946716
1259.000000	7.925476
1258.000000	7.921450
1257.000000	7.908154
1256.000000	7.912914
1255.000000	7.938511
1254.000000	7.945573
1253.000000	7.935376
1252.000000	7.916308
1251.000000	7.908294
1250.000000	7.898609
1249.000000	7.895814
1248.000000	7.892051
1247.000000	7.881606
1246.000000	7.880239
1245.000000	7.875233
1244.000000	7.869143
1243.000000	7.829250
1242.000000	7.833561
1241.000000	7.831976
1240.000000	7.817146
1239.000000	7.817512
1238.000000	7.783677
1237.000000	7.763170
1236.000000	7.754190
1235.000000	7.763230
1234.000000	7.728259
1233.000000	7.715866
1232.000000	7.709825
1231.000000	7.701637
1230.000000	7.665420
1229.000000	7.664379
1228.000000	7.654281
1227.000000	7.655389
1226.000000	7.649227
1225.000000	7.654659
1224.000000	7.629107
1223.000000	7.574543
1222.000000	7.557439
1221.000000	7.558050
1220.000000	7.552859
1219.000000	7.533727
1218.000000	7.522925
1217.000000	7.533955
1216.000000	7.531486
1215.000000	7.502088
1214.000000	7.485114
1213.000000	7.464143
1212.000000	7.432333
1211.000000	7.430136
1210.000000	7.411985
1209.000000	7.399335
1208.000000	7.409031
1207.000000	7.388562
1206.000000	7.356868
1205.000000	7.357072
1204.000000	7.331744
1203.000000	7.303408
1202.000000	7.288986
1201.000000	7.293168
1200.000000	7.269418
1199.000000	7.244044
1198.000000	7.220947
1197.000000	7.206552
1196.000000	7.219833
1195.000000	7.213807
1194.000000	7.200112
1193.000000	7.181002
1192.000000	7.166239
1191.000000	7.162944
1190.000000	7.132716
1189.000000	7.082833
1188.000000	7.090469
1187.000000	7.112988
1186.000000	7.090762
1185.000000	7.080028
1184.000000	7.092837
1183.000000	7.100869
1182.000000	7.109010
1181.000000	7.114372
1180.000000	7.134847
1179.000000	7.163921
1178.000000	7.178631
1177.000000	7.188137
1176.000000	7.214873
1175.000000	7.234937
1174.000000	7.256607
1173.000000	7.283007
1172.000000	7.310493
1171.000000	7.327621
1170.000000	7.343199
1169.000000	7.367325
1168.000000	7.387537
1167.000000	7.417344
1166.000000	7.449679
1165.000000	7.480199
1164.000000	7.502303
1163.000000	7.526388
1162.000000	7.549445
1161.000000	7.568463
1160.000000	7.578056
1159.000000	7.579166
1158.000000	7.612820
1157.000000	7.651185
1156.000000	7.672881
1155.000000	7.693167
1154.000000	7.712899
1153.000000	7.732803
1152.000000	7.760807
1151.000000	7.788996
1150.000000	7.809916
1149.000000	7.833837
1148.000000	7.855019
1147.000000	7.859518
1146.000000	7.868765
1145.000000	7.890139
1144.000000	7.916181
1143.000000	7.929361
1142.000000	7.947642
1141.000000	7.937416
1140.000000	7.923771
1139.000000	7.941369
1138.000000	7.969642
1137.000000	7.989582
1136.000000	8.004763
1135.000000	8.020297
1134.000000	8.029134
1133.000000	8.051045
1132.000000	8.065635
1131.000000	8.072361
1130.000000	8.085499
1129.000000	8.104526
1128.000000	8.086851
1127.000000	8.081105
1126.000000	8.086754
1125.000000	8.096788
1124.000000	8.118564
1123.000000	8.122871
1122.000000	8.122742
1121.000000	8.131242
1120.000000	8.137065
1119.000000	8.145068
1118.000000	8.157733
1117.000000	8.154847
1116.000000	8.158584
1115.000000	8.156178
1114.000000	8.155135
1113.000000	8.146059
1112.000000	8.139411
1111.000000	8.137277
1110.000000	8.142820
1109.000000	8.150303
1108.000000	8.148222
1107.000000	8.138673
1106.000000	8.115975
1105.000000	8.115384
1104.000000	8.115648
1103.000000	8.122065
1102.000000	8.122243
1101.000000	8.128857
1100.000000	8.126431
1099.000000	8.128584
1098.000000	8.133896
1097.000000	8.104253
1096.000000	8.089507
1095.000000	8.109522
1094.000000	8.115631
1093.000000	8.117729
1092.000000	8.114258
1091.000000	8.109283
1090.000000	8.128671
1089.000000	8.101696
1088.000000	8.083338
1087.000000	8.086089
1086.000000	8.081132
1085.000000	8.081000
1084.000000	8.088919
1083.000000	8.084543
1082.000000	8.064535
1081.000000	8.065404
1080.000000	8.077385
1079.000000	8.068819
1078.000000	8.088013
1077.000000	8.079930
1076.000000	8.062369
1075.000000	8.057273
1074.000000	8.032811
1073.000000	8.041894
1072.000000	8.049315
1071.000000	8.053282
1070.000000	8.047835
1069.000000	8.031915
1068.000000	8.008840
1067.000000	8.021290
1066.000000	8.011059
1065.000000	8.023903
1064.000000	8.022908
1063.000000	8.014878
1062.000000	8.009390
1061.000000	7.986213
1060.000000	8.000735
1059.000000	7.995995
1058.000000	7.996064
1057.000000	7.988387
1056.000000	7.964286
1055.000000	7.965180
1054.000000	7.965924
1053.000000	7.966627
1052.000000	7.972253
1051.000000	7.948007
1050.000000	7.947660
1049.000000	7.951257
1048.000000	7.940035
1047.000000	7.970980
1046.000000	7.940504
1045.000000	7.926218
1044.000000	7.920235
1043.000000	7.923403
1042.000000	7.935701
1041.000000	7.894477
1040.000000	7.918258
1039.000000	7.934907
1038.000000	7.927487
1037.000000	7.900997
1036.000000	7.876250
1035.000000	7.902637
1034.000000	7.913163
1033.000000	7.892804
1032.000000	7.895093
1031.000000	7.904824
1030.000000	7.879329
1029.000000	7.883231
1028.000000	7.899636
1027.000000	7.908118
1026.000000	7.879273
1025.000000	7.865061
1024.000000	7.893481
1023.000000	7.884223
1022.000000	7.873296
1021.000000	7.860206
1020.000000	7.858421
1019.000000	7.875218
1018.000000	7.878487
1017.000000	7.889347
1016.000000	7.880306
1015.000000	7.879482
1014.000000	7.894300
1013.000000	7.886534
1012.000000	7.890954
1011.000000	7.886007
1010.000000	7.884444
1009.000000	7.880386
1008.000000	7.886179
1007.000000	7.877926
1006.000000	7.907633
1005.000000	7.919615
1004.000000	7.933677
1003.000000	7.932325
1002.000000	7.934133
1001.000000	7.935398
1000.000000	7.943441
999.000000	7.961283
998.000000	7.971047
997.000000	7.964225
996.000000	7.968242
995.000000	7.977296
994.000000	7.970735
993.000000	7.967515
992.000000	7.968330
991.000000	7.971424
990.000000	7.984265
989.000000	7.986295
988.000000	7.981608
987.000000	7.965672
986.000000	7.978282
985.000000	7.990503
984.000000	7.994435
983.000000	7.997072
982.000000	7.988254
981.000000	7.979871
980.000000	7.986310
979.000000	7.994737
978.000000	7.990935
977.000000	7.993797
976.000000	7.998484
975.000000	7.994676
974.000000	7.996827
973.000000	8.004315
972.000000	8.007174
971.000000	8.007444
970.000000	7.987462
969.000000	7.992878
968.000000	8.009652
967.000000	8.005873
966.000000	7.993764
965.000000	7.991562
964.000000	8.000996
963.000000	8.006959
962.000000	8.008861
961.000000	8.023725
960.000000	8.027071
959.000000	8.015270
958.000000	8.008669
957.000000	8.002322
956.000000	7.996664
955.000000	8.017075
954.000000	8.016034
953.000000	8.018678
952.000000	8.017540
951.000000	8.017626
950.000000	8.019568
949.000000	8.007442
948.000000	8.002406
947.000000	8.013286
946.000000	8.020499
945.000000	8.018767
944.000000	8.027003
943.000000	8.021157
942.000000	8.011660
941.000000	8.009487
940.000000	8.015414
939.000000	8.022635
938.000000	8.017904
937.000000	8.011283
936.000000	7.997904
935.000000	7.990391
934.000000	7.982695
933.000000	7.974405
932.000000	7.966518
931.000000	7.975310
930.000000	7.999284
929.000000	7.980818
928.000000	7.960013
927.000000	7.942298
926.000000	7.948079
925.000000	7.962818
924.000000	7.975076
923.000000	7.981163
922.000000	7.950079
921.000000	7.948086
920.000000	7.940582
919.000000	7.956111
918.000000	7.947061
917.000000	7.931833
916.000000	7.931369
915.000000	7.946008
914.000000	7.914980
913.000000	7.901119
912.000000	7.944858
911.000000	7.943809
910.000000	7.918849
909.000000	7.933733
908.000000	7.944442
907.000000	7.934790
906.000000	7.944406
905.000000	7.913596
904.000000	7.900931
903.000000	7.915756
902.000000	7.944544
901.000000	7.937710
900.000000	7.908797
899.000000	7.951848
898.000000	7.945474
897.000000	7.945170
896.000000	7.952334
895.000000	7.937861
894.000000	7.943145
893.000000	7.939683
892.000000	7.946642
891.000000	7.929595
890.000000	7.945001
889.000000	7.978598
888.000000	8.002829
887.000000	7.947889
886.000000	7.962889
885.000000	7.993674
884.000000	7.955343
883.000000	7.888262
882.000000	7.912593
881.000000	7.966051
880.000000	7.991042
879.000000	7.990330
878.000000	7.976645
877.000000	8.013475
876.000000	7.965913
875.000000	8.042240
874.000000	7.955826
873.000000	7.973533
872.000000	7.951716
871.000000	7.890288
870.000000	7.915902
869.000000	7.954889
868.000000	7.953590
867.000000	7.953294
866.000000	7.951739
865.000000	7.836878
864.000000	7.904377
863.000000	7.874318
862.000000	7.873818
861.000000	7.954413
860.000000	7.925734
859.000000	7.979431
858.000000	7.884239
857.000000	7.859582
856.000000	7.931772
855.000000	7.927861
854.000000	7.913845
853.000000	7.849817
852.000000	7.933020
851.000000	7.940830
850.000000	7.877387
849.000000	7.885061
848.000000	7.857541
847.000000	7.862068
846.000000	7.909072
845.000000	7.825045
844.000000	7.853826
843.000000	7.863004
842.000000	7.905063
841.000000	7.847460
840.000000	7.794448
839.000000	7.844228
838.000000	7.820729
837.000000	7.734876
836.000000	7.779310
835.000000	7.790913
834.000000	7.793098
833.000000	7.723577
832.000000	7.739762
831.000000	7.735342
830.000000	7.734175
829.000000	7.723873
828.000000	7.725744
827.000000	7.700214
826.000000	7.722752
825.000000	7.660027
824.000000	7.660480
823.000000	7.679728
822.000000	7.684946
821.000000	7.690999
820.000000	7.658666
819.000000	7.666333
818.000000	7.644238
817.000000	7.630665
816.000000	7.652605
815.000000	7.613110
814.000000	7.637172
813.000000	7.629604
812.000000	7.575456
811.000000	7.606459
810.000000	7.581119
809.000000	7.614980
808.000000	7.575023
807.000000	7.599315
806.000000	7.571460
805.000000	7.563462
804.000000	7.607525
803.000000	7.564800
802.000000	7.550437
801.000000	7.570547
800.000000	7.547158
799.000000	7.519060
798.000000	7.513466
797.000000	7.537378
796.000000	7.506701
795.000000	7.520323
794.000000	7.493109
793.000000	7.480312
792.000000	7.476022
791.000000	7.452335
790.000000	7.465437
789.000000	7.468045
788.000000	7.456253
787.000000	7.444774
786.000000	7.446818
785.000000	7.434100
784.000000	7.426730
783.000000	7.420309
782.000000	7.393127
781.000000	7.382963
780.000000	7.385290
779.000000	7.370651
778.000000	7.401647
777.000000	7.369809
776.000000	7.368105
775.000000	7.358546
774.000000	7.358268
773.000000	7.325023
772.000000	7.315126
771.000000	7.311639
770.000000	7.303304
769.000000	7.287375
768.000000	7.262758
767.000000	7.273925
766.000000	7.278187
765.000000	7.287308
764.000000	7.252500
763.000000	7.242914
762.000000	7.243561
761.000000	7.236989
760.000000	7.232313
759.000000	7.212454
758.000000	7.209213
757.000000	7.198352
756.000000	7.168662
755.000000	7.174614
754.000000	7.158916
753.000000	7.154548
752.000000	7.163301
751.000000	7.141638
750.000000	7.121103
749.000000	7.111527
748.000000	7.097877
747.000000	7.089716
746.000000	7.089029
745.000000	7.082917
744.000000	7.067121
743.000000	7.041157
742.000000	7.030311
741.000000	7.024533
740.000000	7.022280
739.000000	7.020100
738.000000	7.011797
737.000000	6.998337
736.000000	6.984941
735.000000	6.967700
734.000000	6.964553
733.000000	6.953793
732.000000	6.943013
731.000000	6.941122
730.000000	6.932377
729.000000	6.909047
728.000000	6.903766
727.000000	6.896985
726.000000	6.881759
725.000000	6.869261
724.000000	6.850407
723.000000	6.844190
722.000000	6.838045
721.000000	6.821200
720.000000	6.805143
719.000000	6.789706
718.000000	6.774990
717.000000	6.771786
716.000000	6.769836
715.000000	6.742897
714.000000	6.731226
713.000000	6.741573
712.000000	6.732005
711.000000	6.710291
710.000000	6.685150
709.000000	6.663864
708.000000	6.660980
707.000000	6.647950
706.000000	6.625584
705.000000	6.615568
704.000000	6.604667
703.000000	6.588435
702.000000	6.575064
701.000000	6.566259
700.000000	6.554872
699.000000	6.537253
698.000000	6.526956
697.000000	6.509424
696.000000	6.491737
695.000000	6.469143
694.000000	6.456841
693.000000	6.456753
692.000000	6.448088
691.000000	6.425199
690.000000	6.406848
689.000000	6.379330
688.000000	6.352378
687.000000	6.330223
686.000000	6.317061
685.000000	6.302526
684.000000	6.292087
683.000000	6.277036
682.000000	6.255068
681.000000	6.238627
680.000000	6.235734
679.000000	6.218827
678.000000	6.198473
677.000000	6.184977
676.000000	6.163223
675.000000	6.147616
674.000000	6.133798
673.000000	6.110129
672.000000	6.095904
671.000000	6.083768
670.000000	6.068300
669.000000	6.046014
668.000000	6.029353
667.000000	6.015106
666.000000	6.007463
665.000000	5.977442
664.000000	5.951225
663.000000	5.935290
662.000000	5.928768
661.000000	5.905208
660.000000	5.887258
659.000000	5.873360
658.000000	5.854889
657.000000	5.836876
656.000000	5.804362
655.000000	5.791794
654.000000	5.776311
653.000000	5.757049
652.000000	5.732468
651.000000	5.719984
650.000000	5.698547
649.000000	5.690949
648.000000	5.662694
647.000000	5.644510
646.000000	5.617160
645.000000	5.602335
644.000000	5.581608
643.000000	5.562409
642.000000	5.542889
641.000000	5.515908
640.000000	5.498115
639.000000	5.479225
638.000000	5.458109
637.000000	5.431038
636.000000	5.418427
635.000000	5.408225
634.000000	5.374194
633.000000	5.351750
632.000000	5.326538
631.000000	5.315285
630.000000	5.280918
629.000000	5.256479
628.000000	5.232763
627.000000	5.216736
626.000000	5.198439
625.000000	5.173480
624.000000	5.153125
623.000000	5.129916
622.000000	5.100773
621.000000	5.083640
620.000000	5.056733
619.000000	5.031845
618.000000	5.014467
617.000000	4.988088
616.000000	4.959343
615.000000	4.940657
614.000000	4.909498
613.000000	4.893697
612.000000	4.866388
611.000000	4.843965
610.000000	4.810523
609.000000	4.785413
608.000000	4.753563
607.000000	4.730982
606.000000	4.717457
605.000000	4.685241
604.000000	4.661038
603.000000	4.630678
602.000000	4.595661
601.000000	4.583217
600.000000	4.559595
599.000000	4.525415
598.000000	4.490571
597.000000	4.476624
596.000000	4.455141
595.000000	4.431891
594.000000	4.398434
593.000000	4.361609
592.000000	4.339368
591.000000	4.316520
590.000000	4.296630
589.000000	4.270779
588.000000	4.231787
587.000000	4.206901
586.000000	4.180529
585.000000	4.150732
584.000000	4.117403
583.000000	4.095303
582.000000	4.070602
581.000000	4.041542
580.000000	4.009719
579.000000	3.978204
578.000000	3.948931
577.000000	3.934076
576.000000	3.901246
575.000000	3.867239
574.000000	3.832372
573.000000	3.802202
572.000000	3.770779
571.000000	3.755635
570.000000	3.716770
569.000000	3.683799
568.000000	3.658734
567.000000	3.634596
566.000000	3.601711
565.000000	3.579559
564.000000	3.539577
563.000000	3.508663
562.000000	3.482440
561.000000	3.484090
560.000000	3.444063
559.000000	3.421101
558.000000	3.383680
557.000000	3.361173
556.000000	3.327890
555.000000	3.295672
554.000000	3.267868
553.000000	3.228561
552.000000	3.209532
551.000000	3.181657
550.000000	3.151817
549.000000	3.114594
548.000000	3.083537
547.000000	3.048062
546.000000	3.021433
545.000000	2.998358
544.000000	2.965638
543.000000	2.933439
542.000000	2.909539
541.000000	2.872644
540.000000	2.842060
539.000000	2.817352
538.000000	2.781881
537.000000	2.750183
536.000000	2.721465
535.000000	2.692223
534.000000	2.662875
533.000000	2.630542
532.000000	2.600631
531.000000	2.571924
530.000000	2.536374
529.000000	2.508239
528.000000	2.476175
527.000000	2.448332
526.000000	2.418659
525.000000	2.386039
524.000000	2.352718
523.000000	2.330451
522.000000	2.294046
521.000000	2.261073
520.000000	2.232283
519.000000	2.203544
518.000000	2.171792
517.000000	2.144988
516.000000	2.120152
515.000000	2.095495
514.000000	2.063754
513.000000	2.030459
512.000000	1.996051
511.000000	1.976447
510.000000	1.950950
509.000000	1.923023
508.000000	1.890881
507.000000	1.862149
506.000000	1.835011
505.000000	1.810658
504.000000	1.787266
503.000000	1.759790
502.000000	1.729979
501.000000	1.706370
500.000000	1.678550
499.000000	1.652455
498.000000	1.632319
497.000000	1.608636
496.000000	1.576354
495.000000	1.552781
494.000000	1.528466
493.000000	1.504465
492.000000	1.482529
491.000000	1.459098
490.000000	1.435249
489.000000	1.415523
488.000000	1.398091
487.000000	1.384649
486.000000	1.363675
485.000000	1.346361
484.000000	1.328782
483.000000	1.307737
482.000000	1.287062
481.000000	1.262783
480.000000	1.238665
479.000000	1.217533
478.000000	1.193992
477.000000	1.176299
476.000000	1.152171
475.000000	1.129378
474.000000	1.109966
473.000000	1.087298
472.000000	1.067050
471.000000	1.048194
470.000000	1.033293
469.000000	1.015767
468.000000	0.995537
467.000000	0.975405
466.000000	0.960632
465.000000	0.940361
464.000000	0.916405
463.000000	0.896555
462.000000	0.882745
461.000000	0.867710
460.000000	0.848854
459.000000	0.830174
458.000000	0.812512
457.000000	0.795578
456.000000	0.784471
455.000000	0.771583
454.000000	0.751677
453.000000	0.733583
452.000000	0.719495
451.000000	0.703568
450.000000	0.693645
449.000000	0.682495
448.000000	0.665872
447.000000	0.650136
446.000000	0.638001
445.000000	0.626533
444.000000	0.617933
443.000000	0.610419
442.000000	0.595814
441.000000	0.577038
440.000000	0.559905
439.000000	0.549739
438.000000	0.538171
437.000000	0.526815
436.000000	0.515860
435.000000	0.505231
434.000000	0.491760
433.000000	0.477805
432.000000	0.466171
431.000000	0.457088
430.000000	0.448780
429.000000	0.437338
428.000000	0.427068
427.000000	0.417816
426.000000	0.412618
425.000000	0.397528
424.000000	0.386723
423.000000	0.380671
422.000000	0.369107
421.000000	0.359732
420.000000	0.354150
419.000000	0.344760
418.000000	0.336795
417.000000	0.327423
416.000000	0.320998
415.000000	0.313383
414.000000	0.305823
413.000000	0.297059
412.000000	0.289452
411.000000	0.280556
410.000000	0.275425
409.000000	0.267858
408.000000	0.266402
407.000000	0.261863
406.000000	0.253690
405.000000	0.245810
404.000000	0.239076
403.000000	0.231883
402.000000	0.229192
401.000000	0.225598
400.000000	0.218962
399.000000	0.213205
398.000000	0.208992
397.000000	0.203561
396.000000	0.201172
395.000000	0.197594
394.000000	0.197538
393.000000	0.189696
392.000000	0.189604
391.000000	0.184822
390.000000	0.182547
389.000000	0.177774
388.000000	0.170705
387.000000	0.171847
386.000000	0.164020
385.000000	0.161783
384.000000	0.157829
383.000000	0.154910
382.000000	0.148723
381.000000	0.146353
380.000000	0.145302
379.000000	0.142950
378.000000	0.139942
377.000000	0.151844
376.000000	0.154807
375.000000	0.153974
374.000000	0.147798
373.000000	0.144347
372.000000	0.136844
371.000000	0.130813
370.000000	0.121142
369.000000	0.125272
368.000000	0.126161
367.000000	0.117393
366.000000	0.112748
365.000000	0.111303
364.000000	0.108960
363.000000	0.104455
362.000000	0.105240
361.000000	0.100553
360.000000	0.097639
359.000000	0.090749
358.000000	0.096114
357.000000	0.092569
356.000000	0.086841
355.000000	0.092905
354.000000	0.084440
353.000000	0.083988
352.000000	0.081270
351.000000	0.078652
350.000000	0.082177
349.000000	0.079509
348.000000	0.077335
347.000000	0.071996
346.000000	0.080972
345.000000	0.071215
344.000000	0.081229
343.000000	0.073703
342.000000	0.071510
341.000000	0.076498
340.000000	0.072385
339.000000	0.061021
338.000000	0.067471
337.000000	0.065152
336.000000	0.061215
335.000000	0.060301
334.000000	0.066822
333.000000	0.055746
332.000000	0.072413
331.000000	0.066367
330.000000	0.066892
329.000000	0.050570
328.000000	0.061981
327.000000	0.058298
326.000000	0.064732
325.000000	0.061810
324.000000	0.052418
323.000000	0.053561
322.000000	0.057535
321.000000	0.048520
320.000000	0.062367
319.000000	0.068180
318.000000	0.068887
317.000000	0.067885
316.000000	0.077925
315.000000	0.075773
314.000000	0.083674
313.000000	0.070930
312.000000	0.070048
311.000000	0.063579
310.000000	0.068795
309.000000	0.070008
308.000000	0.067693
307.000000	0.068230
306.000000	0.073722
305.000000	0.065516
304.000000	0.060883
303.000000	0.071642
302.000000	0.069817
301.000000	0.065917
300.000000	0.063499
299.000000	0.065906
298.000000	0.063516
297.000000	0.065895
296.000000	0.063953
295.000000	0.070387
294.000000	0.060853
293.000000	0.058067
292.000000	0.055903
291.000000	0.063652
290.000000	0.060244
289.000000	0.053439
288.000000	0.050773
287.000000	0.053363
286.000000	0.057577
285.000000	0.060447
284.000000	0.061637
283.000000	0.054869
282.000000	0.052821
281.000000	0.060699
280.000000	0.061202
279.000000	0.057041
278.000000	0.061256
277.000000	0.059782
276.000000	0.059394
275.000000	0.060055
274.000000	0.060124
273.000000	0.064498
272.000000	0.063349
271.000000	0.066084
270.000000	0.073701
269.000000	0.076703
268.000000	0.067840
267.000000	0.072528
266.000000	0.081117
265.000000	0.077917
264.000000	0.080468
263.000000	0.077439
262.000000	0.081516
261.000000	0.081317
260.000000	0.079315
259.000000	0.079653
258.000000	0.083294
257.000000	0.081713
256.000000	0.084413
255.000000	0.093222
254.000000	0.099827
253.000000	0.095387
252.000000	0.088829
251.000000	0.099505
250.000000	0.094767
249.000000	0.095373
248.000000	0.090963
247.000000	0.088208
246.000000	0.085991
245.000000	0.086115
244.000000	0.086839
243.000000	0.085311
242.000000	0.076265
241.000000	0.070505
240.000000	0.064178
239.000000	0.047466
238.000000	0.052144
237.000000	0.051085
236.000000	0.045667
235.000000	0.046275
234.000000	0.042569
233.000000	0.038807
232.000000	0.037074
231.000000	0.029316
230.000000	0.021954
229.000000	0.027566
228.000000	0.022010
227.000000	0.012159
226.000000	0.010154
225.000000	0.019164
224.000000	0.017560
223.000000	0.001583
222.000000	0.010993
221.000000	0.012093
220.000000	-0.001488
219.000000	-0.003724
218.000000	-0.006941
217.000000	-0.009777
216.000000	-0.005603
215.000000	-0.006156
214.000000	-0.011914
213.000000	-0.012943
212.000000	-0.002508
211.000000	-0.009717
210.000000	-0.012275
209.000000	-0.015196
208.000000	-0.020892
207.000000	0.011975
206.000000	0.019573
205.000000	-0.019577
204.000000	-0.018218
203.000000	0.002138
202.000000	-0.007150
201.000000	0.024853
200.000000	0.058729
