PE UV       SUBTECH     SPECTRUM    ASCII       PEDS        4.00        
   -1
TTms1482162.Sample.asc
18/03/22
11:03:39.00
18/03/22
11:03:39.00
Administrator

200.000000
1
Lambda 750
750N8071901
PerkinElmer UV WinLab 6.0.4.0738 / 1.61.00 Lambda 900

0
0
3350/servo 860.8/2
0
0
UV/VIS
1
1
1
CommonBeamDepol,150mm sphere / downward view
0
0
0
0
Program
Program
3350/servo 860.8/2
3350/0.2 860.8/0.2
3350/0.2 860.8/0.2
0
1
 
 
 
0
 
860.8
319.2
860.8
Front
100
on
 
 
0
0
0
 
0
 
 
 
0
 
 
0
0
0
0
0
 
 
 
 
0
0


0
0
#HDR
-1
-1
#GR
nm
%T
1.0
0.0
2350.000000
-1.000000
2151
8
10.708434
-0.014306
#DATA
2350.000000	2.896487
2349.000000	3.160237
2348.000000	3.197775
2347.000000	4.059415
2346.000000	3.554096
2345.000000	3.515270
2344.000000	3.166656
2343.000000	3.014395
2342.000000	3.203450
2341.000000	3.012338
2340.000000	3.397134
2339.000000	3.866418
2338.000000	3.999579
2337.000000	3.781491
2336.000000	4.063067
2335.000000	3.743012
2334.000000	3.868078
2333.000000	4.278443
2332.000000	4.391111
2331.000000	4.356069
2330.000000	4.350721
2329.000000	3.810923
2328.000000	4.216109
2327.000000	3.818995
2326.000000	3.979304
2325.000000	4.072202
2324.000000	3.943817
2323.000000	3.671103
2322.000000	3.630182
2321.000000	3.527573
2320.000000	3.757292
2319.000000	3.843310
2318.000000	4.049246
2317.000000	3.920348
2316.000000	3.524643
2315.000000	3.451800
2314.000000	3.418179
2313.000000	3.814748
2312.000000	3.598703
2311.000000	3.738263
2310.000000	3.553817
2309.000000	3.417165
2308.000000	3.388758
2307.000000	3.488899
2306.000000	3.421338
2305.000000	3.464791
2304.000000	3.505496
2303.000000	3.562229
2302.000000	3.536359
2301.000000	3.470035
2300.000000	3.238135
2299.000000	3.297747
2298.000000	3.538731
2297.000000	3.147714
2296.000000	3.034878
2295.000000	3.140354
2294.000000	3.489249
2293.000000	3.066324
2292.000000	3.074453
2291.000000	3.198660
2290.000000	3.297550
2289.000000	3.210377
2288.000000	3.100791
2287.000000	3.194443
2286.000000	3.119015
2285.000000	3.228459
2284.000000	3.262972
2283.000000	3.122088
2282.000000	3.076372
2281.000000	3.202780
2280.000000	3.208724
2279.000000	3.072526
2278.000000	2.975230
2277.000000	2.911922
2276.000000	2.943630
2275.000000	3.188894
2274.000000	3.212506
2273.000000	3.212760
2272.000000	3.167962
2271.000000	3.199573
2270.000000	3.340251
2269.000000	3.146698
2268.000000	3.152655
2267.000000	3.382379
2266.000000	3.404909
2265.000000	3.211498
2264.000000	3.347441
2263.000000	3.356035
2262.000000	3.427265
2261.000000	3.534877
2260.000000	3.453037
2259.000000	3.520727
2258.000000	3.588693
2257.000000	3.629517
2256.000000	3.838059
2255.000000	3.908831
2254.000000	3.900402
2253.000000	3.782337
2252.000000	3.731289
2251.000000	3.799112
2250.000000	3.967634
2249.000000	4.074209
2248.000000	4.057450
2247.000000	4.148521
2246.000000	4.155126
2245.000000	4.164108
2244.000000	4.262286
2243.000000	4.334816
2242.000000	4.364467
2241.000000	4.333058
2240.000000	4.255008
2239.000000	4.339350
2238.000000	4.508335
2237.000000	4.465019
2236.000000	4.407713
2235.000000	4.472884
2234.000000	4.591868
2233.000000	4.581400
2232.000000	4.493763
2231.000000	4.616661
2230.000000	4.693645
2229.000000	4.646457
2228.000000	4.701529
2227.000000	4.738299
2226.000000	4.728249
2225.000000	4.644416
2224.000000	4.522566
2223.000000	4.461338
2222.000000	4.481483
2221.000000	4.451812
2220.000000	4.451845
2219.000000	4.587960
2218.000000	4.597972
2217.000000	4.550061
2216.000000	4.597065
2215.000000	4.607174
2214.000000	4.555508
2213.000000	4.481104
2212.000000	4.532511
2211.000000	4.530485
2210.000000	4.456548
2209.000000	4.367913
2208.000000	4.355298
2207.000000	4.328768
2206.000000	4.332803
2205.000000	4.366769
2204.000000	4.338080
2203.000000	4.250377
2202.000000	4.292685
2201.000000	4.435270
2200.000000	4.391331
2199.000000	4.223790
2198.000000	4.282310
2197.000000	4.258369
2196.000000	4.264494
2195.000000	4.172569
2194.000000	4.102934
2193.000000	4.243574
2192.000000	4.081372
2191.000000	4.016299
2190.000000	3.995771
2189.000000	3.935152
2188.000000	3.975622
2187.000000	4.012830
2186.000000	3.890641
2185.000000	4.013446
2184.000000	3.963594
2183.000000	3.956814
2182.000000	4.006827
2181.000000	4.036437
2180.000000	4.002923
2179.000000	3.936076
2178.000000	3.938036
2177.000000	3.807073
2176.000000	3.951874
2175.000000	3.934347
2174.000000	3.866919
2173.000000	4.035225
2172.000000	4.115849
2171.000000	4.071795
2170.000000	3.934959
2169.000000	4.115181
2168.000000	4.164216
2167.000000	4.163306
2166.000000	4.126517
2165.000000	4.132976
2164.000000	4.109986
2163.000000	4.095496
2162.000000	4.201687
2161.000000	4.175230
2160.000000	4.161771
2159.000000	4.190494
2158.000000	4.261941
2157.000000	4.420082
2156.000000	4.391980
2155.000000	4.399170
2154.000000	4.415514
2153.000000	4.501907
2152.000000	4.581862
2151.000000	4.636178
2150.000000	4.523000
2149.000000	4.685227
2148.000000	4.692899
2147.000000	4.437894
2146.000000	4.413260
2145.000000	4.671877
2144.000000	4.683600
2143.000000	4.662393
2142.000000	4.699785
2141.000000	4.630452
2140.000000	4.598720
2139.000000	4.820805
2138.000000	5.001817
2137.000000	4.960432
2136.000000	4.904864
2135.000000	4.949047
2134.000000	5.158870
2133.000000	5.018018
2132.000000	4.991889
2131.000000	5.144654
2130.000000	5.059930
2129.000000	5.032241
2128.000000	5.018372
2127.000000	5.122247
2126.000000	5.035335
2125.000000	5.017915
2124.000000	5.001795
2123.000000	5.081869
2122.000000	5.233086
2121.000000	5.080618
2120.000000	5.088675
2119.000000	5.305922
2118.000000	5.130700
2117.000000	5.085823
2116.000000	5.157253
2115.000000	5.195338
2114.000000	5.245601
2113.000000	5.243424
2112.000000	5.153188
2111.000000	5.087839
2110.000000	5.077983
2109.000000	5.201897
2108.000000	5.171001
2107.000000	5.163613
2106.000000	5.271374
2105.000000	5.274217
2104.000000	5.363273
2103.000000	5.235179
2102.000000	5.203007
2101.000000	5.235083
2100.000000	5.125669
2099.000000	5.242714
2098.000000	5.210972
2097.000000	5.153236
2096.000000	5.257939
2095.000000	5.194682
2094.000000	5.353650
2093.000000	5.212433
2092.000000	5.241024
2091.000000	5.227938
2090.000000	5.271893
2089.000000	5.248895
2088.000000	5.183681
2087.000000	5.129222
2086.000000	5.157235
2085.000000	5.166232
2084.000000	5.164234
2083.000000	5.142075
2082.000000	5.080974
2081.000000	5.134051
2080.000000	5.072454
2079.000000	5.056416
2078.000000	5.003681
2077.000000	5.009044
2076.000000	4.975054
2075.000000	4.895132
2074.000000	4.808587
2073.000000	4.860989
2072.000000	4.902558
2071.000000	4.835261
2070.000000	4.800880
2069.000000	4.780489
2068.000000	4.702725
2067.000000	4.632835
2066.000000	4.552965
2065.000000	4.462241
2064.000000	4.428919
2063.000000	4.448196
2062.000000	4.448157
2061.000000	4.394697
2060.000000	4.385804
2059.000000	4.312270
2058.000000	4.247396
2057.000000	4.293743
2056.000000	4.276866
2055.000000	4.243978
2054.000000	4.173899
2053.000000	4.163444
2052.000000	4.125415
2051.000000	4.038643
2050.000000	4.008067
2049.000000	4.006619
2048.000000	3.977584
2047.000000	3.926407
2046.000000	3.911106
2045.000000	3.899271
2044.000000	3.899205
2043.000000	3.927068
2042.000000	3.908641
2041.000000	3.928095
2040.000000	3.993199
2039.000000	3.986681
2038.000000	3.972689
2037.000000	3.986114
2036.000000	3.982821
2035.000000	3.993472
2034.000000	4.016566
2033.000000	4.039710
2032.000000	4.096689
2031.000000	4.105379
2030.000000	4.106621
2029.000000	4.143485
2028.000000	4.166164
2027.000000	4.199581
2026.000000	4.226738
2025.000000	4.293105
2024.000000	4.340942
2023.000000	4.296836
2022.000000	4.284152
2021.000000	4.305824
2020.000000	4.321260
2019.000000	4.299239
2018.000000	4.316101
2017.000000	4.339927
2016.000000	4.325983
2015.000000	4.302614
2014.000000	4.297570
2013.000000	4.311690
2012.000000	4.305689
2011.000000	4.299569
2010.000000	4.300443
2009.000000	4.241242
2008.000000	4.199476
2007.000000	4.202231
2006.000000	4.161276
2005.000000	4.155991
2004.000000	4.137168
2003.000000	4.067085
2002.000000	4.050758
2001.000000	4.068776
2000.000000	4.047979
1999.000000	4.010189
1998.000000	3.966210
1997.000000	3.950296
1996.000000	3.942921
1995.000000	3.896835
1994.000000	3.866965
1993.000000	3.835781
1992.000000	3.794830
1991.000000	3.780879
1990.000000	3.768446
1989.000000	3.730473
1988.000000	3.717998
1987.000000	3.683884
1986.000000	3.654202
1985.000000	3.611153
1984.000000	3.591605
1983.000000	3.599059
1982.000000	3.571854
1981.000000	3.549835
1980.000000	3.555971
1979.000000	3.544235
1978.000000	3.473126
1977.000000	3.472054
1976.000000	3.479883
1975.000000	3.418321
1974.000000	3.368141
1973.000000	3.371011
1972.000000	3.358208
1971.000000	3.344378
1970.000000	3.306735
1969.000000	3.318450
1968.000000	3.282320
1967.000000	3.250463
1966.000000	3.251167
1965.000000	3.269723
1964.000000	3.252628
1963.000000	3.234206
1962.000000	3.168569
1961.000000	3.204364
1960.000000	3.150253
1959.000000	3.135567
1958.000000	3.127386
1957.000000	3.163311
1956.000000	3.105809
1955.000000	3.116199
1954.000000	3.072917
1953.000000	3.106772
1952.000000	3.077009
1951.000000	3.107464
1950.000000	3.080342
1949.000000	3.071595
1948.000000	3.045559
1947.000000	3.087512
1946.000000	3.071704
1945.000000	3.119241
1944.000000	3.117519
1943.000000	3.065520
1942.000000	3.063578
1941.000000	3.139091
1940.000000	3.116762
1939.000000	3.155220
1938.000000	3.174426
1937.000000	3.200911
1936.000000	3.225613
1935.000000	3.223317
1934.000000	3.305063
1933.000000	3.349518
1932.000000	3.272083
1931.000000	3.337993
1930.000000	3.354435
1929.000000	3.358781
1928.000000	3.430170
1927.000000	3.418741
1926.000000	3.551134
1925.000000	3.642738
1924.000000	3.666042
1923.000000	3.655856
1922.000000	3.759408
1921.000000	3.816905
1920.000000	3.871843
1919.000000	3.924972
1918.000000	3.977721
1917.000000	4.122004
1916.000000	4.118305
1915.000000	4.220328
1914.000000	4.302460
1913.000000	4.411248
1912.000000	4.509946
1911.000000	4.511336
1910.000000	4.626285
1909.000000	4.789867
1908.000000	4.895613
1907.000000	4.992153
1906.000000	5.096047
1905.000000	5.279658
1904.000000	5.355123
1903.000000	5.524193
1902.000000	5.668610
1901.000000	5.841407
1900.000000	5.898270
1899.000000	5.999648
1898.000000	6.217780
1897.000000	6.352410
1896.000000	6.478918
1895.000000	6.639908
1894.000000	6.784140
1893.000000	6.869537
1892.000000	7.058996
1891.000000	7.133595
1890.000000	7.271743
1889.000000	7.387645
1888.000000	7.568240
1887.000000	7.725207
1886.000000	7.872327
1885.000000	7.899718
1884.000000	8.018978
1883.000000	8.184461
1882.000000	8.274634
1881.000000	8.357865
1880.000000	8.418202
1879.000000	8.514576
1878.000000	8.625469
1877.000000	8.724682
1876.000000	8.805215
1875.000000	8.830221
1874.000000	8.936417
1873.000000	9.051682
1872.000000	9.081246
1871.000000	9.119161
1870.000000	9.192891
1869.000000	9.250950
1868.000000	9.246562
1867.000000	9.250840
1866.000000	9.285209
1865.000000	9.312705
1864.000000	9.329400
1863.000000	9.334514
1862.000000	9.350210
1861.000000	9.364259
1860.000000	9.391796
1859.000000	9.356837
1858.000000	9.354560
1857.000000	9.349532
1856.000000	9.407901
1855.000000	9.411945
1854.000000	9.442632
1853.000000	9.452669
1852.000000	9.428636
1851.000000	9.418711
1850.000000	9.435235
1849.000000	9.429131
1848.000000	9.437129
1847.000000	9.460183
1846.000000	9.443637
1845.000000	9.471053
1844.000000	9.433748
1843.000000	9.410382
1842.000000	9.429362
1841.000000	9.401555
1840.000000	9.372282
1839.000000	9.361846
1838.000000	9.327192
1837.000000	9.290626
1836.000000	9.293072
1835.000000	9.293154
1834.000000	9.297764
1833.000000	9.271364
1832.000000	9.240727
1831.000000	9.224804
1830.000000	9.204527
1829.000000	9.172197
1828.000000	9.146622
1827.000000	9.146957
1826.000000	9.146768
1825.000000	9.131885
1824.000000	9.105359
1823.000000	9.085904
1822.000000	9.049441
1821.000000	9.033133
1820.000000	9.016872
1819.000000	8.997146
1818.000000	8.988427
1817.000000	8.960370
1816.000000	8.968424
1815.000000	8.960290
1814.000000	8.941319
1813.000000	8.938630
1812.000000	8.933041
1811.000000	8.928481
1810.000000	8.908999
1809.000000	8.898721
1808.000000	8.893703
1807.000000	8.875561
1806.000000	8.870785
1805.000000	8.869829
1804.000000	8.862224
1803.000000	8.852040
1802.000000	8.829720
1801.000000	8.827596
1800.000000	8.816808
1799.000000	8.818286
1798.000000	8.821438
1797.000000	8.820385
1796.000000	8.815761
1795.000000	8.801206
1794.000000	8.811264
1793.000000	8.797501
1792.000000	8.786803
1791.000000	8.802436
1790.000000	8.811241
1789.000000	8.815784
1788.000000	8.813395
1787.000000	8.806222
1786.000000	8.792115
1785.000000	8.774703
1784.000000	8.775450
1783.000000	8.774885
1782.000000	8.761076
1781.000000	8.748494
1780.000000	8.756490
1779.000000	8.767253
1778.000000	8.760975
1777.000000	8.724632
1776.000000	8.695820
1775.000000	8.674615
1774.000000	8.650102
1773.000000	8.624911
1772.000000	8.613101
1771.000000	8.601521
1770.000000	8.580972
1769.000000	8.566061
1768.000000	8.559593
1767.000000	8.520450
1766.000000	8.493564
1765.000000	8.459391
1764.000000	8.455105
1763.000000	8.460394
1762.000000	8.408753
1761.000000	8.387026
1760.000000	8.348457
1759.000000	8.348852
1758.000000	8.350220
1757.000000	8.336090
1756.000000	8.313649
1755.000000	8.290324
1754.000000	8.280011
1753.000000	8.249379
1752.000000	8.254560
1751.000000	8.256849
1750.000000	8.206058
1749.000000	8.193151
1748.000000	8.168226
1747.000000	8.136378
1746.000000	8.144777
1745.000000	8.109579
1744.000000	8.071495
1743.000000	8.042499
1742.000000	8.036550
1741.000000	8.030939
1740.000000	8.016328
1739.000000	7.973231
1738.000000	7.957629
1737.000000	7.935662
1736.000000	7.954432
1735.000000	7.948683
1734.000000	7.922692
1733.000000	7.931070
1732.000000	7.925891
1731.000000	7.929321
1730.000000	7.913089
1729.000000	7.924809
1728.000000	7.930379
1727.000000	7.930490
1726.000000	7.984171
1725.000000	8.005532
1724.000000	8.007147
1723.000000	8.016368
1722.000000	8.036107
1721.000000	8.079078
1720.000000	8.115807
1719.000000	8.157822
1718.000000	8.166060
1717.000000	8.184513
1716.000000	8.230731
1715.000000	8.235235
1714.000000	8.256674
1713.000000	8.271578
1712.000000	8.274352
1711.000000	8.322245
1710.000000	8.322631
1709.000000	8.309922
1708.000000	8.311314
1707.000000	8.350221
1706.000000	8.360856
1705.000000	8.382390
1704.000000	8.400352
1703.000000	8.394085
1702.000000	8.400674
1701.000000	8.392363
1700.000000	8.418265
1699.000000	8.385631
1698.000000	8.416047
1697.000000	8.431997
1696.000000	8.465387
1695.000000	8.449996
1694.000000	8.428229
1693.000000	8.466536
1692.000000	8.473071
1691.000000	8.490931
1690.000000	8.508608
1689.000000	8.530760
1688.000000	8.581115
1687.000000	8.608140
1686.000000	8.649028
1685.000000	8.690105
1684.000000	8.725499
1683.000000	8.769582
1682.000000	8.813971
1681.000000	8.865253
1680.000000	8.897499
1679.000000	8.965586
1678.000000	8.998368
1677.000000	9.075750
1676.000000	9.101026
1675.000000	9.161883
1674.000000	9.203948
1673.000000	9.244653
1672.000000	9.279436
1671.000000	9.312099
1670.000000	9.365490
1669.000000	9.415907
1668.000000	9.441962
1667.000000	9.488632
1666.000000	9.492318
1665.000000	9.496775
1664.000000	9.523030
1663.000000	9.537531
1662.000000	9.550683
1661.000000	9.590352
1660.000000	9.622928
1659.000000	9.641804
1658.000000	9.668625
1657.000000	9.683855
1656.000000	9.681211
1655.000000	9.693318
1654.000000	9.711937
1653.000000	9.722465
1652.000000	9.715668
1651.000000	9.714611
1650.000000	9.722386
1649.000000	9.700516
1648.000000	9.696591
1647.000000	9.693552
1646.000000	9.672798
1645.000000	9.673681
1644.000000	9.668285
1643.000000	9.662014
1642.000000	9.649702
1641.000000	9.652063
1640.000000	9.640555
1639.000000	9.623999
1638.000000	9.604887
1637.000000	9.593172
1636.000000	9.576645
1635.000000	9.559431
1634.000000	9.533914
1633.000000	9.528056
1632.000000	9.506750
1631.000000	9.490146
1630.000000	9.487565
1629.000000	9.467247
1628.000000	9.463291
1627.000000	9.455182
1626.000000	9.434668
1625.000000	9.420185
1624.000000	9.409254
1623.000000	9.391727
1622.000000	9.371994
1621.000000	9.353434
1620.000000	9.327613
1619.000000	9.310993
1618.000000	9.299120
1617.000000	9.279806
1616.000000	9.264933
1615.000000	9.248697
1614.000000	9.224502
1613.000000	9.207451
1612.000000	9.194384
1611.000000	9.175770
1610.000000	9.155631
1609.000000	9.124635
1608.000000	9.111464
1607.000000	9.104152
1606.000000	9.076910
1605.000000	9.068388
1604.000000	9.041605
1603.000000	9.015104
1602.000000	9.001663
1601.000000	8.973779
1600.000000	8.953767
1599.000000	8.940782
1598.000000	8.922935
1597.000000	8.909439
1596.000000	8.887811
1595.000000	8.857916
1594.000000	8.845821
1593.000000	8.843349
1592.000000	8.822836
1591.000000	8.805638
1590.000000	8.810604
1589.000000	8.788043
1588.000000	8.751841
1587.000000	8.740606
1586.000000	8.725972
1585.000000	8.707090
1584.000000	8.699962
1583.000000	8.691895
1582.000000	8.676286
1581.000000	8.661865
1580.000000	8.646891
1579.000000	8.630582
1578.000000	8.624188
1577.000000	8.613572
1576.000000	8.590535
1575.000000	8.579905
1574.000000	8.551288
1573.000000	8.531298
1572.000000	8.524343
1571.000000	8.518074
1570.000000	8.510204
1569.000000	8.490440
1568.000000	8.476299
1567.000000	8.463146
1566.000000	8.454373
1565.000000	8.441642
1564.000000	8.435710
1563.000000	8.422715
1562.000000	8.406330
1561.000000	8.388969
1560.000000	8.379202
1559.000000	8.373839
1558.000000	8.351823
1557.000000	8.329150
1556.000000	8.318537
1555.000000	8.310476
1554.000000	8.312026
1553.000000	8.305877
1552.000000	8.294237
1551.000000	8.276554
1550.000000	8.244483
1549.000000	8.227233
1548.000000	8.215587
1547.000000	8.201486
1546.000000	8.179414
1545.000000	8.144682
1544.000000	8.112988
1543.000000	8.089450
1542.000000	8.064714
1541.000000	8.044002
1540.000000	8.028764
1539.000000	7.982774
1538.000000	7.955480
1537.000000	7.936393
1536.000000	7.900577
1535.000000	7.854495
1534.000000	7.841970
1533.000000	7.828348
1532.000000	7.805456
1531.000000	7.797173
1530.000000	7.815152
1529.000000	7.833272
1528.000000	7.835889
1527.000000	7.794336
1526.000000	7.742882
1525.000000	7.698805
1524.000000	7.679416
1523.000000	7.665930
1522.000000	7.631050
1521.000000	7.629379
1520.000000	7.614463
1519.000000	7.593319
1518.000000	7.569630
1517.000000	7.567256
1516.000000	7.552736
1515.000000	7.528376
1514.000000	7.503585
1513.000000	7.546959
1512.000000	7.543039
1511.000000	7.519701
1510.000000	7.485431
1509.000000	7.475713
1508.000000	7.453706
1507.000000	7.434086
1506.000000	7.462459
1505.000000	7.466787
1504.000000	7.461430
1503.000000	7.435802
1502.000000	7.434198
1501.000000	7.416698
1500.000000	7.398232
1499.000000	7.405815
1498.000000	7.410596
1497.000000	7.415377
1496.000000	7.399118
1495.000000	7.410032
1494.000000	7.412742
1493.000000	7.404414
1492.000000	7.412199
1491.000000	7.420827
1490.000000	7.426854
1489.000000	7.430953
1488.000000	7.448782
1487.000000	7.460616
1486.000000	7.464642
1485.000000	7.483340
1484.000000	7.482995
1483.000000	7.503808
1482.000000	7.510250
1481.000000	7.519986
1480.000000	7.531397
1479.000000	7.549528
1478.000000	7.563222
1477.000000	7.559882
1476.000000	7.563078
1475.000000	7.588220
1474.000000	7.585888
1473.000000	7.584771
1472.000000	7.586402
1471.000000	7.603363
1470.000000	7.614259
1469.000000	7.617184
1468.000000	7.616388
1467.000000	7.633218
1466.000000	7.633917
1465.000000	7.678336
1464.000000	7.709845
1463.000000	7.701169
1462.000000	7.696317
1461.000000	7.711599
1460.000000	7.755791
1459.000000	7.771327
1458.000000	7.750928
1457.000000	7.756362
1456.000000	7.783504
1455.000000	7.805167
1454.000000	7.812656
1453.000000	7.811811
1452.000000	7.813288
1451.000000	7.830974
1450.000000	7.868585
1449.000000	7.894702
1448.000000	7.889033
1447.000000	7.903871
1446.000000	7.904526
1445.000000	7.940520
1444.000000	7.976994
1443.000000	7.996721
1442.000000	8.002487
1441.000000	8.011736
1440.000000	8.031486
1439.000000	8.045377
1438.000000	8.059674
1437.000000	8.079936
1436.000000	8.109893
1435.000000	8.146733
1434.000000	8.177417
1433.000000	8.241768
1432.000000	8.276661
1431.000000	8.296070
1430.000000	8.315511
1429.000000	8.344860
1428.000000	8.371738
1427.000000	8.408566
1426.000000	8.452638
1425.000000	8.467500
1424.000000	8.487826
1423.000000	8.533141
1422.000000	8.569706
1421.000000	8.621419
1420.000000	8.669716
1419.000000	8.714471
1418.000000	8.752229
1417.000000	8.792654
1416.000000	8.857728
1415.000000	8.907712
1414.000000	8.943487
1413.000000	9.011864
1412.000000	9.083912
1411.000000	9.123286
1410.000000	9.158228
1409.000000	9.224128
1408.000000	9.271676
1407.000000	9.310584
1406.000000	9.341355
1405.000000	9.389619
1404.000000	9.451510
1403.000000	9.510439
1402.000000	9.569479
1401.000000	9.627741
1400.000000	9.670915
1399.000000	9.701176
1398.000000	9.729799
1397.000000	9.766094
1396.000000	9.813632
1395.000000	9.860856
1394.000000	9.894159
1393.000000	9.932776
1392.000000	9.963978
1391.000000	9.989028
1390.000000	10.020173
1389.000000	10.043997
1388.000000	10.075584
1387.000000	10.103275
1386.000000	10.117716
1385.000000	10.132511
1384.000000	10.171914
1383.000000	10.210202
1382.000000	10.219021
1381.000000	10.249037
1380.000000	10.290915
1379.000000	10.291053
1378.000000	10.291043
1377.000000	10.318801
1376.000000	10.333887
1375.000000	10.330482
1374.000000	10.322237
1373.000000	10.336633
1372.000000	10.368394
1371.000000	10.368594
1370.000000	10.371353
1369.000000	10.391158
1368.000000	10.394121
1367.000000	10.389265
1366.000000	10.396318
1365.000000	10.404758
1364.000000	10.413815
1363.000000	10.413271
1362.000000	10.422280
1361.000000	10.430909
1360.000000	10.450826
1359.000000	10.494040
1358.000000	10.505418
1357.000000	10.477525
1356.000000	10.490646
1355.000000	10.530969
1354.000000	10.540484
1353.000000	10.532827
1352.000000	10.526630
1351.000000	10.530744
1350.000000	10.561134
1349.000000	10.577611
1348.000000	10.559142
1347.000000	10.551138
1346.000000	10.559418
1345.000000	10.582857
1344.000000	10.592316
1343.000000	10.587306
1342.000000	10.593717
1341.000000	10.620822
1340.000000	10.630909
1339.000000	10.629579
1338.000000	10.624059
1337.000000	10.635737
1336.000000	10.645540
1335.000000	10.625793
1334.000000	10.642495
1333.000000	10.663480
1332.000000	10.668611
1331.000000	10.667701
1330.000000	10.672503
1329.000000	10.656455
1328.000000	10.685086
1327.000000	10.693863
1326.000000	10.694544
1325.000000	10.701616
1324.000000	10.700123
1323.000000	10.699228
1322.000000	10.694728
1321.000000	10.708434
1320.000000	10.686027
1319.000000	10.691168
1318.000000	10.706540
1317.000000	10.701435
1316.000000	10.698519
1315.000000	10.692519
1314.000000	10.672628
1313.000000	10.675968
1312.000000	10.693606
1311.000000	10.682274
1310.000000	10.699330
1309.000000	10.696698
1308.000000	10.685819
1307.000000	10.656195
1306.000000	10.677850
1305.000000	10.681350
1304.000000	10.669034
1303.000000	10.655168
1302.000000	10.643974
1301.000000	10.635387
1300.000000	10.631506
1299.000000	10.660214
1298.000000	10.667896
1297.000000	10.671984
1296.000000	10.661432
1295.000000	10.649980
1294.000000	10.629970
1293.000000	10.624806
1292.000000	10.635654
1291.000000	10.612874
1290.000000	10.583708
1289.000000	10.557948
1288.000000	10.550881
1287.000000	10.577585
1286.000000	10.587313
1285.000000	10.582655
1284.000000	10.587588
1283.000000	10.572651
1282.000000	10.604626
1281.000000	10.547295
1280.000000	10.528082
1279.000000	10.536231
1278.000000	10.535473
1277.000000	10.536487
1276.000000	10.535237
1275.000000	10.551629
1274.000000	10.539190
1273.000000	10.547632
1272.000000	10.533002
1271.000000	10.519423
1270.000000	10.538369
1269.000000	10.531983
1268.000000	10.523415
1267.000000	10.541167
1266.000000	10.557272
1265.000000	10.552568
1264.000000	10.537829
1263.000000	10.523150
1262.000000	10.514739
1261.000000	10.519353
1260.000000	10.529994
1259.000000	10.545226
1258.000000	10.532498
1257.000000	10.521253
1256.000000	10.504442
1255.000000	10.495678
1254.000000	10.504452
1253.000000	10.527574
1252.000000	10.527632
1251.000000	10.538889
1250.000000	10.505893
1249.000000	10.505132
1248.000000	10.487902
1247.000000	10.473708
1246.000000	10.481401
1245.000000	10.460115
1244.000000	10.435722
1243.000000	10.434004
1242.000000	10.432834
1241.000000	10.452859
1240.000000	10.441896
1239.000000	10.435732
1238.000000	10.404112
1237.000000	10.390699
1236.000000	10.392188
1235.000000	10.352424
1234.000000	10.349911
1233.000000	10.350786
1232.000000	10.366295
1231.000000	10.358504
1230.000000	10.340747
1229.000000	10.331869
1228.000000	10.338432
1227.000000	10.339761
1226.000000	10.333311
1225.000000	10.289250
1224.000000	10.288018
1223.000000	10.276525
1222.000000	10.282334
1221.000000	10.286905
1220.000000	10.271848
1219.000000	10.243799
1218.000000	10.238008
1217.000000	10.234459
1216.000000	10.237947
1215.000000	10.253841
1214.000000	10.259140
1213.000000	10.239471
1212.000000	10.211315
1211.000000	10.218622
1210.000000	10.215893
1209.000000	10.194664
1208.000000	10.180978
1207.000000	10.173977
1206.000000	10.143667
1205.000000	10.119106
1204.000000	10.134003
1203.000000	10.131497
1202.000000	10.115227
1201.000000	10.119589
1200.000000	10.114460
1199.000000	10.081612
1198.000000	10.050790
1197.000000	10.034162
1196.000000	10.024308
1195.000000	10.046883
1194.000000	10.050089
1193.000000	10.027514
1192.000000	10.012218
1191.000000	10.000071
1190.000000	9.965970
1189.000000	9.918491
1188.000000	9.926112
1187.000000	9.935806
1186.000000	9.930944
1185.000000	9.924055
1184.000000	9.914747
1183.000000	9.914728
1182.000000	9.928688
1181.000000	9.939606
1180.000000	9.947318
1179.000000	9.960015
1178.000000	9.980272
1177.000000	9.979892
1176.000000	9.979581
1175.000000	10.009100
1174.000000	10.018602
1173.000000	10.028900
1172.000000	10.033282
1171.000000	10.041088
1170.000000	10.058524
1169.000000	10.064089
1168.000000	10.082356
1167.000000	10.097429
1166.000000	10.103136
1165.000000	10.113736
1164.000000	10.119325
1163.000000	10.108412
1162.000000	10.123764
1161.000000	10.149924
1160.000000	10.163648
1159.000000	10.183160
1158.000000	10.204018
1157.000000	10.214975
1156.000000	10.224467
1155.000000	10.231278
1154.000000	10.248026
1153.000000	10.260948
1152.000000	10.269995
1151.000000	10.278628
1150.000000	10.287314
1149.000000	10.298611
1148.000000	10.313442
1147.000000	10.316510
1146.000000	10.329294
1145.000000	10.342865
1144.000000	10.315698
1143.000000	10.300044
1142.000000	10.314479
1141.000000	10.330413
1140.000000	10.340034
1139.000000	10.347732
1138.000000	10.361177
1137.000000	10.380367
1136.000000	10.379253
1135.000000	10.392019
1134.000000	10.405867
1133.000000	10.417841
1132.000000	10.423473
1131.000000	10.419758
1130.000000	10.402784
1129.000000	10.391809
1128.000000	10.395057
1127.000000	10.402725
1126.000000	10.423021
1125.000000	10.429494
1124.000000	10.432736
1123.000000	10.430736
1122.000000	10.432162
1121.000000	10.432658
1120.000000	10.439332
1119.000000	10.445368
1118.000000	10.442239
1117.000000	10.417097
1116.000000	10.412882
1115.000000	10.430227
1114.000000	10.429651
1113.000000	10.431546
1112.000000	10.426882
1111.000000	10.427924
1110.000000	10.429977
1109.000000	10.414999
1108.000000	10.412134
1107.000000	10.392065
1106.000000	10.386132
1105.000000	10.389470
1104.000000	10.392520
1103.000000	10.398990
1102.000000	10.390293
1101.000000	10.383720
1100.000000	10.396620
1099.000000	10.403223
1098.000000	10.414107
1097.000000	10.381034
1096.000000	10.354193
1095.000000	10.366288
1094.000000	10.372206
1093.000000	10.377718
1092.000000	10.370050
1091.000000	10.384610
1090.000000	10.379973
1089.000000	10.342751
1088.000000	10.350173
1087.000000	10.341068
1086.000000	10.327460
1085.000000	10.345564
1084.000000	10.355413
1083.000000	10.359176
1082.000000	10.327745
1081.000000	10.327200
1080.000000	10.327364
1079.000000	10.326114
1078.000000	10.346870
1077.000000	10.344013
1076.000000	10.308116
1075.000000	10.307200
1074.000000	10.314622
1073.000000	10.308231
1072.000000	10.307986
1071.000000	10.318021
1070.000000	10.340846
1069.000000	10.342133
1068.000000	10.296711
1067.000000	10.292437
1066.000000	10.292744
1065.000000	10.285931
1064.000000	10.291774
1063.000000	10.301875
1062.000000	10.320873
1061.000000	10.276249
1060.000000	10.255353
1059.000000	10.266689
1058.000000	10.272456
1057.000000	10.268586
1056.000000	10.285111
1055.000000	10.248671
1054.000000	10.243447
1053.000000	10.247453
1052.000000	10.255040
1051.000000	10.256245
1050.000000	10.254514
1049.000000	10.238515
1048.000000	10.208971
1047.000000	10.242744
1046.000000	10.260049
1045.000000	10.230211
1044.000000	10.211200
1043.000000	10.208424
1042.000000	10.228663
1041.000000	10.222059
1040.000000	10.210001
1039.000000	10.207037
1038.000000	10.213645
1037.000000	10.217294
1036.000000	10.226709
1035.000000	10.208441
1034.000000	10.176972
1033.000000	10.205693
1032.000000	10.191090
1031.000000	10.183905
1030.000000	10.186632
1029.000000	10.194734
1028.000000	10.191693
1027.000000	10.185161
1026.000000	10.191995
1025.000000	10.186784
1024.000000	10.158505
1023.000000	10.157903
1022.000000	10.177155
1021.000000	10.187743
1020.000000	10.169478
1019.000000	10.165280
1018.000000	10.175990
1017.000000	10.162559
1016.000000	10.167478
1015.000000	10.154431
1014.000000	10.161098
1013.000000	10.160125
1012.000000	10.127482
1011.000000	10.139124
1010.000000	10.167874
1009.000000	10.175811
1008.000000	10.178627
1007.000000	10.155182
1006.000000	10.162400
1005.000000	10.154622
1004.000000	10.155834
1003.000000	10.173958
1002.000000	10.169092
1001.000000	10.157755
1000.000000	10.130998
999.000000	10.139801
998.000000	10.168671
997.000000	10.164296
996.000000	10.154498
995.000000	10.142610
994.000000	10.128692
993.000000	10.147184
992.000000	10.156989
991.000000	10.151446
990.000000	10.137137
989.000000	10.150631
988.000000	10.160530
987.000000	10.156727
986.000000	10.149427
985.000000	10.173331
984.000000	10.199643
983.000000	10.198640
982.000000	10.200218
981.000000	10.214510
980.000000	10.211527
979.000000	10.220688
978.000000	10.227487
977.000000	10.237992
976.000000	10.228579
975.000000	10.243218
974.000000	10.228071
973.000000	10.230520
972.000000	10.246800
971.000000	10.247958
970.000000	10.242459
969.000000	10.251000
968.000000	10.246367
967.000000	10.242911
966.000000	10.229149
965.000000	10.241116
964.000000	10.251928
963.000000	10.248884
962.000000	10.249117
961.000000	10.243651
960.000000	10.237190
959.000000	10.250593
958.000000	10.257204
957.000000	10.253251
956.000000	10.247309
955.000000	10.230500
954.000000	10.226879
953.000000	10.229874
952.000000	10.221621
951.000000	10.222025
950.000000	10.231254
949.000000	10.228527
948.000000	10.210061
947.000000	10.208593
946.000000	10.232154
945.000000	10.226438
944.000000	10.208275
943.000000	10.203382
942.000000	10.197823
941.000000	10.200320
940.000000	10.222396
939.000000	10.213978
938.000000	10.198224
937.000000	10.194380
936.000000	10.195927
935.000000	10.195990
934.000000	10.203700
933.000000	10.192208
932.000000	10.173681
931.000000	10.164730
930.000000	10.166185
929.000000	10.166844
928.000000	10.156660
927.000000	10.159561
926.000000	10.148233
925.000000	10.150472
924.000000	10.143847
923.000000	10.135183
922.000000	10.139689
921.000000	10.130955
920.000000	10.134377
919.000000	10.128065
918.000000	10.121154
917.000000	10.106484
916.000000	10.110342
915.000000	10.120468
914.000000	10.109067
913.000000	10.116189
912.000000	10.133813
911.000000	10.121130
910.000000	10.108656
909.000000	10.101319
908.000000	10.104460
907.000000	10.106198
906.000000	10.093457
905.000000	10.105940
904.000000	10.096526
903.000000	10.073324
902.000000	10.087811
901.000000	10.104322
900.000000	10.086716
899.000000	10.072286
898.000000	10.124005
897.000000	10.141103
896.000000	10.117395
895.000000	10.138627
894.000000	10.102317
893.000000	10.118543
892.000000	10.056017
891.000000	10.086413
890.000000	10.103431
889.000000	10.118936
888.000000	10.142990
887.000000	10.091888
886.000000	10.058148
885.000000	10.049411
884.000000	10.025730
883.000000	10.021634
882.000000	9.977503
881.000000	10.040231
880.000000	10.074488
879.000000	10.069899
878.000000	9.993017
877.000000	10.071624
876.000000	10.043437
875.000000	10.028212
874.000000	10.053508
873.000000	10.023432
872.000000	10.009596
871.000000	10.087994
870.000000	10.070142
869.000000	10.013533
868.000000	10.008338
867.000000	9.928462
866.000000	9.973060
865.000000	10.002192
864.000000	9.974965
863.000000	9.902115
862.000000	9.926742
861.000000	10.037131
860.000000	9.941892
859.000000	10.127968
858.000000	10.057308
857.000000	10.146959
856.000000	10.178415
855.000000	10.186173
854.000000	10.224897
853.000000	10.135996
852.000000	10.222038
851.000000	10.197345
850.000000	10.110545
849.000000	10.159063
848.000000	10.073957
847.000000	10.108766
846.000000	10.166133
845.000000	10.104614
844.000000	10.127258
843.000000	10.065229
842.000000	10.148178
841.000000	10.045468
840.000000	10.083203
839.000000	10.079206
838.000000	10.084291
837.000000	10.090272
836.000000	10.056583
835.000000	10.042226
834.000000	10.010055
833.000000	10.025306
832.000000	10.027873
831.000000	9.999938
830.000000	10.012794
829.000000	9.953681
828.000000	9.967367
827.000000	9.953699
826.000000	9.988149
825.000000	9.953694
824.000000	9.956972
823.000000	9.919883
822.000000	9.913171
821.000000	9.926955
820.000000	9.872083
819.000000	9.860286
818.000000	9.889890
817.000000	9.863059
816.000000	9.856894
815.000000	9.881995
814.000000	9.897661
813.000000	9.810006
812.000000	9.850232
811.000000	9.830331
810.000000	9.827187
809.000000	9.832229
808.000000	9.827794
807.000000	9.834786
806.000000	9.835073
805.000000	9.825039
804.000000	9.789807
803.000000	9.798038
802.000000	9.791192
801.000000	9.764191
800.000000	9.780734
799.000000	9.766784
798.000000	9.745686
797.000000	9.746695
796.000000	9.714451
795.000000	9.736549
794.000000	9.709432
793.000000	9.694794
792.000000	9.692198
791.000000	9.687123
790.000000	9.687916
789.000000	9.689424
788.000000	9.681340
787.000000	9.669997
786.000000	9.656253
785.000000	9.642554
784.000000	9.631800
783.000000	9.625988
782.000000	9.624173
781.000000	9.611814
780.000000	9.586522
779.000000	9.578488
778.000000	9.571519
777.000000	9.560884
776.000000	9.572416
775.000000	9.549781
774.000000	9.554378
773.000000	9.521262
772.000000	9.514742
771.000000	9.505847
770.000000	9.481778
769.000000	9.489318
768.000000	9.472400
767.000000	9.467958
766.000000	9.452363
765.000000	9.458187
764.000000	9.446097
763.000000	9.438423
762.000000	9.398766
761.000000	9.384958
760.000000	9.413266
759.000000	9.398671
758.000000	9.386688
757.000000	9.361783
756.000000	9.341986
755.000000	9.334232
754.000000	9.324188
753.000000	9.317865
752.000000	9.309862
751.000000	9.306216
750.000000	9.291286
749.000000	9.294135
748.000000	9.271979
747.000000	9.256689
746.000000	9.231587
745.000000	9.227018
744.000000	9.222945
743.000000	9.197356
742.000000	9.178202
741.000000	9.174760
740.000000	9.146549
739.000000	9.145323
738.000000	9.139801
737.000000	9.120906
736.000000	9.120318
735.000000	9.106149
734.000000	9.076254
733.000000	9.074515
732.000000	9.073189
731.000000	9.048217
730.000000	9.027099
729.000000	9.015557
728.000000	9.017978
727.000000	8.997225
726.000000	8.981601
725.000000	8.981540
724.000000	8.966038
723.000000	8.964382
722.000000	8.944524
721.000000	8.929977
720.000000	8.926037
719.000000	8.898465
718.000000	8.880108
717.000000	8.868873
716.000000	8.853960
715.000000	8.843478
714.000000	8.823365
713.000000	8.813952
712.000000	8.799777
711.000000	8.778569
710.000000	8.766068
709.000000	8.752372
708.000000	8.730633
707.000000	8.717803
706.000000	8.706800
705.000000	8.685570
704.000000	8.672363
703.000000	8.663742
702.000000	8.654335
701.000000	8.640617
700.000000	8.619897
699.000000	8.606439
698.000000	8.580433
697.000000	8.567451
696.000000	8.553826
695.000000	8.524794
694.000000	8.505429
693.000000	8.490166
692.000000	8.490305
691.000000	8.475326
690.000000	8.449528
689.000000	8.416853
688.000000	8.383082
687.000000	8.366206
686.000000	8.358238
685.000000	8.336293
684.000000	8.327066
683.000000	8.301553
682.000000	8.277249
681.000000	8.268174
680.000000	8.248953
679.000000	8.238984
678.000000	8.219202
677.000000	8.191612
676.000000	8.167430
675.000000	8.151951
674.000000	8.139717
673.000000	8.121675
672.000000	8.109311
671.000000	8.097798
670.000000	8.073111
669.000000	8.049399
668.000000	8.037474
667.000000	8.022453
666.000000	7.997408
665.000000	7.983394
664.000000	7.955901
663.000000	7.936271
662.000000	7.917588
661.000000	7.905673
660.000000	7.878832
659.000000	7.858432
658.000000	7.828434
657.000000	7.821152
656.000000	7.803242
655.000000	7.775089
654.000000	7.758428
653.000000	7.725283
652.000000	7.705742
651.000000	7.700828
650.000000	7.682187
649.000000	7.665566
648.000000	7.638057
647.000000	7.611236
646.000000	7.589477
645.000000	7.569739
644.000000	7.541689
643.000000	7.533092
642.000000	7.510418
641.000000	7.477603
640.000000	7.463726
639.000000	7.443915
638.000000	7.412150
637.000000	7.400814
636.000000	7.377208
635.000000	7.342537
634.000000	7.324719
633.000000	7.308234
632.000000	7.276311
631.000000	7.258524
630.000000	7.238496
629.000000	7.220944
628.000000	7.183017
627.000000	7.167299
626.000000	7.142106
625.000000	7.117028
624.000000	7.103032
623.000000	7.065308
622.000000	7.044284
621.000000	7.031988
620.000000	6.999652
619.000000	6.981574
618.000000	6.942542
617.000000	6.926947
616.000000	6.895912
615.000000	6.882572
614.000000	6.848447
613.000000	6.827155
612.000000	6.801783
611.000000	6.773412
610.000000	6.740480
609.000000	6.717969
608.000000	6.702606
607.000000	6.665752
606.000000	6.642522
605.000000	6.621360
604.000000	6.574348
603.000000	6.569612
602.000000	6.538309
601.000000	6.508621
600.000000	6.484525
599.000000	6.461675
598.000000	6.422414
597.000000	6.404355
596.000000	6.388171
595.000000	6.349876
594.000000	6.321890
593.000000	6.287499
592.000000	6.267560
591.000000	6.227382
590.000000	6.203189
589.000000	6.185021
588.000000	6.157766
587.000000	6.128723
586.000000	6.093038
585.000000	6.058540
584.000000	6.029449
583.000000	5.998841
582.000000	5.989377
581.000000	5.951274
580.000000	5.905538
579.000000	5.887567
578.000000	5.849600
577.000000	5.834969
576.000000	5.793864
575.000000	5.773790
574.000000	5.735917
573.000000	5.709248
572.000000	5.673153
571.000000	5.646374
570.000000	5.605794
569.000000	5.572504
568.000000	5.549068
567.000000	5.521109
566.000000	5.486150
565.000000	5.454326
564.000000	5.416820
563.000000	5.389001
562.000000	5.350891
561.000000	5.349453
560.000000	5.309570
559.000000	5.285265
558.000000	5.244971
557.000000	5.210408
556.000000	5.182166
555.000000	5.144459
554.000000	5.111309
553.000000	5.082010
552.000000	5.048381
551.000000	5.015703
550.000000	4.978453
549.000000	4.947595
548.000000	4.904250
547.000000	4.879282
546.000000	4.846148
545.000000	4.814860
544.000000	4.770340
543.000000	4.740242
542.000000	4.700998
541.000000	4.663767
540.000000	4.631995
539.000000	4.603268
538.000000	4.565206
537.000000	4.527335
536.000000	4.488456
535.000000	4.457362
534.000000	4.420911
533.000000	4.385300
532.000000	4.348030
531.000000	4.312326
530.000000	4.274086
529.000000	4.238021
528.000000	4.205967
527.000000	4.167790
526.000000	4.131495
525.000000	4.093424
524.000000	4.051934
523.000000	4.017365
522.000000	3.982616
521.000000	3.951193
520.000000	3.910724
519.000000	3.872717
518.000000	3.833225
517.000000	3.797335
516.000000	3.761090
515.000000	3.725878
514.000000	3.689785
513.000000	3.654207
512.000000	3.617542
511.000000	3.580038
510.000000	3.548009
509.000000	3.512076
508.000000	3.473957
507.000000	3.439794
506.000000	3.402094
505.000000	3.367175
504.000000	3.334775
503.000000	3.301673
502.000000	3.263104
501.000000	3.229240
500.000000	3.191556
499.000000	3.160291
498.000000	3.128628
497.000000	3.097341
496.000000	3.055233
495.000000	3.026791
494.000000	2.994526
493.000000	2.964579
492.000000	2.929625
491.000000	2.896675
490.000000	2.868900
489.000000	2.834617
488.000000	2.805109
487.000000	2.769861
486.000000	2.739945
485.000000	2.713489
484.000000	2.683965
483.000000	2.660438
482.000000	2.631269
481.000000	2.595763
480.000000	2.556118
479.000000	2.519739
478.000000	2.482954
477.000000	2.445518
476.000000	2.410541
475.000000	2.382211
474.000000	2.354837
473.000000	2.319971
472.000000	2.287398
471.000000	2.255516
470.000000	2.223452
469.000000	2.195154
468.000000	2.166086
467.000000	2.134643
466.000000	2.100805
465.000000	2.066681
464.000000	2.040273
463.000000	2.013569
462.000000	1.981764
461.000000	1.954801
460.000000	1.923068
459.000000	1.883917
458.000000	1.850738
457.000000	1.823766
456.000000	1.798041
455.000000	1.768986
454.000000	1.739723
453.000000	1.713016
452.000000	1.687196
451.000000	1.652456
450.000000	1.624425
449.000000	1.603824
448.000000	1.571148
447.000000	1.532991
446.000000	1.507135
445.000000	1.491053
444.000000	1.463798
443.000000	1.435624
442.000000	1.408520
441.000000	1.378381
440.000000	1.352346
439.000000	1.330499
438.000000	1.305326
437.000000	1.278070
436.000000	1.255778
435.000000	1.235387
434.000000	1.209337
433.000000	1.184569
432.000000	1.170871
431.000000	1.147549
430.000000	1.118208
429.000000	1.101634
428.000000	1.078610
427.000000	1.052499
426.000000	1.036804
425.000000	1.013716
424.000000	0.987659
423.000000	0.968506
422.000000	0.946327
421.000000	0.922413
420.000000	0.905757
419.000000	0.890196
418.000000	0.864324
417.000000	0.843179
416.000000	0.822847
415.000000	0.806831
414.000000	0.795215
413.000000	0.775200
412.000000	0.749974
411.000000	0.732673
410.000000	0.714111
409.000000	0.696431
408.000000	0.685143
407.000000	0.660829
406.000000	0.646957
405.000000	0.630739
404.000000	0.614346
403.000000	0.598223
402.000000	0.587614
401.000000	0.574690
400.000000	0.552538
399.000000	0.543654
398.000000	0.529795
397.000000	0.517272
396.000000	0.505307
395.000000	0.490800
394.000000	0.478866
393.000000	0.467911
392.000000	0.455316
391.000000	0.443421
390.000000	0.443329
389.000000	0.430676
388.000000	0.417669
387.000000	0.407112
386.000000	0.395952
385.000000	0.388279
384.000000	0.378960
383.000000	0.367006
382.000000	0.358858
381.000000	0.348350
380.000000	0.342436
379.000000	0.328375
378.000000	0.333431
377.000000	0.343668
376.000000	0.335304
375.000000	0.331739
374.000000	0.321828
373.000000	0.307389
372.000000	0.291612
371.000000	0.287997
370.000000	0.276477
369.000000	0.266500
368.000000	0.269341
367.000000	0.257260
366.000000	0.251880
365.000000	0.243423
364.000000	0.234069
363.000000	0.235714
362.000000	0.234794
361.000000	0.219492
360.000000	0.211915
359.000000	0.208201
358.000000	0.207234
357.000000	0.200218
356.000000	0.200284
355.000000	0.193387
354.000000	0.190109
353.000000	0.188285
352.000000	0.182716
351.000000	0.179532
350.000000	0.185635
349.000000	0.179393
348.000000	0.169833
347.000000	0.167769
346.000000	0.166584
345.000000	0.161371
344.000000	0.172623
343.000000	0.155638
342.000000	0.155730
341.000000	0.152712
340.000000	0.148559
339.000000	0.150132
338.000000	0.151503
337.000000	0.138258
336.000000	0.134653
335.000000	0.136316
334.000000	0.136007
333.000000	0.129790
332.000000	0.131935
331.000000	0.129514
330.000000	0.123377
329.000000	0.127466
328.000000	0.116664
327.000000	0.121603
326.000000	0.129558
325.000000	0.114656
324.000000	0.117681
323.000000	0.115465
322.000000	0.107108
321.000000	0.103388
320.000000	0.107347
319.000000	0.111206
318.000000	0.129338
317.000000	0.124472
316.000000	0.128182
315.000000	0.123531
314.000000	0.132844
313.000000	0.124268
312.000000	0.124959
311.000000	0.124619
310.000000	0.126391
309.000000	0.120632
308.000000	0.123335
307.000000	0.123249
306.000000	0.114157
305.000000	0.117288
304.000000	0.115545
303.000000	0.122018
302.000000	0.132359
301.000000	0.120597
300.000000	0.118777
299.000000	0.120780
298.000000	0.125047
297.000000	0.123375
296.000000	0.116837
295.000000	0.123650
294.000000	0.114891
293.000000	0.120390
292.000000	0.120791
291.000000	0.114177
290.000000	0.121433
289.000000	0.115093
288.000000	0.114595
287.000000	0.112876
286.000000	0.111645
285.000000	0.115786
284.000000	0.118540
283.000000	0.118376
282.000000	0.121317
281.000000	0.127952
280.000000	0.121168
279.000000	0.129724
278.000000	0.130157
277.000000	0.137259
276.000000	0.136511
275.000000	0.130294
274.000000	0.127474
273.000000	0.136902
272.000000	0.148265
271.000000	0.149222
270.000000	0.149635
269.000000	0.152335
268.000000	0.158882
267.000000	0.163581
266.000000	0.165083
265.000000	0.162631
264.000000	0.168737
263.000000	0.166876
262.000000	0.175060
261.000000	0.182963
260.000000	0.192135
259.000000	0.192050
258.000000	0.197006
257.000000	0.191707
256.000000	0.196389
255.000000	0.209799
254.000000	0.208219
253.000000	0.201736
252.000000	0.208641
251.000000	0.211306
250.000000	0.213460
249.000000	0.212147
248.000000	0.209394
247.000000	0.204910
246.000000	0.203795
245.000000	0.196519
244.000000	0.195388
243.000000	0.192161
242.000000	0.179502
241.000000	0.167330
240.000000	0.157750
239.000000	0.150009
238.000000	0.151585
237.000000	0.138645
236.000000	0.133013
235.000000	0.126366
234.000000	0.103382
233.000000	0.095341
232.000000	0.092476
231.000000	0.087633
230.000000	0.085725
229.000000	0.078207
228.000000	0.068652
227.000000	0.062369
226.000000	0.064585
225.000000	0.061681
224.000000	0.055519
223.000000	0.052436
222.000000	0.047356
221.000000	0.036385
220.000000	0.029130
219.000000	0.020214
218.000000	0.025520
217.000000	0.036743
216.000000	0.040516
215.000000	0.035097
214.000000	0.022745
213.000000	0.020230
212.000000	0.021587
211.000000	0.014193
210.000000	0.012604
209.000000	0.014425
208.000000	0.005085
207.000000	0.011531
206.000000	0.022019
205.000000	-0.002225
204.000000	-0.014306
203.000000	-0.006528
202.000000	0.003064
201.000000	-0.001368
200.000000	-0.014086
