PE UV       SUBTECH     SPECTRUM    ASCII       PEDS        4.00        
   -1
TTms499172.Sample.asc
18/03/22
12:01:50.00
18/03/22
12:01:50.00
Administrator

200.000000
1
Lambda 750
750N8071901
PerkinElmer UV WinLab 6.0.4.0738 / 1.61.00 Lambda 900

0
0
3350/servo 860.8/2
0
0
UV/VIS
1
1
1
CommonBeamDepol,150mm sphere / downward view
0
0
0
0
Program
Program
3350/servo 860.8/2
3350/0.2 860.8/0.2
3350/0.2 860.8/0.2
0
1
 
 
 
0
 
860.8
319.2
860.8
Front
100
on
 
 
0
0
0
 
0
 
 
 
0
 
 
0
0
0
0
0
 
 
 
 
0
0


0
0
#HDR
-1
-1
#GR
nm
%T
1.0
0.0
2350.000000
-1.000000
2151
8
12.441285
-0.054071
#DATA
2350.000000	5.392459
2349.000000	5.206945
2348.000000	4.953204
2347.000000	6.061656
2346.000000	5.685400
2345.000000	5.291703
2344.000000	5.680941
2343.000000	5.321928
2342.000000	5.734419
2341.000000	5.765727
2340.000000	5.576919
2339.000000	5.951738
2338.000000	6.173564
2337.000000	6.225488
2336.000000	6.281660
2335.000000	6.457718
2334.000000	6.454996
2333.000000	6.172228
2332.000000	6.450330
2331.000000	6.496053
2330.000000	6.198320
2329.000000	6.167151
2328.000000	6.281307
2327.000000	6.065432
2326.000000	6.206569
2325.000000	6.009734
2324.000000	6.311284
2323.000000	6.043480
2322.000000	6.169639
2321.000000	6.287287
2320.000000	6.152389
2319.000000	5.957617
2318.000000	5.925957
2317.000000	6.179988
2316.000000	5.915106
2315.000000	5.858470
2314.000000	5.825572
2313.000000	5.845960
2312.000000	5.687062
2311.000000	5.946286
2310.000000	5.639402
2309.000000	5.574119
2308.000000	5.730175
2307.000000	5.632960
2306.000000	5.764307
2305.000000	5.795312
2304.000000	5.865327
2303.000000	5.878504
2302.000000	5.665141
2301.000000	5.572949
2300.000000	5.465565
2299.000000	5.347419
2298.000000	5.529552
2297.000000	5.486924
2296.000000	5.706297
2295.000000	5.601005
2294.000000	5.436080
2293.000000	5.287441
2292.000000	5.409789
2291.000000	5.515382
2290.000000	5.458370
2289.000000	5.312224
2288.000000	5.308232
2287.000000	5.571825
2286.000000	5.437076
2285.000000	5.331622
2284.000000	5.237176
2283.000000	5.211187
2282.000000	5.263949
2281.000000	5.262066
2280.000000	5.245928
2279.000000	5.432789
2278.000000	5.288870
2277.000000	5.271864
2276.000000	5.378108
2275.000000	5.459674
2274.000000	5.479598
2273.000000	5.597381
2272.000000	5.717542
2271.000000	5.671575
2270.000000	5.623170
2269.000000	5.535863
2268.000000	5.504780
2267.000000	5.573489
2266.000000	5.589449
2265.000000	5.609879
2264.000000	5.760345
2263.000000	5.769418
2262.000000	5.780868
2261.000000	5.783875
2260.000000	5.798241
2259.000000	5.937230
2258.000000	5.973885
2257.000000	6.019066
2256.000000	6.130793
2255.000000	6.192017
2254.000000	6.179815
2253.000000	6.295673
2252.000000	6.377456
2251.000000	6.353369
2250.000000	6.488976
2249.000000	6.639599
2248.000000	6.583384
2247.000000	6.628262
2246.000000	6.667566
2245.000000	6.739675
2244.000000	6.786478
2243.000000	6.906856
2242.000000	7.007173
2241.000000	6.972223
2240.000000	7.011642
2239.000000	7.125387
2238.000000	7.152139
2237.000000	7.049821
2236.000000	7.131587
2235.000000	7.202920
2234.000000	7.200891
2233.000000	7.255270
2232.000000	7.276298
2231.000000	7.305013
2230.000000	7.403117
2229.000000	7.331003
2228.000000	7.301595
2227.000000	7.356881
2226.000000	7.316870
2225.000000	7.259872
2224.000000	7.205568
2223.000000	7.112679
2222.000000	7.208531
2221.000000	7.385954
2220.000000	7.452893
2219.000000	7.378558
2218.000000	7.305242
2217.000000	7.351284
2216.000000	7.329277
2215.000000	7.228820
2214.000000	7.282204
2213.000000	7.240821
2212.000000	7.202530
2211.000000	7.143727
2210.000000	7.137563
2209.000000	7.069345
2208.000000	7.068934
2207.000000	7.154559
2206.000000	6.964946
2205.000000	7.022066
2204.000000	7.105180
2203.000000	7.025568
2202.000000	6.991419
2201.000000	6.959737
2200.000000	6.918326
2199.000000	6.861530
2198.000000	6.941495
2197.000000	6.846052
2196.000000	6.740311
2195.000000	6.754870
2194.000000	6.829674
2193.000000	6.711268
2192.000000	6.602911
2191.000000	6.699640
2190.000000	6.644447
2189.000000	6.610026
2188.000000	6.567727
2187.000000	6.603785
2186.000000	6.605578
2185.000000	6.682160
2184.000000	6.615676
2183.000000	6.655802
2182.000000	6.538488
2181.000000	6.588485
2180.000000	6.488012
2179.000000	6.422972
2178.000000	6.422862
2177.000000	6.460260
2176.000000	6.484330
2175.000000	6.640438
2174.000000	6.561476
2173.000000	6.615900
2172.000000	6.582609
2171.000000	6.631194
2170.000000	6.612779
2169.000000	6.656905
2168.000000	6.599776
2167.000000	6.552489
2166.000000	6.674356
2165.000000	6.773787
2164.000000	6.803444
2163.000000	6.700829
2162.000000	6.642098
2161.000000	6.699475
2160.000000	6.797654
2159.000000	6.823892
2158.000000	6.815971
2157.000000	6.908837
2156.000000	7.081366
2155.000000	7.040267
2154.000000	7.062704
2153.000000	7.089022
2152.000000	7.063076
2151.000000	7.257330
2150.000000	7.166516
2149.000000	7.260141
2148.000000	7.243820
2147.000000	7.357237
2146.000000	7.298492
2145.000000	7.505820
2144.000000	7.452419
2143.000000	7.408219
2142.000000	7.338734
2141.000000	7.389138
2140.000000	7.550869
2139.000000	7.489778
2138.000000	7.580987
2137.000000	7.638867
2136.000000	7.534106
2135.000000	7.610048
2134.000000	7.808938
2133.000000	7.430473
2132.000000	7.649255
2131.000000	7.751431
2130.000000	7.656736
2129.000000	7.666313
2128.000000	7.642094
2127.000000	7.683977
2126.000000	7.700359
2125.000000	7.683669
2124.000000	7.544096
2123.000000	7.593406
2122.000000	7.753763
2121.000000	7.849272
2120.000000	7.893194
2119.000000	7.940954
2118.000000	7.831898
2117.000000	7.954070
2116.000000	7.765150
2115.000000	7.824443
2114.000000	7.874870
2113.000000	7.866350
2112.000000	7.779470
2111.000000	7.838577
2110.000000	7.797710
2109.000000	7.768103
2108.000000	7.760194
2107.000000	7.837914
2106.000000	7.900126
2105.000000	7.736288
2104.000000	7.803874
2103.000000	7.828545
2102.000000	7.940894
2101.000000	7.910478
2100.000000	7.905992
2099.000000	7.860275
2098.000000	7.777170
2097.000000	7.775927
2096.000000	7.764230
2095.000000	7.750957
2094.000000	7.756907
2093.000000	7.809231
2092.000000	7.804690
2091.000000	7.867882
2090.000000	7.838965
2089.000000	7.803823
2088.000000	7.787512
2087.000000	7.839538
2086.000000	7.779865
2085.000000	7.838094
2084.000000	7.797520
2083.000000	7.758580
2082.000000	7.704397
2081.000000	7.630720
2080.000000	7.618305
2079.000000	7.584725
2078.000000	7.544514
2077.000000	7.552151
2076.000000	7.519856
2075.000000	7.485421
2074.000000	7.494253
2073.000000	7.365340
2072.000000	7.366553
2071.000000	7.355889
2070.000000	7.397280
2069.000000	7.373866
2068.000000	7.336061
2067.000000	7.295256
2066.000000	7.199220
2065.000000	7.151339
2064.000000	7.088824
2063.000000	7.029719
2062.000000	6.995898
2061.000000	6.950227
2060.000000	6.930028
2059.000000	6.936160
2058.000000	6.941549
2057.000000	6.832088
2056.000000	6.770413
2055.000000	6.736230
2054.000000	6.679131
2053.000000	6.674627
2052.000000	6.639710
2051.000000	6.554734
2050.000000	6.518153
2049.000000	6.524086
2048.000000	6.456002
2047.000000	6.404568
2046.000000	6.404913
2045.000000	6.430473
2044.000000	6.421809
2043.000000	6.421917
2042.000000	6.428834
2041.000000	6.516037
2040.000000	6.542183
2039.000000	6.458147
2038.000000	6.457927
2037.000000	6.503718
2036.000000	6.487810
2035.000000	6.484953
2034.000000	6.515977
2033.000000	6.511021
2032.000000	6.541309
2031.000000	6.625144
2030.000000	6.681822
2029.000000	6.678669
2028.000000	6.708388
2027.000000	6.779824
2026.000000	6.807730
2025.000000	6.836475
2024.000000	6.860021
2023.000000	6.838007
2022.000000	6.845992
2021.000000	6.882274
2020.000000	6.874722
2019.000000	6.845153
2018.000000	6.895285
2017.000000	6.903482
2016.000000	6.863099
2015.000000	6.871651
2014.000000	6.861344
2013.000000	6.828467
2012.000000	6.836476
2011.000000	6.808032
2010.000000	6.808704
2009.000000	6.819073
2008.000000	6.772071
2007.000000	6.726821
2006.000000	6.676456
2005.000000	6.681438
2004.000000	6.639952
2003.000000	6.614714
2002.000000	6.572395
2001.000000	6.527986
2000.000000	6.506344
1999.000000	6.454605
1998.000000	6.427271
1997.000000	6.381333
1996.000000	6.378772
1995.000000	6.339931
1994.000000	6.290134
1993.000000	6.226433
1992.000000	6.209167
1991.000000	6.194740
1990.000000	6.100175
1989.000000	6.078555
1988.000000	6.088628
1987.000000	6.022516
1986.000000	6.012949
1985.000000	5.974899
1984.000000	5.960791
1983.000000	5.930673
1982.000000	5.866999
1981.000000	5.866320
1980.000000	5.806114
1979.000000	5.785868
1978.000000	5.758169
1977.000000	5.710285
1976.000000	5.669644
1975.000000	5.669269
1974.000000	5.656651
1973.000000	5.611399
1972.000000	5.549136
1971.000000	5.570336
1970.000000	5.495700
1969.000000	5.500000
1968.000000	5.484155
1967.000000	5.415167
1966.000000	5.431628
1965.000000	5.394682
1964.000000	5.359434
1963.000000	5.335723
1962.000000	5.298266
1961.000000	5.285238
1960.000000	5.226211
1959.000000	5.202005
1958.000000	5.175568
1957.000000	5.161801
1956.000000	5.179872
1955.000000	5.163920
1954.000000	5.137689
1953.000000	5.088510
1952.000000	5.063018
1951.000000	5.110309
1950.000000	5.107314
1949.000000	5.034505
1948.000000	5.095108
1947.000000	5.108197
1946.000000	5.096931
1945.000000	5.027746
1944.000000	5.014570
1943.000000	5.008807
1942.000000	5.047250
1941.000000	5.126075
1940.000000	5.104225
1939.000000	5.175238
1938.000000	5.108274
1937.000000	5.201810
1936.000000	5.265418
1935.000000	5.265483
1934.000000	5.224385
1933.000000	5.320373
1932.000000	5.312098
1931.000000	5.338921
1930.000000	5.295942
1929.000000	5.366576
1928.000000	5.442769
1927.000000	5.485906
1926.000000	5.571455
1925.000000	5.627335
1924.000000	5.695934
1923.000000	5.746453
1922.000000	5.824677
1921.000000	5.957956
1920.000000	5.988342
1919.000000	6.045695
1918.000000	6.167916
1917.000000	6.313189
1916.000000	6.364395
1915.000000	6.462577
1914.000000	6.604019
1913.000000	6.768144
1912.000000	6.855317
1911.000000	6.954757
1910.000000	7.040595
1909.000000	7.117006
1908.000000	7.236759
1907.000000	7.375884
1906.000000	7.577464
1905.000000	7.734463
1904.000000	7.818648
1903.000000	7.943800
1902.000000	8.080949
1901.000000	8.320231
1900.000000	8.385312
1899.000000	8.523571
1898.000000	8.695590
1897.000000	8.827710
1896.000000	9.027391
1895.000000	9.101601
1894.000000	9.232522
1893.000000	9.412403
1892.000000	9.558257
1891.000000	9.688959
1890.000000	9.813182
1889.000000	9.981330
1888.000000	10.122296
1887.000000	10.232580
1886.000000	10.368700
1885.000000	10.484307
1884.000000	10.599924
1883.000000	10.733109
1882.000000	10.799129
1881.000000	10.927784
1880.000000	11.066384
1879.000000	11.090212
1878.000000	11.195224
1877.000000	11.248818
1876.000000	11.328506
1875.000000	11.394638
1874.000000	11.506480
1873.000000	11.586834
1872.000000	11.618040
1871.000000	11.643299
1870.000000	11.691440
1869.000000	11.735252
1868.000000	11.811436
1867.000000	11.829470
1866.000000	11.827317
1865.000000	11.782568
1864.000000	11.775133
1863.000000	11.820811
1862.000000	11.826880
1861.000000	11.865060
1860.000000	11.869391
1859.000000	11.869978
1858.000000	11.874866
1857.000000	11.871164
1856.000000	11.900811
1855.000000	11.915664
1854.000000	11.896386
1853.000000	11.935532
1852.000000	11.952061
1851.000000	11.943011
1850.000000	11.915197
1849.000000	11.889142
1848.000000	11.889606
1847.000000	11.876947
1846.000000	11.911890
1845.000000	11.931461
1844.000000	11.870828
1843.000000	11.860414
1842.000000	11.840687
1841.000000	11.860116
1840.000000	11.871455
1839.000000	11.841410
1838.000000	11.832991
1837.000000	11.800279
1836.000000	11.761364
1835.000000	11.755733
1834.000000	11.729740
1833.000000	11.722071
1832.000000	11.689020
1831.000000	11.693413
1830.000000	11.658749
1829.000000	11.638562
1828.000000	11.626436
1827.000000	11.603210
1826.000000	11.584937
1825.000000	11.562200
1824.000000	11.541614
1823.000000	11.535731
1822.000000	11.537106
1821.000000	11.539028
1820.000000	11.502968
1819.000000	11.486039
1818.000000	11.482372
1817.000000	11.439344
1816.000000	11.411095
1815.000000	11.405262
1814.000000	11.401422
1813.000000	11.396627
1812.000000	11.389889
1811.000000	11.383152
1810.000000	11.363863
1809.000000	11.352730
1808.000000	11.356582
1807.000000	11.331670
1806.000000	11.310767
1805.000000	11.312799
1804.000000	11.289842
1803.000000	11.282411
1802.000000	11.282465
1801.000000	11.269905
1800.000000	11.260483
1799.000000	11.253615
1798.000000	11.252914
1797.000000	11.252885
1796.000000	11.243433
1795.000000	11.244217
1794.000000	11.251442
1793.000000	11.255514
1792.000000	11.253755
1791.000000	11.246149
1790.000000	11.234935
1789.000000	11.242928
1788.000000	11.236873
1787.000000	11.223317
1786.000000	11.219123
1785.000000	11.220309
1784.000000	11.240144
1783.000000	11.229573
1782.000000	11.201532
1781.000000	11.195398
1780.000000	11.185389
1779.000000	11.186820
1778.000000	11.177203
1777.000000	11.155169
1776.000000	11.161933
1775.000000	11.132638
1774.000000	11.112954
1773.000000	11.079984
1772.000000	11.070424
1771.000000	11.058852
1770.000000	11.054851
1769.000000	11.025880
1768.000000	10.990392
1767.000000	10.977819
1766.000000	10.957803
1765.000000	10.955336
1764.000000	10.939104
1763.000000	10.919274
1762.000000	10.881125
1761.000000	10.854660
1760.000000	10.830133
1759.000000	10.812640
1758.000000	10.817465
1757.000000	10.815856
1756.000000	10.785893
1755.000000	10.765636
1754.000000	10.756941
1753.000000	10.768476
1752.000000	10.761925
1751.000000	10.713065
1750.000000	10.699258
1749.000000	10.704984
1748.000000	10.687491
1747.000000	10.664980
1746.000000	10.632444
1745.000000	10.602126
1744.000000	10.589989
1743.000000	10.561331
1742.000000	10.531504
1741.000000	10.515838
1740.000000	10.475336
1739.000000	10.476032
1738.000000	10.479418
1737.000000	10.451745
1736.000000	10.447640
1735.000000	10.421428
1734.000000	10.423155
1733.000000	10.420630
1732.000000	10.384941
1731.000000	10.391593
1730.000000	10.405098
1729.000000	10.434908
1728.000000	10.422129
1727.000000	10.444666
1726.000000	10.448653
1725.000000	10.448514
1724.000000	10.500337
1723.000000	10.538222
1722.000000	10.544611
1721.000000	10.551018
1720.000000	10.589086
1719.000000	10.627627
1718.000000	10.639218
1717.000000	10.683640
1716.000000	10.688515
1715.000000	10.708716
1714.000000	10.732068
1713.000000	10.754751
1712.000000	10.771450
1711.000000	10.799783
1710.000000	10.811320
1709.000000	10.833628
1708.000000	10.825220
1707.000000	10.879460
1706.000000	10.886567
1705.000000	10.875450
1704.000000	10.895098
1703.000000	10.905524
1702.000000	10.900028
1701.000000	10.912016
1700.000000	10.926401
1699.000000	10.881161
1698.000000	10.902948
1697.000000	10.952401
1696.000000	10.962813
1695.000000	10.965361
1694.000000	10.958834
1693.000000	10.969395
1692.000000	11.000043
1691.000000	11.003537
1690.000000	11.026459
1689.000000	11.059821
1688.000000	11.074753
1687.000000	11.119657
1686.000000	11.127241
1685.000000	11.166569
1684.000000	11.198022
1683.000000	11.230580
1682.000000	11.262075
1681.000000	11.328344
1680.000000	11.348699
1679.000000	11.390364
1678.000000	11.425944
1677.000000	11.449176
1676.000000	11.485866
1675.000000	11.527103
1674.000000	11.589162
1673.000000	11.626811
1672.000000	11.646422
1671.000000	11.703976
1670.000000	11.719148
1669.000000	11.736253
1668.000000	11.747546
1667.000000	11.801330
1666.000000	11.802376
1665.000000	11.807628
1664.000000	11.819740
1663.000000	11.837677
1662.000000	11.846320
1661.000000	11.870288
1660.000000	11.898414
1659.000000	11.945320
1658.000000	11.929546
1657.000000	11.932724
1656.000000	11.970490
1655.000000	11.972107
1654.000000	11.965696
1653.000000	11.981820
1652.000000	11.989165
1651.000000	11.974402
1650.000000	11.963370
1649.000000	11.971128
1648.000000	11.945826
1647.000000	11.929306
1646.000000	11.904747
1645.000000	11.910956
1644.000000	11.916626
1643.000000	11.907970
1642.000000	11.893469
1641.000000	11.879368
1640.000000	11.865267
1639.000000	11.847635
1638.000000	11.854293
1637.000000	11.847883
1636.000000	11.831630
1635.000000	11.818445
1634.000000	11.804915
1633.000000	11.784987
1632.000000	11.770949
1631.000000	11.758433
1630.000000	11.728287
1629.000000	11.724094
1628.000000	11.714481
1627.000000	11.709200
1626.000000	11.680868
1625.000000	11.666862
1624.000000	11.658252
1623.000000	11.645949
1622.000000	11.642425
1621.000000	11.615367
1620.000000	11.601336
1619.000000	11.586840
1618.000000	11.563109
1617.000000	11.545953
1616.000000	11.527693
1615.000000	11.511520
1614.000000	11.490479
1613.000000	11.478309
1612.000000	11.470231
1611.000000	11.448744
1610.000000	11.427993
1609.000000	11.409987
1608.000000	11.397972
1607.000000	11.378894
1606.000000	11.354473
1605.000000	11.339906
1604.000000	11.321906
1603.000000	11.300850
1602.000000	11.290175
1601.000000	11.273823
1600.000000	11.249699
1599.000000	11.248208
1598.000000	11.230474
1597.000000	11.208744
1596.000000	11.203312
1595.000000	11.195794
1594.000000	11.186053
1593.000000	11.168524
1592.000000	11.149755
1591.000000	11.128732
1590.000000	11.123683
1589.000000	11.105870
1588.000000	11.078042
1587.000000	11.061695
1586.000000	11.053948
1585.000000	11.048335
1584.000000	11.036969
1583.000000	11.032905
1582.000000	11.017401
1581.000000	10.991876
1580.000000	10.985470
1579.000000	10.975304
1578.000000	10.972949
1577.000000	10.956084
1576.000000	10.938288
1575.000000	10.922929
1574.000000	10.903627
1573.000000	10.890300
1572.000000	10.870131
1571.000000	10.857042
1570.000000	10.854446
1569.000000	10.841431
1568.000000	10.824965
1567.000000	10.823042
1566.000000	10.815914
1565.000000	10.794412
1564.000000	10.776490
1563.000000	10.773571
1562.000000	10.761127
1561.000000	10.738108
1560.000000	10.730590
1559.000000	10.725605
1558.000000	10.714246
1557.000000	10.704203
1556.000000	10.699995
1555.000000	10.681515
1554.000000	10.661934
1553.000000	10.655726
1552.000000	10.649067
1551.000000	10.645697
1550.000000	10.622880
1549.000000	10.610039
1548.000000	10.589817
1547.000000	10.570781
1546.000000	10.540837
1545.000000	10.530541
1544.000000	10.512448
1543.000000	10.489805
1542.000000	10.465493
1541.000000	10.438392
1540.000000	10.411330
1539.000000	10.383825
1538.000000	10.353930
1537.000000	10.328295
1536.000000	10.306200
1535.000000	10.284799
1534.000000	10.247638
1533.000000	10.234046
1532.000000	10.217493
1531.000000	10.196820
1530.000000	10.207157
1529.000000	10.243525
1528.000000	10.255657
1527.000000	10.249275
1526.000000	10.206133
1525.000000	10.151705
1524.000000	10.112786
1523.000000	10.070147
1522.000000	10.060336
1521.000000	10.057588
1520.000000	10.025338
1519.000000	10.044640
1518.000000	10.025872
1517.000000	9.990669
1516.000000	9.967615
1515.000000	9.937557
1514.000000	9.940517
1513.000000	9.939780
1512.000000	9.919842
1511.000000	9.911275
1510.000000	9.874557
1509.000000	9.891083
1508.000000	9.896087
1507.000000	9.889107
1506.000000	9.853089
1505.000000	9.840763
1504.000000	9.845253
1503.000000	9.822668
1502.000000	9.813662
1501.000000	9.805653
1500.000000	9.796780
1499.000000	9.778786
1498.000000	9.793543
1497.000000	9.779125
1496.000000	9.782082
1495.000000	9.786828
1494.000000	9.778721
1493.000000	9.779739
1492.000000	9.785026
1491.000000	9.779287
1490.000000	9.795958
1489.000000	9.792413
1488.000000	9.797627
1487.000000	9.794784
1486.000000	9.807980
1485.000000	9.817482
1484.000000	9.817163
1483.000000	9.817534
1482.000000	9.837580
1481.000000	9.847470
1480.000000	9.860490
1479.000000	9.866707
1478.000000	9.867993
1477.000000	9.879169
1476.000000	9.890304
1475.000000	9.887548
1474.000000	9.869631
1473.000000	9.868229
1472.000000	9.874088
1471.000000	9.879770
1470.000000	9.883849
1469.000000	9.889193
1468.000000	9.894224
1467.000000	9.922177
1466.000000	9.941143
1465.000000	9.923708
1464.000000	9.933963
1463.000000	9.925841
1462.000000	9.962096
1461.000000	9.976913
1460.000000	9.971847
1459.000000	9.959235
1458.000000	9.964666
1457.000000	9.994524
1456.000000	9.991728
1455.000000	9.990532
1454.000000	9.992665
1453.000000	10.023163
1452.000000	10.052333
1451.000000	10.050065
1450.000000	10.044889
1449.000000	10.052862
1448.000000	10.046617
1447.000000	10.063499
1446.000000	10.118398
1445.000000	10.139820
1444.000000	10.142407
1443.000000	10.152767
1442.000000	10.158518
1441.000000	10.175972
1440.000000	10.178808
1439.000000	10.203018
1438.000000	10.217160
1437.000000	10.276222
1436.000000	10.306565
1435.000000	10.321233
1434.000000	10.339680
1433.000000	10.371176
1432.000000	10.399959
1431.000000	10.427671
1430.000000	10.441762
1429.000000	10.473399
1428.000000	10.502782
1427.000000	10.542947
1426.000000	10.582907
1425.000000	10.625775
1424.000000	10.658011
1423.000000	10.671477
1422.000000	10.704316
1421.000000	10.739064
1420.000000	10.796449
1419.000000	10.847634
1418.000000	10.893863
1417.000000	10.925777
1416.000000	10.980844
1415.000000	11.018733
1414.000000	11.042497
1413.000000	11.095246
1412.000000	11.162712
1411.000000	11.226289
1410.000000	11.281538
1409.000000	11.304262
1408.000000	11.340078
1407.000000	11.398341
1406.000000	11.438895
1405.000000	11.473938
1404.000000	11.528218
1403.000000	11.574640
1402.000000	11.613101
1401.000000	11.654628
1400.000000	11.688668
1399.000000	11.728574
1398.000000	11.777650
1397.000000	11.810603
1396.000000	11.842048
1395.000000	11.871984
1394.000000	11.897811
1393.000000	11.926112
1392.000000	11.951915
1391.000000	11.980983
1390.000000	12.007810
1389.000000	12.028060
1388.000000	12.046405
1387.000000	12.072920
1386.000000	12.085280
1385.000000	12.116790
1384.000000	12.159070
1383.000000	12.171133
1382.000000	12.167954
1381.000000	12.188020
1380.000000	12.219145
1379.000000	12.222403
1378.000000	12.233592
1377.000000	12.255024
1376.000000	12.265697
1375.000000	12.247271
1374.000000	12.240595
1373.000000	12.261178
1372.000000	12.267495
1371.000000	12.266618
1370.000000	12.271130
1369.000000	12.265594
1368.000000	12.265227
1367.000000	12.277210
1366.000000	12.284829
1365.000000	12.291833
1364.000000	12.308321
1363.000000	12.318605
1362.000000	12.309836
1361.000000	12.303129
1360.000000	12.321661
1359.000000	12.346096
1358.000000	12.353029
1357.000000	12.349603
1356.000000	12.350961
1355.000000	12.349708
1354.000000	12.346588
1353.000000	12.363728
1352.000000	12.370060
1351.000000	12.366382
1350.000000	12.358774
1349.000000	12.365161
1348.000000	12.384287
1347.000000	12.400196
1346.000000	12.391598
1345.000000	12.376412
1344.000000	12.379557
1343.000000	12.386629
1342.000000	12.389441
1341.000000	12.395962
1340.000000	12.385270
1339.000000	12.375930
1338.000000	12.383955
1337.000000	12.411672
1336.000000	12.427148
1335.000000	12.427737
1334.000000	12.418390
1333.000000	12.407889
1332.000000	12.394967
1331.000000	12.398390
1330.000000	12.417091
1329.000000	12.435809
1328.000000	12.420866
1327.000000	12.401884
1326.000000	12.418561
1325.000000	12.441285
1324.000000	12.420648
1323.000000	12.409361
1322.000000	12.419609
1321.000000	12.397644
1320.000000	12.403553
1319.000000	12.403016
1318.000000	12.400264
1317.000000	12.406139
1316.000000	12.404462
1315.000000	12.380123
1314.000000	12.380909
1313.000000	12.386930
1312.000000	12.377373
1311.000000	12.385371
1310.000000	12.380035
1309.000000	12.362735
1308.000000	12.372354
1307.000000	12.356663
1306.000000	12.342248
1305.000000	12.338653
1304.000000	12.342964
1303.000000	12.319484
1302.000000	12.325830
1301.000000	12.343999
1300.000000	12.345486
1299.000000	12.318864
1298.000000	12.303892
1297.000000	12.301204
1296.000000	12.306467
1295.000000	12.314638
1294.000000	12.278278
1293.000000	12.271461
1292.000000	12.283136
1291.000000	12.276955
1290.000000	12.278367
1289.000000	12.286154
1288.000000	12.265871
1287.000000	12.230811
1286.000000	12.214392
1285.000000	12.204182
1284.000000	12.203167
1283.000000	12.234057
1282.000000	12.233823
1281.000000	12.227188
1280.000000	12.238080
1279.000000	12.229353
1278.000000	12.206281
1277.000000	12.219690
1276.000000	12.209163
1275.000000	12.204742
1274.000000	12.195982
1273.000000	12.189716
1272.000000	12.169368
1271.000000	12.180140
1270.000000	12.161246
1269.000000	12.156160
1268.000000	12.161550
1267.000000	12.160492
1266.000000	12.142534
1265.000000	12.128338
1264.000000	12.113156
1263.000000	12.116944
1262.000000	12.140610
1261.000000	12.146863
1260.000000	12.161468
1259.000000	12.139557
1258.000000	12.112657
1257.000000	12.115136
1256.000000	12.129881
1255.000000	12.143890
1254.000000	12.134672
1253.000000	12.106710
1252.000000	12.098984
1251.000000	12.096020
1250.000000	12.090131
1249.000000	12.090696
1248.000000	12.080488
1247.000000	12.062625
1246.000000	12.074358
1245.000000	12.099029
1244.000000	12.067085
1243.000000	12.067836
1242.000000	12.064404
1241.000000	12.011621
1240.000000	12.000405
1239.000000	12.011665
1238.000000	12.015785
1237.000000	11.974563
1236.000000	11.972193
1235.000000	11.985420
1234.000000	11.981993
1233.000000	11.938740
1232.000000	11.934239
1231.000000	11.955092
1230.000000	11.942990
1229.000000	11.912682
1228.000000	11.917469
1227.000000	11.897799
1226.000000	11.898000
1225.000000	11.908787
1224.000000	11.908090
1223.000000	11.897714
1222.000000	11.899886
1221.000000	11.874164
1220.000000	11.859121
1219.000000	11.842423
1218.000000	11.833719
1217.000000	11.812170
1216.000000	11.809137
1215.000000	11.788361
1214.000000	11.776506
1213.000000	11.781331
1212.000000	11.788627
1211.000000	11.782372
1210.000000	11.759425
1209.000000	11.751148
1208.000000	11.745596
1207.000000	11.750064
1206.000000	11.763132
1205.000000	11.746850
1204.000000	11.716712
1203.000000	11.694501
1202.000000	11.693967
1201.000000	11.696570
1200.000000	11.673491
1199.000000	11.648803
1198.000000	11.638208
1197.000000	11.640141
1196.000000	11.645289
1195.000000	11.645531
1194.000000	11.623347
1193.000000	11.603839
1192.000000	11.594640
1191.000000	11.579842
1190.000000	11.560521
1189.000000	11.526963
1188.000000	11.525876
1187.000000	11.537160
1186.000000	11.536248
1185.000000	11.536158
1184.000000	11.520459
1183.000000	11.514773
1182.000000	11.529073
1181.000000	11.540209
1180.000000	11.543730
1179.000000	11.546178
1178.000000	11.548557
1177.000000	11.560204
1176.000000	11.570007
1175.000000	11.588066
1174.000000	11.589910
1173.000000	11.589624
1172.000000	11.592706
1171.000000	11.594133
1170.000000	11.605384
1169.000000	11.613783
1168.000000	11.626026
1167.000000	11.645226
1166.000000	11.643073
1165.000000	11.647916
1164.000000	11.660226
1163.000000	11.658111
1162.000000	11.674259
1161.000000	11.690579
1160.000000	11.687198
1159.000000	11.688254
1158.000000	11.693984
1157.000000	11.679164
1156.000000	11.656436
1155.000000	11.670739
1154.000000	11.695994
1153.000000	11.712648
1152.000000	11.729141
1151.000000	11.737397
1150.000000	11.743458
1149.000000	11.746779
1148.000000	11.752890
1147.000000	11.765227
1146.000000	11.762156
1145.000000	11.762038
1144.000000	11.766753
1143.000000	11.767327
1142.000000	11.764907
1141.000000	11.778698
1140.000000	11.783178
1139.000000	11.760230
1138.000000	11.746936
1137.000000	11.752459
1136.000000	11.760320
1135.000000	11.766993
1134.000000	11.772956
1133.000000	11.775820
1132.000000	11.778642
1131.000000	11.788697
1130.000000	11.804701
1129.000000	11.793212
1128.000000	11.796102
1127.000000	11.798909
1126.000000	11.786923
1125.000000	11.763372
1124.000000	11.754862
1123.000000	11.757412
1122.000000	11.751430
1121.000000	11.762470
1120.000000	11.763668
1119.000000	11.766157
1118.000000	11.766712
1117.000000	11.761633
1116.000000	11.757440
1115.000000	11.749119
1114.000000	11.750412
1113.000000	11.751816
1112.000000	11.749388
1111.000000	11.738154
1110.000000	11.730768
1109.000000	11.730637
1108.000000	11.734260
1107.000000	11.727594
1106.000000	11.717277
1105.000000	11.719751
1104.000000	11.725117
1103.000000	11.714807
1102.000000	11.667047
1101.000000	11.671227
1100.000000	11.677460
1099.000000	11.665378
1098.000000	11.679558
1097.000000	11.673950
1096.000000	11.677244
1095.000000	11.689910
1094.000000	11.645623
1093.000000	11.636211
1092.000000	11.616806
1091.000000	11.630240
1090.000000	11.640923
1089.000000	11.655060
1088.000000	11.653782
1087.000000	11.616289
1086.000000	11.615198
1085.000000	11.614303
1084.000000	11.623492
1083.000000	11.623115
1082.000000	11.613526
1081.000000	11.628661
1080.000000	11.595271
1079.000000	11.576576
1078.000000	11.574460
1077.000000	11.572289
1076.000000	11.589194
1075.000000	11.581614
1074.000000	11.593353
1073.000000	11.541454
1072.000000	11.540468
1071.000000	11.526506
1070.000000	11.546981
1069.000000	11.543228
1068.000000	11.543735
1067.000000	11.543264
1066.000000	11.522400
1065.000000	11.510723
1064.000000	11.519719
1063.000000	11.515398
1062.000000	11.521436
1061.000000	11.523607
1060.000000	11.529487
1059.000000	11.478712
1058.000000	11.459897
1057.000000	11.468189
1056.000000	11.470335
1055.000000	11.464985
1054.000000	11.478193
1053.000000	11.452137
1052.000000	11.432178
1051.000000	11.450469
1050.000000	11.457453
1049.000000	11.478004
1048.000000	11.408878
1047.000000	11.425864
1046.000000	11.452154
1045.000000	11.441458
1044.000000	11.437206
1043.000000	11.399175
1042.000000	11.405165
1041.000000	11.402660
1040.000000	11.410258
1039.000000	11.384966
1038.000000	11.372782
1037.000000	11.385174
1036.000000	11.384949
1035.000000	11.387511
1034.000000	11.368404
1033.000000	11.360706
1032.000000	11.379443
1031.000000	11.367586
1030.000000	11.358678
1029.000000	11.353592
1028.000000	11.342896
1027.000000	11.313681
1026.000000	11.332889
1025.000000	11.343213
1024.000000	11.341071
1023.000000	11.319000
1022.000000	11.313590
1021.000000	11.331941
1020.000000	11.329480
1019.000000	11.308297
1018.000000	11.310248
1017.000000	11.306237
1016.000000	11.268843
1015.000000	11.289648
1014.000000	11.302396
1013.000000	11.298882
1012.000000	11.285609
1011.000000	11.247841
1010.000000	11.241132
1009.000000	11.250836
1008.000000	11.267368
1007.000000	11.271145
1006.000000	11.265319
1005.000000	11.261022
1004.000000	11.243491
1003.000000	11.257043
1002.000000	11.263806
1001.000000	11.236019
1000.000000	11.244501
999.000000	11.252975
998.000000	11.219280
997.000000	11.225367
996.000000	11.210191
995.000000	11.216495
994.000000	11.226911
993.000000	11.205027
992.000000	11.174606
991.000000	11.197324
990.000000	11.207834
989.000000	11.202611
988.000000	11.200959
987.000000	11.200184
986.000000	11.214460
985.000000	11.218251
984.000000	11.223468
983.000000	11.231740
982.000000	11.246240
981.000000	11.243936
980.000000	11.236225
979.000000	11.227642
978.000000	11.235885
977.000000	11.237036
976.000000	11.241855
975.000000	11.241743
974.000000	11.236599
973.000000	11.235417
972.000000	11.243305
971.000000	11.231318
970.000000	11.225815
969.000000	11.239904
968.000000	11.232895
967.000000	11.220815
966.000000	11.217928
965.000000	11.209003
964.000000	11.211106
963.000000	11.203956
962.000000	11.204643
961.000000	11.213975
960.000000	11.198750
959.000000	11.178629
958.000000	11.170114
957.000000	11.173876
956.000000	11.173363
955.000000	11.179084
954.000000	11.175095
953.000000	11.151261
952.000000	11.143522
951.000000	11.134542
950.000000	11.133905
949.000000	11.139467
948.000000	11.130641
947.000000	11.116595
946.000000	11.115026
945.000000	11.108859
944.000000	11.099214
943.000000	11.099720
942.000000	11.103811
941.000000	11.082386
940.000000	11.063932
939.000000	11.076051
938.000000	11.063872
937.000000	11.058229
936.000000	11.058035
935.000000	11.050682
934.000000	11.048443
933.000000	11.024828
932.000000	11.009880
931.000000	10.998556
930.000000	11.006811
929.000000	10.999702
928.000000	10.995185
927.000000	10.989283
926.000000	10.964131
925.000000	10.959671
924.000000	10.962037
923.000000	10.924630
922.000000	10.910691
921.000000	10.929600
920.000000	10.903982
919.000000	10.897617
918.000000	10.900064
917.000000	10.894807
916.000000	10.896544
915.000000	10.895863
914.000000	10.877281
913.000000	10.900889
912.000000	10.904630
911.000000	10.873798
910.000000	10.866109
909.000000	10.873696
908.000000	10.849428
907.000000	10.863976
906.000000	10.848047
905.000000	10.831271
904.000000	10.862787
903.000000	10.860971
902.000000	10.824591
901.000000	10.793578
900.000000	10.769316
899.000000	10.758210
898.000000	10.766245
897.000000	10.791261
896.000000	10.788002
895.000000	10.795790
894.000000	10.801437
893.000000	10.795239
892.000000	10.811623
891.000000	10.782264
890.000000	10.784944
889.000000	10.745212
888.000000	10.768246
887.000000	10.767457
886.000000	10.761987
885.000000	10.669271
884.000000	10.666357
883.000000	10.704806
882.000000	10.644918
881.000000	10.592973
880.000000	10.685684
879.000000	10.689270
878.000000	10.629249
877.000000	10.602591
876.000000	10.673391
875.000000	10.665359
874.000000	10.609772
873.000000	10.686719
872.000000	10.648743
871.000000	10.624214
870.000000	10.551823
869.000000	10.561200
868.000000	10.598686
867.000000	10.570262
866.000000	10.495818
865.000000	10.553320
864.000000	10.552795
863.000000	10.530543
862.000000	10.461573
861.000000	10.549781
860.000000	10.431766
859.000000	10.578335
858.000000	10.552633
857.000000	10.538378
856.000000	10.590436
855.000000	10.534857
854.000000	10.528274
853.000000	10.554570
852.000000	10.563525
851.000000	10.522994
850.000000	10.384623
849.000000	10.408984
848.000000	10.386762
847.000000	10.395799
846.000000	10.400044
845.000000	10.346917
844.000000	10.426066
843.000000	10.360695
842.000000	10.436496
841.000000	10.345844
840.000000	10.364561
839.000000	10.306923
838.000000	10.270889
837.000000	10.332090
836.000000	10.289986
835.000000	10.247043
834.000000	10.238025
833.000000	10.243691
832.000000	10.252441
831.000000	10.190465
830.000000	10.197128
829.000000	10.103419
828.000000	10.218446
827.000000	10.149313
826.000000	10.138516
825.000000	10.059486
824.000000	10.073945
823.000000	10.114461
822.000000	10.052985
821.000000	10.069695
820.000000	10.041555
819.000000	10.050949
818.000000	9.999288
817.000000	9.953954
816.000000	9.986806
815.000000	9.966259
814.000000	9.986529
813.000000	9.910327
812.000000	9.918909
811.000000	9.909696
810.000000	9.868963
809.000000	9.895211
808.000000	9.857283
807.000000	9.875962
806.000000	9.836395
805.000000	9.881464
804.000000	9.847374
803.000000	9.860613
802.000000	9.819345
801.000000	9.781668
800.000000	9.756606
799.000000	9.753814
798.000000	9.727054
797.000000	9.690397
796.000000	9.713037
795.000000	9.690407
794.000000	9.650152
793.000000	9.641374
792.000000	9.618630
791.000000	9.624747
790.000000	9.635739
789.000000	9.621655
788.000000	9.586281
787.000000	9.575558
786.000000	9.555872
785.000000	9.556922
784.000000	9.532763
783.000000	9.479471
782.000000	9.487754
781.000000	9.494455
780.000000	9.460071
779.000000	9.426761
778.000000	9.417675
777.000000	9.374958
776.000000	9.399305
775.000000	9.361048
774.000000	9.366474
773.000000	9.313989
772.000000	9.284088
771.000000	9.274294
770.000000	9.281301
769.000000	9.265894
768.000000	9.224022
767.000000	9.223311
766.000000	9.204183
765.000000	9.183416
764.000000	9.182155
763.000000	9.168071
762.000000	9.119632
761.000000	9.125541
760.000000	9.121009
759.000000	9.099982
758.000000	9.052883
757.000000	9.061364
756.000000	9.034123
755.000000	9.013064
754.000000	8.991873
753.000000	8.975733
752.000000	8.971354
751.000000	8.947396
750.000000	8.915378
749.000000	8.909202
748.000000	8.878290
747.000000	8.860357
746.000000	8.847733
745.000000	8.826816
744.000000	8.800782
743.000000	8.770877
742.000000	8.756266
741.000000	8.757700
740.000000	8.730125
739.000000	8.715854
738.000000	8.688802
737.000000	8.656444
736.000000	8.622678
735.000000	8.600409
734.000000	8.599375
733.000000	8.594962
732.000000	8.572640
731.000000	8.546762
730.000000	8.524693
729.000000	8.506615
728.000000	8.494483
727.000000	8.458725
726.000000	8.429362
725.000000	8.413288
724.000000	8.399335
723.000000	8.372524
722.000000	8.341199
721.000000	8.332557
720.000000	8.309239
719.000000	8.269635
718.000000	8.258554
717.000000	8.250937
716.000000	8.228833
715.000000	8.200544
714.000000	8.174658
713.000000	8.153988
712.000000	8.132411
711.000000	8.117428
710.000000	8.086076
709.000000	8.048936
708.000000	8.034091
707.000000	8.012677
706.000000	7.984074
705.000000	7.961734
704.000000	7.945959
703.000000	7.925968
702.000000	7.884720
701.000000	7.861539
700.000000	7.856288
699.000000	7.828724
698.000000	7.800143
697.000000	7.787029
696.000000	7.765375
695.000000	7.730666
694.000000	7.705659
693.000000	7.681955
692.000000	7.669899
691.000000	7.643593
690.000000	7.605910
689.000000	7.561250
688.000000	7.525095
687.000000	7.512826
686.000000	7.491958
685.000000	7.454939
684.000000	7.431090
683.000000	7.407848
682.000000	7.376730
681.000000	7.351762
680.000000	7.332126
679.000000	7.296970
678.000000	7.278040
677.000000	7.273876
676.000000	7.246115
675.000000	7.216398
674.000000	7.195147
673.000000	7.165369
672.000000	7.137191
671.000000	7.114163
670.000000	7.080546
669.000000	7.058335
668.000000	7.032951
667.000000	7.011755
666.000000	6.983528
665.000000	6.946107
664.000000	6.924843
663.000000	6.912320
662.000000	6.884239
661.000000	6.849571
660.000000	6.825477
659.000000	6.795523
658.000000	6.760499
657.000000	6.738364
656.000000	6.708125
655.000000	6.690588
654.000000	6.664511
653.000000	6.644261
652.000000	6.612673
651.000000	6.579002
650.000000	6.557082
649.000000	6.535675
648.000000	6.503365
647.000000	6.478046
646.000000	6.449198
645.000000	6.430711
644.000000	6.390914
643.000000	6.364895
642.000000	6.336587
641.000000	6.311378
640.000000	6.286813
639.000000	6.257496
638.000000	6.227266
637.000000	6.202903
636.000000	6.170953
635.000000	6.149108
634.000000	6.116901
633.000000	6.103678
632.000000	6.056365
631.000000	6.037740
630.000000	6.015475
629.000000	5.979793
628.000000	5.945991
627.000000	5.917595
626.000000	5.901656
625.000000	5.873120
624.000000	5.831175
623.000000	5.803100
622.000000	5.782815
621.000000	5.745767
620.000000	5.715087
619.000000	5.696885
618.000000	5.668784
617.000000	5.637358
616.000000	5.600450
615.000000	5.577794
614.000000	5.550626
613.000000	5.520048
612.000000	5.488006
611.000000	5.460824
610.000000	5.432159
609.000000	5.394278
608.000000	5.366191
607.000000	5.347032
606.000000	5.303545
605.000000	5.276065
604.000000	5.243236
603.000000	5.219956
602.000000	5.187803
601.000000	5.156551
600.000000	5.133364
599.000000	5.101499
598.000000	5.067294
597.000000	5.033256
596.000000	5.013834
595.000000	4.988460
594.000000	4.950329
593.000000	4.923474
592.000000	4.896987
591.000000	4.853281
590.000000	4.819134
589.000000	4.800242
588.000000	4.763098
587.000000	4.731349
586.000000	4.693917
585.000000	4.663272
584.000000	4.644916
583.000000	4.606971
582.000000	4.581334
581.000000	4.541075
580.000000	4.511647
579.000000	4.483786
578.000000	4.448207
577.000000	4.425906
576.000000	4.395164
575.000000	4.367598
574.000000	4.324503
573.000000	4.291510
572.000000	4.262234
571.000000	4.235811
570.000000	4.200720
569.000000	4.175447
568.000000	4.131950
567.000000	4.107301
566.000000	4.077738
565.000000	4.051084
564.000000	4.010316
563.000000	3.980270
562.000000	3.945454
561.000000	3.931931
560.000000	3.898051
559.000000	3.873931
558.000000	3.841202
557.000000	3.808093
556.000000	3.783539
555.000000	3.745810
554.000000	3.715655
553.000000	3.689088
552.000000	3.657088
551.000000	3.628986
550.000000	3.595325
549.000000	3.566121
548.000000	3.526907
547.000000	3.497261
546.000000	3.469734
545.000000	3.444252
544.000000	3.410601
543.000000	3.375970
542.000000	3.348141
541.000000	3.315758
540.000000	3.289005
539.000000	3.264465
538.000000	3.232639
537.000000	3.199679
536.000000	3.167974
535.000000	3.139048
534.000000	3.104449
533.000000	3.076081
532.000000	3.051376
531.000000	3.023501
530.000000	2.989278
529.000000	2.959568
528.000000	2.931819
527.000000	2.902541
526.000000	2.873737
525.000000	2.846363
524.000000	2.810864
523.000000	2.779424
522.000000	2.752781
521.000000	2.728473
520.000000	2.697514
519.000000	2.667725
518.000000	2.634063
517.000000	2.607743
516.000000	2.577664
515.000000	2.554031
514.000000	2.523838
513.000000	2.493810
512.000000	2.465306
511.000000	2.435823
510.000000	2.407803
509.000000	2.379588
508.000000	2.350287
507.000000	2.322730
506.000000	2.292520
505.000000	2.267622
504.000000	2.241110
503.000000	2.217215
502.000000	2.185859
501.000000	2.161408
500.000000	2.137413
499.000000	2.113752
498.000000	2.091955
497.000000	2.064204
496.000000	2.036665
495.000000	2.013850
494.000000	1.993030
493.000000	1.970623
492.000000	1.947945
491.000000	1.929645
490.000000	1.904428
489.000000	1.877938
488.000000	1.859610
487.000000	1.834453
486.000000	1.819706
485.000000	1.802665
484.000000	1.781543
483.000000	1.761052
482.000000	1.741972
481.000000	1.720095
480.000000	1.696046
479.000000	1.669811
478.000000	1.644342
477.000000	1.618942
476.000000	1.596002
475.000000	1.574287
474.000000	1.554745
473.000000	1.533606
472.000000	1.508748
471.000000	1.485138
470.000000	1.463164
469.000000	1.443915
468.000000	1.423773
467.000000	1.401485
466.000000	1.376510
465.000000	1.357094
464.000000	1.336900
463.000000	1.314539
462.000000	1.297082
461.000000	1.277881
460.000000	1.253879
459.000000	1.229635
458.000000	1.209564
457.000000	1.192328
456.000000	1.173165
455.000000	1.152324
454.000000	1.134926
453.000000	1.118650
452.000000	1.092843
451.000000	1.070602
450.000000	1.053694
449.000000	1.036874
448.000000	1.022427
447.000000	1.000537
446.000000	0.978508
445.000000	0.963381
444.000000	0.949154
443.000000	0.931841
442.000000	0.912024
441.000000	0.895512
440.000000	0.880554
439.000000	0.865714
438.000000	0.851049
437.000000	0.832973
436.000000	0.814193
435.000000	0.800493
434.000000	0.785340
433.000000	0.769639
432.000000	0.757160
431.000000	0.740544
430.000000	0.722934
429.000000	0.710994
428.000000	0.698142
427.000000	0.684802
426.000000	0.671559
425.000000	0.658158
424.000000	0.644538
423.000000	0.626234
422.000000	0.611448
421.000000	0.594909
420.000000	0.585543
419.000000	0.576243
418.000000	0.561294
417.000000	0.546401
416.000000	0.532023
415.000000	0.514403
414.000000	0.505054
413.000000	0.495889
412.000000	0.484635
411.000000	0.466359
410.000000	0.449893
409.000000	0.438736
408.000000	0.428713
407.000000	0.418050
406.000000	0.405524
405.000000	0.396339
404.000000	0.382578
403.000000	0.371183
402.000000	0.358802
401.000000	0.346810
400.000000	0.335666
399.000000	0.322943
398.000000	0.319283
397.000000	0.308480
396.000000	0.298621
395.000000	0.290640
394.000000	0.281138
393.000000	0.267459
392.000000	0.256198
391.000000	0.250898
390.000000	0.248504
389.000000	0.237857
388.000000	0.229637
387.000000	0.221914
386.000000	0.207453
385.000000	0.200896
384.000000	0.197619
383.000000	0.190021
382.000000	0.183000
381.000000	0.176843
380.000000	0.170456
379.000000	0.162854
378.000000	0.158551
377.000000	0.174350
376.000000	0.178118
375.000000	0.172055
374.000000	0.168233
373.000000	0.152223
372.000000	0.145664
371.000000	0.138117
370.000000	0.129761
369.000000	0.123467
368.000000	0.128823
367.000000	0.117867
366.000000	0.111229
365.000000	0.112634
364.000000	0.106395
363.000000	0.103030
362.000000	0.105809
361.000000	0.092213
360.000000	0.090888
359.000000	0.088754
358.000000	0.087281
357.000000	0.086309
356.000000	0.086080
355.000000	0.080025
354.000000	0.077143
353.000000	0.072790
352.000000	0.073219
351.000000	0.075042
350.000000	0.074007
349.000000	0.070127
348.000000	0.064540
347.000000	0.059586
346.000000	0.060137
345.000000	0.061745
344.000000	0.067263
343.000000	0.064053
342.000000	0.057284
341.000000	0.049482
340.000000	0.050120
339.000000	0.049633
338.000000	0.056305
337.000000	0.050000
336.000000	0.050886
335.000000	0.037298
334.000000	0.043099
333.000000	0.047119
332.000000	0.042746
331.000000	0.047148
330.000000	0.045131
329.000000	0.036081
328.000000	0.043026
327.000000	0.036188
326.000000	0.041640
325.000000	0.033123
324.000000	0.040423
323.000000	0.032137
322.000000	0.029478
321.000000	0.027292
320.000000	0.034774
319.000000	0.032624
318.000000	0.041519
317.000000	0.039733
316.000000	0.044045
315.000000	0.048322
314.000000	0.048512
313.000000	0.040827
312.000000	0.037046
311.000000	0.039032
310.000000	0.037927
309.000000	0.037733
308.000000	0.035871
307.000000	0.036522
306.000000	0.037237
305.000000	0.036900
304.000000	0.038264
303.000000	0.036010
302.000000	0.032972
301.000000	0.040041
300.000000	0.036663
299.000000	0.037337
298.000000	0.033459
297.000000	0.038856
296.000000	0.041815
295.000000	0.035761
294.000000	0.033313
293.000000	0.032722
292.000000	0.034147
291.000000	0.039665
290.000000	0.036921
289.000000	0.036444
288.000000	0.040846
287.000000	0.039360
286.000000	0.036804
285.000000	0.043514
284.000000	0.044689
283.000000	0.043003
282.000000	0.046646
281.000000	0.041321
280.000000	0.037728
279.000000	0.038917
278.000000	0.044055
277.000000	0.044860
276.000000	0.054125
275.000000	0.052368
274.000000	0.052608
273.000000	0.048976
272.000000	0.055902
271.000000	0.050290
270.000000	0.052921
269.000000	0.057308
268.000000	0.060205
267.000000	0.063315
266.000000	0.062360
265.000000	0.061368
264.000000	0.063091
263.000000	0.064450
262.000000	0.067400
261.000000	0.068362
260.000000	0.069613
259.000000	0.069307
258.000000	0.070302
257.000000	0.071815
256.000000	0.073671
255.000000	0.074435
254.000000	0.077802
253.000000	0.077559
252.000000	0.079360
251.000000	0.077186
250.000000	0.076332
249.000000	0.076257
248.000000	0.082818
247.000000	0.081398
246.000000	0.077486
245.000000	0.072236
244.000000	0.073139
243.000000	0.071585
242.000000	0.073197
241.000000	0.071562
240.000000	0.059315
239.000000	0.060151
238.000000	0.060676
237.000000	0.054344
236.000000	0.054066
235.000000	0.052138
234.000000	0.051377
233.000000	0.044786
232.000000	0.037702
231.000000	0.033922
230.000000	0.034917
229.000000	0.031325
228.000000	0.028194
227.000000	0.023270
226.000000	0.020935
225.000000	0.020944
224.000000	0.019032
223.000000	0.017092
222.000000	0.017230
221.000000	0.016548
220.000000	0.016053
219.000000	0.017448
218.000000	0.012706
217.000000	0.001504
216.000000	0.004095
215.000000	0.012635
214.000000	0.002708
213.000000	0.006417
212.000000	0.016681
211.000000	0.003275
210.000000	-0.013261
209.000000	-0.008479
208.000000	0.000111
207.000000	0.001552
206.000000	-0.008229
205.000000	-0.013126
204.000000	-0.016653
203.000000	-0.031514
202.000000	-0.010214
201.000000	-0.017329
200.000000	-0.054071
