PE IR       SUBTECH     SPECTRUM    ASCII       PEDS        4.00        
   -1
P14-Noir017_1.ASC
23/06/09
16:08:25.00
23/06/09
16:36:39.00
uco
Sample 017 By uco Date Friday, June 09 2023
450.000000
#HDR
-1
-1
#GR
cm-1
A
1.0
0.0
4000.000000
-1.000000
3551
8
0.007063
-0.000450
#DATA
4000.000000	0.000389
3999.000000	0.000382
3998.000000	0.000376
3997.000000	0.000371
3996.000000	0.000368
3995.000000	0.000368
3994.000000	0.000372
3993.000000	0.000379
3992.000000	0.000389
3991.000000	0.000397
3990.000000	0.000401
3989.000000	0.000402
3988.000000	0.000404
3987.000000	0.000410
3986.000000	0.000417
3985.000000	0.000422
3984.000000	0.000422
3983.000000	0.000417
3982.000000	0.000412
3981.000000	0.000409
3980.000000	0.000407
3979.000000	0.000405
3978.000000	0.000405
3977.000000	0.000409
3976.000000	0.000416
3975.000000	0.000417
3974.000000	0.000408
3973.000000	0.000393
3972.000000	0.000380
3971.000000	0.000376
3970.000000	0.000383
3969.000000	0.000397
3968.000000	0.000419
3967.000000	0.000443
3966.000000	0.000463
3965.000000	0.000473
3964.000000	0.000471
3963.000000	0.000462
3962.000000	0.000451
3961.000000	0.000439
3960.000000	0.000427
3959.000000	0.000417
3958.000000	0.000416
3957.000000	0.000423
3956.000000	0.000434
3955.000000	0.000444
3954.000000	0.000450
3953.000000	0.000458
3952.000000	0.000475
3951.000000	0.000501
3950.000000	0.000527
3949.000000	0.000540
3948.000000	0.000533
3947.000000	0.000509
3946.000000	0.000485
3945.000000	0.000477
3944.000000	0.000489
3943.000000	0.000514
3942.000000	0.000540
3941.000000	0.000554
3940.000000	0.000553
3939.000000	0.000541
3938.000000	0.000520
3937.000000	0.000497
3936.000000	0.000473
3935.000000	0.000451
3934.000000	0.000426
3933.000000	0.000398
3932.000000	0.000379
3931.000000	0.000381
3930.000000	0.000407
3929.000000	0.000445
3928.000000	0.000482
3927.000000	0.000519
3926.000000	0.000554
3925.000000	0.000579
3924.000000	0.000575
3923.000000	0.000539
3922.000000	0.000492
3921.000000	0.000460
3920.000000	0.000454
3919.000000	0.000464
3918.000000	0.000471
3917.000000	0.000462
3916.000000	0.000441
3915.000000	0.000420
3914.000000	0.000413
3913.000000	0.000426
3912.000000	0.000449
3911.000000	0.000472
3910.000000	0.000485
3909.000000	0.000493
3908.000000	0.000499
3907.000000	0.000508
3906.000000	0.000516
3905.000000	0.000513
3904.000000	0.000494
3903.000000	0.000465
3902.000000	0.000441
3901.000000	0.000429
3900.000000	0.000424
3899.000000	0.000422
3898.000000	0.000423
3897.000000	0.000436
3896.000000	0.000459
3895.000000	0.000482
3894.000000	0.000496
3893.000000	0.000497
3892.000000	0.000493
3891.000000	0.000487
3890.000000	0.000480
3889.000000	0.000480
3888.000000	0.000494
3887.000000	0.000521
3886.000000	0.000547
3885.000000	0.000556
3884.000000	0.000546
3883.000000	0.000533
3882.000000	0.000526
3881.000000	0.000522
3880.000000	0.000512
3879.000000	0.000493
3878.000000	0.000478
3877.000000	0.000477
3876.000000	0.000489
3875.000000	0.000503
3874.000000	0.000506
3873.000000	0.000492
3872.000000	0.000471
3871.000000	0.000458
3870.000000	0.000456
3869.000000	0.000457
3868.000000	0.000465
3867.000000	0.000496
3866.000000	0.000545
3865.000000	0.000589
3864.000000	0.000601
3863.000000	0.000582
3862.000000	0.000554
3861.000000	0.000536
3860.000000	0.000529
3859.000000	0.000524
3858.000000	0.000514
3857.000000	0.000493
3856.000000	0.000465
3855.000000	0.000438
3854.000000	0.000431
3853.000000	0.000443
3852.000000	0.000448
3851.000000	0.000450
3850.000000	0.000459
3849.000000	0.000469
3848.000000	0.000476
3847.000000	0.000483
3846.000000	0.000503
3845.000000	0.000532
3844.000000	0.000551
3843.000000	0.000538
3842.000000	0.000494
3841.000000	0.000448
3840.000000	0.000428
3839.000000	0.000437
3838.000000	0.000449
3837.000000	0.000445
3836.000000	0.000433
3835.000000	0.000436
3834.000000	0.000458
3833.000000	0.000488
3832.000000	0.000507
3831.000000	0.000511
3830.000000	0.000505
3829.000000	0.000502
3828.000000	0.000505
3827.000000	0.000509
3826.000000	0.000505
3825.000000	0.000494
3824.000000	0.000488
3823.000000	0.000495
3822.000000	0.000511
3821.000000	0.000513
3820.000000	0.000483
3819.000000	0.000445
3818.000000	0.000432
3817.000000	0.000445
3816.000000	0.000458
3815.000000	0.000453
3814.000000	0.000440
3813.000000	0.000443
3812.000000	0.000459
3811.000000	0.000471
3810.000000	0.000466
3809.000000	0.000446
3808.000000	0.000423
3807.000000	0.000402
3806.000000	0.000383
3805.000000	0.000373
3804.000000	0.000388
3803.000000	0.000429
3802.000000	0.000481
3801.000000	0.000513
3800.000000	0.000513
3799.000000	0.000503
3798.000000	0.000504
3797.000000	0.000512
3796.000000	0.000506
3795.000000	0.000483
3794.000000	0.000455
3793.000000	0.000437
3792.000000	0.000432
3791.000000	0.000437
3790.000000	0.000449
3789.000000	0.000468
3788.000000	0.000498
3787.000000	0.000537
3786.000000	0.000572
3785.000000	0.000589
3784.000000	0.000580
3783.000000	0.000556
3782.000000	0.000536
3781.000000	0.000532
3780.000000	0.000540
3779.000000	0.000547
3778.000000	0.000544
3777.000000	0.000537
3776.000000	0.000530
3775.000000	0.000520
3774.000000	0.000501
3773.000000	0.000476
3772.000000	0.000461
3771.000000	0.000468
3770.000000	0.000495
3769.000000	0.000527
3768.000000	0.000548
3767.000000	0.000555
3766.000000	0.000547
3765.000000	0.000525
3764.000000	0.000496
3763.000000	0.000470
3762.000000	0.000450
3761.000000	0.000435
3760.000000	0.000425
3759.000000	0.000427
3758.000000	0.000448
3757.000000	0.000481
3756.000000	0.000508
3755.000000	0.000517
3754.000000	0.000508
3753.000000	0.000492
3752.000000	0.000484
3751.000000	0.000484
3750.000000	0.000472
3749.000000	0.000439
3748.000000	0.000411
3747.000000	0.000417
3746.000000	0.000454
3745.000000	0.000486
3744.000000	0.000476
3743.000000	0.000440
3742.000000	0.000433
3741.000000	0.000469
3740.000000	0.000516
3739.000000	0.000540
3738.000000	0.000534
3737.000000	0.000521
3736.000000	0.000527
3735.000000	0.000553
3734.000000	0.000570
3733.000000	0.000554
3732.000000	0.000509
3731.000000	0.000459
3730.000000	0.000429
3729.000000	0.000429
3728.000000	0.000446
3727.000000	0.000460
3726.000000	0.000464
3725.000000	0.000467
3724.000000	0.000480
3723.000000	0.000497
3722.000000	0.000505
3721.000000	0.000496
3720.000000	0.000476
3719.000000	0.000457
3718.000000	0.000449
3717.000000	0.000451
3716.000000	0.000457
3715.000000	0.000465
3714.000000	0.000474
3713.000000	0.000487
3712.000000	0.000511
3711.000000	0.000533
3710.000000	0.000526
3709.000000	0.000487
3708.000000	0.000438
3707.000000	0.000407
3706.000000	0.000407
3705.000000	0.000431
3704.000000	0.000461
3703.000000	0.000476
3702.000000	0.000462
3701.000000	0.000428
3700.000000	0.000398
3699.000000	0.000393
3698.000000	0.000414
3697.000000	0.000441
3696.000000	0.000452
3695.000000	0.000440
3694.000000	0.000411
3693.000000	0.000377
3692.000000	0.000344
3691.000000	0.000324
3690.000000	0.000333
3689.000000	0.000368
3688.000000	0.000407
3687.000000	0.000430
3686.000000	0.000444
3685.000000	0.000464
3684.000000	0.000489
3683.000000	0.000511
3682.000000	0.000520
3681.000000	0.000514
3680.000000	0.000494
3679.000000	0.000458
3678.000000	0.000414
3677.000000	0.000384
3676.000000	0.000387
3675.000000	0.000411
3674.000000	0.000429
3673.000000	0.000443
3672.000000	0.000461
3671.000000	0.000470
3670.000000	0.000459
3669.000000	0.000438
3668.000000	0.000432
3667.000000	0.000458
3666.000000	0.000504
3665.000000	0.000546
3664.000000	0.000568
3663.000000	0.000568
3662.000000	0.000553
3661.000000	0.000532
3660.000000	0.000512
3659.000000	0.000501
3658.000000	0.000507
3657.000000	0.000528
3656.000000	0.000549
3655.000000	0.000555
3654.000000	0.000546
3653.000000	0.000529
3652.000000	0.000507
3651.000000	0.000488
3650.000000	0.000487
3649.000000	0.000519
3648.000000	0.000567
3647.000000	0.000601
3646.000000	0.000611
3645.000000	0.000607
3644.000000	0.000604
3643.000000	0.000613
3642.000000	0.000636
3641.000000	0.000665
3640.000000	0.000692
3639.000000	0.000713
3638.000000	0.000724
3637.000000	0.000723
3636.000000	0.000709
3635.000000	0.000684
3634.000000	0.000653
3633.000000	0.000621
3632.000000	0.000595
3631.000000	0.000584
3630.000000	0.000607
3629.000000	0.000673
3628.000000	0.000751
3627.000000	0.000809
3626.000000	0.000845
3625.000000	0.000863
3624.000000	0.000861
3623.000000	0.000845
3622.000000	0.000833
3621.000000	0.000835
3620.000000	0.000848
3619.000000	0.000857
3618.000000	0.000855
3617.000000	0.000851
3616.000000	0.000856
3615.000000	0.000869
3614.000000	0.000884
3613.000000	0.000894
3612.000000	0.000900
3611.000000	0.000909
3610.000000	0.000932
3609.000000	0.000973
3608.000000	0.001022
3607.000000	0.001057
3606.000000	0.001067
3605.000000	0.001061
3604.000000	0.001058
3603.000000	0.001072
3602.000000	0.001112
3601.000000	0.001173
3600.000000	0.001237
3599.000000	0.001283
3598.000000	0.001296
3597.000000	0.001282
3596.000000	0.001258
3595.000000	0.001246
3594.000000	0.001255
3593.000000	0.001277
3592.000000	0.001296
3591.000000	0.001299
3590.000000	0.001289
3589.000000	0.001280
3588.000000	0.001289
3587.000000	0.001307
3586.000000	0.001309
3585.000000	0.001292
3584.000000	0.001271
3583.000000	0.001268
3582.000000	0.001289
3581.000000	0.001329
3580.000000	0.001372
3579.000000	0.001399
3578.000000	0.001406
3577.000000	0.001407
3576.000000	0.001424
3575.000000	0.001470
3574.000000	0.001536
3573.000000	0.001597
3572.000000	0.001632
3571.000000	0.001642
3570.000000	0.001636
3569.000000	0.001626
3568.000000	0.001624
3567.000000	0.001639
3566.000000	0.001671
3565.000000	0.001713
3564.000000	0.001757
3563.000000	0.001789
3562.000000	0.001805
3561.000000	0.001810
3560.000000	0.001817
3559.000000	0.001833
3558.000000	0.001854
3557.000000	0.001872
3556.000000	0.001880
3555.000000	0.001876
3554.000000	0.001870
3553.000000	0.001876
3552.000000	0.001901
3551.000000	0.001943
3550.000000	0.001988
3549.000000	0.002025
3548.000000	0.002054
3547.000000	0.002081
3546.000000	0.002112
3545.000000	0.002142
3544.000000	0.002166
3543.000000	0.002188
3542.000000	0.002210
3541.000000	0.002234
3540.000000	0.002250
3539.000000	0.002254
3538.000000	0.002248
3537.000000	0.002243
3536.000000	0.002248
3535.000000	0.002265
3534.000000	0.002286
3533.000000	0.002304
3532.000000	0.002316
3531.000000	0.002331
3530.000000	0.002356
3529.000000	0.002390
3528.000000	0.002423
3527.000000	0.002445
3526.000000	0.002461
3525.000000	0.002481
3524.000000	0.002506
3523.000000	0.002524
3522.000000	0.002522
3521.000000	0.002501
3520.000000	0.002476
3519.000000	0.002462
3518.000000	0.002464
3517.000000	0.002478
3516.000000	0.002495
3515.000000	0.002510
3514.000000	0.002523
3513.000000	0.002537
3512.000000	0.002555
3511.000000	0.002573
3510.000000	0.002584
3509.000000	0.002585
3508.000000	0.002576
3507.000000	0.002562
3506.000000	0.002551
3505.000000	0.002546
3504.000000	0.002547
3503.000000	0.002551
3502.000000	0.002556
3501.000000	0.002563
3500.000000	0.002575
3499.000000	0.002595
3498.000000	0.002624
3497.000000	0.002659
3496.000000	0.002690
3495.000000	0.002708
3494.000000	0.002710
3493.000000	0.002699
3492.000000	0.002685
3491.000000	0.002674
3490.000000	0.002667
3489.000000	0.002664
3488.000000	0.002672
3487.000000	0.002695
3486.000000	0.002731
3485.000000	0.002767
3484.000000	0.002793
3483.000000	0.002802
3482.000000	0.002800
3481.000000	0.002794
3480.000000	0.002791
3479.000000	0.002794
3478.000000	0.002805
3477.000000	0.002820
3476.000000	0.002833
3475.000000	0.002838
3474.000000	0.002836
3473.000000	0.002830
3472.000000	0.002827
3471.000000	0.002829
3470.000000	0.002833
3469.000000	0.002830
3468.000000	0.002812
3467.000000	0.002783
3466.000000	0.002757
3465.000000	0.002748
3464.000000	0.002757
3463.000000	0.002778
3462.000000	0.002811
3461.000000	0.002857
3460.000000	0.002915
3459.000000	0.002969
3458.000000	0.003007
3457.000000	0.003027
3456.000000	0.003037
3455.000000	0.003044
3454.000000	0.003045
3453.000000	0.003036
3452.000000	0.003015
3451.000000	0.002990
3450.000000	0.002973
3449.000000	0.002981
3448.000000	0.003013
3447.000000	0.003054
3446.000000	0.003086
3445.000000	0.003101
3444.000000	0.003108
3443.000000	0.003117
3442.000000	0.003129
3441.000000	0.003142
3440.000000	0.003149
3439.000000	0.003152
3438.000000	0.003158
3437.000000	0.003178
3436.000000	0.003210
3435.000000	0.003242
3434.000000	0.003260
3433.000000	0.003261
3432.000000	0.003254
3431.000000	0.003253
3430.000000	0.003260
3429.000000	0.003272
3428.000000	0.003286
3427.000000	0.003304
3426.000000	0.003329
3425.000000	0.003359
3424.000000	0.003388
3423.000000	0.003410
3422.000000	0.003421
3421.000000	0.003427
3420.000000	0.003436
3419.000000	0.003453
3418.000000	0.003470
3417.000000	0.003475
3416.000000	0.003466
3415.000000	0.003457
3414.000000	0.003466
3413.000000	0.003498
3412.000000	0.003544
3411.000000	0.003590
3410.000000	0.003628
3409.000000	0.003653
3408.000000	0.003669
3407.000000	0.003681
3406.000000	0.003691
3405.000000	0.003703
3404.000000	0.003716
3403.000000	0.003731
3402.000000	0.003747
3401.000000	0.003759
3400.000000	0.003764
3399.000000	0.003766
3398.000000	0.003773
3397.000000	0.003788
3396.000000	0.003807
3395.000000	0.003825
3394.000000	0.003843
3393.000000	0.003859
3392.000000	0.003867
3391.000000	0.003858
3390.000000	0.003839
3389.000000	0.003822
3388.000000	0.003815
3387.000000	0.003814
3386.000000	0.003810
3385.000000	0.003800
3384.000000	0.003794
3383.000000	0.003803
3382.000000	0.003826
3381.000000	0.003848
3380.000000	0.003850
3379.000000	0.003828
3378.000000	0.003792
3377.000000	0.003762
3376.000000	0.003751
3375.000000	0.003763
3374.000000	0.003794
3373.000000	0.003831
3372.000000	0.003862
3371.000000	0.003882
3370.000000	0.003896
3369.000000	0.003910
3368.000000	0.003925
3367.000000	0.003932
3366.000000	0.003926
3365.000000	0.003907
3364.000000	0.003882
3363.000000	0.003858
3362.000000	0.003839
3361.000000	0.003827
3360.000000	0.003823
3359.000000	0.003825
3358.000000	0.003830
3357.000000	0.003836
3356.000000	0.003841
3355.000000	0.003848
3354.000000	0.003858
3353.000000	0.003871
3352.000000	0.003888
3351.000000	0.003908
3350.000000	0.003936
3349.000000	0.003972
3348.000000	0.004007
3347.000000	0.004026
3346.000000	0.004020
3345.000000	0.003992
3344.000000	0.003955
3343.000000	0.003922
3342.000000	0.003900
3341.000000	0.003893
3340.000000	0.003896
3339.000000	0.003907
3338.000000	0.003922
3337.000000	0.003942
3336.000000	0.003966
3335.000000	0.003990
3334.000000	0.004010
3333.000000	0.004021
3332.000000	0.004021
3331.000000	0.004008
3330.000000	0.003986
3329.000000	0.003968
3328.000000	0.003972
3327.000000	0.004005
3326.000000	0.004061
3325.000000	0.004125
3324.000000	0.004178
3323.000000	0.004210
3322.000000	0.004215
3321.000000	0.004191
3320.000000	0.004146
3319.000000	0.004095
3318.000000	0.004059
3317.000000	0.004053
3316.000000	0.004081
3315.000000	0.004129
3314.000000	0.004175
3313.000000	0.004197
3312.000000	0.004188
3311.000000	0.004156
3310.000000	0.004124
3309.000000	0.004107
3308.000000	0.004108
3307.000000	0.004116
3306.000000	0.004122
3305.000000	0.004121
3304.000000	0.004116
3303.000000	0.004114
3302.000000	0.004121
3301.000000	0.004137
3300.000000	0.004153
3299.000000	0.004161
3298.000000	0.004162
3297.000000	0.004164
3296.000000	0.004173
3295.000000	0.004186
3294.000000	0.004198
3293.000000	0.004207
3292.000000	0.004210
3291.000000	0.004208
3290.000000	0.004201
3289.000000	0.004190
3288.000000	0.004179
3287.000000	0.004171
3286.000000	0.004170
3285.000000	0.004175
3284.000000	0.004181
3283.000000	0.004174
3282.000000	0.004152
3281.000000	0.004127
3280.000000	0.004118
3279.000000	0.004131
3278.000000	0.004155
3277.000000	0.004173
3276.000000	0.004178
3275.000000	0.004172
3274.000000	0.004165
3273.000000	0.004166
3272.000000	0.004168
3271.000000	0.004158
3270.000000	0.004126
3269.000000	0.004085
3268.000000	0.004055
3267.000000	0.004051
3266.000000	0.004067
3265.000000	0.004088
3264.000000	0.004104
3263.000000	0.004111
3262.000000	0.004111
3261.000000	0.004105
3260.000000	0.004096
3259.000000	0.004086
3258.000000	0.004076
3257.000000	0.004066
3256.000000	0.004059
3255.000000	0.004056
3254.000000	0.004057
3253.000000	0.004053
3252.000000	0.004040
3251.000000	0.004021
3250.000000	0.004004
3249.000000	0.003999
3248.000000	0.004004
3247.000000	0.004014
3246.000000	0.004019
3245.000000	0.004017
3244.000000	0.004011
3243.000000	0.004010
3242.000000	0.004019
3241.000000	0.004033
3240.000000	0.004042
3239.000000	0.004034
3238.000000	0.004007
3237.000000	0.003969
3236.000000	0.003940
3235.000000	0.003937
3234.000000	0.003966
3233.000000	0.004014
3232.000000	0.004053
3231.000000	0.004060
3230.000000	0.004033
3229.000000	0.003993
3228.000000	0.003964
3227.000000	0.003949
3226.000000	0.003937
3225.000000	0.003917
3224.000000	0.003899
3223.000000	0.003898
3222.000000	0.003916
3221.000000	0.003946
3220.000000	0.003970
3219.000000	0.003976
3218.000000	0.003958
3217.000000	0.003920
3216.000000	0.003878
3215.000000	0.003849
3214.000000	0.003841
3213.000000	0.003849
3212.000000	0.003862
3211.000000	0.003868
3210.000000	0.003862
3209.000000	0.003844
3208.000000	0.003829
3207.000000	0.003830
3206.000000	0.003846
3205.000000	0.003863
3204.000000	0.003865
3203.000000	0.003846
3202.000000	0.003817
3201.000000	0.003789
3200.000000	0.003771
3199.000000	0.003765
3198.000000	0.003768
3197.000000	0.003769
3196.000000	0.003762
3195.000000	0.003744
3194.000000	0.003723
3193.000000	0.003704
3192.000000	0.003688
3191.000000	0.003678
3190.000000	0.003677
3189.000000	0.003684
3188.000000	0.003694
3187.000000	0.003704
3186.000000	0.003710
3185.000000	0.003711
3184.000000	0.003705
3183.000000	0.003694
3182.000000	0.003682
3181.000000	0.003673
3180.000000	0.003668
3179.000000	0.003665
3178.000000	0.003661
3177.000000	0.003652
3176.000000	0.003641
3175.000000	0.003629
3174.000000	0.003615
3173.000000	0.003599
3172.000000	0.003582
3171.000000	0.003571
3170.000000	0.003565
3169.000000	0.003554
3168.000000	0.003531
3167.000000	0.003505
3166.000000	0.003491
3165.000000	0.003494
3164.000000	0.003498
3163.000000	0.003492
3162.000000	0.003475
3161.000000	0.003453
3160.000000	0.003427
3159.000000	0.003396
3158.000000	0.003364
3157.000000	0.003338
3156.000000	0.003325
3155.000000	0.003321
3154.000000	0.003326
3153.000000	0.003337
3152.000000	0.003352
3151.000000	0.003365
3150.000000	0.003374
3149.000000	0.003380
3148.000000	0.003381
3147.000000	0.003371
3146.000000	0.003348
3145.000000	0.003321
3144.000000	0.003301
3143.000000	0.003289
3142.000000	0.003277
3141.000000	0.003259
3140.000000	0.003236
3139.000000	0.003220
3138.000000	0.003215
3137.000000	0.003217
3136.000000	0.003218
3135.000000	0.003212
3134.000000	0.003204
3133.000000	0.003196
3132.000000	0.003188
3131.000000	0.003176
3130.000000	0.003161
3129.000000	0.003150
3128.000000	0.003144
3127.000000	0.003139
3126.000000	0.003132
3125.000000	0.003121
3124.000000	0.003107
3123.000000	0.003094
3122.000000	0.003086
3121.000000	0.003085
3120.000000	0.003087
3119.000000	0.003084
3118.000000	0.003070
3117.000000	0.003053
3116.000000	0.003049
3115.000000	0.003065
3114.000000	0.003096
3113.000000	0.003128
3112.000000	0.003145
3111.000000	0.003140
3110.000000	0.003119
3109.000000	0.003093
3108.000000	0.003076
3107.000000	0.003073
3106.000000	0.003080
3105.000000	0.003088
3104.000000	0.003086
3103.000000	0.003072
3102.000000	0.003049
3101.000000	0.003029
3100.000000	0.003021
3099.000000	0.003027
3098.000000	0.003039
3097.000000	0.003048
3096.000000	0.003045
3095.000000	0.003033
3094.000000	0.003019
3093.000000	0.003014
3092.000000	0.003020
3091.000000	0.003033
3090.000000	0.003049
3089.000000	0.003065
3088.000000	0.003082
3087.000000	0.003097
3086.000000	0.003106
3085.000000	0.003102
3084.000000	0.003088
3083.000000	0.003069
3082.000000	0.003055
3081.000000	0.003051
3080.000000	0.003053
3079.000000	0.003051
3078.000000	0.003039
3077.000000	0.003019
3076.000000	0.002997
3075.000000	0.002978
3074.000000	0.002968
3073.000000	0.002972
3072.000000	0.002986
3071.000000	0.002998
3070.000000	0.003001
3069.000000	0.002994
3068.000000	0.002986
3067.000000	0.002976
3066.000000	0.002962
3065.000000	0.002949
3064.000000	0.002951
3063.000000	0.002973
3062.000000	0.003006
3061.000000	0.003025
3060.000000	0.003017
3059.000000	0.002984
3058.000000	0.002943
3057.000000	0.002911
3056.000000	0.002896
3055.000000	0.002896
3054.000000	0.002898
3053.000000	0.002892
3052.000000	0.002879
3051.000000	0.002866
3050.000000	0.002858
3049.000000	0.002847
3048.000000	0.002829
3047.000000	0.002807
3046.000000	0.002789
3045.000000	0.002782
3044.000000	0.002780
3043.000000	0.002778
3042.000000	0.002775
3041.000000	0.002772
3040.000000	0.002764
3039.000000	0.002748
3038.000000	0.002734
3037.000000	0.002734
3036.000000	0.002754
3035.000000	0.002783
3034.000000	0.002805
3033.000000	0.002812
3032.000000	0.002808
3031.000000	0.002798
3030.000000	0.002783
3029.000000	0.002767
3028.000000	0.002754
3027.000000	0.002741
3026.000000	0.002722
3025.000000	0.002692
3024.000000	0.002660
3023.000000	0.002643
3022.000000	0.002650
3021.000000	0.002674
3020.000000	0.002699
3019.000000	0.002707
3018.000000	0.002692
3017.000000	0.002660
3016.000000	0.002622
3015.000000	0.002590
3014.000000	0.002569
3013.000000	0.002556
3012.000000	0.002555
3011.000000	0.002572
3010.000000	0.002611
3009.000000	0.002663
3008.000000	0.002711
3007.000000	0.002738
3006.000000	0.002741
3005.000000	0.002727
3004.000000	0.002707
3003.000000	0.002692
3002.000000	0.002689
3001.000000	0.002694
3000.000000	0.002694
2999.000000	0.002677
2998.000000	0.002654
2997.000000	0.002647
2996.000000	0.002665
2995.000000	0.002693
2994.000000	0.002712
2993.000000	0.002717
2992.000000	0.002719
2991.000000	0.002727
2990.000000	0.002733
2989.000000	0.002728
2988.000000	0.002718
2987.000000	0.002717
2986.000000	0.002732
2985.000000	0.002757
2984.000000	0.002784
2983.000000	0.002809
2982.000000	0.002834
2981.000000	0.002857
2980.000000	0.002875
2979.000000	0.002885
2978.000000	0.002892
2977.000000	0.002901
2976.000000	0.002912
2975.000000	0.002920
2974.000000	0.002927
2973.000000	0.002941
2972.000000	0.002973
2971.000000	0.003028
2970.000000	0.003093
2969.000000	0.003156
2968.000000	0.003208
2967.000000	0.003246
2966.000000	0.003270
2965.000000	0.003286
2964.000000	0.003305
2963.000000	0.003330
2962.000000	0.003359
2961.000000	0.003386
2960.000000	0.003409
2959.000000	0.003433
2958.000000	0.003457
2957.000000	0.003476
2956.000000	0.003489
2955.000000	0.003498
2954.000000	0.003508
2953.000000	0.003516
2952.000000	0.003513
2951.000000	0.003496
2950.000000	0.003474
2949.000000	0.003459
2948.000000	0.003461
2947.000000	0.003480
2946.000000	0.003506
2945.000000	0.003527
2944.000000	0.003534
2943.000000	0.003531
2942.000000	0.003529
2941.000000	0.003542
2940.000000	0.003573
2939.000000	0.003613
2938.000000	0.003654
2937.000000	0.003692
2936.000000	0.003728
2935.000000	0.003764
2934.000000	0.003799
2933.000000	0.003836
2932.000000	0.003879
2931.000000	0.003925
2930.000000	0.003962
2929.000000	0.003984
2928.000000	0.003991
2927.000000	0.003990
2926.000000	0.003990
2925.000000	0.003997
2924.000000	0.004015
2923.000000	0.004040
2922.000000	0.004062
2921.000000	0.004072
2920.000000	0.004067
2919.000000	0.004054
2918.000000	0.004034
2917.000000	0.004006
2916.000000	0.003966
2915.000000	0.003913
2914.000000	0.003850
2913.000000	0.003779
2912.000000	0.003701
2911.000000	0.003627
2910.000000	0.003575
2909.000000	0.003556
2908.000000	0.003562
2907.000000	0.003571
2906.000000	0.003559
2905.000000	0.003520
2904.000000	0.003463
2903.000000	0.003411
2902.000000	0.003381
2901.000000	0.003372
2900.000000	0.003365
2899.000000	0.003345
2898.000000	0.003313
2897.000000	0.003279
2896.000000	0.003254
2895.000000	0.003238
2894.000000	0.003226
2893.000000	0.003215
2892.000000	0.003199
2891.000000	0.003177
2890.000000	0.003153
2889.000000	0.003135
2888.000000	0.003128
2887.000000	0.003124
2886.000000	0.003115
2885.000000	0.003101
2884.000000	0.003083
2883.000000	0.003067
2882.000000	0.003054
2881.000000	0.003056
2880.000000	0.003079
2879.000000	0.003117
2878.000000	0.003149
2877.000000	0.003159
2876.000000	0.003148
2875.000000	0.003137
2874.000000	0.003142
2873.000000	0.003165
2872.000000	0.003190
2871.000000	0.003203
2870.000000	0.003199
2869.000000	0.003180
2868.000000	0.003154
2867.000000	0.003130
2866.000000	0.003113
2865.000000	0.003107
2864.000000	0.003110
2863.000000	0.003120
2862.000000	0.003138
2861.000000	0.003164
2860.000000	0.003195
2859.000000	0.003223
2858.000000	0.003243
2857.000000	0.003254
2856.000000	0.003257
2855.000000	0.003257
2854.000000	0.003260
2853.000000	0.003270
2852.000000	0.003280
2851.000000	0.003274
2850.000000	0.003235
2849.000000	0.003168
2848.000000	0.003097
2847.000000	0.003037
2846.000000	0.002984
2845.000000	0.002929
2844.000000	0.002875
2843.000000	0.002833
2842.000000	0.002805
2841.000000	0.002781
2840.000000	0.002751
2839.000000	0.002717
2838.000000	0.002696
2837.000000	0.002699
2836.000000	0.002715
2835.000000	0.002722
2834.000000	0.002703
2833.000000	0.002663
2832.000000	0.002627
2831.000000	0.002616
2830.000000	0.002630
2829.000000	0.002655
2828.000000	0.002675
2827.000000	0.002683
2826.000000	0.002676
2825.000000	0.002654
2824.000000	0.002625
2823.000000	0.002602
2822.000000	0.002588
2821.000000	0.002577
2820.000000	0.002557
2819.000000	0.002529
2818.000000	0.002506
2817.000000	0.002495
2816.000000	0.002495
2815.000000	0.002499
2814.000000	0.002503
2813.000000	0.002506
2812.000000	0.002499
2811.000000	0.002475
2810.000000	0.002438
2809.000000	0.002403
2808.000000	0.002388
2807.000000	0.002401
2806.000000	0.002434
2805.000000	0.002472
2804.000000	0.002497
2803.000000	0.002502
2802.000000	0.002490
2801.000000	0.002475
2800.000000	0.002467
2799.000000	0.002469
2798.000000	0.002474
2797.000000	0.002474
2796.000000	0.002467
2795.000000	0.002453
2794.000000	0.002440
2793.000000	0.002432
2792.000000	0.002429
2791.000000	0.002424
2790.000000	0.002407
2789.000000	0.002383
2788.000000	0.002366
2787.000000	0.002368
2786.000000	0.002388
2785.000000	0.002412
2784.000000	0.002426
2783.000000	0.002420
2782.000000	0.002397
2781.000000	0.002370
2780.000000	0.002352
2779.000000	0.002347
2778.000000	0.002348
2777.000000	0.002347
2776.000000	0.002340
2775.000000	0.002332
2774.000000	0.002326
2773.000000	0.002323
2772.000000	0.002324
2771.000000	0.002326
2770.000000	0.002327
2769.000000	0.002327
2768.000000	0.002330
2767.000000	0.002336
2766.000000	0.002342
2765.000000	0.002341
2764.000000	0.002331
2763.000000	0.002318
2762.000000	0.002312
2761.000000	0.002321
2760.000000	0.002346
2759.000000	0.002372
2758.000000	0.002382
2757.000000	0.002375
2756.000000	0.002363
2755.000000	0.002361
2754.000000	0.002368
2753.000000	0.002375
2752.000000	0.002379
2751.000000	0.002384
2750.000000	0.002397
2749.000000	0.002411
2748.000000	0.002417
2747.000000	0.002412
2746.000000	0.002406
2745.000000	0.002408
2744.000000	0.002416
2743.000000	0.002423
2742.000000	0.002420
2741.000000	0.002403
2740.000000	0.002372
2739.000000	0.002334
2738.000000	0.002295
2737.000000	0.002263
2736.000000	0.002246
2735.000000	0.002249
2734.000000	0.002269
2733.000000	0.002291
2732.000000	0.002297
2731.000000	0.002283
2730.000000	0.002261
2729.000000	0.002247
2728.000000	0.002249
2727.000000	0.002266
2726.000000	0.002289
2725.000000	0.002311
2724.000000	0.002326
2723.000000	0.002330
2722.000000	0.002327
2721.000000	0.002321
2720.000000	0.002313
2719.000000	0.002295
2718.000000	0.002267
2717.000000	0.002238
2716.000000	0.002218
2715.000000	0.002213
2714.000000	0.002220
2713.000000	0.002231
2712.000000	0.002245
2711.000000	0.002253
2710.000000	0.002253
2709.000000	0.002245
2708.000000	0.002240
2707.000000	0.002247
2706.000000	0.002265
2705.000000	0.002284
2704.000000	0.002292
2703.000000	0.002287
2702.000000	0.002275
2701.000000	0.002265
2700.000000	0.002258
2699.000000	0.002249
2698.000000	0.002235
2697.000000	0.002227
2696.000000	0.002234
2695.000000	0.002251
2694.000000	0.002261
2693.000000	0.002251
2692.000000	0.002229
2691.000000	0.002215
2690.000000	0.002215
2689.000000	0.002212
2688.000000	0.002197
2687.000000	0.002177
2686.000000	0.002171
2685.000000	0.002183
2684.000000	0.002203
2683.000000	0.002214
2682.000000	0.002211
2681.000000	0.002205
2680.000000	0.002205
2679.000000	0.002212
2678.000000	0.002219
2677.000000	0.002218
2676.000000	0.002207
2675.000000	0.002190
2674.000000	0.002174
2673.000000	0.002169
2672.000000	0.002178
2671.000000	0.002198
2670.000000	0.002222
2669.000000	0.002242
2668.000000	0.002255
2667.000000	0.002255
2666.000000	0.002238
2665.000000	0.002212
2664.000000	0.002195
2663.000000	0.002204
2662.000000	0.002238
2661.000000	0.002281
2660.000000	0.002316
2659.000000	0.002338
2658.000000	0.002345
2657.000000	0.002337
2656.000000	0.002318
2655.000000	0.002301
2654.000000	0.002296
2653.000000	0.002299
2652.000000	0.002296
2651.000000	0.002280
2650.000000	0.002260
2649.000000	0.002249
2648.000000	0.002250
2647.000000	0.002259
2646.000000	0.002270
2645.000000	0.002279
2644.000000	0.002281
2643.000000	0.002268
2642.000000	0.002242
2641.000000	0.002214
2640.000000	0.002200
2639.000000	0.002205
2638.000000	0.002220
2637.000000	0.002230
2636.000000	0.002227
2635.000000	0.002217
2634.000000	0.002211
2633.000000	0.002211
2632.000000	0.002206
2631.000000	0.002187
2630.000000	0.002154
2629.000000	0.002121
2628.000000	0.002105
2627.000000	0.002104
2626.000000	0.002103
2625.000000	0.002083
2624.000000	0.002045
2623.000000	0.002009
2622.000000	0.001993
2621.000000	0.001996
2620.000000	0.002004
2619.000000	0.002000
2618.000000	0.001984
2617.000000	0.001966
2616.000000	0.001952
2615.000000	0.001945
2614.000000	0.001944
2613.000000	0.001954
2612.000000	0.001981
2611.000000	0.002023
2610.000000	0.002065
2609.000000	0.002089
2608.000000	0.002082
2607.000000	0.002053
2606.000000	0.002021
2605.000000	0.001997
2604.000000	0.001981
2603.000000	0.001962
2602.000000	0.001942
2601.000000	0.001928
2600.000000	0.001927
2599.000000	0.001933
2598.000000	0.001934
2597.000000	0.001922
2596.000000	0.001905
2595.000000	0.001891
2594.000000	0.001880
2593.000000	0.001870
2592.000000	0.001868
2591.000000	0.001889
2590.000000	0.001930
2589.000000	0.001967
2588.000000	0.001970
2587.000000	0.001936
2586.000000	0.001892
2585.000000	0.001861
2584.000000	0.001843
2583.000000	0.001828
2582.000000	0.001819
2581.000000	0.001833
2580.000000	0.001872
2579.000000	0.001912
2578.000000	0.001930
2577.000000	0.001924
2576.000000	0.001910
2575.000000	0.001900
2574.000000	0.001889
2573.000000	0.001864
2572.000000	0.001825
2571.000000	0.001783
2570.000000	0.001751
2569.000000	0.001738
2568.000000	0.001746
2567.000000	0.001770
2566.000000	0.001796
2565.000000	0.001815
2564.000000	0.001826
2563.000000	0.001834
2562.000000	0.001844
2561.000000	0.001847
2560.000000	0.001832
2559.000000	0.001793
2558.000000	0.001736
2557.000000	0.001673
2556.000000	0.001617
2555.000000	0.001579
2554.000000	0.001566
2553.000000	0.001579
2552.000000	0.001607
2551.000000	0.001637
2550.000000	0.001652
2549.000000	0.001642
2548.000000	0.001610
2547.000000	0.001576
2546.000000	0.001569
2545.000000	0.001598
2544.000000	0.001646
2543.000000	0.001677
2542.000000	0.001680
2541.000000	0.001670
2540.000000	0.001669
2539.000000	0.001681
2538.000000	0.001696
2537.000000	0.001704
2536.000000	0.001709
2535.000000	0.001718
2534.000000	0.001725
2533.000000	0.001721
2532.000000	0.001699
2531.000000	0.001666
2530.000000	0.001636
2529.000000	0.001626
2528.000000	0.001635
2527.000000	0.001653
2526.000000	0.001670
2525.000000	0.001685
2524.000000	0.001700
2523.000000	0.001708
2522.000000	0.001697
2521.000000	0.001668
2520.000000	0.001634
2519.000000	0.001613
2518.000000	0.001615
2517.000000	0.001636
2516.000000	0.001663
2515.000000	0.001678
2514.000000	0.001664
2513.000000	0.001632
2512.000000	0.001612
2511.000000	0.001630
2510.000000	0.001684
2509.000000	0.001744
2508.000000	0.001784
2507.000000	0.001793
2506.000000	0.001771
2505.000000	0.001733
2504.000000	0.001709
2503.000000	0.001727
2502.000000	0.001781
2501.000000	0.001828
2500.000000	0.001829
2499.000000	0.001787
2498.000000	0.001736
2497.000000	0.001703
2496.000000	0.001690
2495.000000	0.001684
2494.000000	0.001683
2493.000000	0.001687
2492.000000	0.001686
2491.000000	0.001670
2490.000000	0.001641
2489.000000	0.001619
2488.000000	0.001621
2487.000000	0.001650
2486.000000	0.001690
2485.000000	0.001719
2484.000000	0.001718
2483.000000	0.001688
2482.000000	0.001650
2481.000000	0.001627
2480.000000	0.001625
2479.000000	0.001630
2478.000000	0.001634
2477.000000	0.001646
2476.000000	0.001677
2475.000000	0.001723
2474.000000	0.001758
2473.000000	0.001768
2472.000000	0.001755
2471.000000	0.001737
2470.000000	0.001725
2469.000000	0.001718
2468.000000	0.001720
2467.000000	0.001737
2466.000000	0.001774
2465.000000	0.001820
2464.000000	0.001855
2463.000000	0.001862
2462.000000	0.001836
2461.000000	0.001781
2460.000000	0.001711
2459.000000	0.001638
2458.000000	0.001579
2457.000000	0.001545
2456.000000	0.001535
2455.000000	0.001544
2454.000000	0.001560
2453.000000	0.001573
2452.000000	0.001579
2451.000000	0.001578
2450.000000	0.001579
2449.000000	0.001598
2448.000000	0.001641
2447.000000	0.001696
2446.000000	0.001741
2445.000000	0.001758
2444.000000	0.001752
2443.000000	0.001741
2442.000000	0.001743
2441.000000	0.001761
2440.000000	0.001785
2439.000000	0.001797
2438.000000	0.001782
2437.000000	0.001735
2436.000000	0.001667
2435.000000	0.001602
2434.000000	0.001561
2433.000000	0.001553
2432.000000	0.001566
2431.000000	0.001578
2430.000000	0.001577
2429.000000	0.001565
2428.000000	0.001558
2427.000000	0.001568
2426.000000	0.001594
2425.000000	0.001621
2424.000000	0.001625
2423.000000	0.001600
2422.000000	0.001568
2421.000000	0.001564
2420.000000	0.001594
2419.000000	0.001628
2418.000000	0.001630
2417.000000	0.001601
2416.000000	0.001569
2415.000000	0.001553
2414.000000	0.001549
2413.000000	0.001543
2412.000000	0.001532
2411.000000	0.001526
2410.000000	0.001532
2409.000000	0.001552
2408.000000	0.001584
2407.000000	0.001619
2406.000000	0.001648
2405.000000	0.001668
2404.000000	0.001676
2403.000000	0.001666
2402.000000	0.001632
2401.000000	0.001584
2400.000000	0.001548
2399.000000	0.001543
2398.000000	0.001554
2397.000000	0.001553
2396.000000	0.001531
2395.000000	0.001507
2394.000000	0.001504
2393.000000	0.001521
2392.000000	0.001540
2391.000000	0.001540
2390.000000	0.001525
2389.000000	0.001512
2388.000000	0.001521
2387.000000	0.001550
2386.000000	0.001571
2385.000000	0.001560
2384.000000	0.001520
2383.000000	0.001480
2382.000000	0.001461
2381.000000	0.001465
2380.000000	0.001478
2379.000000	0.001486
2378.000000	0.001489
2377.000000	0.001486
2376.000000	0.001472
2375.000000	0.001448
2374.000000	0.001415
2373.000000	0.001375
2372.000000	0.001334
2371.000000	0.001311
2370.000000	0.001328
2369.000000	0.001394
2368.000000	0.001480
2367.000000	0.001537
2366.000000	0.001539
2365.000000	0.001496
2364.000000	0.001445
2363.000000	0.001412
2362.000000	0.001404
2361.000000	0.001414
2360.000000	0.001433
2359.000000	0.001444
2358.000000	0.001442
2357.000000	0.001438
2356.000000	0.001446
2355.000000	0.001457
2354.000000	0.001448
2353.000000	0.001413
2352.000000	0.001381
2351.000000	0.001386
2350.000000	0.001431
2349.000000	0.001485
2348.000000	0.001515
2347.000000	0.001499
2346.000000	0.001447
2345.000000	0.001395
2344.000000	0.001388
2343.000000	0.001438
2342.000000	0.001512
2341.000000	0.001563
2340.000000	0.001555
2339.000000	0.001494
2338.000000	0.001425
2337.000000	0.001401
2336.000000	0.001440
2335.000000	0.001511
2334.000000	0.001563
2333.000000	0.001570
2332.000000	0.001539
2331.000000	0.001503
2330.000000	0.001485
2329.000000	0.001497
2328.000000	0.001549
2327.000000	0.001650
2326.000000	0.001785
2325.000000	0.001905
2324.000000	0.001955
2323.000000	0.001923
2322.000000	0.001847
2321.000000	0.001782
2320.000000	0.001760
2319.000000	0.001767
2318.000000	0.001768
2317.000000	0.001730
2316.000000	0.001647
2315.000000	0.001547
2314.000000	0.001469
2313.000000	0.001436
2312.000000	0.001442
2311.000000	0.001467
2310.000000	0.001493
2309.000000	0.001515
2308.000000	0.001532
2307.000000	0.001551
2306.000000	0.001578
2305.000000	0.001617
2304.000000	0.001660
2303.000000	0.001697
2302.000000	0.001717
2301.000000	0.001718
2300.000000	0.001711
2299.000000	0.001721
2298.000000	0.001765
2297.000000	0.001827
2296.000000	0.001861
2295.000000	0.001838
2294.000000	0.001782
2293.000000	0.001742
2292.000000	0.001746
2291.000000	0.001780
2290.000000	0.001815
2289.000000	0.001846
2288.000000	0.001883
2287.000000	0.001925
2286.000000	0.001956
2285.000000	0.001962
2284.000000	0.001937
2283.000000	0.001884
2282.000000	0.001815
2281.000000	0.001758
2280.000000	0.001740
2279.000000	0.001757
2278.000000	0.001767
2277.000000	0.001727
2276.000000	0.001645
2275.000000	0.001581
2274.000000	0.001583
2273.000000	0.001646
2272.000000	0.001719
2271.000000	0.001760
2270.000000	0.001768
2269.000000	0.001765
2268.000000	0.001769
2267.000000	0.001784
2266.000000	0.001811
2265.000000	0.001847
2264.000000	0.001865
2263.000000	0.001832
2262.000000	0.001746
2261.000000	0.001658
2260.000000	0.001631
2259.000000	0.001670
2258.000000	0.001721
2257.000000	0.001736
2256.000000	0.001715
2255.000000	0.001691
2254.000000	0.001671
2253.000000	0.001634
2252.000000	0.001573
2251.000000	0.001513
2250.000000	0.001489
2249.000000	0.001509
2248.000000	0.001549
2247.000000	0.001574
2246.000000	0.001567
2245.000000	0.001550
2244.000000	0.001559
2243.000000	0.001602
2242.000000	0.001635
2241.000000	0.001612
2240.000000	0.001535
2239.000000	0.001453
2238.000000	0.001400
2237.000000	0.001385
2236.000000	0.001421
2235.000000	0.001540
2234.000000	0.001742
2233.000000	0.001945
2232.000000	0.002030
2231.000000	0.001941
2230.000000	0.001729
2229.000000	0.001502
2228.000000	0.001348
2227.000000	0.001293
2226.000000	0.001320
2225.000000	0.001389
2224.000000	0.001469
2223.000000	0.001553
2222.000000	0.001640
2221.000000	0.001713
2220.000000	0.001731
2219.000000	0.001670
2218.000000	0.001557
2217.000000	0.001457
2216.000000	0.001429
2215.000000	0.001474
2214.000000	0.001546
2213.000000	0.001590
2212.000000	0.001581
2211.000000	0.001524
2210.000000	0.001444
2209.000000	0.001378
2208.000000	0.001364
2207.000000	0.001407
2206.000000	0.001457
2205.000000	0.001447
2204.000000	0.001376
2203.000000	0.001320
2202.000000	0.001350
2201.000000	0.001436
2200.000000	0.001482
2199.000000	0.001439
2198.000000	0.001355
2197.000000	0.001297
2196.000000	0.001266
2195.000000	0.001210
2194.000000	0.001122
2193.000000	0.001062
2192.000000	0.001089
2191.000000	0.001186
2190.000000	0.001299
2189.000000	0.001409
2188.000000	0.001533
2187.000000	0.001668
2186.000000	0.001771
2185.000000	0.001820
2184.000000	0.001849
2183.000000	0.001883
2182.000000	0.001876
2181.000000	0.001775
2180.000000	0.001606
2179.000000	0.001449
2178.000000	0.001337
2177.000000	0.001252
2176.000000	0.001207
2175.000000	0.001261
2174.000000	0.001418
2173.000000	0.001576
2172.000000	0.001631
2171.000000	0.001580
2170.000000	0.001510
2169.000000	0.001511
2168.000000	0.001630
2167.000000	0.001833
2166.000000	0.001988
2165.000000	0.001960
2164.000000	0.001780
2163.000000	0.001653
2162.000000	0.001712
2161.000000	0.001811
2160.000000	0.001648
2159.000000	0.001104
2158.000000	0.000389
2157.000000	-0.000185
2156.000000	-0.000450
2155.000000	-0.000404
2154.000000	-0.000141
2153.000000	0.000183
2152.000000	0.000432
2151.000000	0.000585
2150.000000	0.000683
2149.000000	0.000708
2148.000000	0.000599
2147.000000	0.000398
2146.000000	0.000271
2145.000000	0.000346
2144.000000	0.000570
2143.000000	0.000777
2142.000000	0.000857
2141.000000	0.000817
2140.000000	0.000741
2139.000000	0.000716
2138.000000	0.000778
2137.000000	0.000879
2136.000000	0.000926
2135.000000	0.000871
2134.000000	0.000768
2133.000000	0.000715
2132.000000	0.000758
2131.000000	0.000860
2130.000000	0.000945
2129.000000	0.000970
2128.000000	0.000959
2127.000000	0.000984
2126.000000	0.001094
2125.000000	0.001261
2124.000000	0.001398
2123.000000	0.001441
2122.000000	0.001400
2121.000000	0.001337
2120.000000	0.001314
2119.000000	0.001367
2118.000000	0.001493
2117.000000	0.001630
2116.000000	0.001700
2115.000000	0.001672
2114.000000	0.001596
2113.000000	0.001540
2112.000000	0.001527
2111.000000	0.001535
2110.000000	0.001547
2109.000000	0.001557
2108.000000	0.001549
2107.000000	0.001508
2106.000000	0.001452
2105.000000	0.001424
2104.000000	0.001437
2103.000000	0.001454
2102.000000	0.001435
2101.000000	0.001380
2100.000000	0.001325
2099.000000	0.001292
2098.000000	0.001280
2097.000000	0.001283
2096.000000	0.001309
2095.000000	0.001370
2094.000000	0.001457
2093.000000	0.001530
2092.000000	0.001549
2091.000000	0.001507
2090.000000	0.001434
2089.000000	0.001363
2088.000000	0.001308
2087.000000	0.001262
2086.000000	0.001224
2085.000000	0.001200
2084.000000	0.001199
2083.000000	0.001221
2082.000000	0.001259
2081.000000	0.001299
2080.000000	0.001330
2079.000000	0.001350
2078.000000	0.001361
2077.000000	0.001366
2076.000000	0.001362
2075.000000	0.001344
2074.000000	0.001308
2073.000000	0.001255
2072.000000	0.001206
2071.000000	0.001202
2070.000000	0.001270
2069.000000	0.001374
2068.000000	0.001435
2067.000000	0.001410
2066.000000	0.001332
2065.000000	0.001266
2064.000000	0.001242
2063.000000	0.001248
2062.000000	0.001261
2061.000000	0.001263
2060.000000	0.001238
2059.000000	0.001192
2058.000000	0.001152
2057.000000	0.001137
2056.000000	0.001135
2055.000000	0.001147
2054.000000	0.001225
2053.000000	0.001410
2052.000000	0.001648
2051.000000	0.001804
2050.000000	0.001767
2049.000000	0.001542
2048.000000	0.001227
2047.000000	0.000923
2046.000000	0.000696
2045.000000	0.000602
2044.000000	0.000668
2043.000000	0.000837
2042.000000	0.000986
2041.000000	0.001044
2040.000000	0.001083
2039.000000	0.001220
2038.000000	0.001423
2037.000000	0.001491
2036.000000	0.001273
2035.000000	0.000877
2034.000000	0.000574
2033.000000	0.000518
2032.000000	0.000636
2031.000000	0.000789
2030.000000	0.000913
2029.000000	0.000960
2028.000000	0.000855
2027.000000	0.000607
2026.000000	0.000377
2025.000000	0.000319
2024.000000	0.000399
2023.000000	0.000460
2022.000000	0.000440
2021.000000	0.000428
2020.000000	0.000512
2019.000000	0.000654
2018.000000	0.000737
2017.000000	0.000684
2016.000000	0.000541
2015.000000	0.000450
2014.000000	0.000516
2013.000000	0.000696
2012.000000	0.000833
2011.000000	0.000821
2010.000000	0.000715
2009.000000	0.000629
2008.000000	0.000603
2007.000000	0.000601
2006.000000	0.000589
2005.000000	0.000533
2004.000000	0.000390
2003.000000	0.000181
2002.000000	0.000050
2001.000000	0.000138
2000.000000	0.000413
1999.000000	0.000694
1998.000000	0.000840
1997.000000	0.000842
1996.000000	0.000744
1995.000000	0.000574
1994.000000	0.000377
1993.000000	0.000246
1992.000000	0.000242
1991.000000	0.000340
1990.000000	0.000479
1989.000000	0.000638
1988.000000	0.000806
1987.000000	0.000943
1986.000000	0.001017
1985.000000	0.001054
1984.000000	0.001113
1983.000000	0.001212
1982.000000	0.001295
1981.000000	0.001263
1980.000000	0.001034
1979.000000	0.000632
1978.000000	0.000224
1977.000000	0.000016
1976.000000	0.000061
1975.000000	0.000213
1974.000000	0.000312
1973.000000	0.000340
1972.000000	0.000380
1971.000000	0.000479
1970.000000	0.000591
1969.000000	0.000613
1968.000000	0.000483
1967.000000	0.000247
1966.000000	0.000057
1965.000000	0.000065
1964.000000	0.000290
1963.000000	0.000617
1962.000000	0.000894
1961.000000	0.001025
1960.000000	0.000986
1959.000000	0.000814
1958.000000	0.000584
1957.000000	0.000403
1956.000000	0.000365
1955.000000	0.000495
1954.000000	0.000737
1953.000000	0.000982
1952.000000	0.001130
1951.000000	0.001132
1950.000000	0.001006
1949.000000	0.000813
1948.000000	0.000626
1947.000000	0.000502
1946.000000	0.000471
1945.000000	0.000521
1944.000000	0.000610
1943.000000	0.000697
1942.000000	0.000783
1941.000000	0.000877
1940.000000	0.000947
1939.000000	0.000927
1938.000000	0.000787
1937.000000	0.000593
1936.000000	0.000463
1935.000000	0.000461
1934.000000	0.000548
1933.000000	0.000644
1932.000000	0.000707
1931.000000	0.000755
1930.000000	0.000809
1929.000000	0.000856
1928.000000	0.000870
1927.000000	0.000859
1926.000000	0.000838
1925.000000	0.000806
1924.000000	0.000753
1923.000000	0.000700
1922.000000	0.000685
1921.000000	0.000701
1920.000000	0.000701
1919.000000	0.000655
1918.000000	0.000598
1917.000000	0.000582
1916.000000	0.000614
1915.000000	0.000679
1914.000000	0.000769
1913.000000	0.000871
1912.000000	0.000943
1911.000000	0.000948
1910.000000	0.000907
1909.000000	0.000867
1908.000000	0.000842
1907.000000	0.000802
1906.000000	0.000733
1905.000000	0.000656
1904.000000	0.000596
1903.000000	0.000557
1902.000000	0.000544
1901.000000	0.000556
1900.000000	0.000574
1899.000000	0.000566
1898.000000	0.000530
1897.000000	0.000494
1896.000000	0.000481
1895.000000	0.000488
1894.000000	0.000512
1893.000000	0.000552
1892.000000	0.000606
1891.000000	0.000666
1890.000000	0.000722
1889.000000	0.000767
1888.000000	0.000787
1887.000000	0.000779
1886.000000	0.000756
1885.000000	0.000736
1884.000000	0.000713
1883.000000	0.000673
1882.000000	0.000623
1881.000000	0.000593
1880.000000	0.000592
1879.000000	0.000601
1878.000000	0.000609
1877.000000	0.000622
1876.000000	0.000639
1875.000000	0.000631
1874.000000	0.000578
1873.000000	0.000499
1872.000000	0.000444
1871.000000	0.000453
1870.000000	0.000529
1869.000000	0.000633
1868.000000	0.000684
1867.000000	0.000637
1866.000000	0.000531
1865.000000	0.000441
1864.000000	0.000417
1863.000000	0.000453
1862.000000	0.000514
1861.000000	0.000567
1860.000000	0.000589
1859.000000	0.000575
1858.000000	0.000540
1857.000000	0.000517
1856.000000	0.000526
1855.000000	0.000561
1854.000000	0.000606
1853.000000	0.000643
1852.000000	0.000655
1851.000000	0.000632
1850.000000	0.000581
1849.000000	0.000517
1848.000000	0.000458
1847.000000	0.000413
1846.000000	0.000395
1845.000000	0.000414
1844.000000	0.000454
1843.000000	0.000481
1842.000000	0.000493
1841.000000	0.000517
1840.000000	0.000565
1839.000000	0.000614
1838.000000	0.000637
1837.000000	0.000627
1836.000000	0.000597
1835.000000	0.000563
1834.000000	0.000532
1833.000000	0.000511
1832.000000	0.000495
1831.000000	0.000472
1830.000000	0.000432
1829.000000	0.000399
1828.000000	0.000405
1827.000000	0.000448
1826.000000	0.000500
1825.000000	0.000533
1824.000000	0.000542
1823.000000	0.000539
1822.000000	0.000534
1821.000000	0.000527
1820.000000	0.000515
1819.000000	0.000494
1818.000000	0.000467
1817.000000	0.000449
1816.000000	0.000444
1815.000000	0.000439
1814.000000	0.000424
1813.000000	0.000411
1812.000000	0.000414
1811.000000	0.000432
1810.000000	0.000449
1809.000000	0.000466
1808.000000	0.000493
1807.000000	0.000523
1806.000000	0.000533
1805.000000	0.000501
1804.000000	0.000433
1803.000000	0.000361
1802.000000	0.000329
1801.000000	0.000356
1800.000000	0.000417
1799.000000	0.000465
1798.000000	0.000480
1797.000000	0.000475
1796.000000	0.000469
1795.000000	0.000467
1794.000000	0.000477
1793.000000	0.000505
1792.000000	0.000544
1791.000000	0.000557
1790.000000	0.000530
1789.000000	0.000485
1788.000000	0.000456
1787.000000	0.000462
1786.000000	0.000497
1785.000000	0.000529
1784.000000	0.000527
1783.000000	0.000493
1782.000000	0.000455
1781.000000	0.000430
1780.000000	0.000409
1779.000000	0.000384
1778.000000	0.000366
1777.000000	0.000368
1776.000000	0.000380
1775.000000	0.000384
1774.000000	0.000371
1773.000000	0.000356
1772.000000	0.000355
1771.000000	0.000369
1770.000000	0.000389
1769.000000	0.000418
1768.000000	0.000453
1767.000000	0.000472
1766.000000	0.000462
1765.000000	0.000436
1764.000000	0.000420
1763.000000	0.000431
1762.000000	0.000469
1761.000000	0.000515
1760.000000	0.000561
1759.000000	0.000614
1758.000000	0.000688
1757.000000	0.000784
1756.000000	0.000882
1755.000000	0.000969
1754.000000	0.001053
1753.000000	0.001144
1752.000000	0.001242
1751.000000	0.001337
1750.000000	0.001426
1749.000000	0.001516
1748.000000	0.001602
1747.000000	0.001670
1746.000000	0.001718
1745.000000	0.001746
1744.000000	0.001749
1743.000000	0.001721
1742.000000	0.001681
1741.000000	0.001653
1740.000000	0.001634
1739.000000	0.001594
1738.000000	0.001524
1737.000000	0.001446
1736.000000	0.001373
1735.000000	0.001290
1734.000000	0.001192
1733.000000	0.001105
1732.000000	0.001043
1731.000000	0.000997
1730.000000	0.000968
1729.000000	0.000960
1728.000000	0.000958
1727.000000	0.000937
1726.000000	0.000883
1725.000000	0.000809
1724.000000	0.000744
1723.000000	0.000695
1722.000000	0.000656
1721.000000	0.000629
1720.000000	0.000626
1719.000000	0.000640
1718.000000	0.000636
1717.000000	0.000596
1716.000000	0.000556
1715.000000	0.000547
1714.000000	0.000578
1713.000000	0.000649
1712.000000	0.000742
1711.000000	0.000831
1710.000000	0.000901
1709.000000	0.000948
1708.000000	0.000976
1707.000000	0.000997
1706.000000	0.001018
1705.000000	0.001037
1704.000000	0.001043
1703.000000	0.001039
1702.000000	0.001048
1701.000000	0.001102
1700.000000	0.001206
1699.000000	0.001305
1698.000000	0.001396
1697.000000	0.001521
1696.000000	0.001662
1695.000000	0.001746
1694.000000	0.001780
1693.000000	0.001836
1692.000000	0.001953
1691.000000	0.002113
1690.000000	0.002267
1689.000000	0.002383
1688.000000	0.002459
1687.000000	0.002521
1686.000000	0.002594
1685.000000	0.002719
1684.000000	0.002886
1683.000000	0.003013
1682.000000	0.003109
1681.000000	0.003223
1680.000000	0.003351
1679.000000	0.003460
1678.000000	0.003544
1677.000000	0.003624
1676.000000	0.003720
1675.000000	0.003816
1674.000000	0.003888
1673.000000	0.003944
1672.000000	0.004012
1671.000000	0.004119
1670.000000	0.004282
1669.000000	0.004478
1668.000000	0.004651
1667.000000	0.004773
1666.000000	0.004858
1665.000000	0.004940
1664.000000	0.005040
1663.000000	0.005149
1662.000000	0.005247
1661.000000	0.005334
1660.000000	0.005425
1659.000000	0.005525
1658.000000	0.005621
1657.000000	0.005703
1656.000000	0.005773
1655.000000	0.005852
1654.000000	0.005963
1653.000000	0.006106
1652.000000	0.006207
1651.000000	0.006241
1650.000000	0.006249
1649.000000	0.006283
1648.000000	0.006365
1647.000000	0.006463
1646.000000	0.006526
1645.000000	0.006557
1644.000000	0.006589
1643.000000	0.006633
1642.000000	0.006688
1641.000000	0.006743
1640.000000	0.006779
1639.000000	0.006788
1638.000000	0.006781
1637.000000	0.006788
1636.000000	0.006815
1635.000000	0.006829
1634.000000	0.006816
1633.000000	0.006803
1632.000000	0.006808
1631.000000	0.006833
1630.000000	0.006883
1629.000000	0.006958
1628.000000	0.007030
1627.000000	0.007053
1626.000000	0.007020
1625.000000	0.006971
1624.000000	0.006958
1623.000000	0.006993
1622.000000	0.007039
1621.000000	0.007062
1620.000000	0.007063
1619.000000	0.007061
1618.000000	0.007054
1617.000000	0.007021
1616.000000	0.006935
1615.000000	0.006814
1614.000000	0.006697
1613.000000	0.006602
1612.000000	0.006521
1611.000000	0.006444
1610.000000	0.006368
1609.000000	0.006290
1608.000000	0.006201
1607.000000	0.006102
1606.000000	0.006011
1605.000000	0.005934
1604.000000	0.005864
1603.000000	0.005791
1602.000000	0.005712
1601.000000	0.005636
1600.000000	0.005568
1599.000000	0.005503
1598.000000	0.005429
1597.000000	0.005344
1596.000000	0.005260
1595.000000	0.005196
1594.000000	0.005157
1593.000000	0.005126
1592.000000	0.005087
1591.000000	0.005044
1590.000000	0.005013
1589.000000	0.004990
1588.000000	0.004963
1587.000000	0.004925
1586.000000	0.004890
1585.000000	0.004867
1584.000000	0.004848
1583.000000	0.004832
1582.000000	0.004825
1581.000000	0.004829
1580.000000	0.004829
1579.000000	0.004818
1578.000000	0.004797
1577.000000	0.004764
1576.000000	0.004714
1575.000000	0.004659
1574.000000	0.004622
1573.000000	0.004610
1572.000000	0.004616
1571.000000	0.004630
1570.000000	0.004645
1569.000000	0.004655
1568.000000	0.004656
1567.000000	0.004653
1566.000000	0.004649
1565.000000	0.004647
1564.000000	0.004649
1563.000000	0.004662
1562.000000	0.004680
1561.000000	0.004690
1560.000000	0.004686
1559.000000	0.004688
1558.000000	0.004709
1557.000000	0.004762
1556.000000	0.004843
1555.000000	0.004932
1554.000000	0.005003
1553.000000	0.005041
1552.000000	0.005065
1551.000000	0.005101
1550.000000	0.005152
1549.000000	0.005199
1548.000000	0.005223
1547.000000	0.005228
1546.000000	0.005230
1545.000000	0.005252
1544.000000	0.005304
1543.000000	0.005367
1542.000000	0.005407
1541.000000	0.005418
1540.000000	0.005417
1539.000000	0.005420
1538.000000	0.005420
1537.000000	0.005404
1536.000000	0.005377
1535.000000	0.005346
1534.000000	0.005308
1533.000000	0.005260
1532.000000	0.005214
1531.000000	0.005176
1530.000000	0.005138
1529.000000	0.005093
1528.000000	0.005043
1527.000000	0.004988
1526.000000	0.004922
1525.000000	0.004850
1524.000000	0.004782
1523.000000	0.004719
1522.000000	0.004650
1521.000000	0.004582
1520.000000	0.004545
1519.000000	0.004547
1518.000000	0.004573
1517.000000	0.004589
1516.000000	0.004567
1515.000000	0.004510
1514.000000	0.004443
1513.000000	0.004373
1512.000000	0.004303
1511.000000	0.004234
1510.000000	0.004165
1509.000000	0.004097
1508.000000	0.004023
1507.000000	0.003923
1506.000000	0.003820
1505.000000	0.003761
1504.000000	0.003719
1503.000000	0.003650
1502.000000	0.003551
1501.000000	0.003452
1500.000000	0.003395
1499.000000	0.003388
1498.000000	0.003378
1497.000000	0.003321
1496.000000	0.003234
1495.000000	0.003157
1494.000000	0.003095
1493.000000	0.003037
1492.000000	0.002983
1491.000000	0.002935
1490.000000	0.002891
1489.000000	0.002851
1488.000000	0.002828
1487.000000	0.002825
1486.000000	0.002835
1485.000000	0.002852
1484.000000	0.002869
1483.000000	0.002887
1482.000000	0.002907
1481.000000	0.002931
1480.000000	0.002957
1479.000000	0.002976
1478.000000	0.002986
1477.000000	0.002993
1476.000000	0.003012
1475.000000	0.003047
1474.000000	0.003102
1473.000000	0.003171
1472.000000	0.003243
1471.000000	0.003307
1470.000000	0.003365
1469.000000	0.003417
1468.000000	0.003459
1467.000000	0.003483
1466.000000	0.003490
1465.000000	0.003491
1464.000000	0.003502
1463.000000	0.003530
1462.000000	0.003563
1461.000000	0.003593
1460.000000	0.003625
1459.000000	0.003683
1458.000000	0.003786
1457.000000	0.003892
1456.000000	0.003933
1455.000000	0.003927
1454.000000	0.003930
1453.000000	0.003963
1452.000000	0.004014
1451.000000	0.004053
1450.000000	0.004068
1449.000000	0.004066
1448.000000	0.004064
1447.000000	0.004062
1446.000000	0.004064
1445.000000	0.004071
1444.000000	0.004085
1443.000000	0.004101
1442.000000	0.004105
1441.000000	0.004083
1440.000000	0.004040
1439.000000	0.003992
1438.000000	0.003955
1437.000000	0.003944
1436.000000	0.003959
1435.000000	0.003980
1434.000000	0.003992
1433.000000	0.003993
1432.000000	0.003992
1431.000000	0.003998
1430.000000	0.004003
1429.000000	0.003997
1428.000000	0.003987
1427.000000	0.003987
1426.000000	0.004008
1425.000000	0.004038
1424.000000	0.004058
1423.000000	0.004062
1422.000000	0.004060
1421.000000	0.004053
1420.000000	0.004034
1419.000000	0.004005
1418.000000	0.003988
1417.000000	0.004000
1416.000000	0.004028
1415.000000	0.004043
1414.000000	0.004028
1413.000000	0.003997
1412.000000	0.003970
1411.000000	0.003958
1410.000000	0.003952
1409.000000	0.003944
1408.000000	0.003939
1407.000000	0.003936
1406.000000	0.003930
1405.000000	0.003911
1404.000000	0.003884
1403.000000	0.003861
1402.000000	0.003851
1401.000000	0.003846
1400.000000	0.003841
1399.000000	0.003837
1398.000000	0.003836
1397.000000	0.003841
1396.000000	0.003853
1395.000000	0.003873
1394.000000	0.003896
1393.000000	0.003908
1392.000000	0.003897
1391.000000	0.003859
1390.000000	0.003804
1389.000000	0.003754
1388.000000	0.003728
1387.000000	0.003731
1386.000000	0.003751
1385.000000	0.003769
1384.000000	0.003774
1383.000000	0.003764
1382.000000	0.003750
1381.000000	0.003746
1380.000000	0.003752
1379.000000	0.003748
1378.000000	0.003717
1377.000000	0.003663
1376.000000	0.003608
1375.000000	0.003575
1374.000000	0.003564
1373.000000	0.003561
1372.000000	0.003556
1371.000000	0.003542
1370.000000	0.003517
1369.000000	0.003474
1368.000000	0.003418
1367.000000	0.003369
1366.000000	0.003340
1365.000000	0.003331
1364.000000	0.003326
1363.000000	0.003313
1362.000000	0.003290
1361.000000	0.003267
1360.000000	0.003246
1359.000000	0.003220
1358.000000	0.003187
1357.000000	0.003153
1356.000000	0.003128
1355.000000	0.003114
1354.000000	0.003105
1353.000000	0.003095
1352.000000	0.003075
1351.000000	0.003042
1350.000000	0.003005
1349.000000	0.002976
1348.000000	0.002970
1347.000000	0.002993
1346.000000	0.003037
1345.000000	0.003083
1344.000000	0.003113
1343.000000	0.003119
1342.000000	0.003108
1341.000000	0.003095
1340.000000	0.003100
1339.000000	0.003135
1338.000000	0.003193
1337.000000	0.003250
1336.000000	0.003283
1335.000000	0.003294
1334.000000	0.003303
1333.000000	0.003334
1332.000000	0.003389
1331.000000	0.003452
1330.000000	0.003511
1329.000000	0.003563
1328.000000	0.003616
1327.000000	0.003666
1326.000000	0.003705
1325.000000	0.003729
1324.000000	0.003742
1323.000000	0.003755
1322.000000	0.003768
1321.000000	0.003772
1320.000000	0.003761
1319.000000	0.003730
1318.000000	0.003679
1317.000000	0.003604
1316.000000	0.003512
1315.000000	0.003419
1314.000000	0.003338
1313.000000	0.003265
1312.000000	0.003186
1311.000000	0.003094
1310.000000	0.002997
1309.000000	0.002905
1308.000000	0.002828
1307.000000	0.002772
1306.000000	0.002739
1305.000000	0.002717
1304.000000	0.002693
1303.000000	0.002659
1302.000000	0.002620
1301.000000	0.002582
1300.000000	0.002548
1299.000000	0.002513
1298.000000	0.002475
1297.000000	0.002431
1296.000000	0.002385
1295.000000	0.002346
1294.000000	0.002319
1293.000000	0.002301
1292.000000	0.002285
1291.000000	0.002278
1290.000000	0.002286
1289.000000	0.002304
1288.000000	0.002314
1287.000000	0.002307
1286.000000	0.002293
1285.000000	0.002287
1284.000000	0.002287
1283.000000	0.002283
1282.000000	0.002268
1281.000000	0.002250
1280.000000	0.002233
1279.000000	0.002214
1278.000000	0.002195
1277.000000	0.002185
1276.000000	0.002195
1275.000000	0.002222
1274.000000	0.002252
1273.000000	0.002266
1272.000000	0.002262
1271.000000	0.002249
1270.000000	0.002242
1269.000000	0.002248
1268.000000	0.002259
1267.000000	0.002266
1266.000000	0.002267
1265.000000	0.002267
1264.000000	0.002272
1263.000000	0.002285
1262.000000	0.002307
1261.000000	0.002337
1260.000000	0.002372
1259.000000	0.002405
1258.000000	0.002429
1257.000000	0.002439
1256.000000	0.002434
1255.000000	0.002423
1254.000000	0.002422
1253.000000	0.002443
1252.000000	0.002480
1251.000000	0.002517
1250.000000	0.002543
1249.000000	0.002558
1248.000000	0.002568
1247.000000	0.002575
1246.000000	0.002580
1245.000000	0.002593
1244.000000	0.002623
1243.000000	0.002668
1242.000000	0.002711
1241.000000	0.002739
1240.000000	0.002753
1239.000000	0.002767
1238.000000	0.002790
1237.000000	0.002818
1236.000000	0.002839
1235.000000	0.002837
1234.000000	0.002807
1233.000000	0.002757
1232.000000	0.002703
1231.000000	0.002662
1230.000000	0.002636
1229.000000	0.002614
1228.000000	0.002586
1227.000000	0.002552
1226.000000	0.002513
1225.000000	0.002471
1224.000000	0.002425
1223.000000	0.002372
1222.000000	0.002312
1221.000000	0.002247
1220.000000	0.002190
1219.000000	0.002151
1218.000000	0.002134
1217.000000	0.002124
1216.000000	0.002097
1215.000000	0.002047
1214.000000	0.001988
1213.000000	0.001943
1212.000000	0.001927
1211.000000	0.001938
1210.000000	0.001959
1209.000000	0.001969
1208.000000	0.001958
1207.000000	0.001932
1206.000000	0.001905
1205.000000	0.001891
1204.000000	0.001895
1203.000000	0.001912
1202.000000	0.001935
1201.000000	0.001953
1200.000000	0.001960
1199.000000	0.001958
1198.000000	0.001956
1197.000000	0.001955
1196.000000	0.001944
1195.000000	0.001913
1194.000000	0.001869
1193.000000	0.001836
1192.000000	0.001826
1191.000000	0.001823
1190.000000	0.001804
1189.000000	0.001769
1188.000000	0.001743
1187.000000	0.001750
1186.000000	0.001787
1185.000000	0.001833
1184.000000	0.001873
1183.000000	0.001907
1182.000000	0.001947
1181.000000	0.002004
1180.000000	0.002075
1179.000000	0.002147
1178.000000	0.002213
1177.000000	0.002275
1176.000000	0.002343
1175.000000	0.002425
1174.000000	0.002520
1173.000000	0.002627
1172.000000	0.002740
1171.000000	0.002851
1170.000000	0.002951
1169.000000	0.003042
1168.000000	0.003130
1167.000000	0.003221
1166.000000	0.003318
1165.000000	0.003426
1164.000000	0.003552
1163.000000	0.003688
1162.000000	0.003810
1161.000000	0.003902
1160.000000	0.003972
1159.000000	0.004045
1158.000000	0.004138
1157.000000	0.004248
1156.000000	0.004366
1155.000000	0.004479
1154.000000	0.004569
1153.000000	0.004615
1152.000000	0.004621
1151.000000	0.004620
1150.000000	0.004648
1149.000000	0.004715
1148.000000	0.004794
1147.000000	0.004858
1146.000000	0.004902
1145.000000	0.004936
1144.000000	0.004966
1143.000000	0.004986
1142.000000	0.004990
1141.000000	0.004987
1140.000000	0.004991
1139.000000	0.005011
1138.000000	0.005044
1137.000000	0.005077
1136.000000	0.005102
1135.000000	0.005118
1134.000000	0.005129
1133.000000	0.005143
1132.000000	0.005164
1131.000000	0.005192
1130.000000	0.005219
1129.000000	0.005247
1128.000000	0.005284
1127.000000	0.005338
1126.000000	0.005400
1125.000000	0.005449
1124.000000	0.005476
1123.000000	0.005494
1122.000000	0.005522
1121.000000	0.005567
1120.000000	0.005622
1119.000000	0.005687
1118.000000	0.005761
1117.000000	0.005834
1116.000000	0.005894
1115.000000	0.005939
1114.000000	0.005985
1113.000000	0.006037
1112.000000	0.006085
1111.000000	0.006117
1110.000000	0.006136
1109.000000	0.006146
1108.000000	0.006140
1107.000000	0.006103
1106.000000	0.006043
1105.000000	0.005985
1104.000000	0.005950
1103.000000	0.005938
1102.000000	0.005935
1101.000000	0.005924
1100.000000	0.005893
1099.000000	0.005848
1098.000000	0.005808
1097.000000	0.005784
1096.000000	0.005766
1095.000000	0.005743
1094.000000	0.005721
1093.000000	0.005710
1092.000000	0.005708
1091.000000	0.005697
1090.000000	0.005669
1089.000000	0.005632
1088.000000	0.005598
1087.000000	0.005573
1086.000000	0.005572
1085.000000	0.005608
1084.000000	0.005667
1083.000000	0.005709
1082.000000	0.005708
1081.000000	0.005675
1080.000000	0.005637
1079.000000	0.005598
1078.000000	0.005555
1077.000000	0.005517
1076.000000	0.005495
1075.000000	0.005478
1074.000000	0.005440
1073.000000	0.005376
1072.000000	0.005311
1071.000000	0.005263
1070.000000	0.005226
1069.000000	0.005184
1068.000000	0.005140
1067.000000	0.005104
1066.000000	0.005078
1065.000000	0.005055
1064.000000	0.005040
1063.000000	0.005051
1062.000000	0.005088
1061.000000	0.005126
1060.000000	0.005140
1059.000000	0.005135
1058.000000	0.005137
1057.000000	0.005161
1056.000000	0.005191
1055.000000	0.005200
1054.000000	0.005180
1053.000000	0.005146
1052.000000	0.005115
1051.000000	0.005092
1050.000000	0.005077
1049.000000	0.005070
1048.000000	0.005072
1047.000000	0.005078
1046.000000	0.005090
1045.000000	0.005115
1044.000000	0.005155
1043.000000	0.005195
1042.000000	0.005211
1041.000000	0.005204
1040.000000	0.005206
1039.000000	0.005249
1038.000000	0.005322
1037.000000	0.005386
1036.000000	0.005416
1035.000000	0.005428
1034.000000	0.005456
1033.000000	0.005508
1032.000000	0.005564
1031.000000	0.005594
1030.000000	0.005594
1029.000000	0.005586
1028.000000	0.005592
1027.000000	0.005620
1026.000000	0.005652
1025.000000	0.005664
1024.000000	0.005641
1023.000000	0.005592
1022.000000	0.005538
1021.000000	0.005489
1020.000000	0.005444
1019.000000	0.005404
1018.000000	0.005378
1017.000000	0.005373
1016.000000	0.005372
1015.000000	0.005353
1014.000000	0.005311
1013.000000	0.005265
1012.000000	0.005233
1011.000000	0.005209
1010.000000	0.005174
1009.000000	0.005126
1008.000000	0.005078
1007.000000	0.005043
1006.000000	0.005018
1005.000000	0.005001
1004.000000	0.004989
1003.000000	0.004977
1002.000000	0.004947
1001.000000	0.004882
1000.000000	0.004787
999.000000	0.004687
998.000000	0.004605
997.000000	0.004541
996.000000	0.004479
995.000000	0.004408
994.000000	0.004322
993.000000	0.004228
992.000000	0.004143
991.000000	0.004088
990.000000	0.004069
989.000000	0.004062
988.000000	0.004030
987.000000	0.003950
986.000000	0.003829
985.000000	0.003698
984.000000	0.003592
983.000000	0.003532
982.000000	0.003510
981.000000	0.003497
980.000000	0.003468
979.000000	0.003422
978.000000	0.003373
977.000000	0.003330
976.000000	0.003293
975.000000	0.003260
974.000000	0.003229
973.000000	0.003189
972.000000	0.003125
971.000000	0.003034
970.000000	0.002939
969.000000	0.002869
968.000000	0.002832
967.000000	0.002817
966.000000	0.002809
965.000000	0.002796
964.000000	0.002765
963.000000	0.002706
962.000000	0.002622
961.000000	0.002536
960.000000	0.002478
959.000000	0.002459
958.000000	0.002463
957.000000	0.002461
956.000000	0.002438
955.000000	0.002393
954.000000	0.002335
953.000000	0.002274
952.000000	0.002226
951.000000	0.002198
950.000000	0.002183
949.000000	0.002164
948.000000	0.002124
947.000000	0.002065
946.000000	0.001999
945.000000	0.001933
944.000000	0.001875
943.000000	0.001829
942.000000	0.001788
941.000000	0.001742
940.000000	0.001687
939.000000	0.001644
938.000000	0.001630
937.000000	0.001633
936.000000	0.001626
935.000000	0.001597
934.000000	0.001556
933.000000	0.001511
932.000000	0.001455
931.000000	0.001385
930.000000	0.001324
929.000000	0.001296
928.000000	0.001303
927.000000	0.001327
926.000000	0.001350
925.000000	0.001368
924.000000	0.001382
923.000000	0.001384
922.000000	0.001361
921.000000	0.001312
920.000000	0.001254
919.000000	0.001217
918.000000	0.001222
917.000000	0.001259
916.000000	0.001287
915.000000	0.001271
914.000000	0.001218
913.000000	0.001164
912.000000	0.001142
911.000000	0.001139
910.000000	0.001115
909.000000	0.001051
908.000000	0.000974
907.000000	0.000931
906.000000	0.000939
905.000000	0.000973
904.000000	0.000994
903.000000	0.000983
902.000000	0.000945
901.000000	0.000894
900.000000	0.000839
899.000000	0.000781
898.000000	0.000723
897.000000	0.000674
896.000000	0.000653
895.000000	0.000665
894.000000	0.000690
893.000000	0.000700
892.000000	0.000688
891.000000	0.000674
890.000000	0.000674
889.000000	0.000678
888.000000	0.000666
887.000000	0.000634
886.000000	0.000600
885.000000	0.000587
884.000000	0.000603
883.000000	0.000638
882.000000	0.000675
881.000000	0.000705
880.000000	0.000742
879.000000	0.000811
878.000000	0.000914
877.000000	0.001020
876.000000	0.001089
875.000000	0.001103
874.000000	0.001065
873.000000	0.000985
872.000000	0.000885
871.000000	0.000802
870.000000	0.000763
869.000000	0.000752
868.000000	0.000728
867.000000	0.000668
866.000000	0.000587
865.000000	0.000512
864.000000	0.000460
863.000000	0.000442
862.000000	0.000461
861.000000	0.000501
860.000000	0.000535
859.000000	0.000555
858.000000	0.000579
857.000000	0.000617
856.000000	0.000652
855.000000	0.000662
854.000000	0.000648
853.000000	0.000617
852.000000	0.000571
851.000000	0.000516
850.000000	0.000475
849.000000	0.000469
848.000000	0.000490
847.000000	0.000508
846.000000	0.000502
845.000000	0.000481
844.000000	0.000459
843.000000	0.000448
842.000000	0.000445
841.000000	0.000446
840.000000	0.000449
839.000000	0.000459
838.000000	0.000478
837.000000	0.000496
836.000000	0.000491
835.000000	0.000451
834.000000	0.000390
833.000000	0.000339
832.000000	0.000318
831.000000	0.000328
830.000000	0.000359
829.000000	0.000398
828.000000	0.000426
827.000000	0.000432
826.000000	0.000419
825.000000	0.000400
824.000000	0.000382
823.000000	0.000362
822.000000	0.000341
821.000000	0.000326
820.000000	0.000323
819.000000	0.000342
818.000000	0.000385
817.000000	0.000435
816.000000	0.000458
815.000000	0.000432
814.000000	0.000382
813.000000	0.000357
812.000000	0.000384
811.000000	0.000444
810.000000	0.000499
809.000000	0.000528
808.000000	0.000531
807.000000	0.000519
806.000000	0.000513
805.000000	0.000533
804.000000	0.000582
803.000000	0.000639
802.000000	0.000667
801.000000	0.000647
800.000000	0.000586
799.000000	0.000521
798.000000	0.000489
797.000000	0.000502
796.000000	0.000539
795.000000	0.000571
794.000000	0.000586
793.000000	0.000594
792.000000	0.000606
791.000000	0.000618
790.000000	0.000618
789.000000	0.000597
788.000000	0.000553
787.000000	0.000504
786.000000	0.000478
785.000000	0.000495
784.000000	0.000542
783.000000	0.000587
782.000000	0.000600
781.000000	0.000584
780.000000	0.000553
779.000000	0.000521
778.000000	0.000496
777.000000	0.000479
776.000000	0.000468
775.000000	0.000462
774.000000	0.000460
773.000000	0.000460
772.000000	0.000457
771.000000	0.000452
770.000000	0.000460
769.000000	0.000493
768.000000	0.000534
767.000000	0.000551
766.000000	0.000538
765.000000	0.000517
764.000000	0.000505
763.000000	0.000492
762.000000	0.000466
761.000000	0.000442
760.000000	0.000447
759.000000	0.000487
758.000000	0.000545
757.000000	0.000592
756.000000	0.000609
755.000000	0.000584
754.000000	0.000532
753.000000	0.000485
752.000000	0.000468
751.000000	0.000465
750.000000	0.000452
749.000000	0.000428
748.000000	0.000414
747.000000	0.000418
746.000000	0.000417
745.000000	0.000396
744.000000	0.000370
743.000000	0.000372
742.000000	0.000414
741.000000	0.000476
740.000000	0.000530
739.000000	0.000559
738.000000	0.000563
737.000000	0.000551
736.000000	0.000533
735.000000	0.000514
734.000000	0.000495
733.000000	0.000478
732.000000	0.000461
731.000000	0.000435
730.000000	0.000391
729.000000	0.000333
728.000000	0.000287
727.000000	0.000284
726.000000	0.000334
725.000000	0.000414
724.000000	0.000482
723.000000	0.000507
722.000000	0.000488
721.000000	0.000449
720.000000	0.000417
719.000000	0.000401
718.000000	0.000401
717.000000	0.000420
716.000000	0.000464
715.000000	0.000521
714.000000	0.000555
713.000000	0.000542
712.000000	0.000489
711.000000	0.000427
710.000000	0.000381
709.000000	0.000355
708.000000	0.000348
707.000000	0.000369
706.000000	0.000426
705.000000	0.000508
704.000000	0.000580
703.000000	0.000608
702.000000	0.000577
701.000000	0.000497
700.000000	0.000399
699.000000	0.000324
698.000000	0.000302
697.000000	0.000329
696.000000	0.000370
695.000000	0.000392
694.000000	0.000394
693.000000	0.000396
692.000000	0.000404
691.000000	0.000408
690.000000	0.000398
689.000000	0.000379
688.000000	0.000357
687.000000	0.000337
686.000000	0.000330
685.000000	0.000348
684.000000	0.000385
683.000000	0.000417
682.000000	0.000432
681.000000	0.000446
680.000000	0.000484
679.000000	0.000553
678.000000	0.000651
677.000000	0.000766
676.000000	0.000881
675.000000	0.000992
674.000000	0.001122
673.000000	0.001296
672.000000	0.001499
671.000000	0.001693
670.000000	0.001871
669.000000	0.002043
668.000000	0.002194
667.000000	0.002273
666.000000	0.002275
665.000000	0.002217
664.000000	0.002111
663.000000	0.001957
662.000000	0.001768
661.000000	0.001580
660.000000	0.001418
659.000000	0.001284
658.000000	0.001179
657.000000	0.001108
656.000000	0.001063
655.000000	0.001025
654.000000	0.000984
653.000000	0.000943
652.000000	0.000915
651.000000	0.000904
650.000000	0.000898
649.000000	0.000887
648.000000	0.000864
647.000000	0.000837
646.000000	0.000826
645.000000	0.000850
644.000000	0.000885
643.000000	0.000872
642.000000	0.000787
641.000000	0.000685
640.000000	0.000639
639.000000	0.000653
638.000000	0.000667
637.000000	0.000651
636.000000	0.000638
635.000000	0.000654
634.000000	0.000663
633.000000	0.000628
632.000000	0.000583
631.000000	0.000593
630.000000	0.000667
629.000000	0.000744
628.000000	0.000767
627.000000	0.000725
626.000000	0.000645
625.000000	0.000565
624.000000	0.000527
623.000000	0.000559
622.000000	0.000645
621.000000	0.000730
620.000000	0.000763
619.000000	0.000737
618.000000	0.000690
617.000000	0.000682
616.000000	0.000759
615.000000	0.000923
614.000000	0.001125
613.000000	0.001291
612.000000	0.001373
611.000000	0.001381
610.000000	0.001368
609.000000	0.001397
608.000000	0.001496
607.000000	0.001647
606.000000	0.001822
605.000000	0.002013
604.000000	0.002235
603.000000	0.002484
602.000000	0.002721
601.000000	0.002895
600.000000	0.002965
599.000000	0.002922
598.000000	0.002793
597.000000	0.002630
596.000000	0.002480
595.000000	0.002351
594.000000	0.002227
593.000000	0.002101
592.000000	0.001998
591.000000	0.001952
590.000000	0.001971
589.000000	0.002029
588.000000	0.002082
587.000000	0.002090
586.000000	0.002044
585.000000	0.001971
584.000000	0.001900
583.000000	0.001828
582.000000	0.001738
581.000000	0.001655
580.000000	0.001649
579.000000	0.001754
578.000000	0.001912
577.000000	0.002021
576.000000	0.002030
575.000000	0.001965
574.000000	0.001877
573.000000	0.001788
572.000000	0.001710
571.000000	0.001663
570.000000	0.001659
569.000000	0.001673
568.000000	0.001653
567.000000	0.001571
566.000000	0.001456
565.000000	0.001385
564.000000	0.001413
563.000000	0.001531
562.000000	0.001665
561.000000	0.001722
560.000000	0.001650
559.000000	0.001473
558.000000	0.001287
557.000000	0.001194
556.000000	0.001204
555.000000	0.001210
554.000000	0.001109
553.000000	0.000946
552.000000	0.000876
551.000000	0.000957
550.000000	0.001046
549.000000	0.000960
548.000000	0.000705
547.000000	0.000472
546.000000	0.000419
545.000000	0.000537
544.000000	0.000724
543.000000	0.000912
542.000000	0.001059
541.000000	0.001106
540.000000	0.001037
539.000000	0.000941
538.000000	0.000942
537.000000	0.001053
536.000000	0.001155
535.000000	0.001128
534.000000	0.000980
533.000000	0.000829
532.000000	0.000783
531.000000	0.000849
530.000000	0.000942
529.000000	0.000960
528.000000	0.000858
527.000000	0.000693
526.000000	0.000589
525.000000	0.000629
524.000000	0.000768
523.000000	0.000884
522.000000	0.000882
521.000000	0.000772
520.000000	0.000667
519.000000	0.000699
518.000000	0.000881
517.000000	0.001064
516.000000	0.001089
515.000000	0.000980
514.000000	0.000906
513.000000	0.000978
512.000000	0.001128
511.000000	0.001206
510.000000	0.001150
509.000000	0.000998
508.000000	0.000794
507.000000	0.000572
506.000000	0.000407
505.000000	0.000364
504.000000	0.000393
503.000000	0.000368
502.000000	0.000267
501.000000	0.000229
500.000000	0.000353
499.000000	0.000539
498.000000	0.000599
497.000000	0.000469
496.000000	0.000257
495.000000	0.000118
494.000000	0.000140
493.000000	0.000331
492.000000	0.000623
491.000000	0.000901
490.000000	0.001064
489.000000	0.001074
488.000000	0.000936
487.000000	0.000650
486.000000	0.000253
485.000000	-0.000120
484.000000	-0.000279
483.000000	-0.000139
482.000000	0.000189
481.000000	0.000492
480.000000	0.000608
479.000000	0.000530
478.000000	0.000388
477.000000	0.000338
476.000000	0.000432
475.000000	0.000607
474.000000	0.000805
473.000000	0.001003
472.000000	0.001119
471.000000	0.001021
470.000000	0.000704
469.000000	0.000358
468.000000	0.000217
467.000000	0.000344
466.000000	0.000611
465.000000	0.000870
464.000000	0.001042
463.000000	0.001030
462.000000	0.000749
461.000000	0.000272
460.000000	-0.000168
459.000000	-0.000349
458.000000	-0.000202
457.000000	0.000143
456.000000	0.000484
455.000000	0.000706
454.000000	0.000787
453.000000	0.000742
452.000000	0.000602
451.000000	0.000423
450.000000	0.000290
