PE IR       SUBTECH     SPECTRUM    ASCII       PEDS        4.00        
   -1
P14-Noir045_1.ASC
23/06/09
16:33:00.00
23/06/09
16:36:39.00
uco
Sample 045 By uco Date Friday, June 09 2023
450.000000
#HDR
-1
-1
#GR
cm-1
A
1.0
0.0
4000.000000
-1.000000
3551
8
0.010896
0.000951
#DATA
4000.000000	0.001769
3999.000000	0.001764
3998.000000	0.001760
3997.000000	0.001762
3996.000000	0.001767
3995.000000	0.001771
3994.000000	0.001775
3993.000000	0.001782
3992.000000	0.001798
3991.000000	0.001821
3990.000000	0.001840
3989.000000	0.001846
3988.000000	0.001840
3987.000000	0.001834
3986.000000	0.001838
3985.000000	0.001852
3984.000000	0.001867
3983.000000	0.001871
3982.000000	0.001861
3981.000000	0.001843
3980.000000	0.001824
3979.000000	0.001813
3978.000000	0.001813
3977.000000	0.001822
3976.000000	0.001832
3975.000000	0.001839
3974.000000	0.001840
3973.000000	0.001838
3972.000000	0.001832
3971.000000	0.001823
3970.000000	0.001813
3969.000000	0.001808
3968.000000	0.001810
3967.000000	0.001817
3966.000000	0.001824
3965.000000	0.001824
3964.000000	0.001820
3963.000000	0.001819
3962.000000	0.001828
3961.000000	0.001846
3960.000000	0.001867
3959.000000	0.001885
3958.000000	0.001895
3957.000000	0.001896
3956.000000	0.001893
3955.000000	0.001888
3954.000000	0.001890
3953.000000	0.001904
3952.000000	0.001926
3951.000000	0.001948
3950.000000	0.001960
3949.000000	0.001958
3948.000000	0.001946
3947.000000	0.001931
3946.000000	0.001920
3945.000000	0.001920
3944.000000	0.001932
3943.000000	0.001950
3942.000000	0.001959
3941.000000	0.001952
3940.000000	0.001932
3939.000000	0.001914
3938.000000	0.001904
3937.000000	0.001901
3936.000000	0.001899
3935.000000	0.001895
3934.000000	0.001889
3933.000000	0.001887
3932.000000	0.001894
3931.000000	0.001912
3930.000000	0.001935
3929.000000	0.001951
3928.000000	0.001958
3927.000000	0.001962
3926.000000	0.001973
3925.000000	0.001990
3924.000000	0.001999
3923.000000	0.001987
3922.000000	0.001960
3921.000000	0.001934
3920.000000	0.001920
3919.000000	0.001919
3918.000000	0.001922
3917.000000	0.001921
3916.000000	0.001911
3915.000000	0.001894
3914.000000	0.001881
3913.000000	0.001880
3912.000000	0.001893
3911.000000	0.001915
3910.000000	0.001943
3909.000000	0.001973
3908.000000	0.002003
3907.000000	0.002031
3906.000000	0.002051
3905.000000	0.002052
3904.000000	0.002030
3903.000000	0.001988
3902.000000	0.001942
3901.000000	0.001914
3900.000000	0.001906
3899.000000	0.001904
3898.000000	0.001896
3897.000000	0.001886
3896.000000	0.001888
3895.000000	0.001899
3894.000000	0.001912
3893.000000	0.001924
3892.000000	0.001940
3891.000000	0.001960
3890.000000	0.001969
3889.000000	0.001969
3888.000000	0.001970
3887.000000	0.001972
3886.000000	0.001968
3885.000000	0.001960
3884.000000	0.001957
3883.000000	0.001971
3882.000000	0.002005
3881.000000	0.002038
3880.000000	0.002041
3879.000000	0.002002
3878.000000	0.001948
3877.000000	0.001916
3876.000000	0.001914
3875.000000	0.001925
3874.000000	0.001925
3873.000000	0.001898
3872.000000	0.001857
3871.000000	0.001838
3870.000000	0.001857
3869.000000	0.001884
3868.000000	0.001887
3867.000000	0.001880
3866.000000	0.001885
3865.000000	0.001904
3864.000000	0.001926
3863.000000	0.001939
3862.000000	0.001939
3861.000000	0.001926
3860.000000	0.001913
3859.000000	0.001914
3858.000000	0.001940
3857.000000	0.001981
3856.000000	0.002005
3855.000000	0.001977
3854.000000	0.001929
3853.000000	0.001925
3852.000000	0.001936
3851.000000	0.001922
3850.000000	0.001910
3849.000000	0.001905
3848.000000	0.001903
3847.000000	0.001908
3846.000000	0.001930
3845.000000	0.001963
3844.000000	0.001986
3843.000000	0.001976
3842.000000	0.001932
3841.000000	0.001886
3840.000000	0.001875
3839.000000	0.001906
3838.000000	0.001946
3837.000000	0.001960
3836.000000	0.001949
3835.000000	0.001939
3834.000000	0.001944
3833.000000	0.001954
3832.000000	0.001952
3831.000000	0.001930
3830.000000	0.001899
3829.000000	0.001880
3828.000000	0.001886
3827.000000	0.001917
3826.000000	0.001948
3825.000000	0.001956
3824.000000	0.001932
3823.000000	0.001894
3822.000000	0.001878
3821.000000	0.001910
3820.000000	0.001948
3819.000000	0.001949
3818.000000	0.001942
3817.000000	0.001953
3816.000000	0.001969
3815.000000	0.001960
3814.000000	0.001923
3813.000000	0.001893
3812.000000	0.001895
3811.000000	0.001906
3810.000000	0.001897
3809.000000	0.001856
3808.000000	0.001804
3807.000000	0.001777
3806.000000	0.001775
3805.000000	0.001781
3804.000000	0.001795
3803.000000	0.001828
3802.000000	0.001886
3801.000000	0.001947
3800.000000	0.001965
3799.000000	0.001940
3798.000000	0.001915
3797.000000	0.001904
3796.000000	0.001893
3795.000000	0.001870
3794.000000	0.001842
3793.000000	0.001826
3792.000000	0.001825
3791.000000	0.001832
3790.000000	0.001844
3789.000000	0.001863
3788.000000	0.001892
3787.000000	0.001929
3786.000000	0.001966
3785.000000	0.001987
3784.000000	0.001982
3783.000000	0.001952
3782.000000	0.001916
3781.000000	0.001898
3780.000000	0.001908
3779.000000	0.001933
3778.000000	0.001949
3777.000000	0.001946
3776.000000	0.001939
3775.000000	0.001939
3774.000000	0.001940
3773.000000	0.001938
3772.000000	0.001936
3771.000000	0.001942
3770.000000	0.001955
3769.000000	0.001961
3768.000000	0.001947
3767.000000	0.001929
3766.000000	0.001925
3765.000000	0.001933
3764.000000	0.001937
3763.000000	0.001927
3762.000000	0.001905
3761.000000	0.001879
3760.000000	0.001860
3759.000000	0.001856
3758.000000	0.001869
3757.000000	0.001888
3756.000000	0.001907
3755.000000	0.001920
3754.000000	0.001918
3753.000000	0.001885
3752.000000	0.001823
3751.000000	0.001767
3750.000000	0.001738
3749.000000	0.001721
3748.000000	0.001714
3747.000000	0.001732
3746.000000	0.001771
3745.000000	0.001806
3744.000000	0.001813
3743.000000	0.001785
3742.000000	0.001760
3741.000000	0.001777
3740.000000	0.001815
3739.000000	0.001829
3738.000000	0.001802
3737.000000	0.001754
3736.000000	0.001722
3735.000000	0.001727
3734.000000	0.001753
3733.000000	0.001781
3732.000000	0.001808
3731.000000	0.001831
3730.000000	0.001854
3729.000000	0.001886
3728.000000	0.001927
3727.000000	0.001958
3726.000000	0.001964
3725.000000	0.001945
3724.000000	0.001921
3723.000000	0.001915
3722.000000	0.001929
3721.000000	0.001947
3720.000000	0.001960
3719.000000	0.001967
3718.000000	0.001967
3717.000000	0.001952
3716.000000	0.001915
3715.000000	0.001861
3714.000000	0.001799
3713.000000	0.001749
3712.000000	0.001736
3711.000000	0.001755
3710.000000	0.001766
3709.000000	0.001751
3708.000000	0.001732
3707.000000	0.001738
3706.000000	0.001769
3705.000000	0.001807
3704.000000	0.001831
3703.000000	0.001835
3702.000000	0.001825
3701.000000	0.001808
3700.000000	0.001792
3699.000000	0.001787
3698.000000	0.001805
3697.000000	0.001841
3696.000000	0.001870
3695.000000	0.001872
3694.000000	0.001844
3693.000000	0.001799
3692.000000	0.001758
3691.000000	0.001750
3690.000000	0.001794
3689.000000	0.001873
3688.000000	0.001930
3687.000000	0.001933
3686.000000	0.001907
3685.000000	0.001889
3684.000000	0.001883
3683.000000	0.001875
3682.000000	0.001857
3681.000000	0.001834
3680.000000	0.001813
3679.000000	0.001788
3678.000000	0.001750
3677.000000	0.001719
3676.000000	0.001744
3675.000000	0.001820
3674.000000	0.001848
3673.000000	0.001811
3672.000000	0.001764
3671.000000	0.001738
3670.000000	0.001748
3669.000000	0.001779
3668.000000	0.001801
3667.000000	0.001821
3666.000000	0.001854
3665.000000	0.001887
3664.000000	0.001903
3663.000000	0.001898
3662.000000	0.001881
3661.000000	0.001863
3660.000000	0.001850
3659.000000	0.001844
3658.000000	0.001849
3657.000000	0.001864
3656.000000	0.001880
3655.000000	0.001880
3654.000000	0.001857
3653.000000	0.001822
3652.000000	0.001777
3651.000000	0.001724
3650.000000	0.001701
3649.000000	0.001750
3648.000000	0.001838
3647.000000	0.001904
3646.000000	0.001930
3645.000000	0.001938
3644.000000	0.001951
3643.000000	0.001975
3642.000000	0.002002
3641.000000	0.002021
3640.000000	0.002029
3639.000000	0.002033
3638.000000	0.002036
3637.000000	0.002039
3636.000000	0.002041
3635.000000	0.002047
3634.000000	0.002058
3633.000000	0.002068
3632.000000	0.002069
3631.000000	0.002063
3630.000000	0.002071
3629.000000	0.002121
3628.000000	0.002186
3627.000000	0.002210
3626.000000	0.002208
3625.000000	0.002212
3624.000000	0.002220
3623.000000	0.002225
3622.000000	0.002227
3621.000000	0.002231
3620.000000	0.002242
3619.000000	0.002262
3618.000000	0.002277
3617.000000	0.002277
3616.000000	0.002267
3615.000000	0.002257
3614.000000	0.002254
3613.000000	0.002263
3612.000000	0.002283
3611.000000	0.002300
3610.000000	0.002305
3609.000000	0.002299
3608.000000	0.002294
3607.000000	0.002302
3606.000000	0.002320
3605.000000	0.002340
3604.000000	0.002355
3603.000000	0.002367
3602.000000	0.002386
3601.000000	0.002423
3600.000000	0.002471
3599.000000	0.002510
3598.000000	0.002529
3597.000000	0.002532
3596.000000	0.002536
3595.000000	0.002558
3594.000000	0.002595
3593.000000	0.002626
3592.000000	0.002635
3591.000000	0.002619
3590.000000	0.002590
3589.000000	0.002570
3588.000000	0.002581
3587.000000	0.002620
3586.000000	0.002653
3585.000000	0.002664
3584.000000	0.002672
3583.000000	0.002695
3582.000000	0.002733
3581.000000	0.002771
3580.000000	0.002793
3579.000000	0.002791
3578.000000	0.002773
3577.000000	0.002758
3576.000000	0.002764
3575.000000	0.002802
3574.000000	0.002865
3573.000000	0.002932
3572.000000	0.002987
3571.000000	0.003022
3570.000000	0.003036
3569.000000	0.003038
3568.000000	0.003044
3567.000000	0.003063
3566.000000	0.003087
3565.000000	0.003100
3564.000000	0.003105
3563.000000	0.003110
3562.000000	0.003112
3561.000000	0.003108
3560.000000	0.003101
3559.000000	0.003106
3558.000000	0.003134
3557.000000	0.003180
3556.000000	0.003227
3555.000000	0.003254
3554.000000	0.003257
3553.000000	0.003243
3552.000000	0.003224
3551.000000	0.003217
3550.000000	0.003237
3549.000000	0.003291
3548.000000	0.003371
3547.000000	0.003456
3546.000000	0.003515
3545.000000	0.003533
3544.000000	0.003516
3543.000000	0.003486
3542.000000	0.003466
3541.000000	0.003466
3540.000000	0.003485
3539.000000	0.003511
3538.000000	0.003533
3537.000000	0.003546
3536.000000	0.003552
3535.000000	0.003557
3534.000000	0.003571
3533.000000	0.003598
3532.000000	0.003632
3531.000000	0.003668
3530.000000	0.003698
3529.000000	0.003720
3528.000000	0.003736
3527.000000	0.003749
3526.000000	0.003769
3525.000000	0.003803
3524.000000	0.003846
3523.000000	0.003877
3522.000000	0.003880
3521.000000	0.003858
3520.000000	0.003830
3519.000000	0.003815
3518.000000	0.003818
3517.000000	0.003829
3516.000000	0.003836
3515.000000	0.003835
3514.000000	0.003838
3513.000000	0.003854
3512.000000	0.003886
3511.000000	0.003922
3510.000000	0.003954
3509.000000	0.003975
3508.000000	0.003990
3507.000000	0.004005
3506.000000	0.004022
3505.000000	0.004041
3504.000000	0.004057
3503.000000	0.004068
3502.000000	0.004074
3501.000000	0.004082
3500.000000	0.004098
3499.000000	0.004126
3498.000000	0.004166
3497.000000	0.004210
3496.000000	0.004249
3495.000000	0.004273
3494.000000	0.004276
3493.000000	0.004262
3492.000000	0.004240
3491.000000	0.004223
3490.000000	0.004221
3489.000000	0.004235
3488.000000	0.004262
3487.000000	0.004297
3486.000000	0.004333
3485.000000	0.004363
3484.000000	0.004381
3483.000000	0.004387
3482.000000	0.004391
3481.000000	0.004404
3480.000000	0.004431
3479.000000	0.004463
3478.000000	0.004495
3477.000000	0.004522
3476.000000	0.004545
3475.000000	0.004561
3474.000000	0.004567
3473.000000	0.004561
3472.000000	0.004549
3471.000000	0.004541
3470.000000	0.004544
3469.000000	0.004556
3468.000000	0.004575
3467.000000	0.004596
3466.000000	0.004621
3465.000000	0.004654
3464.000000	0.004690
3463.000000	0.004725
3462.000000	0.004751
3461.000000	0.004767
3460.000000	0.004776
3459.000000	0.004787
3458.000000	0.004805
3457.000000	0.004832
3456.000000	0.004863
3455.000000	0.004885
3454.000000	0.004893
3453.000000	0.004885
3452.000000	0.004872
3451.000000	0.004867
3450.000000	0.004881
3449.000000	0.004914
3448.000000	0.004953
3447.000000	0.004982
3446.000000	0.004996
3445.000000	0.005007
3444.000000	0.005029
3443.000000	0.005063
3442.000000	0.005093
3441.000000	0.005109
3440.000000	0.005113
3439.000000	0.005119
3438.000000	0.005137
3437.000000	0.005167
3436.000000	0.005199
3435.000000	0.005218
3434.000000	0.005218
3433.000000	0.005205
3432.000000	0.005197
3431.000000	0.005209
3430.000000	0.005242
3429.000000	0.005287
3428.000000	0.005329
3427.000000	0.005357
3426.000000	0.005368
3425.000000	0.005369
3424.000000	0.005374
3423.000000	0.005392
3422.000000	0.005425
3421.000000	0.005467
3420.000000	0.005510
3419.000000	0.005546
3418.000000	0.005564
3417.000000	0.005564
3416.000000	0.005555
3415.000000	0.005550
3414.000000	0.005558
3413.000000	0.005572
3412.000000	0.005583
3411.000000	0.005592
3410.000000	0.005607
3409.000000	0.005630
3408.000000	0.005657
3407.000000	0.005684
3406.000000	0.005712
3405.000000	0.005747
3404.000000	0.005789
3403.000000	0.005836
3402.000000	0.005879
3401.000000	0.005906
3400.000000	0.005911
3399.000000	0.005903
3398.000000	0.005893
3397.000000	0.005884
3396.000000	0.005874
3395.000000	0.005863
3394.000000	0.005859
3393.000000	0.005868
3392.000000	0.005881
3391.000000	0.005885
3390.000000	0.005877
3389.000000	0.005868
3388.000000	0.005869
3387.000000	0.005884
3386.000000	0.005911
3385.000000	0.005945
3384.000000	0.005977
3383.000000	0.006003
3382.000000	0.006027
3381.000000	0.006050
3380.000000	0.006067
3379.000000	0.006070
3378.000000	0.006057
3377.000000	0.006038
3376.000000	0.006021
3375.000000	0.006014
3374.000000	0.006016
3373.000000	0.006030
3372.000000	0.006056
3371.000000	0.006088
3370.000000	0.006121
3369.000000	0.006144
3368.000000	0.006158
3367.000000	0.006167
3366.000000	0.006182
3365.000000	0.006205
3364.000000	0.006228
3363.000000	0.006244
3362.000000	0.006251
3361.000000	0.006255
3360.000000	0.006258
3359.000000	0.006257
3358.000000	0.006253
3357.000000	0.006251
3356.000000	0.006254
3355.000000	0.006263
3354.000000	0.006275
3353.000000	0.006289
3352.000000	0.006305
3351.000000	0.006322
3350.000000	0.006337
3349.000000	0.006349
3348.000000	0.006360
3347.000000	0.006368
3346.000000	0.006367
3345.000000	0.006356
3344.000000	0.006340
3343.000000	0.006329
3342.000000	0.006330
3341.000000	0.006344
3340.000000	0.006371
3339.000000	0.006408
3338.000000	0.006449
3337.000000	0.006482
3336.000000	0.006498
3335.000000	0.006494
3334.000000	0.006478
3333.000000	0.006461
3332.000000	0.006449
3331.000000	0.006440
3330.000000	0.006432
3329.000000	0.006428
3328.000000	0.006435
3327.000000	0.006463
3326.000000	0.006512
3325.000000	0.006571
3324.000000	0.006617
3323.000000	0.006636
3322.000000	0.006629
3321.000000	0.006606
3320.000000	0.006581
3319.000000	0.006559
3318.000000	0.006546
3317.000000	0.006544
3316.000000	0.006556
3315.000000	0.006583
3314.000000	0.006619
3313.000000	0.006652
3312.000000	0.006664
3311.000000	0.006649
3310.000000	0.006613
3309.000000	0.006577
3308.000000	0.006554
3307.000000	0.006549
3306.000000	0.006561
3305.000000	0.006580
3304.000000	0.006598
3303.000000	0.006611
3302.000000	0.006616
3301.000000	0.006615
3300.000000	0.006611
3299.000000	0.006610
3298.000000	0.006620
3297.000000	0.006642
3296.000000	0.006669
3295.000000	0.006689
3294.000000	0.006694
3293.000000	0.006683
3292.000000	0.006665
3291.000000	0.006651
3290.000000	0.006649
3289.000000	0.006661
3288.000000	0.006679
3287.000000	0.006696
3286.000000	0.006709
3285.000000	0.006718
3284.000000	0.006722
3283.000000	0.006707
3282.000000	0.006666
3281.000000	0.006611
3280.000000	0.006565
3279.000000	0.006548
3278.000000	0.006562
3277.000000	0.006593
3276.000000	0.006621
3275.000000	0.006633
3274.000000	0.006625
3273.000000	0.006606
3272.000000	0.006583
3271.000000	0.006560
3270.000000	0.006532
3269.000000	0.006504
3268.000000	0.006487
3267.000000	0.006491
3266.000000	0.006510
3265.000000	0.006527
3264.000000	0.006527
3263.000000	0.006507
3262.000000	0.006475
3261.000000	0.006442
3260.000000	0.006416
3259.000000	0.006403
3258.000000	0.006404
3257.000000	0.006412
3256.000000	0.006421
3255.000000	0.006423
3254.000000	0.006416
3253.000000	0.006398
3252.000000	0.006374
3251.000000	0.006352
3250.000000	0.006337
3249.000000	0.006329
3248.000000	0.006326
3247.000000	0.006324
3246.000000	0.006321
3245.000000	0.006318
3244.000000	0.006319
3243.000000	0.006330
3242.000000	0.006348
3241.000000	0.006363
3240.000000	0.006357
3239.000000	0.006328
3238.000000	0.006286
3237.000000	0.006250
3236.000000	0.006233
3235.000000	0.006239
3234.000000	0.006262
3233.000000	0.006288
3232.000000	0.006300
3231.000000	0.006289
3230.000000	0.006259
3229.000000	0.006226
3228.000000	0.006201
3227.000000	0.006187
3226.000000	0.006176
3225.000000	0.006160
3224.000000	0.006139
3223.000000	0.006118
3222.000000	0.006104
3221.000000	0.006099
3220.000000	0.006097
3219.000000	0.006093
3218.000000	0.006087
3217.000000	0.006077
3216.000000	0.006062
3215.000000	0.006044
3214.000000	0.006023
3213.000000	0.006004
3212.000000	0.005992
3211.000000	0.005986
3210.000000	0.005983
3209.000000	0.005983
3208.000000	0.005985
3207.000000	0.005994
3206.000000	0.006009
3205.000000	0.006026
3204.000000	0.006037
3203.000000	0.006037
3202.000000	0.006023
3201.000000	0.005995
3200.000000	0.005957
3199.000000	0.005917
3198.000000	0.005884
3197.000000	0.005865
3196.000000	0.005862
3195.000000	0.005869
3194.000000	0.005880
3193.000000	0.005886
3192.000000	0.005888
3191.000000	0.005888
3190.000000	0.005886
3189.000000	0.005880
3188.000000	0.005865
3187.000000	0.005842
3186.000000	0.005815
3185.000000	0.005794
3184.000000	0.005785
3183.000000	0.005784
3182.000000	0.005782
3181.000000	0.005769
3180.000000	0.005747
3179.000000	0.005724
3178.000000	0.005709
3177.000000	0.005705
3176.000000	0.005704
3175.000000	0.005704
3174.000000	0.005701
3173.000000	0.005693
3172.000000	0.005675
3171.000000	0.005645
3170.000000	0.005606
3169.000000	0.005569
3168.000000	0.005546
3167.000000	0.005546
3166.000000	0.005566
3165.000000	0.005590
3164.000000	0.005599
3163.000000	0.005587
3162.000000	0.005565
3161.000000	0.005545
3160.000000	0.005528
3159.000000	0.005506
3158.000000	0.005477
3157.000000	0.005449
3156.000000	0.005429
3155.000000	0.005416
3154.000000	0.005403
3153.000000	0.005387
3152.000000	0.005370
3151.000000	0.005355
3150.000000	0.005340
3149.000000	0.005326
3148.000000	0.005310
3147.000000	0.005292
3146.000000	0.005267
3145.000000	0.005242
3144.000000	0.005226
3143.000000	0.005224
3142.000000	0.005234
3141.000000	0.005246
3140.000000	0.005255
3139.000000	0.005260
3138.000000	0.005257
3137.000000	0.005242
3136.000000	0.005212
3135.000000	0.005175
3134.000000	0.005141
3133.000000	0.005116
3132.000000	0.005102
3131.000000	0.005095
3130.000000	0.005090
3129.000000	0.005086
3128.000000	0.005088
3127.000000	0.005099
3126.000000	0.005112
3125.000000	0.005118
3124.000000	0.005112
3123.000000	0.005097
3122.000000	0.005080
3121.000000	0.005065
3120.000000	0.005054
3119.000000	0.005044
3118.000000	0.005034
3117.000000	0.005017
3116.000000	0.004994
3115.000000	0.004970
3114.000000	0.004953
3113.000000	0.004946
3112.000000	0.004944
3111.000000	0.004946
3110.000000	0.004952
3109.000000	0.004959
3108.000000	0.004966
3107.000000	0.004975
3106.000000	0.004984
3105.000000	0.004992
3104.000000	0.004987
3103.000000	0.004966
3102.000000	0.004932
3101.000000	0.004898
3100.000000	0.004874
3099.000000	0.004863
3098.000000	0.004862
3097.000000	0.004865
3096.000000	0.004865
3095.000000	0.004859
3094.000000	0.004850
3093.000000	0.004842
3092.000000	0.004840
3091.000000	0.004843
3090.000000	0.004850
3089.000000	0.004860
3088.000000	0.004872
3087.000000	0.004888
3086.000000	0.004904
3085.000000	0.004913
3084.000000	0.004907
3083.000000	0.004889
3082.000000	0.004867
3081.000000	0.004853
3080.000000	0.004854
3079.000000	0.004864
3078.000000	0.004876
3077.000000	0.004880
3076.000000	0.004874
3075.000000	0.004865
3074.000000	0.004860
3073.000000	0.004862
3072.000000	0.004866
3071.000000	0.004866
3070.000000	0.004859
3069.000000	0.004847
3068.000000	0.004833
3067.000000	0.004823
3066.000000	0.004818
3065.000000	0.004819
3064.000000	0.004820
3063.000000	0.004822
3062.000000	0.004821
3061.000000	0.004813
3060.000000	0.004791
3059.000000	0.004757
3058.000000	0.004721
3057.000000	0.004699
3056.000000	0.004692
3055.000000	0.004691
3054.000000	0.004688
3053.000000	0.004677
3052.000000	0.004663
3051.000000	0.004653
3050.000000	0.004648
3049.000000	0.004642
3048.000000	0.004627
3047.000000	0.004598
3046.000000	0.004563
3045.000000	0.004534
3044.000000	0.004522
3043.000000	0.004529
3042.000000	0.004546
3041.000000	0.004562
3040.000000	0.004569
3039.000000	0.004565
3038.000000	0.004559
3037.000000	0.004555
3036.000000	0.004550
3035.000000	0.004540
3034.000000	0.004527
3033.000000	0.004519
3032.000000	0.004515
3031.000000	0.004507
3030.000000	0.004486
3029.000000	0.004458
3028.000000	0.004437
3027.000000	0.004432
3026.000000	0.004440
3025.000000	0.004446
3024.000000	0.004439
3023.000000	0.004419
3022.000000	0.004392
3021.000000	0.004373
3020.000000	0.004370
3019.000000	0.004380
3018.000000	0.004390
3017.000000	0.004385
3016.000000	0.004359
3015.000000	0.004319
3014.000000	0.004284
3013.000000	0.004267
3012.000000	0.004274
3011.000000	0.004298
3010.000000	0.004328
3009.000000	0.004353
3008.000000	0.004367
3007.000000	0.004372
3006.000000	0.004369
3005.000000	0.004359
3004.000000	0.004343
3003.000000	0.004329
3002.000000	0.004327
3001.000000	0.004335
3000.000000	0.004344
2999.000000	0.004341
2998.000000	0.004325
2997.000000	0.004304
2996.000000	0.004289
2995.000000	0.004282
2994.000000	0.004281
2993.000000	0.004290
2992.000000	0.004311
2991.000000	0.004339
2990.000000	0.004364
2989.000000	0.004381
2988.000000	0.004395
2987.000000	0.004410
2986.000000	0.004427
2985.000000	0.004443
2984.000000	0.004454
2983.000000	0.004463
2982.000000	0.004476
2981.000000	0.004496
2980.000000	0.004520
2979.000000	0.004541
2978.000000	0.004557
2977.000000	0.004573
2976.000000	0.004593
2975.000000	0.004617
2974.000000	0.004642
2973.000000	0.004665
2972.000000	0.004690
2971.000000	0.004722
2970.000000	0.004764
2969.000000	0.004816
2968.000000	0.004876
2967.000000	0.004942
2966.000000	0.005006
2965.000000	0.005062
2964.000000	0.005106
2963.000000	0.005138
2962.000000	0.005162
2961.000000	0.005181
2960.000000	0.005198
2959.000000	0.005213
2958.000000	0.005231
2957.000000	0.005251
2956.000000	0.005270
2955.000000	0.005286
2954.000000	0.005301
2953.000000	0.005317
2952.000000	0.005336
2951.000000	0.005356
2950.000000	0.005373
2949.000000	0.005383
2948.000000	0.005391
2947.000000	0.005401
2946.000000	0.005416
2945.000000	0.005433
2944.000000	0.005442
2943.000000	0.005436
2942.000000	0.005419
2941.000000	0.005409
2940.000000	0.005421
2939.000000	0.005459
2938.000000	0.005507
2937.000000	0.005548
2936.000000	0.005576
2935.000000	0.005597
2934.000000	0.005621
2933.000000	0.005648
2932.000000	0.005678
2931.000000	0.005715
2930.000000	0.005762
2929.000000	0.005821
2928.000000	0.005879
2927.000000	0.005921
2926.000000	0.005942
2925.000000	0.005952
2924.000000	0.005965
2923.000000	0.005992
2922.000000	0.006029
2921.000000	0.006064
2920.000000	0.006089
2919.000000	0.006107
2918.000000	0.006116
2917.000000	0.006112
2916.000000	0.006087
2915.000000	0.006037
2914.000000	0.005967
2913.000000	0.005891
2912.000000	0.005819
2911.000000	0.005757
2910.000000	0.005707
2909.000000	0.005667
2908.000000	0.005640
2907.000000	0.005623
2906.000000	0.005607
2905.000000	0.005581
2904.000000	0.005543
2903.000000	0.005504
2902.000000	0.005471
2901.000000	0.005440
2900.000000	0.005400
2899.000000	0.005348
2898.000000	0.005293
2897.000000	0.005251
2896.000000	0.005229
2895.000000	0.005226
2894.000000	0.005237
2893.000000	0.005250
2892.000000	0.005249
2891.000000	0.005222
2890.000000	0.005169
2889.000000	0.005109
2888.000000	0.005063
2887.000000	0.005045
2886.000000	0.005056
2885.000000	0.005080
2884.000000	0.005101
2883.000000	0.005110
2882.000000	0.005112
2881.000000	0.005120
2880.000000	0.005141
2879.000000	0.005167
2878.000000	0.005183
2877.000000	0.005180
2876.000000	0.005164
2875.000000	0.005149
2874.000000	0.005143
2873.000000	0.005141
2872.000000	0.005131
2871.000000	0.005116
2870.000000	0.005105
2869.000000	0.005108
2868.000000	0.005117
2867.000000	0.005120
2866.000000	0.005109
2865.000000	0.005090
2864.000000	0.005074
2863.000000	0.005069
2862.000000	0.005076
2861.000000	0.005084
2860.000000	0.005081
2859.000000	0.005066
2858.000000	0.005050
2857.000000	0.005045
2856.000000	0.005051
2855.000000	0.005060
2854.000000	0.005069
2853.000000	0.005078
2852.000000	0.005089
2851.000000	0.005095
2850.000000	0.005088
2849.000000	0.005066
2848.000000	0.005033
2847.000000	0.004990
2846.000000	0.004937
2845.000000	0.004883
2844.000000	0.004843
2843.000000	0.004824
2842.000000	0.004823
2841.000000	0.004822
2840.000000	0.004809
2839.000000	0.004783
2838.000000	0.004752
2837.000000	0.004724
2836.000000	0.004695
2835.000000	0.004657
2834.000000	0.004607
2833.000000	0.004557
2832.000000	0.004525
2831.000000	0.004522
2830.000000	0.004541
2829.000000	0.004564
2828.000000	0.004572
2827.000000	0.004559
2826.000000	0.004530
2825.000000	0.004493
2824.000000	0.004460
2823.000000	0.004442
2822.000000	0.004440
2821.000000	0.004441
2820.000000	0.004430
2819.000000	0.004404
2818.000000	0.004378
2817.000000	0.004367
2816.000000	0.004372
2815.000000	0.004379
2814.000000	0.004379
2813.000000	0.004374
2812.000000	0.004366
2811.000000	0.004354
2810.000000	0.004335
2809.000000	0.004312
2808.000000	0.004295
2807.000000	0.004289
2806.000000	0.004290
2805.000000	0.004291
2804.000000	0.004289
2803.000000	0.004285
2802.000000	0.004282
2801.000000	0.004277
2800.000000	0.004267
2799.000000	0.004250
2798.000000	0.004231
2797.000000	0.004213
2796.000000	0.004198
2795.000000	0.004187
2794.000000	0.004179
2793.000000	0.004179
2792.000000	0.004185
2791.000000	0.004192
2790.000000	0.004193
2789.000000	0.004191
2788.000000	0.004188
2787.000000	0.004189
2786.000000	0.004190
2785.000000	0.004188
2784.000000	0.004183
2783.000000	0.004173
2782.000000	0.004154
2781.000000	0.004130
2780.000000	0.004111
2779.000000	0.004105
2778.000000	0.004113
2777.000000	0.004126
2776.000000	0.004136
2775.000000	0.004139
2774.000000	0.004135
2773.000000	0.004126
2772.000000	0.004116
2771.000000	0.004108
2770.000000	0.004102
2769.000000	0.004098
2768.000000	0.004096
2767.000000	0.004097
2766.000000	0.004098
2765.000000	0.004097
2764.000000	0.004091
2763.000000	0.004088
2762.000000	0.004093
2761.000000	0.004107
2760.000000	0.004128
2759.000000	0.004147
2758.000000	0.004157
2757.000000	0.004153
2756.000000	0.004135
2755.000000	0.004109
2754.000000	0.004084
2753.000000	0.004071
2752.000000	0.004075
2751.000000	0.004095
2750.000000	0.004122
2749.000000	0.004144
2748.000000	0.004152
2747.000000	0.004149
2746.000000	0.004141
2745.000000	0.004134
2744.000000	0.004131
2743.000000	0.004127
2742.000000	0.004119
2741.000000	0.004109
2740.000000	0.004096
2739.000000	0.004084
2738.000000	0.004077
2737.000000	0.004072
2736.000000	0.004070
2735.000000	0.004072
2734.000000	0.004078
2733.000000	0.004087
2732.000000	0.004094
2731.000000	0.004095
2730.000000	0.004093
2729.000000	0.004091
2728.000000	0.004093
2727.000000	0.004098
2726.000000	0.004102
2725.000000	0.004101
2724.000000	0.004087
2723.000000	0.004063
2722.000000	0.004036
2721.000000	0.004018
2720.000000	0.004015
2719.000000	0.004018
2718.000000	0.004019
2717.000000	0.004013
2716.000000	0.004005
2715.000000	0.004000
2714.000000	0.003999
2713.000000	0.004002
2712.000000	0.004007
2711.000000	0.004016
2710.000000	0.004031
2709.000000	0.004050
2708.000000	0.004067
2707.000000	0.004074
2706.000000	0.004070
2705.000000	0.004059
2704.000000	0.004047
2703.000000	0.004038
2702.000000	0.004029
2701.000000	0.004016
2700.000000	0.003999
2699.000000	0.003977
2698.000000	0.003956
2697.000000	0.003944
2696.000000	0.003949
2695.000000	0.003965
2694.000000	0.003978
2693.000000	0.003976
2692.000000	0.003961
2691.000000	0.003946
2690.000000	0.003946
2689.000000	0.003960
2688.000000	0.003980
2687.000000	0.003994
2686.000000	0.003994
2685.000000	0.003985
2684.000000	0.003974
2683.000000	0.003965
2682.000000	0.003957
2681.000000	0.003947
2680.000000	0.003938
2679.000000	0.003936
2678.000000	0.003942
2677.000000	0.003948
2676.000000	0.003947
2675.000000	0.003936
2674.000000	0.003922
2673.000000	0.003907
2672.000000	0.003897
2671.000000	0.003891
2670.000000	0.003887
2669.000000	0.003882
2668.000000	0.003878
2667.000000	0.003877
2666.000000	0.003881
2665.000000	0.003890
2664.000000	0.003903
2663.000000	0.003917
2662.000000	0.003932
2661.000000	0.003943
2660.000000	0.003945
2659.000000	0.003944
2658.000000	0.003949
2657.000000	0.003964
2656.000000	0.003984
2655.000000	0.003996
2654.000000	0.003992
2653.000000	0.003973
2652.000000	0.003946
2651.000000	0.003920
2650.000000	0.003899
2649.000000	0.003882
2648.000000	0.003868
2647.000000	0.003857
2646.000000	0.003847
2645.000000	0.003840
2644.000000	0.003833
2643.000000	0.003827
2642.000000	0.003820
2641.000000	0.003812
2640.000000	0.003809
2639.000000	0.003817
2638.000000	0.003831
2637.000000	0.003836
2636.000000	0.003821
2635.000000	0.003792
2634.000000	0.003767
2633.000000	0.003755
2632.000000	0.003749
2631.000000	0.003736
2630.000000	0.003711
2629.000000	0.003684
2628.000000	0.003665
2627.000000	0.003654
2626.000000	0.003645
2625.000000	0.003632
2624.000000	0.003614
2623.000000	0.003597
2622.000000	0.003587
2621.000000	0.003584
2620.000000	0.003584
2619.000000	0.003583
2618.000000	0.003582
2617.000000	0.003582
2616.000000	0.003584
2615.000000	0.003589
2614.000000	0.003593
2613.000000	0.003588
2612.000000	0.003566
2611.000000	0.003535
2610.000000	0.003509
2609.000000	0.003496
2608.000000	0.003495
2607.000000	0.003501
2606.000000	0.003516
2605.000000	0.003542
2604.000000	0.003570
2603.000000	0.003582
2602.000000	0.003567
2601.000000	0.003528
2600.000000	0.003479
2599.000000	0.003435
2598.000000	0.003405
2597.000000	0.003390
2596.000000	0.003387
2595.000000	0.003389
2594.000000	0.003390
2593.000000	0.003388
2592.000000	0.003388
2591.000000	0.003393
2590.000000	0.003399
2589.000000	0.003398
2588.000000	0.003387
2587.000000	0.003378
2586.000000	0.003381
2585.000000	0.003395
2584.000000	0.003410
2583.000000	0.003413
2582.000000	0.003402
2581.000000	0.003385
2580.000000	0.003373
2579.000000	0.003375
2578.000000	0.003385
2577.000000	0.003394
2576.000000	0.003392
2575.000000	0.003381
2574.000000	0.003371
2573.000000	0.003366
2572.000000	0.003361
2571.000000	0.003349
2570.000000	0.003330
2569.000000	0.003317
2568.000000	0.003323
2567.000000	0.003347
2566.000000	0.003379
2565.000000	0.003400
2564.000000	0.003406
2563.000000	0.003402
2562.000000	0.003401
2561.000000	0.003401
2560.000000	0.003392
2559.000000	0.003364
2558.000000	0.003320
2557.000000	0.003271
2556.000000	0.003233
2555.000000	0.003217
2554.000000	0.003221
2553.000000	0.003232
2552.000000	0.003240
2551.000000	0.003243
2550.000000	0.003253
2549.000000	0.003271
2548.000000	0.003286
2547.000000	0.003286
2546.000000	0.003274
2545.000000	0.003268
2544.000000	0.003272
2543.000000	0.003279
2542.000000	0.003285
2541.000000	0.003299
2540.000000	0.003334
2539.000000	0.003378
2538.000000	0.003398
2537.000000	0.003374
2536.000000	0.003320
2535.000000	0.003268
2534.000000	0.003229
2533.000000	0.003193
2532.000000	0.003156
2531.000000	0.003137
2530.000000	0.003150
2529.000000	0.003186
2528.000000	0.003219
2527.000000	0.003230
2526.000000	0.003221
2525.000000	0.003202
2524.000000	0.003181
2523.000000	0.003166
2522.000000	0.003157
2521.000000	0.003150
2520.000000	0.003141
2519.000000	0.003142
2518.000000	0.003164
2517.000000	0.003204
2516.000000	0.003247
2515.000000	0.003280
2514.000000	0.003300
2513.000000	0.003310
2512.000000	0.003312
2511.000000	0.003308
2510.000000	0.003299
2509.000000	0.003289
2508.000000	0.003282
2507.000000	0.003282
2506.000000	0.003286
2505.000000	0.003285
2504.000000	0.003280
2503.000000	0.003282
2502.000000	0.003302
2501.000000	0.003331
2500.000000	0.003345
2499.000000	0.003335
2498.000000	0.003311
2497.000000	0.003291
2496.000000	0.003281
2495.000000	0.003283
2494.000000	0.003297
2493.000000	0.003314
2492.000000	0.003321
2491.000000	0.003310
2490.000000	0.003287
2489.000000	0.003259
2488.000000	0.003233
2487.000000	0.003211
2486.000000	0.003194
2485.000000	0.003171
2484.000000	0.003136
2483.000000	0.003096
2482.000000	0.003074
2481.000000	0.003083
2480.000000	0.003112
2479.000000	0.003142
2478.000000	0.003164
2477.000000	0.003177
2476.000000	0.003177
2475.000000	0.003159
2474.000000	0.003133
2473.000000	0.003118
2472.000000	0.003120
2471.000000	0.003139
2470.000000	0.003166
2469.000000	0.003194
2468.000000	0.003215
2467.000000	0.003222
2466.000000	0.003214
2465.000000	0.003195
2464.000000	0.003168
2463.000000	0.003133
2462.000000	0.003100
2461.000000	0.003084
2460.000000	0.003089
2459.000000	0.003107
2458.000000	0.003126
2457.000000	0.003135
2456.000000	0.003136
2455.000000	0.003138
2454.000000	0.003150
2453.000000	0.003170
2452.000000	0.003178
2451.000000	0.003160
2450.000000	0.003125
2449.000000	0.003098
2448.000000	0.003099
2447.000000	0.003126
2446.000000	0.003162
2445.000000	0.003186
2444.000000	0.003188
2443.000000	0.003179
2442.000000	0.003180
2441.000000	0.003205
2440.000000	0.003243
2439.000000	0.003268
2438.000000	0.003266
2437.000000	0.003241
2436.000000	0.003203
2435.000000	0.003163
2434.000000	0.003130
2433.000000	0.003113
2432.000000	0.003107
2431.000000	0.003103
2430.000000	0.003095
2429.000000	0.003086
2428.000000	0.003083
2427.000000	0.003087
2426.000000	0.003098
2425.000000	0.003117
2424.000000	0.003142
2423.000000	0.003163
2422.000000	0.003174
2421.000000	0.003176
2420.000000	0.003175
2419.000000	0.003170
2418.000000	0.003159
2417.000000	0.003148
2416.000000	0.003146
2415.000000	0.003156
2414.000000	0.003174
2413.000000	0.003187
2412.000000	0.003180
2411.000000	0.003148
2410.000000	0.003102
2409.000000	0.003065
2408.000000	0.003051
2407.000000	0.003060
2406.000000	0.003084
2405.000000	0.003112
2404.000000	0.003131
2403.000000	0.003127
2402.000000	0.003092
2401.000000	0.003041
2400.000000	0.003006
2399.000000	0.003010
2398.000000	0.003045
2397.000000	0.003080
2396.000000	0.003092
2395.000000	0.003088
2394.000000	0.003090
2393.000000	0.003108
2392.000000	0.003127
2391.000000	0.003124
2390.000000	0.003100
2389.000000	0.003075
2388.000000	0.003064
2387.000000	0.003064
2386.000000	0.003062
2385.000000	0.003051
2384.000000	0.003038
2383.000000	0.003029
2382.000000	0.003029
2381.000000	0.003042
2380.000000	0.003064
2379.000000	0.003087
2378.000000	0.003096
2377.000000	0.003080
2376.000000	0.003038
2375.000000	0.002986
2374.000000	0.002948
2373.000000	0.002936
2372.000000	0.002948
2371.000000	0.002969
2370.000000	0.002991
2369.000000	0.003017
2368.000000	0.003055
2367.000000	0.003100
2366.000000	0.003141
2365.000000	0.003159
2364.000000	0.003137
2363.000000	0.003078
2362.000000	0.003024
2361.000000	0.003009
2360.000000	0.003025
2359.000000	0.003024
2358.000000	0.002973
2357.000000	0.002899
2356.000000	0.002847
2355.000000	0.002835
2354.000000	0.002862
2353.000000	0.002918
2352.000000	0.002979
2351.000000	0.003020
2350.000000	0.003039
2349.000000	0.003046
2348.000000	0.003050
2347.000000	0.003057
2346.000000	0.003064
2345.000000	0.003070
2344.000000	0.003077
2343.000000	0.003098
2342.000000	0.003131
2341.000000	0.003147
2340.000000	0.003130
2339.000000	0.003091
2338.000000	0.003053
2337.000000	0.003040
2336.000000	0.003058
2335.000000	0.003095
2334.000000	0.003135
2333.000000	0.003166
2332.000000	0.003184
2331.000000	0.003184
2330.000000	0.003175
2329.000000	0.003165
2328.000000	0.003165
2327.000000	0.003189
2326.000000	0.003239
2325.000000	0.003309
2324.000000	0.003371
2323.000000	0.003405
2322.000000	0.003409
2321.000000	0.003402
2320.000000	0.003403
2319.000000	0.003412
2318.000000	0.003416
2317.000000	0.003395
2316.000000	0.003348
2315.000000	0.003293
2314.000000	0.003253
2313.000000	0.003243
2312.000000	0.003255
2311.000000	0.003269
2310.000000	0.003267
2309.000000	0.003236
2308.000000	0.003179
2307.000000	0.003120
2306.000000	0.003091
2305.000000	0.003113
2304.000000	0.003175
2303.000000	0.003251
2302.000000	0.003319
2301.000000	0.003361
2300.000000	0.003374
2299.000000	0.003363
2298.000000	0.003349
2297.000000	0.003350
2296.000000	0.003363
2295.000000	0.003366
2294.000000	0.003347
2293.000000	0.003320
2292.000000	0.003307
2291.000000	0.003313
2290.000000	0.003326
2289.000000	0.003335
2288.000000	0.003337
2287.000000	0.003332
2286.000000	0.003322
2285.000000	0.003313
2284.000000	0.003305
2283.000000	0.003296
2282.000000	0.003287
2281.000000	0.003288
2280.000000	0.003304
2279.000000	0.003322
2278.000000	0.003311
2277.000000	0.003260
2276.000000	0.003187
2275.000000	0.003129
2274.000000	0.003111
2273.000000	0.003144
2272.000000	0.003220
2271.000000	0.003317
2270.000000	0.003394
2269.000000	0.003412
2268.000000	0.003360
2267.000000	0.003269
2266.000000	0.003185
2265.000000	0.003136
2264.000000	0.003122
2263.000000	0.003123
2262.000000	0.003124
2261.000000	0.003118
2260.000000	0.003100
2259.000000	0.003069
2258.000000	0.003039
2257.000000	0.003025
2256.000000	0.003029
2255.000000	0.003038
2254.000000	0.003039
2253.000000	0.003032
2252.000000	0.003019
2251.000000	0.002998
2250.000000	0.002974
2249.000000	0.002964
2248.000000	0.002978
2247.000000	0.002993
2246.000000	0.002967
2245.000000	0.002900
2244.000000	0.002848
2243.000000	0.002876
2242.000000	0.002978
2241.000000	0.003084
2240.000000	0.003125
2239.000000	0.003098
2238.000000	0.003046
2237.000000	0.003008
2236.000000	0.003002
2235.000000	0.003032
2234.000000	0.003095
2233.000000	0.003162
2232.000000	0.003187
2231.000000	0.003136
2230.000000	0.003031
2229.000000	0.002927
2228.000000	0.002862
2227.000000	0.002833
2226.000000	0.002817
2225.000000	0.002807
2224.000000	0.002821
2223.000000	0.002869
2222.000000	0.002939
2221.000000	0.003007
2220.000000	0.003052
2219.000000	0.003064
2218.000000	0.003032
2217.000000	0.002963
2216.000000	0.002894
2215.000000	0.002876
2214.000000	0.002928
2213.000000	0.003005
2212.000000	0.003039
2211.000000	0.003000
2210.000000	0.002924
2209.000000	0.002870
2208.000000	0.002866
2207.000000	0.002890
2206.000000	0.002902
2205.000000	0.002881
2204.000000	0.002847
2203.000000	0.002851
2202.000000	0.002919
2201.000000	0.003023
2200.000000	0.003088
2199.000000	0.003053
2198.000000	0.002919
2197.000000	0.002759
2196.000000	0.002671
2195.000000	0.002708
2194.000000	0.002844
2193.000000	0.002983
2192.000000	0.003033
2191.000000	0.002977
2190.000000	0.002870
2189.000000	0.002792
2188.000000	0.002790
2187.000000	0.002858
2186.000000	0.002951
2185.000000	0.003010
2184.000000	0.002997
2183.000000	0.002916
2182.000000	0.002811
2181.000000	0.002738
2180.000000	0.002714
2179.000000	0.002704
2178.000000	0.002649
2177.000000	0.002537
2176.000000	0.002447
2175.000000	0.002490
2174.000000	0.002693
2173.000000	0.002946
2172.000000	0.003100
2171.000000	0.003102
2170.000000	0.003017
2169.000000	0.002926
2168.000000	0.002855
2167.000000	0.002780
2166.000000	0.002665
2165.000000	0.002501
2164.000000	0.002329
2163.000000	0.002231
2162.000000	0.002254
2161.000000	0.002339
2160.000000	0.002355
2159.000000	0.002230
2158.000000	0.002011
2157.000000	0.001791
2156.000000	0.001632
2155.000000	0.001579
2154.000000	0.001657
2153.000000	0.001819
2152.000000	0.001961
2151.000000	0.002018
2150.000000	0.002012
2149.000000	0.001996
2148.000000	0.002004
2147.000000	0.002061
2146.000000	0.002182
2145.000000	0.002331
2144.000000	0.002431
2143.000000	0.002443
2142.000000	0.002396
2141.000000	0.002323
2140.000000	0.002230
2139.000000	0.002143
2138.000000	0.002140
2137.000000	0.002255
2136.000000	0.002401
2135.000000	0.002449
2134.000000	0.002374
2133.000000	0.002274
2132.000000	0.002249
2131.000000	0.002310
2130.000000	0.002403
2129.000000	0.002469
2128.000000	0.002487
2127.000000	0.002485
2126.000000	0.002521
2125.000000	0.002619
2124.000000	0.002727
2123.000000	0.002767
2122.000000	0.002724
2121.000000	0.002666
2120.000000	0.002666
2119.000000	0.002730
2118.000000	0.002813
2117.000000	0.002881
2116.000000	0.002927
2115.000000	0.002957
2114.000000	0.002975
2113.000000	0.002988
2112.000000	0.003005
2111.000000	0.003028
2110.000000	0.003053
2109.000000	0.003066
2108.000000	0.003049
2107.000000	0.002998
2106.000000	0.002927
2105.000000	0.002870
2104.000000	0.002858
2103.000000	0.002897
2102.000000	0.002954
2101.000000	0.002983
2100.000000	0.002956
2099.000000	0.002889
2098.000000	0.002821
2097.000000	0.002785
2096.000000	0.002791
2095.000000	0.002838
2094.000000	0.002905
2093.000000	0.002955
2092.000000	0.002956
2091.000000	0.002925
2090.000000	0.002910
2089.000000	0.002931
2088.000000	0.002950
2087.000000	0.002928
2086.000000	0.002884
2085.000000	0.002864
2084.000000	0.002873
2083.000000	0.002873
2082.000000	0.002842
2081.000000	0.002799
2080.000000	0.002776
2079.000000	0.002778
2078.000000	0.002801
2077.000000	0.002836
2076.000000	0.002859
2075.000000	0.002839
2074.000000	0.002781
2073.000000	0.002733
2072.000000	0.002740
2071.000000	0.002792
2070.000000	0.002841
2069.000000	0.002846
2068.000000	0.002810
2067.000000	0.002761
2066.000000	0.002722
2065.000000	0.002696
2064.000000	0.002667
2063.000000	0.002624
2062.000000	0.002565
2061.000000	0.002497
2060.000000	0.002440
2059.000000	0.002434
2058.000000	0.002510
2057.000000	0.002631
2056.000000	0.002710
2055.000000	0.002707
2054.000000	0.002691
2053.000000	0.002749
2052.000000	0.002867
2051.000000	0.002954
2050.000000	0.002958
2049.000000	0.002922
2048.000000	0.002884
2047.000000	0.002795
2046.000000	0.002589
2045.000000	0.002301
2044.000000	0.002058
2043.000000	0.001960
2042.000000	0.002014
2041.000000	0.002172
2040.000000	0.002393
2039.000000	0.002646
2038.000000	0.002862
2037.000000	0.002924
2036.000000	0.002753
2035.000000	0.002417
2034.000000	0.002107
2033.000000	0.001980
2032.000000	0.002054
2031.000000	0.002253
2030.000000	0.002492
2029.000000	0.002657
2028.000000	0.002625
2027.000000	0.002402
2026.000000	0.002169
2025.000000	0.002090
2024.000000	0.002113
2023.000000	0.002077
2022.000000	0.001963
2021.000000	0.001911
2020.000000	0.001986
2019.000000	0.002089
2018.000000	0.002110
2017.000000	0.002065
2016.000000	0.002025
2015.000000	0.002018
2014.000000	0.002040
2013.000000	0.002089
2012.000000	0.002126
2011.000000	0.002103
2010.000000	0.002044
2009.000000	0.002046
2008.000000	0.002135
2007.000000	0.002209
2006.000000	0.002185
2005.000000	0.002110
2004.000000	0.002080
2003.000000	0.002120
2002.000000	0.002203
2001.000000	0.002322
2000.000000	0.002474
1999.000000	0.002621
1998.000000	0.002715
1997.000000	0.002742
1996.000000	0.002715
1995.000000	0.002659
1994.000000	0.002606
1993.000000	0.002594
1992.000000	0.002618
1991.000000	0.002627
1990.000000	0.002604
1989.000000	0.002594
1988.000000	0.002633
1987.000000	0.002686
1986.000000	0.002705
1985.000000	0.002705
1984.000000	0.002731
1983.000000	0.002769
1982.000000	0.002743
1981.000000	0.002586
1980.000000	0.002298
1979.000000	0.001927
1978.000000	0.001555
1977.000000	0.001295
1976.000000	0.001240
1975.000000	0.001391
1974.000000	0.001655
1973.000000	0.001900
1972.000000	0.002023
1971.000000	0.002010
1970.000000	0.001939
1969.000000	0.001894
1968.000000	0.001892
1967.000000	0.001907
1966.000000	0.001949
1965.000000	0.002066
1964.000000	0.002254
1963.000000	0.002426
1962.000000	0.002504
1961.000000	0.002489
1960.000000	0.002436
1959.000000	0.002374
1958.000000	0.002300
1957.000000	0.002231
1956.000000	0.002212
1955.000000	0.002272
1954.000000	0.002391
1953.000000	0.002517
1952.000000	0.002597
1951.000000	0.002608
1950.000000	0.002557
1949.000000	0.002463
1948.000000	0.002348
1947.000000	0.002241
1946.000000	0.002189
1945.000000	0.002214
1944.000000	0.002280
1943.000000	0.002325
1942.000000	0.002338
1941.000000	0.002363
1940.000000	0.002409
1939.000000	0.002417
1938.000000	0.002332
1937.000000	0.002190
1936.000000	0.002086
1935.000000	0.002076
1934.000000	0.002133
1933.000000	0.002209
1932.000000	0.002290
1931.000000	0.002378
1930.000000	0.002449
1929.000000	0.002463
1928.000000	0.002410
1927.000000	0.002331
1926.000000	0.002280
1925.000000	0.002268
1924.000000	0.002269
1923.000000	0.002254
1922.000000	0.002229
1921.000000	0.002225
1920.000000	0.002258
1919.000000	0.002323
1918.000000	0.002402
1917.000000	0.002462
1916.000000	0.002482
1915.000000	0.002476
1914.000000	0.002480
1913.000000	0.002506
1912.000000	0.002521
1911.000000	0.002493
1910.000000	0.002435
1909.000000	0.002387
1908.000000	0.002352
1907.000000	0.002304
1906.000000	0.002247
1905.000000	0.002228
1904.000000	0.002280
1903.000000	0.002375
1902.000000	0.002452
1901.000000	0.002470
1900.000000	0.002423
1899.000000	0.002333
1898.000000	0.002242
1897.000000	0.002188
1896.000000	0.002175
1895.000000	0.002176
1894.000000	0.002180
1893.000000	0.002204
1892.000000	0.002252
1891.000000	0.002304
1890.000000	0.002336
1889.000000	0.002354
1888.000000	0.002372
1887.000000	0.002397
1886.000000	0.002418
1885.000000	0.002417
1884.000000	0.002374
1883.000000	0.002285
1882.000000	0.002180
1881.000000	0.002104
1880.000000	0.002073
1879.000000	0.002077
1878.000000	0.002106
1877.000000	0.002154
1876.000000	0.002199
1875.000000	0.002212
1874.000000	0.002185
1873.000000	0.002143
1872.000000	0.002113
1871.000000	0.002102
1870.000000	0.002120
1869.000000	0.002181
1868.000000	0.002252
1867.000000	0.002270
1866.000000	0.002225
1865.000000	0.002170
1864.000000	0.002144
1863.000000	0.002144
1862.000000	0.002151
1861.000000	0.002165
1860.000000	0.002189
1859.000000	0.002204
1858.000000	0.002194
1857.000000	0.002171
1856.000000	0.002161
1855.000000	0.002176
1854.000000	0.002210
1853.000000	0.002249
1852.000000	0.002270
1851.000000	0.002255
1850.000000	0.002219
1849.000000	0.002193
1848.000000	0.002182
1847.000000	0.002161
1846.000000	0.002116
1845.000000	0.002073
1844.000000	0.002073
1843.000000	0.002098
1842.000000	0.002103
1841.000000	0.002089
1840.000000	0.002077
1839.000000	0.002080
1838.000000	0.002093
1837.000000	0.002111
1836.000000	0.002129
1835.000000	0.002136
1834.000000	0.002125
1833.000000	0.002104
1832.000000	0.002078
1831.000000	0.002047
1830.000000	0.002019
1829.000000	0.002002
1828.000000	0.002000
1827.000000	0.002010
1826.000000	0.002032
1825.000000	0.002060
1824.000000	0.002084
1823.000000	0.002087
1822.000000	0.002064
1821.000000	0.002033
1820.000000	0.002007
1819.000000	0.001984
1818.000000	0.001957
1817.000000	0.001934
1816.000000	0.001925
1815.000000	0.001925
1814.000000	0.001918
1813.000000	0.001906
1812.000000	0.001905
1811.000000	0.001913
1810.000000	0.001920
1809.000000	0.001931
1808.000000	0.001951
1807.000000	0.001962
1806.000000	0.001947
1805.000000	0.001918
1804.000000	0.001897
1803.000000	0.001886
1802.000000	0.001876
1801.000000	0.001874
1800.000000	0.001889
1799.000000	0.001904
1798.000000	0.001898
1797.000000	0.001884
1796.000000	0.001880
1795.000000	0.001885
1794.000000	0.001886
1793.000000	0.001892
1792.000000	0.001924
1791.000000	0.001958
1790.000000	0.001950
1789.000000	0.001912
1788.000000	0.001887
1787.000000	0.001892
1786.000000	0.001917
1785.000000	0.001939
1784.000000	0.001941
1783.000000	0.001917
1782.000000	0.001881
1781.000000	0.001850
1780.000000	0.001829
1779.000000	0.001812
1778.000000	0.001795
1777.000000	0.001779
1776.000000	0.001762
1775.000000	0.001741
1774.000000	0.001719
1773.000000	0.001716
1772.000000	0.001754
1771.000000	0.001806
1770.000000	0.001827
1769.000000	0.001826
1768.000000	0.001828
1767.000000	0.001833
1766.000000	0.001817
1765.000000	0.001771
1764.000000	0.001712
1763.000000	0.001675
1762.000000	0.001687
1761.000000	0.001739
1760.000000	0.001797
1759.000000	0.001845
1758.000000	0.001890
1757.000000	0.001937
1756.000000	0.001986
1755.000000	0.002041
1754.000000	0.002113
1753.000000	0.002199
1752.000000	0.002270
1751.000000	0.002307
1750.000000	0.002326
1749.000000	0.002361
1748.000000	0.002417
1747.000000	0.002478
1746.000000	0.002532
1745.000000	0.002581
1744.000000	0.002627
1743.000000	0.002665
1742.000000	0.002681
1741.000000	0.002678
1740.000000	0.002668
1739.000000	0.002652
1738.000000	0.002624
1737.000000	0.002591
1736.000000	0.002564
1735.000000	0.002524
1734.000000	0.002485
1733.000000	0.002460
1732.000000	0.002422
1731.000000	0.002377
1730.000000	0.002347
1729.000000	0.002332
1728.000000	0.002315
1727.000000	0.002284
1726.000000	0.002241
1725.000000	0.002201
1724.000000	0.002180
1723.000000	0.002169
1722.000000	0.002146
1721.000000	0.002104
1720.000000	0.002060
1719.000000	0.002015
1718.000000	0.001967
1717.000000	0.001949
1716.000000	0.001976
1715.000000	0.002016
1714.000000	0.002052
1713.000000	0.002093
1712.000000	0.002147
1711.000000	0.002205
1710.000000	0.002253
1709.000000	0.002286
1708.000000	0.002311
1707.000000	0.002339
1706.000000	0.002377
1705.000000	0.002435
1704.000000	0.002503
1703.000000	0.002570
1702.000000	0.002634
1701.000000	0.002695
1700.000000	0.002782
1699.000000	0.002870
1698.000000	0.002940
1697.000000	0.003068
1696.000000	0.003275
1695.000000	0.003456
1694.000000	0.003535
1693.000000	0.003575
1692.000000	0.003647
1691.000000	0.003750
1690.000000	0.003860
1689.000000	0.003973
1688.000000	0.004093
1687.000000	0.004216
1686.000000	0.004332
1685.000000	0.004455
1684.000000	0.004637
1683.000000	0.004811
1682.000000	0.004914
1681.000000	0.005017
1680.000000	0.005138
1679.000000	0.005250
1678.000000	0.005355
1677.000000	0.005481
1676.000000	0.005640
1675.000000	0.005799
1674.000000	0.005923
1673.000000	0.006019
1672.000000	0.006128
1671.000000	0.006273
1670.000000	0.006468
1669.000000	0.006697
1668.000000	0.006897
1667.000000	0.007039
1666.000000	0.007156
1665.000000	0.007287
1664.000000	0.007444
1663.000000	0.007603
1662.000000	0.007739
1661.000000	0.007855
1660.000000	0.007970
1659.000000	0.008093
1658.000000	0.008226
1657.000000	0.008375
1656.000000	0.008543
1655.000000	0.008708
1654.000000	0.008799
1653.000000	0.008859
1652.000000	0.008913
1651.000000	0.008915
1650.000000	0.008918
1649.000000	0.008951
1648.000000	0.008984
1647.000000	0.008998
1646.000000	0.009009
1645.000000	0.009042
1644.000000	0.009107
1643.000000	0.009196
1642.000000	0.009293
1641.000000	0.009384
1640.000000	0.009457
1639.000000	0.009510
1638.000000	0.009546
1637.000000	0.009555
1636.000000	0.009546
1635.000000	0.009544
1634.000000	0.009543
1633.000000	0.009548
1632.000000	0.009566
1631.000000	0.009583
1630.000000	0.009590
1629.000000	0.009587
1628.000000	0.009575
1627.000000	0.009546
1626.000000	0.009501
1625.000000	0.009451
1624.000000	0.009395
1623.000000	0.009332
1622.000000	0.009268
1621.000000	0.009209
1620.000000	0.009157
1619.000000	0.009097
1618.000000	0.008994
1617.000000	0.008837
1616.000000	0.008672
1615.000000	0.008543
1614.000000	0.008461
1613.000000	0.008408
1612.000000	0.008339
1611.000000	0.008231
1610.000000	0.008106
1609.000000	0.007987
1608.000000	0.007864
1607.000000	0.007725
1606.000000	0.007595
1605.000000	0.007491
1604.000000	0.007399
1603.000000	0.007304
1602.000000	0.007217
1601.000000	0.007152
1600.000000	0.007101
1599.000000	0.007047
1598.000000	0.006987
1597.000000	0.006924
1596.000000	0.006862
1595.000000	0.006800
1594.000000	0.006745
1593.000000	0.006697
1592.000000	0.006647
1591.000000	0.006590
1590.000000	0.006536
1589.000000	0.006494
1588.000000	0.006459
1587.000000	0.006428
1586.000000	0.006408
1585.000000	0.006405
1584.000000	0.006408
1583.000000	0.006412
1582.000000	0.006425
1581.000000	0.006445
1580.000000	0.006461
1579.000000	0.006473
1578.000000	0.006485
1577.000000	0.006482
1576.000000	0.006454
1575.000000	0.006417
1574.000000	0.006404
1573.000000	0.006428
1572.000000	0.006472
1571.000000	0.006498
1570.000000	0.006493
1569.000000	0.006483
1568.000000	0.006477
1567.000000	0.006487
1566.000000	0.006523
1565.000000	0.006574
1564.000000	0.006616
1563.000000	0.006670
1562.000000	0.006756
1561.000000	0.006871
1560.000000	0.006889
1559.000000	0.006863
1558.000000	0.006929
1557.000000	0.006999
1556.000000	0.007054
1555.000000	0.007116
1554.000000	0.007169
1553.000000	0.007215
1552.000000	0.007264
1551.000000	0.007325
1550.000000	0.007383
1549.000000	0.007427
1548.000000	0.007468
1547.000000	0.007521
1546.000000	0.007586
1545.000000	0.007651
1544.000000	0.007703
1543.000000	0.007735
1542.000000	0.007741
1541.000000	0.007736
1540.000000	0.007769
1539.000000	0.007806
1538.000000	0.007780
1537.000000	0.007731
1536.000000	0.007701
1535.000000	0.007675
1534.000000	0.007619
1533.000000	0.007542
1532.000000	0.007480
1531.000000	0.007435
1530.000000	0.007393
1529.000000	0.007342
1528.000000	0.007280
1527.000000	0.007203
1526.000000	0.007105
1525.000000	0.007002
1524.000000	0.006922
1523.000000	0.006865
1522.000000	0.006818
1521.000000	0.006786
1520.000000	0.006757
1519.000000	0.006717
1518.000000	0.006674
1517.000000	0.006638
1516.000000	0.006612
1515.000000	0.006585
1514.000000	0.006551
1513.000000	0.006507
1512.000000	0.006454
1511.000000	0.006401
1510.000000	0.006345
1509.000000	0.006272
1508.000000	0.006142
1507.000000	0.005972
1506.000000	0.005820
1505.000000	0.005695
1504.000000	0.005604
1503.000000	0.005540
1502.000000	0.005486
1501.000000	0.005434
1500.000000	0.005385
1499.000000	0.005342
1498.000000	0.005277
1497.000000	0.005174
1496.000000	0.005066
1495.000000	0.004977
1494.000000	0.004901
1493.000000	0.004837
1492.000000	0.004787
1491.000000	0.004739
1490.000000	0.004690
1489.000000	0.004656
1488.000000	0.004648
1487.000000	0.004648
1486.000000	0.004641
1485.000000	0.004647
1484.000000	0.004680
1483.000000	0.004734
1482.000000	0.004785
1481.000000	0.004822
1480.000000	0.004852
1479.000000	0.004880
1478.000000	0.004907
1477.000000	0.004939
1476.000000	0.004987
1475.000000	0.005043
1474.000000	0.005096
1473.000000	0.005167
1472.000000	0.005281
1471.000000	0.005406
1470.000000	0.005508
1469.000000	0.005594
1468.000000	0.005675
1467.000000	0.005744
1466.000000	0.005801
1465.000000	0.005867
1464.000000	0.005955
1463.000000	0.006045
1462.000000	0.006116
1461.000000	0.006172
1460.000000	0.006231
1459.000000	0.006306
1458.000000	0.006400
1457.000000	0.006508
1456.000000	0.006589
1455.000000	0.006623
1454.000000	0.006652
1453.000000	0.006697
1452.000000	0.006753
1451.000000	0.006808
1450.000000	0.006854
1449.000000	0.006890
1448.000000	0.006917
1447.000000	0.006936
1446.000000	0.006951
1445.000000	0.006962
1444.000000	0.006966
1443.000000	0.006961
1442.000000	0.006951
1441.000000	0.006944
1440.000000	0.006952
1439.000000	0.006985
1438.000000	0.007029
1437.000000	0.007059
1436.000000	0.007070
1435.000000	0.007072
1434.000000	0.007072
1433.000000	0.007070
1432.000000	0.007066
1431.000000	0.007062
1430.000000	0.007061
1429.000000	0.007060
1428.000000	0.007063
1427.000000	0.007084
1426.000000	0.007123
1425.000000	0.007158
1424.000000	0.007170
1423.000000	0.007178
1422.000000	0.007198
1421.000000	0.007213
1420.000000	0.007184
1419.000000	0.007133
1418.000000	0.007113
1417.000000	0.007133
1416.000000	0.007172
1415.000000	0.007210
1414.000000	0.007233
1413.000000	0.007229
1412.000000	0.007199
1411.000000	0.007153
1410.000000	0.007101
1409.000000	0.007055
1408.000000	0.007025
1407.000000	0.007014
1406.000000	0.007007
1405.000000	0.006979
1404.000000	0.006929
1403.000000	0.006890
1402.000000	0.006883
1401.000000	0.006890
1400.000000	0.006877
1399.000000	0.006843
1398.000000	0.006812
1397.000000	0.006788
1396.000000	0.006752
1395.000000	0.006699
1394.000000	0.006652
1393.000000	0.006625
1392.000000	0.006614
1391.000000	0.006612
1390.000000	0.006609
1389.000000	0.006594
1388.000000	0.006555
1387.000000	0.006499
1386.000000	0.006448
1385.000000	0.006418
1384.000000	0.006404
1383.000000	0.006402
1382.000000	0.006416
1381.000000	0.006451
1380.000000	0.006500
1379.000000	0.006539
1378.000000	0.006550
1377.000000	0.006537
1376.000000	0.006508
1375.000000	0.006464
1374.000000	0.006410
1373.000000	0.006350
1372.000000	0.006294
1371.000000	0.006246
1370.000000	0.006203
1369.000000	0.006159
1368.000000	0.006119
1367.000000	0.006096
1366.000000	0.006094
1365.000000	0.006097
1364.000000	0.006076
1363.000000	0.006025
1362.000000	0.005961
1361.000000	0.005902
1360.000000	0.005848
1359.000000	0.005795
1358.000000	0.005741
1357.000000	0.005690
1356.000000	0.005643
1355.000000	0.005607
1354.000000	0.005584
1353.000000	0.005561
1352.000000	0.005523
1351.000000	0.005467
1350.000000	0.005415
1349.000000	0.005390
1348.000000	0.005396
1347.000000	0.005415
1346.000000	0.005433
1345.000000	0.005442
1344.000000	0.005448
1343.000000	0.005462
1342.000000	0.005492
1341.000000	0.005528
1340.000000	0.005551
1339.000000	0.005549
1338.000000	0.005534
1337.000000	0.005519
1336.000000	0.005511
1335.000000	0.005506
1334.000000	0.005507
1333.000000	0.005515
1332.000000	0.005524
1331.000000	0.005528
1330.000000	0.005529
1329.000000	0.005535
1328.000000	0.005553
1327.000000	0.005586
1326.000000	0.005628
1325.000000	0.005667
1324.000000	0.005693
1323.000000	0.005715
1322.000000	0.005747
1321.000000	0.005791
1320.000000	0.005828
1319.000000	0.005838
1318.000000	0.005812
1317.000000	0.005756
1316.000000	0.005681
1315.000000	0.005602
1314.000000	0.005532
1313.000000	0.005468
1312.000000	0.005397
1311.000000	0.005311
1310.000000	0.005218
1309.000000	0.005130
1308.000000	0.005054
1307.000000	0.004993
1306.000000	0.004950
1305.000000	0.004921
1304.000000	0.004894
1303.000000	0.004854
1302.000000	0.004793
1301.000000	0.004713
1300.000000	0.004629
1299.000000	0.004558
1298.000000	0.004511
1297.000000	0.004482
1296.000000	0.004459
1295.000000	0.004431
1294.000000	0.004395
1293.000000	0.004352
1292.000000	0.004309
1291.000000	0.004282
1290.000000	0.004279
1289.000000	0.004295
1288.000000	0.004315
1287.000000	0.004329
1286.000000	0.004338
1285.000000	0.004346
1284.000000	0.004351
1283.000000	0.004353
1282.000000	0.004352
1281.000000	0.004347
1280.000000	0.004337
1279.000000	0.004324
1278.000000	0.004312
1277.000000	0.004307
1276.000000	0.004315
1275.000000	0.004337
1274.000000	0.004369
1273.000000	0.004402
1272.000000	0.004427
1271.000000	0.004449
1270.000000	0.004475
1269.000000	0.004508
1268.000000	0.004543
1267.000000	0.004578
1266.000000	0.004610
1265.000000	0.004633
1264.000000	0.004645
1263.000000	0.004657
1262.000000	0.004683
1261.000000	0.004720
1260.000000	0.004752
1259.000000	0.004770
1258.000000	0.004786
1257.000000	0.004812
1256.000000	0.004846
1255.000000	0.004884
1254.000000	0.004923
1253.000000	0.004964
1252.000000	0.005005
1251.000000	0.005042
1250.000000	0.005079
1249.000000	0.005118
1248.000000	0.005160
1247.000000	0.005203
1246.000000	0.005247
1245.000000	0.005286
1244.000000	0.005316
1243.000000	0.005344
1242.000000	0.005376
1241.000000	0.005410
1240.000000	0.005433
1239.000000	0.005440
1238.000000	0.005443
1237.000000	0.005453
1236.000000	0.005468
1235.000000	0.005471
1234.000000	0.005449
1233.000000	0.005409
1232.000000	0.005367
1231.000000	0.005337
1230.000000	0.005320
1229.000000	0.005307
1228.000000	0.005285
1227.000000	0.005243
1226.000000	0.005180
1225.000000	0.005102
1224.000000	0.005021
1223.000000	0.004949
1222.000000	0.004887
1221.000000	0.004830
1220.000000	0.004774
1219.000000	0.004727
1218.000000	0.004698
1217.000000	0.004682
1216.000000	0.004668
1215.000000	0.004649
1214.000000	0.004621
1213.000000	0.004584
1212.000000	0.004538
1211.000000	0.004493
1210.000000	0.004461
1209.000000	0.004436
1208.000000	0.004406
1207.000000	0.004374
1206.000000	0.004353
1205.000000	0.004351
1204.000000	0.004352
1203.000000	0.004340
1202.000000	0.004311
1201.000000	0.004266
1200.000000	0.004208
1199.000000	0.004136
1198.000000	0.004061
1197.000000	0.003993
1196.000000	0.003935
1195.000000	0.003881
1194.000000	0.003827
1193.000000	0.003773
1192.000000	0.003721
1191.000000	0.003664
1190.000000	0.003589
1189.000000	0.003491
1188.000000	0.003383
1187.000000	0.003301
1186.000000	0.003267
1185.000000	0.003270
1184.000000	0.003277
1183.000000	0.003267
1182.000000	0.003245
1181.000000	0.003227
1180.000000	0.003226
1179.000000	0.003250
1178.000000	0.003298
1177.000000	0.003352
1176.000000	0.003396
1175.000000	0.003431
1174.000000	0.003476
1173.000000	0.003548
1172.000000	0.003639
1171.000000	0.003729
1170.000000	0.003815
1169.000000	0.003908
1168.000000	0.004017
1167.000000	0.004135
1166.000000	0.004254
1165.000000	0.004376
1164.000000	0.004511
1163.000000	0.004656
1162.000000	0.004797
1161.000000	0.004918
1160.000000	0.005024
1159.000000	0.005137
1158.000000	0.005276
1157.000000	0.005432
1156.000000	0.005580
1155.000000	0.005697
1154.000000	0.005774
1153.000000	0.005813
1152.000000	0.005817
1151.000000	0.005805
1150.000000	0.005794
1149.000000	0.005793
1148.000000	0.005786
1147.000000	0.005757
1146.000000	0.005705
1145.000000	0.005640
1144.000000	0.005568
1143.000000	0.005490
1142.000000	0.005413
1141.000000	0.005350
1140.000000	0.005305
1139.000000	0.005270
1138.000000	0.005234
1137.000000	0.005193
1136.000000	0.005154
1135.000000	0.005124
1134.000000	0.005110
1133.000000	0.005112
1132.000000	0.005127
1131.000000	0.005152
1130.000000	0.005181
1129.000000	0.005217
1128.000000	0.005262
1127.000000	0.005318
1126.000000	0.005377
1125.000000	0.005429
1124.000000	0.005464
1123.000000	0.005485
1122.000000	0.005506
1121.000000	0.005538
1120.000000	0.005585
1119.000000	0.005652
1118.000000	0.005735
1117.000000	0.005821
1116.000000	0.005890
1115.000000	0.005938
1114.000000	0.005979
1113.000000	0.006032
1112.000000	0.006096
1111.000000	0.006162
1110.000000	0.006230
1109.000000	0.006303
1108.000000	0.006373
1107.000000	0.006419
1106.000000	0.006428
1105.000000	0.006412
1104.000000	0.006399
1103.000000	0.006405
1102.000000	0.006426
1101.000000	0.006455
1100.000000	0.006488
1099.000000	0.006529
1098.000000	0.006576
1097.000000	0.006618
1096.000000	0.006645
1095.000000	0.006655
1094.000000	0.006661
1093.000000	0.006675
1092.000000	0.006702
1091.000000	0.006739
1090.000000	0.006783
1089.000000	0.006839
1088.000000	0.006911
1087.000000	0.007006
1086.000000	0.007127
1085.000000	0.007268
1084.000000	0.007416
1083.000000	0.007554
1082.000000	0.007669
1081.000000	0.007755
1080.000000	0.007816
1079.000000	0.007865
1078.000000	0.007922
1077.000000	0.007993
1076.000000	0.008066
1075.000000	0.008114
1074.000000	0.008110
1073.000000	0.008046
1072.000000	0.007944
1071.000000	0.007840
1070.000000	0.007764
1069.000000	0.007722
1068.000000	0.007696
1067.000000	0.007672
1066.000000	0.007653
1065.000000	0.007652
1064.000000	0.007689
1063.000000	0.007774
1062.000000	0.007905
1061.000000	0.008056
1060.000000	0.008195
1059.000000	0.008307
1058.000000	0.008399
1057.000000	0.008485
1056.000000	0.008565
1055.000000	0.008628
1054.000000	0.008674
1053.000000	0.008713
1052.000000	0.008754
1051.000000	0.008796
1050.000000	0.008840
1049.000000	0.008890
1048.000000	0.008938
1047.000000	0.008970
1046.000000	0.008992
1045.000000	0.009035
1044.000000	0.009126
1043.000000	0.009259
1042.000000	0.009390
1041.000000	0.009486
1040.000000	0.009550
1039.000000	0.009609
1038.000000	0.009686
1037.000000	0.009783
1036.000000	0.009893
1035.000000	0.010018
1034.000000	0.010155
1033.000000	0.010296
1032.000000	0.010425
1031.000000	0.010535
1030.000000	0.010632
1029.000000	0.010720
1028.000000	0.010799
1027.000000	0.010859
1026.000000	0.010892
1025.000000	0.010896
1024.000000	0.010881
1023.000000	0.010866
1022.000000	0.010860
1021.000000	0.010857
1020.000000	0.010838
1019.000000	0.010797
1018.000000	0.010746
1017.000000	0.010698
1016.000000	0.010651
1015.000000	0.010602
1014.000000	0.010550
1013.000000	0.010501
1012.000000	0.010451
1011.000000	0.010392
1010.000000	0.010334
1009.000000	0.010296
1008.000000	0.010291
1007.000000	0.010303
1006.000000	0.010304
1005.000000	0.010280
1004.000000	0.010240
1003.000000	0.010192
1002.000000	0.010128
1001.000000	0.010037
1000.000000	0.009923
999.000000	0.009810
998.000000	0.009713
997.000000	0.009619
996.000000	0.009510
995.000000	0.009385
994.000000	0.009263
993.000000	0.009153
992.000000	0.009049
991.000000	0.008941
990.000000	0.008824
989.000000	0.008695
988.000000	0.008544
987.000000	0.008374
986.000000	0.008203
985.000000	0.008050
984.000000	0.007918
983.000000	0.007796
982.000000	0.007676
981.000000	0.007561
980.000000	0.007457
979.000000	0.007366
978.000000	0.007282
977.000000	0.007198
976.000000	0.007109
975.000000	0.007015
974.000000	0.006918
973.000000	0.006818
972.000000	0.006714
971.000000	0.006609
970.000000	0.006507
969.000000	0.006403
968.000000	0.006291
967.000000	0.006169
966.000000	0.006049
965.000000	0.005943
964.000000	0.005854
963.000000	0.005777
962.000000	0.005708
961.000000	0.005645
960.000000	0.005591
959.000000	0.005544
958.000000	0.005490
957.000000	0.005410
956.000000	0.005295
955.000000	0.005156
954.000000	0.005016
953.000000	0.004888
952.000000	0.004781
951.000000	0.004695
950.000000	0.004621
949.000000	0.004547
948.000000	0.004465
947.000000	0.004383
946.000000	0.004315
945.000000	0.004260
944.000000	0.004205
943.000000	0.004143
942.000000	0.004074
941.000000	0.004002
940.000000	0.003931
939.000000	0.003872
938.000000	0.003838
937.000000	0.003822
936.000000	0.003802
935.000000	0.003756
934.000000	0.003685
933.000000	0.003603
932.000000	0.003525
931.000000	0.003456
930.000000	0.003390
929.000000	0.003311
928.000000	0.003214
927.000000	0.003123
926.000000	0.003074
925.000000	0.003082
924.000000	0.003120
923.000000	0.003144
922.000000	0.003125
921.000000	0.003070
920.000000	0.003007
919.000000	0.002965
918.000000	0.002955
917.000000	0.002951
916.000000	0.002910
915.000000	0.002818
914.000000	0.002706
913.000000	0.002621
912.000000	0.002577
911.000000	0.002553
910.000000	0.002524
909.000000	0.002488
908.000000	0.002458
907.000000	0.002443
906.000000	0.002436
905.000000	0.002426
904.000000	0.002399
903.000000	0.002348
902.000000	0.002281
901.000000	0.002209
900.000000	0.002142
899.000000	0.002084
898.000000	0.002035
897.000000	0.001998
896.000000	0.001974
895.000000	0.001953
894.000000	0.001919
893.000000	0.001866
892.000000	0.001806
891.000000	0.001763
890.000000	0.001752
889.000000	0.001771
888.000000	0.001801
887.000000	0.001823
886.000000	0.001838
885.000000	0.001867
884.000000	0.001931
883.000000	0.002025
882.000000	0.002118
881.000000	0.002192
880.000000	0.002270
879.000000	0.002397
878.000000	0.002586
877.000000	0.002807
876.000000	0.003004
875.000000	0.003124
874.000000	0.003131
873.000000	0.003029
872.000000	0.002865
871.000000	0.002708
870.000000	0.002598
869.000000	0.002527
868.000000	0.002464
867.000000	0.002381
866.000000	0.002265
865.000000	0.002128
864.000000	0.002007
863.000000	0.001942
862.000000	0.001937
861.000000	0.001954
860.000000	0.001958
859.000000	0.001944
858.000000	0.001925
857.000000	0.001900
856.000000	0.001862
855.000000	0.001823
854.000000	0.001797
853.000000	0.001782
852.000000	0.001762
851.000000	0.001738
850.000000	0.001728
849.000000	0.001743
848.000000	0.001766
847.000000	0.001774
846.000000	0.001760
845.000000	0.001739
844.000000	0.001737
843.000000	0.001768
842.000000	0.001815
841.000000	0.001845
840.000000	0.001848
839.000000	0.001840
838.000000	0.001835
837.000000	0.001827
836.000000	0.001802
835.000000	0.001767
834.000000	0.001737
833.000000	0.001711
832.000000	0.001688
831.000000	0.001684
830.000000	0.001723
829.000000	0.001794
828.000000	0.001860
827.000000	0.001900
826.000000	0.001924
825.000000	0.001948
824.000000	0.001969
823.000000	0.001975
822.000000	0.001966
821.000000	0.001951
820.000000	0.001939
819.000000	0.001941
818.000000	0.001955
817.000000	0.001958
816.000000	0.001926
815.000000	0.001865
814.000000	0.001814
813.000000	0.001802
812.000000	0.001821
811.000000	0.001852
810.000000	0.001884
809.000000	0.001914
808.000000	0.001933
807.000000	0.001939
806.000000	0.001940
805.000000	0.001954
804.000000	0.001973
803.000000	0.001971
802.000000	0.001930
801.000000	0.001865
800.000000	0.001814
799.000000	0.001792
798.000000	0.001781
797.000000	0.001753
796.000000	0.001717
795.000000	0.001715
794.000000	0.001766
793.000000	0.001841
792.000000	0.001884
791.000000	0.001878
790.000000	0.001846
789.000000	0.001817
788.000000	0.001800
787.000000	0.001795
786.000000	0.001796
785.000000	0.001791
784.000000	0.001770
783.000000	0.001744
782.000000	0.001731
781.000000	0.001735
780.000000	0.001743
779.000000	0.001751
778.000000	0.001765
777.000000	0.001783
776.000000	0.001792
775.000000	0.001793
774.000000	0.001799
773.000000	0.001819
772.000000	0.001836
771.000000	0.001838
770.000000	0.001838
769.000000	0.001858
768.000000	0.001894
767.000000	0.001927
766.000000	0.001949
765.000000	0.001970
764.000000	0.001994
763.000000	0.002014
762.000000	0.002017
761.000000	0.002001
760.000000	0.001972
759.000000	0.001949
758.000000	0.001952
757.000000	0.001983
756.000000	0.002014
755.000000	0.002019
754.000000	0.001998
753.000000	0.001977
752.000000	0.001972
751.000000	0.001982
750.000000	0.002000
749.000000	0.002021
748.000000	0.002034
747.000000	0.002021
746.000000	0.001977
745.000000	0.001911
744.000000	0.001841
743.000000	0.001781
742.000000	0.001745
741.000000	0.001737
740.000000	0.001748
739.000000	0.001757
738.000000	0.001759
737.000000	0.001769
736.000000	0.001794
735.000000	0.001828
734.000000	0.001850
733.000000	0.001843
732.000000	0.001805
731.000000	0.001749
730.000000	0.001702
729.000000	0.001686
728.000000	0.001694
727.000000	0.001710
726.000000	0.001733
725.000000	0.001775
724.000000	0.001835
723.000000	0.001890
722.000000	0.001922
721.000000	0.001940
720.000000	0.001957
719.000000	0.001968
718.000000	0.001965
717.000000	0.001967
716.000000	0.002010
715.000000	0.002113
714.000000	0.002251
713.000000	0.002367
712.000000	0.002402
711.000000	0.002339
710.000000	0.002213
709.000000	0.002092
708.000000	0.002029
707.000000	0.002036
706.000000	0.002096
705.000000	0.002179
704.000000	0.002249
703.000000	0.002267
702.000000	0.002217
701.000000	0.002130
700.000000	0.002065
699.000000	0.002059
698.000000	0.002101
697.000000	0.002155
696.000000	0.002192
695.000000	0.002199
694.000000	0.002180
693.000000	0.002148
692.000000	0.002107
691.000000	0.002055
690.000000	0.001991
689.000000	0.001929
688.000000	0.001889
687.000000	0.001872
686.000000	0.001859
685.000000	0.001835
684.000000	0.001811
683.000000	0.001810
682.000000	0.001852
681.000000	0.001930
680.000000	0.002009
679.000000	0.002050
678.000000	0.002045
677.000000	0.002026
676.000000	0.002032
675.000000	0.002086
674.000000	0.002185
673.000000	0.002301
672.000000	0.002389
671.000000	0.002415
670.000000	0.002378
669.000000	0.002321
668.000000	0.002291
667.000000	0.002339
666.000000	0.002478
665.000000	0.002624
664.000000	0.002709
663.000000	0.002694
662.000000	0.002581
661.000000	0.002422
660.000000	0.002288
659.000000	0.002214
658.000000	0.002195
657.000000	0.002200
656.000000	0.002196
655.000000	0.002163
654.000000	0.002104
653.000000	0.002047
652.000000	0.002025
651.000000	0.002040
650.000000	0.002062
649.000000	0.002062
648.000000	0.002044
647.000000	0.002036
646.000000	0.002064
645.000000	0.002123
644.000000	0.002185
643.000000	0.002212
642.000000	0.002185
641.000000	0.002134
640.000000	0.002108
639.000000	0.002130
638.000000	0.002181
637.000000	0.002228
636.000000	0.002258
635.000000	0.002252
634.000000	0.002191
633.000000	0.002089
632.000000	0.002015
631.000000	0.002030
630.000000	0.002120
629.000000	0.002212
628.000000	0.002269
627.000000	0.002307
626.000000	0.002339
625.000000	0.002328
624.000000	0.002255
623.000000	0.002167
622.000000	0.002145
621.000000	0.002214
620.000000	0.002321
619.000000	0.002408
618.000000	0.002469
617.000000	0.002541
616.000000	0.002644
615.000000	0.002750
614.000000	0.002811
613.000000	0.002803
612.000000	0.002752
611.000000	0.002715
610.000000	0.002726
609.000000	0.002776
608.000000	0.002841
607.000000	0.002923
606.000000	0.003040
605.000000	0.003183
604.000000	0.003300
603.000000	0.003354
602.000000	0.003363
601.000000	0.003381
600.000000	0.003439
599.000000	0.003517
598.000000	0.003574
597.000000	0.003563
596.000000	0.003452
595.000000	0.003265
594.000000	0.003088
593.000000	0.003015
592.000000	0.003057
591.000000	0.003140
590.000000	0.003188
589.000000	0.003185
588.000000	0.003152
587.000000	0.003105
586.000000	0.003068
585.000000	0.003070
584.000000	0.003113
583.000000	0.003151
582.000000	0.003155
581.000000	0.003166
580.000000	0.003258
579.000000	0.003440
578.000000	0.003643
577.000000	0.003781
576.000000	0.003816
575.000000	0.003759
574.000000	0.003648
573.000000	0.003527
572.000000	0.003432
571.000000	0.003378
570.000000	0.003366
569.000000	0.003388
568.000000	0.003426
567.000000	0.003447
566.000000	0.003429
565.000000	0.003386
564.000000	0.003349
563.000000	0.003323
562.000000	0.003285
561.000000	0.003211
560.000000	0.003100
559.000000	0.002977
558.000000	0.002896
557.000000	0.002907
556.000000	0.003000
555.000000	0.003092
554.000000	0.003093
553.000000	0.002995
552.000000	0.002859
551.000000	0.002726
550.000000	0.002603
549.000000	0.002511
548.000000	0.002490
547.000000	0.002535
546.000000	0.002570
545.000000	0.002544
544.000000	0.002507
543.000000	0.002535
542.000000	0.002630
541.000000	0.002711
540.000000	0.002721
539.000000	0.002695
538.000000	0.002726
537.000000	0.002862
536.000000	0.003052
535.000000	0.003176
534.000000	0.003164
533.000000	0.003074
532.000000	0.003037
531.000000	0.003113
530.000000	0.003226
529.000000	0.003269
528.000000	0.003222
527.000000	0.003165
526.000000	0.003194
525.000000	0.003321
524.000000	0.003484
523.000000	0.003606
522.000000	0.003647
521.000000	0.003595
520.000000	0.003445
519.000000	0.003206
518.000000	0.002937
517.000000	0.002739
516.000000	0.002674
515.000000	0.002695
514.000000	0.002711
513.000000	0.002682
512.000000	0.002639
511.000000	0.002612
510.000000	0.002586
509.000000	0.002520
508.000000	0.002383
507.000000	0.002185
506.000000	0.001994
505.000000	0.001895
504.000000	0.001926
503.000000	0.002045
502.000000	0.002174
501.000000	0.002288
500.000000	0.002423
499.000000	0.002588
498.000000	0.002741
497.000000	0.002829
496.000000	0.002838
495.000000	0.002787
494.000000	0.002718
493.000000	0.002684
492.000000	0.002706
491.000000	0.002730
490.000000	0.002676
489.000000	0.002529
488.000000	0.002348
487.000000	0.002195
486.000000	0.002106
485.000000	0.002119
484.000000	0.002258
483.000000	0.002457
482.000000	0.002580
481.000000	0.002543
480.000000	0.002389
479.000000	0.002228
478.000000	0.002145
477.000000	0.002184
476.000000	0.002370
475.000000	0.002679
474.000000	0.003004
473.000000	0.003184
472.000000	0.003124
471.000000	0.002907
470.000000	0.002722
469.000000	0.002709
468.000000	0.002876
467.000000	0.003079
466.000000	0.003098
465.000000	0.002843
464.000000	0.002415
463.000000	0.001973
462.000000	0.001590
461.000000	0.001253
460.000000	0.000989
459.000000	0.000951
458.000000	0.001301
457.000000	0.001945
456.000000	0.002519
455.000000	0.002743
454.000000	0.002576
453.000000	0.002153
452.000000	0.001712
451.000000	0.001523
450.000000	0.001719
