PE IR       SUBTECH     SPECTRUM    ASCII       PEDS        4.00        
   -1
P14-Noir003_1.ASC
23/06/09
15:55:39.00
23/06/09
16:36:39.00
uco
Sample 003 By uco Date Friday, June 09 2023
450.000000
#HDR
-1
-1
#GR
cm-1
A
1.0
0.0
4000.000000
-1.000000
3551
8
0.003427
-0.001238
#DATA
4000.000000	-0.000016
3999.000000	-0.000027
3998.000000	-0.000031
3997.000000	-0.000027
3996.000000	-0.000014
3995.000000	-0.000012
3994.000000	-0.000014
3993.000000	-0.000015
3992.000000	-0.000006
3991.000000	0.000013
3990.000000	0.000032
3989.000000	0.000043
3988.000000	0.000045
3987.000000	0.000045
3986.000000	0.000049
3985.000000	0.000055
3984.000000	0.000056
3983.000000	0.000047
3982.000000	0.000029
3981.000000	0.000009
3980.000000	-0.000005
3979.000000	-0.000008
3978.000000	0.000000
3977.000000	0.000017
3976.000000	0.000035
3975.000000	0.000049
3974.000000	0.000054
3973.000000	0.000048
3972.000000	0.000035
3971.000000	0.000021
3970.000000	0.000010
3969.000000	0.000010
3968.000000	0.000021
3967.000000	0.000038
3966.000000	0.000050
3965.000000	0.000052
3964.000000	0.000044
3963.000000	0.000035
3962.000000	0.000028
3961.000000	0.000022
3960.000000	0.000016
3959.000000	0.000007
3958.000000	0.000000
3957.000000	-0.000002
3956.000000	0.000000
3955.000000	0.000008
3954.000000	0.000020
3953.000000	0.000035
3952.000000	0.000051
3951.000000	0.000064
3950.000000	0.000071
3949.000000	0.000067
3948.000000	0.000053
3947.000000	0.000039
3946.000000	0.000034
3945.000000	0.000048
3944.000000	0.000075
3943.000000	0.000105
3942.000000	0.000125
3941.000000	0.000133
3940.000000	0.000128
3939.000000	0.000110
3938.000000	0.000080
3937.000000	0.000043
3936.000000	0.000009
3935.000000	-0.000014
3934.000000	-0.000023
3933.000000	-0.000021
3932.000000	-0.000010
3931.000000	0.000010
3930.000000	0.000037
3929.000000	0.000064
3928.000000	0.000083
3927.000000	0.000090
3926.000000	0.000085
3925.000000	0.000070
3924.000000	0.000053
3923.000000	0.000041
3922.000000	0.000035
3921.000000	0.000033
3920.000000	0.000035
3919.000000	0.000042
3918.000000	0.000053
3917.000000	0.000061
3916.000000	0.000061
3915.000000	0.000052
3914.000000	0.000043
3913.000000	0.000039
3912.000000	0.000044
3911.000000	0.000056
3910.000000	0.000071
3909.000000	0.000081
3908.000000	0.000087
3907.000000	0.000093
3906.000000	0.000103
3905.000000	0.000115
3904.000000	0.000121
3903.000000	0.000121
3902.000000	0.000114
3901.000000	0.000099
3900.000000	0.000074
3899.000000	0.000047
3898.000000	0.000034
3897.000000	0.000044
3896.000000	0.000070
3895.000000	0.000095
3894.000000	0.000108
3893.000000	0.000105
3892.000000	0.000085
3891.000000	0.000053
3890.000000	0.000021
3889.000000	0.000006
3888.000000	0.000017
3887.000000	0.000047
3886.000000	0.000078
3885.000000	0.000096
3884.000000	0.000102
3883.000000	0.000105
3882.000000	0.000109
3881.000000	0.000107
3880.000000	0.000097
3879.000000	0.000087
3878.000000	0.000087
3877.000000	0.000095
3876.000000	0.000105
3875.000000	0.000101
3874.000000	0.000078
3873.000000	0.000048
3872.000000	0.000025
3871.000000	0.000007
3870.000000	-0.000014
3869.000000	-0.000029
3868.000000	-0.000019
3867.000000	0.000023
3866.000000	0.000081
3865.000000	0.000129
3864.000000	0.000154
3863.000000	0.000159
3862.000000	0.000156
3861.000000	0.000151
3860.000000	0.000146
3859.000000	0.000140
3858.000000	0.000134
3857.000000	0.000128
3856.000000	0.000118
3855.000000	0.000097
3854.000000	0.000059
3853.000000	0.000018
3852.000000	0.000000
3851.000000	0.000004
3850.000000	0.000014
3849.000000	0.000019
3848.000000	0.000023
3847.000000	0.000035
3846.000000	0.000059
3845.000000	0.000091
3844.000000	0.000116
3843.000000	0.000125
3842.000000	0.000119
3841.000000	0.000113
3840.000000	0.000113
3839.000000	0.000113
3838.000000	0.000104
3837.000000	0.000091
3836.000000	0.000086
3835.000000	0.000097
3834.000000	0.000118
3833.000000	0.000132
3832.000000	0.000130
3831.000000	0.000118
3830.000000	0.000110
3829.000000	0.000116
3828.000000	0.000131
3827.000000	0.000142
3826.000000	0.000141
3825.000000	0.000138
3824.000000	0.000147
3823.000000	0.000167
3822.000000	0.000180
3821.000000	0.000166
3820.000000	0.000142
3819.000000	0.000135
3818.000000	0.000148
3817.000000	0.000158
3816.000000	0.000147
3815.000000	0.000127
3814.000000	0.000123
3813.000000	0.000136
3812.000000	0.000149
3811.000000	0.000145
3810.000000	0.000123
3809.000000	0.000094
3808.000000	0.000065
3807.000000	0.000045
3806.000000	0.000046
3805.000000	0.000073
3804.000000	0.000121
3803.000000	0.000166
3802.000000	0.000179
3801.000000	0.000159
3800.000000	0.000133
3799.000000	0.000122
3798.000000	0.000123
3797.000000	0.000121
3796.000000	0.000111
3795.000000	0.000099
3794.000000	0.000089
3793.000000	0.000080
3792.000000	0.000070
3791.000000	0.000061
3790.000000	0.000058
3789.000000	0.000065
3788.000000	0.000086
3787.000000	0.000118
3786.000000	0.000149
3785.000000	0.000162
3784.000000	0.000154
3783.000000	0.000137
3782.000000	0.000132
3781.000000	0.000145
3780.000000	0.000163
3779.000000	0.000173
3778.000000	0.000172
3777.000000	0.000167
3776.000000	0.000160
3775.000000	0.000147
3774.000000	0.000127
3773.000000	0.000105
3772.000000	0.000082
3771.000000	0.000059
3770.000000	0.000040
3769.000000	0.000035
3768.000000	0.000054
3767.000000	0.000088
3766.000000	0.000121
3765.000000	0.000135
3764.000000	0.000126
3763.000000	0.000107
3762.000000	0.000086
3761.000000	0.000066
3760.000000	0.000047
3759.000000	0.000033
3758.000000	0.000026
3757.000000	0.000023
3756.000000	0.000020
3755.000000	0.000017
3754.000000	0.000013
3753.000000	0.000009
3752.000000	0.000008
3751.000000	0.000004
3750.000000	-0.000021
3749.000000	-0.000065
3748.000000	-0.000100
3747.000000	-0.000089
3746.000000	-0.000023
3745.000000	0.000066
3744.000000	0.000131
3743.000000	0.000158
3742.000000	0.000159
3741.000000	0.000141
3740.000000	0.000101
3739.000000	0.000048
3738.000000	0.000003
3737.000000	-0.000019
3736.000000	-0.000011
3735.000000	0.000018
3734.000000	0.000057
3733.000000	0.000089
3732.000000	0.000097
3731.000000	0.000081
3730.000000	0.000059
3729.000000	0.000044
3728.000000	0.000043
3727.000000	0.000053
3726.000000	0.000075
3725.000000	0.000105
3724.000000	0.000134
3723.000000	0.000153
3722.000000	0.000158
3721.000000	0.000153
3720.000000	0.000143
3719.000000	0.000135
3718.000000	0.000132
3717.000000	0.000133
3716.000000	0.000135
3715.000000	0.000134
3714.000000	0.000123
3713.000000	0.000101
3712.000000	0.000069
3711.000000	0.000034
3710.000000	0.000004
3709.000000	-0.000018
3708.000000	-0.000029
3707.000000	-0.000031
3706.000000	-0.000025
3705.000000	-0.000010
3704.000000	0.000009
3703.000000	0.000022
3702.000000	0.000022
3701.000000	0.000010
3700.000000	-0.000001
3699.000000	0.000001
3698.000000	0.000016
3697.000000	0.000030
3696.000000	0.000028
3695.000000	0.000005
3694.000000	-0.000026
3693.000000	-0.000047
3692.000000	-0.000048
3691.000000	-0.000035
3690.000000	-0.000022
3689.000000	-0.000011
3688.000000	0.000007
3687.000000	0.000034
3686.000000	0.000062
3685.000000	0.000084
3684.000000	0.000093
3683.000000	0.000091
3682.000000	0.000080
3681.000000	0.000060
3680.000000	0.000028
3679.000000	-0.000012
3678.000000	-0.000038
3677.000000	-0.000036
3676.000000	-0.000018
3675.000000	-0.000010
3674.000000	-0.000014
3673.000000	-0.000007
3672.000000	0.000025
3671.000000	0.000069
3670.000000	0.000095
3669.000000	0.000098
3668.000000	0.000095
3667.000000	0.000102
3666.000000	0.000114
3665.000000	0.000122
3664.000000	0.000122
3663.000000	0.000115
3662.000000	0.000098
3661.000000	0.000069
3660.000000	0.000037
3659.000000	0.000017
3658.000000	0.000019
3657.000000	0.000033
3656.000000	0.000043
3655.000000	0.000040
3654.000000	0.000034
3653.000000	0.000032
3652.000000	0.000034
3651.000000	0.000033
3650.000000	0.000031
3649.000000	0.000045
3648.000000	0.000080
3647.000000	0.000117
3646.000000	0.000140
3645.000000	0.000152
3644.000000	0.000162
3643.000000	0.000178
3642.000000	0.000199
3641.000000	0.000219
3640.000000	0.000224
3639.000000	0.000207
3638.000000	0.000175
3637.000000	0.000143
3636.000000	0.000129
3635.000000	0.000136
3634.000000	0.000149
3633.000000	0.000155
3632.000000	0.000155
3631.000000	0.000167
3630.000000	0.000205
3629.000000	0.000261
3628.000000	0.000305
3627.000000	0.000317
3626.000000	0.000300
3625.000000	0.000272
3624.000000	0.000249
3623.000000	0.000241
3622.000000	0.000254
3621.000000	0.000281
3620.000000	0.000303
3619.000000	0.000306
3618.000000	0.000290
3617.000000	0.000268
3616.000000	0.000250
3615.000000	0.000236
3614.000000	0.000221
3613.000000	0.000205
3612.000000	0.000200
3611.000000	0.000214
3610.000000	0.000243
3609.000000	0.000278
3608.000000	0.000303
3607.000000	0.000315
3606.000000	0.000319
3605.000000	0.000323
3604.000000	0.000334
3603.000000	0.000348
3602.000000	0.000357
3601.000000	0.000356
3600.000000	0.000352
3599.000000	0.000350
3598.000000	0.000352
3597.000000	0.000354
3596.000000	0.000363
3595.000000	0.000382
3594.000000	0.000404
3593.000000	0.000411
3592.000000	0.000392
3591.000000	0.000357
3590.000000	0.000331
3589.000000	0.000329
3588.000000	0.000348
3587.000000	0.000370
3586.000000	0.000379
3585.000000	0.000383
3584.000000	0.000396
3583.000000	0.000421
3582.000000	0.000453
3581.000000	0.000477
3580.000000	0.000479
3579.000000	0.000456
3578.000000	0.000417
3577.000000	0.000378
3576.000000	0.000358
3575.000000	0.000365
3574.000000	0.000398
3573.000000	0.000443
3572.000000	0.000485
3571.000000	0.000514
3570.000000	0.000530
3569.000000	0.000533
3568.000000	0.000523
3567.000000	0.000509
3566.000000	0.000508
3565.000000	0.000529
3564.000000	0.000560
3563.000000	0.000585
3562.000000	0.000593
3561.000000	0.000587
3560.000000	0.000580
3559.000000	0.000584
3558.000000	0.000596
3557.000000	0.000607
3556.000000	0.000611
3555.000000	0.000606
3554.000000	0.000595
3553.000000	0.000581
3552.000000	0.000572
3551.000000	0.000580
3550.000000	0.000612
3549.000000	0.000664
3548.000000	0.000719
3547.000000	0.000754
3546.000000	0.000756
3545.000000	0.000729
3544.000000	0.000694
3543.000000	0.000679
3542.000000	0.000693
3541.000000	0.000726
3540.000000	0.000753
3539.000000	0.000758
3538.000000	0.000746
3537.000000	0.000733
3536.000000	0.000735
3535.000000	0.000754
3534.000000	0.000780
3533.000000	0.000801
3532.000000	0.000813
3531.000000	0.000819
3530.000000	0.000824
3529.000000	0.000833
3528.000000	0.000842
3527.000000	0.000851
3526.000000	0.000867
3525.000000	0.000892
3524.000000	0.000919
3523.000000	0.000934
3522.000000	0.000930
3521.000000	0.000914
3520.000000	0.000899
3519.000000	0.000894
3518.000000	0.000901
3517.000000	0.000912
3516.000000	0.000919
3515.000000	0.000920
3514.000000	0.000920
3513.000000	0.000925
3512.000000	0.000939
3511.000000	0.000959
3510.000000	0.000978
3509.000000	0.000989
3508.000000	0.000993
3507.000000	0.000991
3506.000000	0.000989
3505.000000	0.000990
3504.000000	0.000990
3503.000000	0.000987
3502.000000	0.000977
3501.000000	0.000963
3500.000000	0.000953
3499.000000	0.000955
3498.000000	0.000971
3497.000000	0.000993
3496.000000	0.001010
3495.000000	0.001019
3494.000000	0.001026
3493.000000	0.001038
3492.000000	0.001053
3491.000000	0.001062
3490.000000	0.001055
3489.000000	0.001036
3488.000000	0.001019
3487.000000	0.001021
3486.000000	0.001046
3485.000000	0.001085
3484.000000	0.001116
3483.000000	0.001127
3482.000000	0.001120
3481.000000	0.001113
3480.000000	0.001118
3479.000000	0.001135
3478.000000	0.001154
3477.000000	0.001169
3476.000000	0.001176
3475.000000	0.001178
3474.000000	0.001174
3473.000000	0.001166
3472.000000	0.001158
3471.000000	0.001153
3470.000000	0.001151
3469.000000	0.001149
3468.000000	0.001143
3467.000000	0.001139
3466.000000	0.001140
3465.000000	0.001147
3464.000000	0.001151
3463.000000	0.001151
3462.000000	0.001152
3461.000000	0.001164
3460.000000	0.001190
3459.000000	0.001220
3458.000000	0.001240
3457.000000	0.001244
3456.000000	0.001238
3455.000000	0.001231
3454.000000	0.001228
3453.000000	0.001227
3452.000000	0.001224
3451.000000	0.001220
3450.000000	0.001223
3449.000000	0.001234
3448.000000	0.001249
3447.000000	0.001261
3446.000000	0.001264
3445.000000	0.001261
3444.000000	0.001256
3443.000000	0.001253
3442.000000	0.001253
3441.000000	0.001256
3440.000000	0.001262
3439.000000	0.001273
3438.000000	0.001296
3437.000000	0.001330
3436.000000	0.001364
3435.000000	0.001383
3434.000000	0.001377
3433.000000	0.001358
3432.000000	0.001344
3431.000000	0.001349
3430.000000	0.001369
3429.000000	0.001396
3428.000000	0.001420
3427.000000	0.001443
3426.000000	0.001466
3425.000000	0.001487
3424.000000	0.001496
3423.000000	0.001491
3422.000000	0.001475
3421.000000	0.001455
3420.000000	0.001439
3419.000000	0.001428
3418.000000	0.001419
3417.000000	0.001409
3416.000000	0.001400
3415.000000	0.001394
3414.000000	0.001397
3413.000000	0.001410
3412.000000	0.001431
3411.000000	0.001457
3410.000000	0.001486
3409.000000	0.001515
3408.000000	0.001537
3407.000000	0.001548
3406.000000	0.001546
3405.000000	0.001539
3404.000000	0.001536
3403.000000	0.001544
3402.000000	0.001557
3401.000000	0.001566
3400.000000	0.001564
3399.000000	0.001556
3398.000000	0.001550
3397.000000	0.001552
3396.000000	0.001557
3395.000000	0.001563
3394.000000	0.001568
3393.000000	0.001571
3392.000000	0.001574
3391.000000	0.001576
3390.000000	0.001578
3389.000000	0.001583
3388.000000	0.001587
3387.000000	0.001587
3386.000000	0.001580
3385.000000	0.001568
3384.000000	0.001559
3383.000000	0.001558
3382.000000	0.001564
3381.000000	0.001570
3380.000000	0.001568
3379.000000	0.001559
3378.000000	0.001550
3377.000000	0.001545
3376.000000	0.001542
3375.000000	0.001539
3374.000000	0.001545
3373.000000	0.001568
3372.000000	0.001608
3371.000000	0.001649
3370.000000	0.001680
3369.000000	0.001696
3368.000000	0.001704
3367.000000	0.001710
3366.000000	0.001716
3365.000000	0.001723
3364.000000	0.001726
3363.000000	0.001723
3362.000000	0.001711
3361.000000	0.001691
3360.000000	0.001673
3359.000000	0.001662
3358.000000	0.001663
3357.000000	0.001674
3356.000000	0.001689
3355.000000	0.001702
3354.000000	0.001705
3353.000000	0.001697
3352.000000	0.001682
3351.000000	0.001663
3350.000000	0.001647
3349.000000	0.001642
3348.000000	0.001654
3347.000000	0.001677
3346.000000	0.001700
3345.000000	0.001713
3344.000000	0.001719
3343.000000	0.001725
3342.000000	0.001737
3341.000000	0.001751
3340.000000	0.001761
3339.000000	0.001765
3338.000000	0.001765
3337.000000	0.001767
3336.000000	0.001774
3335.000000	0.001785
3334.000000	0.001792
3333.000000	0.001789
3332.000000	0.001774
3331.000000	0.001751
3330.000000	0.001728
3329.000000	0.001714
3328.000000	0.001718
3327.000000	0.001744
3326.000000	0.001790
3325.000000	0.001848
3324.000000	0.001901
3323.000000	0.001937
3322.000000	0.001946
3321.000000	0.001927
3320.000000	0.001888
3319.000000	0.001845
3318.000000	0.001816
3317.000000	0.001808
3316.000000	0.001818
3315.000000	0.001838
3314.000000	0.001861
3313.000000	0.001877
3312.000000	0.001876
3311.000000	0.001855
3310.000000	0.001821
3309.000000	0.001792
3308.000000	0.001785
3307.000000	0.001803
3306.000000	0.001836
3305.000000	0.001865
3304.000000	0.001874
3303.000000	0.001863
3302.000000	0.001848
3301.000000	0.001842
3300.000000	0.001849
3299.000000	0.001860
3298.000000	0.001865
3297.000000	0.001857
3296.000000	0.001841
3295.000000	0.001826
3294.000000	0.001823
3293.000000	0.001835
3292.000000	0.001852
3291.000000	0.001864
3290.000000	0.001867
3289.000000	0.001871
3288.000000	0.001882
3287.000000	0.001903
3286.000000	0.001932
3285.000000	0.001962
3284.000000	0.001981
3283.000000	0.001969
3282.000000	0.001916
3281.000000	0.001843
3280.000000	0.001788
3279.000000	0.001776
3278.000000	0.001804
3277.000000	0.001847
3276.000000	0.001879
3275.000000	0.001889
3274.000000	0.001881
3273.000000	0.001869
3272.000000	0.001864
3271.000000	0.001868
3270.000000	0.001872
3269.000000	0.001870
3268.000000	0.001863
3267.000000	0.001861
3266.000000	0.001869
3265.000000	0.001883
3264.000000	0.001894
3263.000000	0.001897
3262.000000	0.001897
3261.000000	0.001896
3260.000000	0.001889
3259.000000	0.001868
3258.000000	0.001833
3257.000000	0.001795
3256.000000	0.001769
3255.000000	0.001762
3254.000000	0.001771
3253.000000	0.001784
3252.000000	0.001794
3251.000000	0.001800
3250.000000	0.001804
3249.000000	0.001809
3248.000000	0.001816
3247.000000	0.001817
3246.000000	0.001811
3245.000000	0.001801
3244.000000	0.001797
3243.000000	0.001809
3242.000000	0.001829
3241.000000	0.001843
3240.000000	0.001836
3239.000000	0.001807
3238.000000	0.001768
3237.000000	0.001737
3236.000000	0.001731
3235.000000	0.001747
3234.000000	0.001770
3233.000000	0.001784
3232.000000	0.001784
3231.000000	0.001775
3230.000000	0.001764
3229.000000	0.001753
3228.000000	0.001739
3227.000000	0.001722
3226.000000	0.001706
3225.000000	0.001697
3224.000000	0.001705
3223.000000	0.001728
3222.000000	0.001752
3221.000000	0.001762
3220.000000	0.001756
3219.000000	0.001744
3218.000000	0.001734
3217.000000	0.001728
3216.000000	0.001726
3215.000000	0.001727
3214.000000	0.001730
3213.000000	0.001733
3212.000000	0.001737
3211.000000	0.001746
3210.000000	0.001758
3209.000000	0.001762
3208.000000	0.001751
3207.000000	0.001726
3206.000000	0.001697
3205.000000	0.001676
3204.000000	0.001666
3203.000000	0.001664
3202.000000	0.001665
3201.000000	0.001663
3200.000000	0.001655
3199.000000	0.001641
3198.000000	0.001626
3197.000000	0.001615
3196.000000	0.001613
3195.000000	0.001621
3194.000000	0.001636
3193.000000	0.001647
3192.000000	0.001653
3191.000000	0.001657
3190.000000	0.001666
3189.000000	0.001679
3188.000000	0.001686
3187.000000	0.001680
3186.000000	0.001663
3185.000000	0.001645
3184.000000	0.001638
3183.000000	0.001642
3182.000000	0.001645
3181.000000	0.001637
3180.000000	0.001617
3179.000000	0.001596
3178.000000	0.001586
3177.000000	0.001589
3176.000000	0.001600
3175.000000	0.001610
3174.000000	0.001616
3173.000000	0.001618
3172.000000	0.001618
3171.000000	0.001615
3170.000000	0.001604
3169.000000	0.001582
3168.000000	0.001551
3167.000000	0.001525
3166.000000	0.001513
3165.000000	0.001512
3164.000000	0.001510
3163.000000	0.001498
3162.000000	0.001480
3161.000000	0.001465
3160.000000	0.001457
3159.000000	0.001453
3158.000000	0.001452
3157.000000	0.001456
3156.000000	0.001463
3155.000000	0.001465
3154.000000	0.001455
3153.000000	0.001438
3152.000000	0.001419
3151.000000	0.001403
3150.000000	0.001392
3149.000000	0.001386
3148.000000	0.001387
3147.000000	0.001394
3146.000000	0.001402
3145.000000	0.001406
3144.000000	0.001411
3143.000000	0.001420
3142.000000	0.001431
3141.000000	0.001440
3140.000000	0.001446
3139.000000	0.001452
3138.000000	0.001457
3137.000000	0.001454
3136.000000	0.001439
3135.000000	0.001415
3134.000000	0.001391
3133.000000	0.001373
3132.000000	0.001361
3131.000000	0.001354
3130.000000	0.001348
3129.000000	0.001346
3128.000000	0.001351
3127.000000	0.001361
3126.000000	0.001373
3125.000000	0.001382
3124.000000	0.001386
3123.000000	0.001382
3122.000000	0.001368
3121.000000	0.001350
3120.000000	0.001337
3119.000000	0.001333
3118.000000	0.001331
3117.000000	0.001318
3116.000000	0.001295
3115.000000	0.001278
3114.000000	0.001280
3113.000000	0.001302
3112.000000	0.001331
3111.000000	0.001358
3110.000000	0.001376
3109.000000	0.001382
3108.000000	0.001381
3107.000000	0.001381
3106.000000	0.001388
3105.000000	0.001396
3104.000000	0.001395
3103.000000	0.001381
3102.000000	0.001357
3101.000000	0.001325
3100.000000	0.001287
3099.000000	0.001255
3098.000000	0.001240
3097.000000	0.001247
3096.000000	0.001271
3095.000000	0.001301
3094.000000	0.001332
3093.000000	0.001355
3092.000000	0.001366
3091.000000	0.001366
3090.000000	0.001362
3089.000000	0.001363
3088.000000	0.001370
3087.000000	0.001378
3086.000000	0.001380
3085.000000	0.001370
3084.000000	0.001348
3083.000000	0.001317
3082.000000	0.001288
3081.000000	0.001267
3080.000000	0.001261
3079.000000	0.001270
3078.000000	0.001288
3077.000000	0.001308
3076.000000	0.001319
3075.000000	0.001321
3074.000000	0.001319
3073.000000	0.001320
3072.000000	0.001325
3071.000000	0.001329
3070.000000	0.001330
3069.000000	0.001332
3068.000000	0.001335
3067.000000	0.001335
3066.000000	0.001327
3065.000000	0.001311
3064.000000	0.001299
3063.000000	0.001300
3062.000000	0.001318
3061.000000	0.001340
3060.000000	0.001350
3059.000000	0.001342
3058.000000	0.001322
3057.000000	0.001300
3056.000000	0.001282
3055.000000	0.001267
3054.000000	0.001256
3053.000000	0.001248
3052.000000	0.001247
3051.000000	0.001251
3050.000000	0.001259
3049.000000	0.001266
3048.000000	0.001264
3047.000000	0.001251
3046.000000	0.001232
3045.000000	0.001213
3044.000000	0.001198
3043.000000	0.001187
3042.000000	0.001184
3041.000000	0.001189
3040.000000	0.001200
3039.000000	0.001209
3038.000000	0.001216
3037.000000	0.001225
3036.000000	0.001240
3035.000000	0.001254
3034.000000	0.001259
3033.000000	0.001253
3032.000000	0.001241
3031.000000	0.001226
3030.000000	0.001210
3029.000000	0.001195
3028.000000	0.001185
3027.000000	0.001185
3026.000000	0.001190
3025.000000	0.001187
3024.000000	0.001169
3023.000000	0.001143
3022.000000	0.001130
3021.000000	0.001143
3020.000000	0.001176
3019.000000	0.001208
3018.000000	0.001220
3017.000000	0.001209
3016.000000	0.001185
3015.000000	0.001158
3014.000000	0.001130
3013.000000	0.001101
3012.000000	0.001078
3011.000000	0.001073
3010.000000	0.001091
3009.000000	0.001125
3008.000000	0.001156
3007.000000	0.001170
3006.000000	0.001166
3005.000000	0.001151
3004.000000	0.001130
3003.000000	0.001111
3002.000000	0.001106
3001.000000	0.001121
3000.000000	0.001146
2999.000000	0.001163
2998.000000	0.001166
2997.000000	0.001165
2996.000000	0.001169
2995.000000	0.001179
2994.000000	0.001183
2993.000000	0.001178
2992.000000	0.001167
2991.000000	0.001151
2990.000000	0.001132
2989.000000	0.001115
2988.000000	0.001109
2987.000000	0.001115
2986.000000	0.001128
2985.000000	0.001137
2984.000000	0.001142
2983.000000	0.001144
2982.000000	0.001148
2981.000000	0.001154
2980.000000	0.001160
2979.000000	0.001166
2978.000000	0.001169
2977.000000	0.001167
2976.000000	0.001163
2975.000000	0.001169
2974.000000	0.001189
2973.000000	0.001218
2972.000000	0.001243
2971.000000	0.001256
2970.000000	0.001258
2969.000000	0.001257
2968.000000	0.001259
2967.000000	0.001265
2966.000000	0.001277
2965.000000	0.001299
2964.000000	0.001327
2963.000000	0.001353
2962.000000	0.001369
2961.000000	0.001378
2960.000000	0.001387
2959.000000	0.001398
2958.000000	0.001412
2957.000000	0.001422
2956.000000	0.001427
2955.000000	0.001424
2954.000000	0.001416
2953.000000	0.001405
2952.000000	0.001394
2951.000000	0.001386
2950.000000	0.001385
2949.000000	0.001393
2948.000000	0.001411
2947.000000	0.001436
2946.000000	0.001459
2945.000000	0.001473
2944.000000	0.001469
2943.000000	0.001448
2942.000000	0.001423
2941.000000	0.001407
2940.000000	0.001407
2939.000000	0.001418
2938.000000	0.001433
2937.000000	0.001449
2936.000000	0.001470
2935.000000	0.001498
2934.000000	0.001530
2933.000000	0.001561
2932.000000	0.001583
2931.000000	0.001598
2930.000000	0.001612
2929.000000	0.001629
2928.000000	0.001646
2927.000000	0.001657
2926.000000	0.001659
2925.000000	0.001662
2924.000000	0.001673
2923.000000	0.001690
2922.000000	0.001703
2921.000000	0.001704
2920.000000	0.001695
2919.000000	0.001679
2918.000000	0.001657
2917.000000	0.001631
2916.000000	0.001607
2915.000000	0.001594
2914.000000	0.001592
2913.000000	0.001588
2912.000000	0.001570
2911.000000	0.001538
2910.000000	0.001511
2909.000000	0.001505
2908.000000	0.001523
2907.000000	0.001550
2906.000000	0.001563
2905.000000	0.001555
2904.000000	0.001532
2903.000000	0.001508
2902.000000	0.001490
2901.000000	0.001478
2900.000000	0.001467
2899.000000	0.001459
2898.000000	0.001454
2897.000000	0.001453
2896.000000	0.001451
2895.000000	0.001449
2894.000000	0.001445
2893.000000	0.001433
2892.000000	0.001408
2891.000000	0.001371
2890.000000	0.001333
2889.000000	0.001309
2888.000000	0.001307
2887.000000	0.001324
2886.000000	0.001349
2885.000000	0.001365
2884.000000	0.001362
2883.000000	0.001336
2882.000000	0.001302
2881.000000	0.001277
2880.000000	0.001277
2879.000000	0.001300
2878.000000	0.001333
2877.000000	0.001357
2876.000000	0.001362
2875.000000	0.001353
2874.000000	0.001344
2873.000000	0.001343
2872.000000	0.001346
2871.000000	0.001344
2870.000000	0.001334
2869.000000	0.001322
2868.000000	0.001311
2867.000000	0.001302
2866.000000	0.001296
2865.000000	0.001294
2864.000000	0.001301
2863.000000	0.001315
2862.000000	0.001333
2861.000000	0.001348
2860.000000	0.001359
2859.000000	0.001370
2858.000000	0.001384
2857.000000	0.001401
2856.000000	0.001411
2855.000000	0.001408
2854.000000	0.001395
2853.000000	0.001381
2852.000000	0.001372
2851.000000	0.001366
2850.000000	0.001358
2849.000000	0.001352
2848.000000	0.001348
2847.000000	0.001341
2846.000000	0.001323
2845.000000	0.001296
2844.000000	0.001273
2843.000000	0.001262
2842.000000	0.001264
2841.000000	0.001268
2840.000000	0.001264
2839.000000	0.001249
2838.000000	0.001227
2837.000000	0.001208
2836.000000	0.001195
2835.000000	0.001185
2834.000000	0.001172
2833.000000	0.001161
2832.000000	0.001163
2831.000000	0.001181
2830.000000	0.001206
2829.000000	0.001222
2828.000000	0.001223
2827.000000	0.001215
2826.000000	0.001206
2825.000000	0.001198
2824.000000	0.001187
2823.000000	0.001172
2822.000000	0.001156
2821.000000	0.001143
2820.000000	0.001135
2819.000000	0.001134
2818.000000	0.001138
2817.000000	0.001142
2816.000000	0.001139
2815.000000	0.001132
2814.000000	0.001128
2813.000000	0.001133
2812.000000	0.001143
2811.000000	0.001143
2810.000000	0.001129
2809.000000	0.001107
2808.000000	0.001089
2807.000000	0.001084
2806.000000	0.001087
2805.000000	0.001093
2804.000000	0.001097
2803.000000	0.001098
2802.000000	0.001100
2801.000000	0.001106
2800.000000	0.001114
2799.000000	0.001122
2798.000000	0.001129
2797.000000	0.001136
2796.000000	0.001139
2795.000000	0.001134
2794.000000	0.001120
2793.000000	0.001105
2792.000000	0.001097
2791.000000	0.001101
2790.000000	0.001113
2789.000000	0.001126
2788.000000	0.001137
2787.000000	0.001140
2786.000000	0.001135
2785.000000	0.001121
2784.000000	0.001102
2783.000000	0.001080
2782.000000	0.001058
2781.000000	0.001040
2780.000000	0.001031
2779.000000	0.001030
2778.000000	0.001032
2777.000000	0.001033
2776.000000	0.001032
2775.000000	0.001032
2774.000000	0.001035
2773.000000	0.001041
2772.000000	0.001050
2771.000000	0.001059
2770.000000	0.001061
2769.000000	0.001057
2768.000000	0.001055
2767.000000	0.001061
2766.000000	0.001077
2765.000000	0.001096
2764.000000	0.001112
2763.000000	0.001125
2762.000000	0.001136
2761.000000	0.001149
2760.000000	0.001166
2759.000000	0.001182
2758.000000	0.001189
2757.000000	0.001180
2756.000000	0.001159
2755.000000	0.001136
2754.000000	0.001119
2753.000000	0.001109
2752.000000	0.001103
2751.000000	0.001101
2750.000000	0.001103
2749.000000	0.001112
2748.000000	0.001124
2747.000000	0.001135
2746.000000	0.001141
2745.000000	0.001144
2744.000000	0.001145
2743.000000	0.001144
2742.000000	0.001138
2741.000000	0.001129
2740.000000	0.001116
2739.000000	0.001102
2738.000000	0.001089
2737.000000	0.001075
2736.000000	0.001064
2735.000000	0.001060
2734.000000	0.001067
2733.000000	0.001084
2732.000000	0.001105
2731.000000	0.001118
2730.000000	0.001117
2729.000000	0.001106
2728.000000	0.001092
2727.000000	0.001080
2726.000000	0.001074
2725.000000	0.001075
2724.000000	0.001078
2723.000000	0.001082
2722.000000	0.001081
2721.000000	0.001077
2720.000000	0.001070
2719.000000	0.001060
2718.000000	0.001046
2717.000000	0.001030
2716.000000	0.001019
2715.000000	0.001016
2714.000000	0.001018
2713.000000	0.001019
2712.000000	0.001019
2711.000000	0.001021
2710.000000	0.001030
2709.000000	0.001047
2708.000000	0.001069
2707.000000	0.001092
2706.000000	0.001110
2705.000000	0.001118
2704.000000	0.001112
2703.000000	0.001095
2702.000000	0.001071
2701.000000	0.001047
2700.000000	0.001031
2699.000000	0.001022
2698.000000	0.001020
2697.000000	0.001021
2696.000000	0.001029
2695.000000	0.001039
2694.000000	0.001046
2693.000000	0.001044
2692.000000	0.001038
2691.000000	0.001040
2690.000000	0.001052
2689.000000	0.001067
2688.000000	0.001076
2687.000000	0.001079
2686.000000	0.001078
2685.000000	0.001076
2684.000000	0.001068
2683.000000	0.001052
2682.000000	0.001033
2681.000000	0.001021
2680.000000	0.001021
2679.000000	0.001027
2678.000000	0.001035
2677.000000	0.001040
2676.000000	0.001043
2675.000000	0.001047
2674.000000	0.001050
2673.000000	0.001048
2672.000000	0.001040
2671.000000	0.001030
2670.000000	0.001022
2669.000000	0.001022
2668.000000	0.001030
2667.000000	0.001042
2666.000000	0.001050
2665.000000	0.001052
2664.000000	0.001050
2663.000000	0.001051
2662.000000	0.001059
2661.000000	0.001073
2660.000000	0.001085
2659.000000	0.001091
2658.000000	0.001091
2657.000000	0.001090
2656.000000	0.001092
2655.000000	0.001099
2654.000000	0.001105
2653.000000	0.001101
2652.000000	0.001087
2651.000000	0.001067
2650.000000	0.001054
2649.000000	0.001048
2648.000000	0.001044
2647.000000	0.001035
2646.000000	0.001023
2645.000000	0.001016
2644.000000	0.001016
2643.000000	0.001017
2642.000000	0.001016
2641.000000	0.001016
2640.000000	0.001023
2639.000000	0.001036
2638.000000	0.001049
2637.000000	0.001058
2636.000000	0.001061
2635.000000	0.001062
2634.000000	0.001063
2633.000000	0.001064
2632.000000	0.001063
2631.000000	0.001051
2630.000000	0.001026
2629.000000	0.000994
2628.000000	0.000970
2627.000000	0.000961
2626.000000	0.000961
2625.000000	0.000957
2624.000000	0.000942
2623.000000	0.000917
2622.000000	0.000889
2621.000000	0.000863
2620.000000	0.000842
2619.000000	0.000829
2618.000000	0.000828
2617.000000	0.000841
2616.000000	0.000868
2615.000000	0.000896
2614.000000	0.000906
2613.000000	0.000891
2612.000000	0.000860
2611.000000	0.000834
2610.000000	0.000827
2609.000000	0.000837
2608.000000	0.000855
2607.000000	0.000874
2606.000000	0.000893
2605.000000	0.000915
2604.000000	0.000935
2603.000000	0.000945
2602.000000	0.000936
2601.000000	0.000907
2600.000000	0.000869
2599.000000	0.000830
2598.000000	0.000796
2597.000000	0.000774
2596.000000	0.000773
2595.000000	0.000794
2594.000000	0.000827
2593.000000	0.000857
2592.000000	0.000871
2591.000000	0.000868
2590.000000	0.000853
2589.000000	0.000837
2588.000000	0.000836
2587.000000	0.000858
2586.000000	0.000893
2585.000000	0.000921
2584.000000	0.000920
2583.000000	0.000883
2582.000000	0.000823
2581.000000	0.000762
2580.000000	0.000721
2579.000000	0.000709
2578.000000	0.000721
2577.000000	0.000745
2576.000000	0.000770
2575.000000	0.000788
2574.000000	0.000790
2573.000000	0.000777
2572.000000	0.000759
2571.000000	0.000751
2570.000000	0.000760
2569.000000	0.000779
2568.000000	0.000803
2567.000000	0.000826
2566.000000	0.000846
2565.000000	0.000858
2564.000000	0.000858
2563.000000	0.000846
2562.000000	0.000821
2561.000000	0.000786
2560.000000	0.000750
2559.000000	0.000726
2558.000000	0.000716
2557.000000	0.000715
2556.000000	0.000718
2555.000000	0.000729
2554.000000	0.000748
2553.000000	0.000764
2552.000000	0.000766
2551.000000	0.000752
2550.000000	0.000734
2549.000000	0.000723
2548.000000	0.000717
2547.000000	0.000708
2546.000000	0.000697
2545.000000	0.000688
2544.000000	0.000689
2543.000000	0.000700
2542.000000	0.000722
2541.000000	0.000753
2540.000000	0.000790
2539.000000	0.000818
2538.000000	0.000820
2537.000000	0.000793
2536.000000	0.000759
2535.000000	0.000745
2534.000000	0.000759
2533.000000	0.000785
2532.000000	0.000804
2531.000000	0.000809
2530.000000	0.000801
2529.000000	0.000789
2528.000000	0.000778
2527.000000	0.000771
2526.000000	0.000759
2525.000000	0.000733
2524.000000	0.000695
2523.000000	0.000662
2522.000000	0.000648
2521.000000	0.000649
2520.000000	0.000653
2519.000000	0.000663
2518.000000	0.000686
2517.000000	0.000717
2516.000000	0.000738
2515.000000	0.000741
2514.000000	0.000733
2513.000000	0.000719
2512.000000	0.000697
2511.000000	0.000666
2510.000000	0.000642
2509.000000	0.000646
2508.000000	0.000679
2507.000000	0.000722
2506.000000	0.000752
2505.000000	0.000761
2504.000000	0.000761
2503.000000	0.000765
2502.000000	0.000778
2501.000000	0.000790
2500.000000	0.000793
2499.000000	0.000788
2498.000000	0.000779
2497.000000	0.000769
2496.000000	0.000763
2495.000000	0.000767
2494.000000	0.000780
2493.000000	0.000788
2492.000000	0.000775
2491.000000	0.000744
2490.000000	0.000711
2489.000000	0.000690
2488.000000	0.000683
2487.000000	0.000685
2486.000000	0.000692
2485.000000	0.000698
2484.000000	0.000694
2483.000000	0.000686
2482.000000	0.000687
2481.000000	0.000708
2480.000000	0.000737
2479.000000	0.000752
2478.000000	0.000741
2477.000000	0.000713
2476.000000	0.000686
2475.000000	0.000674
2474.000000	0.000676
2473.000000	0.000691
2472.000000	0.000719
2471.000000	0.000762
2470.000000	0.000812
2469.000000	0.000849
2468.000000	0.000852
2467.000000	0.000825
2466.000000	0.000793
2465.000000	0.000774
2464.000000	0.000765
2463.000000	0.000749
2462.000000	0.000721
2461.000000	0.000688
2460.000000	0.000661
2459.000000	0.000644
2458.000000	0.000637
2457.000000	0.000642
2456.000000	0.000662
2455.000000	0.000694
2454.000000	0.000728
2453.000000	0.000755
2452.000000	0.000764
2451.000000	0.000749
2450.000000	0.000720
2449.000000	0.000691
2448.000000	0.000679
2447.000000	0.000690
2446.000000	0.000722
2445.000000	0.000758
2444.000000	0.000778
2443.000000	0.000776
2442.000000	0.000766
2441.000000	0.000771
2440.000000	0.000793
2439.000000	0.000814
2438.000000	0.000808
2437.000000	0.000767
2436.000000	0.000705
2435.000000	0.000646
2434.000000	0.000610
2433.000000	0.000606
2432.000000	0.000630
2431.000000	0.000666
2430.000000	0.000694
2429.000000	0.000704
2428.000000	0.000692
2427.000000	0.000666
2426.000000	0.000641
2425.000000	0.000631
2424.000000	0.000644
2423.000000	0.000673
2422.000000	0.000708
2421.000000	0.000743
2420.000000	0.000772
2419.000000	0.000783
2418.000000	0.000763
2417.000000	0.000717
2416.000000	0.000668
2415.000000	0.000639
2414.000000	0.000642
2413.000000	0.000668
2412.000000	0.000701
2411.000000	0.000725
2410.000000	0.000729
2409.000000	0.000712
2408.000000	0.000686
2407.000000	0.000669
2406.000000	0.000672
2405.000000	0.000689
2404.000000	0.000696
2403.000000	0.000671
2402.000000	0.000608
2401.000000	0.000528
2400.000000	0.000464
2399.000000	0.000445
2398.000000	0.000471
2397.000000	0.000520
2396.000000	0.000560
2395.000000	0.000576
2394.000000	0.000574
2393.000000	0.000580
2392.000000	0.000606
2391.000000	0.000642
2390.000000	0.000660
2389.000000	0.000651
2388.000000	0.000635
2387.000000	0.000636
2386.000000	0.000653
2385.000000	0.000663
2384.000000	0.000648
2383.000000	0.000616
2382.000000	0.000585
2381.000000	0.000568
2380.000000	0.000564
2379.000000	0.000568
2378.000000	0.000572
2377.000000	0.000566
2376.000000	0.000550
2375.000000	0.000536
2374.000000	0.000533
2373.000000	0.000540
2372.000000	0.000543
2371.000000	0.000543
2370.000000	0.000561
2369.000000	0.000610
2368.000000	0.000670
2367.000000	0.000704
2366.000000	0.000698
2365.000000	0.000670
2364.000000	0.000648
2363.000000	0.000638
2362.000000	0.000626
2361.000000	0.000600
2360.000000	0.000566
2359.000000	0.000540
2358.000000	0.000537
2357.000000	0.000558
2356.000000	0.000586
2355.000000	0.000604
2354.000000	0.000611
2353.000000	0.000615
2352.000000	0.000615
2351.000000	0.000612
2350.000000	0.000614
2349.000000	0.000623
2348.000000	0.000642
2347.000000	0.000657
2346.000000	0.000652
2345.000000	0.000625
2344.000000	0.000598
2343.000000	0.000597
2342.000000	0.000616
2341.000000	0.000640
2340.000000	0.000651
2339.000000	0.000649
2338.000000	0.000646
2337.000000	0.000664
2336.000000	0.000706
2335.000000	0.000753
2334.000000	0.000772
2333.000000	0.000754
2332.000000	0.000712
2331.000000	0.000679
2330.000000	0.000672
2329.000000	0.000687
2328.000000	0.000719
2327.000000	0.000769
2326.000000	0.000834
2325.000000	0.000893
2324.000000	0.000917
2323.000000	0.000900
2322.000000	0.000862
2321.000000	0.000832
2320.000000	0.000826
2319.000000	0.000843
2318.000000	0.000868
2317.000000	0.000876
2316.000000	0.000850
2315.000000	0.000797
2314.000000	0.000747
2313.000000	0.000722
2312.000000	0.000722
2311.000000	0.000732
2310.000000	0.000744
2309.000000	0.000756
2308.000000	0.000762
2307.000000	0.000755
2306.000000	0.000740
2305.000000	0.000736
2304.000000	0.000758
2303.000000	0.000795
2302.000000	0.000821
2301.000000	0.000818
2300.000000	0.000790
2299.000000	0.000765
2298.000000	0.000759
2297.000000	0.000768
2296.000000	0.000774
2295.000000	0.000768
2294.000000	0.000764
2293.000000	0.000784
2292.000000	0.000830
2291.000000	0.000883
2290.000000	0.000917
2289.000000	0.000925
2288.000000	0.000912
2287.000000	0.000891
2286.000000	0.000868
2285.000000	0.000848
2284.000000	0.000839
2283.000000	0.000847
2282.000000	0.000872
2281.000000	0.000904
2280.000000	0.000928
2279.000000	0.000924
2278.000000	0.000881
2277.000000	0.000802
2276.000000	0.000715
2275.000000	0.000657
2274.000000	0.000647
2273.000000	0.000685
2272.000000	0.000754
2271.000000	0.000834
2270.000000	0.000909
2269.000000	0.000957
2268.000000	0.000965
2267.000000	0.000943
2266.000000	0.000921
2265.000000	0.000918
2264.000000	0.000922
2263.000000	0.000905
2262.000000	0.000856
2261.000000	0.000793
2260.000000	0.000744
2259.000000	0.000715
2258.000000	0.000692
2257.000000	0.000672
2256.000000	0.000672
2255.000000	0.000702
2254.000000	0.000741
2253.000000	0.000741
2252.000000	0.000676
2251.000000	0.000579
2250.000000	0.000518
2249.000000	0.000544
2248.000000	0.000641
2247.000000	0.000741
2246.000000	0.000776
2245.000000	0.000746
2244.000000	0.000709
2243.000000	0.000720
2242.000000	0.000777
2241.000000	0.000839
2240.000000	0.000880
2239.000000	0.000912
2238.000000	0.000950
2237.000000	0.000982
2236.000000	0.000995
2235.000000	0.001007
2234.000000	0.001045
2233.000000	0.001096
2232.000000	0.001102
2231.000000	0.001021
2230.000000	0.000873
2229.000000	0.000726
2228.000000	0.000628
2227.000000	0.000584
2226.000000	0.000566
2225.000000	0.000558
2224.000000	0.000575
2223.000000	0.000643
2222.000000	0.000757
2221.000000	0.000867
2220.000000	0.000915
2219.000000	0.000895
2218.000000	0.000848
2217.000000	0.000814
2216.000000	0.000790
2215.000000	0.000750
2214.000000	0.000695
2213.000000	0.000660
2212.000000	0.000673
2211.000000	0.000723
2210.000000	0.000777
2209.000000	0.000825
2208.000000	0.000875
2207.000000	0.000904
2206.000000	0.000854
2205.000000	0.000704
2204.000000	0.000530
2203.000000	0.000462
2202.000000	0.000540
2201.000000	0.000676
2200.000000	0.000750
2199.000000	0.000731
2198.000000	0.000686
2197.000000	0.000688
2196.000000	0.000756
2195.000000	0.000865
2194.000000	0.000969
2193.000000	0.001008
2192.000000	0.000927
2191.000000	0.000733
2190.000000	0.000503
2189.000000	0.000344
2188.000000	0.000333
2187.000000	0.000473
2186.000000	0.000702
2185.000000	0.000929
2184.000000	0.001075
2183.000000	0.001101
2182.000000	0.001003
2181.000000	0.000815
2180.000000	0.000600
2179.000000	0.000422
2178.000000	0.000304
2177.000000	0.000230
2176.000000	0.000207
2175.000000	0.000278
2174.000000	0.000462
2173.000000	0.000682
2172.000000	0.000819
2171.000000	0.000828
2170.000000	0.000776
2169.000000	0.000769
2168.000000	0.000844
2167.000000	0.000936
2166.000000	0.000942
2165.000000	0.000816
2164.000000	0.000636
2163.000000	0.000541
2162.000000	0.000571
2161.000000	0.000611
2160.000000	0.000500
2159.000000	0.000203
2158.000000	-0.000177
2157.000000	-0.000515
2156.000000	-0.000721
2155.000000	-0.000724
2154.000000	-0.000514
2153.000000	-0.000200
2152.000000	0.000066
2151.000000	0.000214
2150.000000	0.000271
2149.000000	0.000264
2148.000000	0.000193
2147.000000	0.000104
2146.000000	0.000089
2145.000000	0.000174
2144.000000	0.000271
2143.000000	0.000281
2142.000000	0.000196
2141.000000	0.000082
2140.000000	0.000005
2139.000000	-0.000003
2138.000000	0.000052
2137.000000	0.000118
2136.000000	0.000122
2135.000000	0.000047
2134.000000	-0.000042
2133.000000	-0.000076
2132.000000	-0.000052
2131.000000	-0.000005
2130.000000	0.000061
2129.000000	0.000169
2128.000000	0.000324
2127.000000	0.000492
2126.000000	0.000633
2125.000000	0.000719
2124.000000	0.000735
2123.000000	0.000691
2122.000000	0.000627
2121.000000	0.000584
2120.000000	0.000567
2119.000000	0.000557
2118.000000	0.000547
2117.000000	0.000551
2116.000000	0.000584
2115.000000	0.000639
2114.000000	0.000691
2113.000000	0.000722
2112.000000	0.000724
2111.000000	0.000711
2110.000000	0.000696
2109.000000	0.000681
2108.000000	0.000650
2107.000000	0.000604
2106.000000	0.000578
2105.000000	0.000608
2104.000000	0.000680
2103.000000	0.000730
2102.000000	0.000711
2101.000000	0.000632
2100.000000	0.000545
2099.000000	0.000492
2098.000000	0.000478
2097.000000	0.000497
2096.000000	0.000553
2095.000000	0.000650
2094.000000	0.000768
2093.000000	0.000851
2092.000000	0.000863
2091.000000	0.000830
2090.000000	0.000811
2089.000000	0.000833
2088.000000	0.000864
2087.000000	0.000870
2086.000000	0.000863
2085.000000	0.000868
2084.000000	0.000868
2083.000000	0.000826
2082.000000	0.000746
2081.000000	0.000673
2080.000000	0.000638
2079.000000	0.000626
2078.000000	0.000616
2077.000000	0.000616
2076.000000	0.000633
2075.000000	0.000647
2074.000000	0.000635
2073.000000	0.000616
2072.000000	0.000620
2071.000000	0.000642
2070.000000	0.000643
2069.000000	0.000603
2068.000000	0.000566
2067.000000	0.000585
2066.000000	0.000665
2065.000000	0.000748
2064.000000	0.000776
2063.000000	0.000729
2062.000000	0.000625
2061.000000	0.000495
2060.000000	0.000390
2059.000000	0.000364
2058.000000	0.000435
2057.000000	0.000548
2056.000000	0.000622
2055.000000	0.000641
2054.000000	0.000673
2053.000000	0.000774
2052.000000	0.000898
2051.000000	0.000947
2050.000000	0.000881
2049.000000	0.000759
2048.000000	0.000667
2047.000000	0.000629
2046.000000	0.000597
2045.000000	0.000530
2044.000000	0.000442
2043.000000	0.000392
2042.000000	0.000430
2041.000000	0.000561
2040.000000	0.000743
2039.000000	0.000925
2038.000000	0.001052
2037.000000	0.001056
2036.000000	0.000884
2035.000000	0.000562
2034.000000	0.000209
2033.000000	-0.000038
2032.000000	-0.000108
2031.000000	-0.000006
2030.000000	0.000181
2029.000000	0.000291
2028.000000	0.000189
2027.000000	-0.000061
2026.000000	-0.000212
2025.000000	-0.000100
2024.000000	0.000153
2023.000000	0.000286
2022.000000	0.000213
2021.000000	0.000066
2020.000000	-0.000030
2019.000000	-0.000092
2018.000000	-0.000183
2017.000000	-0.000283
2016.000000	-0.000316
2015.000000	-0.000237
2014.000000	-0.000044
2013.000000	0.000208
2012.000000	0.000401
2011.000000	0.000422
2010.000000	0.000292
2009.000000	0.000172
2008.000000	0.000196
2007.000000	0.000333
2006.000000	0.000455
2005.000000	0.000475
2004.000000	0.000390
2003.000000	0.000252
2002.000000	0.000148
2001.000000	0.000170
2000.000000	0.000331
1999.000000	0.000526
1998.000000	0.000623
1997.000000	0.000586
1996.000000	0.000486
1995.000000	0.000421
1994.000000	0.000430
1993.000000	0.000487
1992.000000	0.000521
1991.000000	0.000474
1990.000000	0.000359
1989.000000	0.000257
1988.000000	0.000247
1987.000000	0.000329
1986.000000	0.000441
1985.000000	0.000525
1984.000000	0.000573
1983.000000	0.000605
1982.000000	0.000633
1981.000000	0.000646
1980.000000	0.000613
1979.000000	0.000496
1978.000000	0.000287
1977.000000	0.000032
1976.000000	-0.000189
1975.000000	-0.000322
1974.000000	-0.000356
1973.000000	-0.000292
1972.000000	-0.000153
1971.000000	0.000014
1970.000000	0.000150
1969.000000	0.000211
1968.000000	0.000187
1967.000000	0.000121
1966.000000	0.000082
1965.000000	0.000124
1964.000000	0.000234
1963.000000	0.000352
1962.000000	0.000427
1961.000000	0.000446
1960.000000	0.000412
1959.000000	0.000317
1958.000000	0.000160
1957.000000	-0.000018
1956.000000	-0.000132
1955.000000	-0.000103
1954.000000	0.000083
1953.000000	0.000351
1952.000000	0.000560
1951.000000	0.000595
1950.000000	0.000447
1949.000000	0.000228
1948.000000	0.000087
1947.000000	0.000103
1946.000000	0.000241
1945.000000	0.000400
1944.000000	0.000496
1943.000000	0.000509
1942.000000	0.000483
1941.000000	0.000465
1940.000000	0.000453
1939.000000	0.000405
1938.000000	0.000290
1937.000000	0.000133
1936.000000	-0.000001
1935.000000	-0.000058
1934.000000	-0.000028
1933.000000	0.000062
1932.000000	0.000173
1931.000000	0.000277
1930.000000	0.000360
1929.000000	0.000412
1928.000000	0.000440
1927.000000	0.000456
1926.000000	0.000470
1925.000000	0.000476
1924.000000	0.000459
1923.000000	0.000415
1922.000000	0.000363
1921.000000	0.000325
1920.000000	0.000305
1919.000000	0.000290
1918.000000	0.000263
1917.000000	0.000220
1916.000000	0.000173
1915.000000	0.000154
1914.000000	0.000191
1913.000000	0.000287
1912.000000	0.000403
1911.000000	0.000486
1910.000000	0.000512
1909.000000	0.000485
1908.000000	0.000425
1907.000000	0.000351
1906.000000	0.000279
1905.000000	0.000231
1904.000000	0.000228
1903.000000	0.000270
1902.000000	0.000331
1901.000000	0.000369
1900.000000	0.000355
1899.000000	0.000299
1898.000000	0.000240
1897.000000	0.000208
1896.000000	0.000198
1895.000000	0.000193
1894.000000	0.000185
1893.000000	0.000189
1892.000000	0.000211
1891.000000	0.000245
1890.000000	0.000281
1889.000000	0.000308
1888.000000	0.000320
1887.000000	0.000317
1886.000000	0.000304
1885.000000	0.000284
1884.000000	0.000259
1883.000000	0.000236
1882.000000	0.000224
1881.000000	0.000221
1880.000000	0.000209
1879.000000	0.000183
1878.000000	0.000157
1877.000000	0.000149
1876.000000	0.000155
1875.000000	0.000153
1874.000000	0.000123
1873.000000	0.000066
1872.000000	0.000000
1871.000000	-0.000032
1870.000000	0.000016
1869.000000	0.000145
1868.000000	0.000261
1867.000000	0.000271
1866.000000	0.000188
1865.000000	0.000096
1864.000000	0.000059
1863.000000	0.000073
1862.000000	0.000095
1861.000000	0.000097
1860.000000	0.000082
1859.000000	0.000072
1858.000000	0.000085
1857.000000	0.000122
1856.000000	0.000159
1855.000000	0.000179
1854.000000	0.000183
1853.000000	0.000191
1852.000000	0.000205
1851.000000	0.000208
1850.000000	0.000193
1849.000000	0.000171
1848.000000	0.000160
1847.000000	0.000160
1846.000000	0.000158
1845.000000	0.000148
1844.000000	0.000135
1843.000000	0.000122
1842.000000	0.000107
1841.000000	0.000090
1840.000000	0.000075
1839.000000	0.000059
1838.000000	0.000041
1837.000000	0.000029
1836.000000	0.000038
1835.000000	0.000072
1834.000000	0.000116
1833.000000	0.000148
1832.000000	0.000154
1831.000000	0.000136
1830.000000	0.000111
1829.000000	0.000092
1828.000000	0.000073
1827.000000	0.000043
1826.000000	0.000014
1825.000000	0.000012
1824.000000	0.000042
1823.000000	0.000073
1822.000000	0.000077
1821.000000	0.000047
1820.000000	-0.000002
1819.000000	-0.000052
1818.000000	-0.000077
1817.000000	-0.000059
1816.000000	-0.000009
1815.000000	0.000039
1814.000000	0.000058
1813.000000	0.000047
1812.000000	0.000022
1811.000000	-0.000003
1810.000000	-0.000018
1809.000000	-0.000012
1808.000000	0.000016
1807.000000	0.000048
1806.000000	0.000065
1805.000000	0.000062
1804.000000	0.000043
1803.000000	0.000014
1802.000000	-0.000017
1801.000000	-0.000037
1800.000000	-0.000034
1799.000000	-0.000014
1798.000000	0.000005
1797.000000	0.000014
1796.000000	0.000013
1795.000000	0.000011
1794.000000	0.000021
1793.000000	0.000059
1792.000000	0.000112
1791.000000	0.000143
1790.000000	0.000131
1789.000000	0.000099
1788.000000	0.000079
1787.000000	0.000092
1786.000000	0.000129
1785.000000	0.000161
1784.000000	0.000161
1783.000000	0.000130
1782.000000	0.000087
1781.000000	0.000051
1780.000000	0.000028
1779.000000	0.000013
1778.000000	-0.000000
1777.000000	-0.000011
1776.000000	-0.000015
1775.000000	-0.000015
1774.000000	-0.000013
1773.000000	-0.000010
1772.000000	0.000004
1771.000000	0.000028
1770.000000	0.000056
1769.000000	0.000083
1768.000000	0.000097
1767.000000	0.000083
1766.000000	0.000035
1765.000000	-0.000030
1764.000000	-0.000082
1763.000000	-0.000097
1762.000000	-0.000068
1761.000000	-0.000022
1760.000000	0.000012
1759.000000	0.000026
1758.000000	0.000033
1757.000000	0.000051
1756.000000	0.000081
1755.000000	0.000114
1754.000000	0.000141
1753.000000	0.000158
1752.000000	0.000166
1751.000000	0.000164
1750.000000	0.000160
1749.000000	0.000162
1748.000000	0.000171
1747.000000	0.000176
1746.000000	0.000175
1745.000000	0.000179
1744.000000	0.000197
1743.000000	0.000220
1742.000000	0.000227
1741.000000	0.000216
1740.000000	0.000201
1739.000000	0.000187
1738.000000	0.000172
1737.000000	0.000155
1736.000000	0.000140
1735.000000	0.000136
1734.000000	0.000150
1733.000000	0.000171
1732.000000	0.000181
1731.000000	0.000191
1730.000000	0.000218
1729.000000	0.000250
1728.000000	0.000263
1727.000000	0.000244
1726.000000	0.000209
1725.000000	0.000186
1724.000000	0.000188
1723.000000	0.000197
1722.000000	0.000186
1721.000000	0.000154
1720.000000	0.000126
1719.000000	0.000121
1718.000000	0.000121
1717.000000	0.000103
1716.000000	0.000075
1715.000000	0.000069
1714.000000	0.000101
1713.000000	0.000156
1712.000000	0.000207
1711.000000	0.000241
1710.000000	0.000261
1709.000000	0.000269
1708.000000	0.000269
1707.000000	0.000273
1706.000000	0.000294
1705.000000	0.000328
1704.000000	0.000353
1703.000000	0.000363
1702.000000	0.000380
1701.000000	0.000459
1700.000000	0.000601
1699.000000	0.000711
1698.000000	0.000757
1697.000000	0.000778
1696.000000	0.000800
1695.000000	0.000815
1694.000000	0.000813
1693.000000	0.000813
1692.000000	0.000838
1691.000000	0.000888
1690.000000	0.000950
1689.000000	0.001013
1688.000000	0.001073
1687.000000	0.001122
1686.000000	0.001155
1685.000000	0.001197
1684.000000	0.001271
1683.000000	0.001348
1682.000000	0.001392
1681.000000	0.001417
1680.000000	0.001447
1679.000000	0.001490
1678.000000	0.001545
1677.000000	0.001620
1676.000000	0.001721
1675.000000	0.001821
1674.000000	0.001880
1673.000000	0.001896
1672.000000	0.001906
1671.000000	0.001946
1670.000000	0.002027
1669.000000	0.002132
1668.000000	0.002226
1667.000000	0.002288
1666.000000	0.002324
1665.000000	0.002354
1664.000000	0.002397
1663.000000	0.002459
1662.000000	0.002528
1661.000000	0.002587
1660.000000	0.002634
1659.000000	0.002676
1658.000000	0.002724
1657.000000	0.002785
1656.000000	0.002859
1655.000000	0.002932
1654.000000	0.002989
1653.000000	0.003050
1652.000000	0.003128
1651.000000	0.003162
1650.000000	0.003156
1649.000000	0.003161
1648.000000	0.003183
1647.000000	0.003206
1646.000000	0.003223
1645.000000	0.003237
1644.000000	0.003245
1643.000000	0.003256
1642.000000	0.003283
1641.000000	0.003324
1640.000000	0.003368
1639.000000	0.003404
1638.000000	0.003425
1637.000000	0.003427
1636.000000	0.003411
1635.000000	0.003398
1634.000000	0.003400
1633.000000	0.003402
1632.000000	0.003397
1631.000000	0.003386
1630.000000	0.003378
1629.000000	0.003384
1628.000000	0.003400
1627.000000	0.003404
1626.000000	0.003381
1625.000000	0.003339
1624.000000	0.003302
1623.000000	0.003287
1622.000000	0.003284
1621.000000	0.003269
1620.000000	0.003242
1619.000000	0.003217
1618.000000	0.003204
1617.000000	0.003194
1616.000000	0.003171
1615.000000	0.003130
1614.000000	0.003081
1613.000000	0.003038
1612.000000	0.002999
1611.000000	0.002955
1610.000000	0.002904
1609.000000	0.002850
1608.000000	0.002793
1607.000000	0.002735
1606.000000	0.002680
1605.000000	0.002631
1604.000000	0.002586
1603.000000	0.002545
1602.000000	0.002506
1601.000000	0.002471
1600.000000	0.002442
1599.000000	0.002418
1598.000000	0.002393
1597.000000	0.002365
1596.000000	0.002336
1595.000000	0.002315
1594.000000	0.002305
1593.000000	0.002298
1592.000000	0.002280
1591.000000	0.002250
1590.000000	0.002214
1589.000000	0.002180
1588.000000	0.002150
1587.000000	0.002127
1586.000000	0.002114
1585.000000	0.002111
1584.000000	0.002113
1583.000000	0.002115
1582.000000	0.002111
1581.000000	0.002100
1580.000000	0.002087
1579.000000	0.002081
1578.000000	0.002083
1577.000000	0.002084
1576.000000	0.002078
1575.000000	0.002075
1574.000000	0.002071
1573.000000	0.002065
1572.000000	0.002067
1571.000000	0.002084
1570.000000	0.002118
1569.000000	0.002146
1568.000000	0.002151
1567.000000	0.002137
1566.000000	0.002128
1565.000000	0.002140
1564.000000	0.002170
1563.000000	0.002204
1562.000000	0.002228
1561.000000	0.002230
1560.000000	0.002232
1559.000000	0.002255
1558.000000	0.002320
1557.000000	0.002396
1556.000000	0.002438
1555.000000	0.002459
1554.000000	0.002456
1553.000000	0.002439
1552.000000	0.002424
1551.000000	0.002426
1550.000000	0.002450
1549.000000	0.002483
1548.000000	0.002512
1547.000000	0.002535
1546.000000	0.002557
1545.000000	0.002578
1544.000000	0.002585
1543.000000	0.002576
1542.000000	0.002565
1541.000000	0.002571
1540.000000	0.002597
1539.000000	0.002630
1538.000000	0.002644
1537.000000	0.002632
1536.000000	0.002623
1535.000000	0.002622
1534.000000	0.002611
1533.000000	0.002570
1532.000000	0.002520
1531.000000	0.002481
1530.000000	0.002453
1529.000000	0.002430
1528.000000	0.002406
1527.000000	0.002374
1526.000000	0.002335
1525.000000	0.002299
1524.000000	0.002272
1523.000000	0.002249
1522.000000	0.002223
1521.000000	0.002199
1520.000000	0.002186
1519.000000	0.002175
1518.000000	0.002166
1517.000000	0.002161
1516.000000	0.002153
1515.000000	0.002139
1514.000000	0.002112
1513.000000	0.002072
1512.000000	0.002025
1511.000000	0.001980
1510.000000	0.001946
1509.000000	0.001923
1508.000000	0.001887
1507.000000	0.001807
1506.000000	0.001732
1505.000000	0.001702
1504.000000	0.001671
1503.000000	0.001633
1502.000000	0.001599
1501.000000	0.001581
1500.000000	0.001585
1499.000000	0.001601
1498.000000	0.001598
1497.000000	0.001557
1496.000000	0.001495
1495.000000	0.001431
1494.000000	0.001369
1493.000000	0.001309
1492.000000	0.001255
1491.000000	0.001213
1490.000000	0.001178
1489.000000	0.001151
1488.000000	0.001138
1487.000000	0.001140
1486.000000	0.001155
1485.000000	0.001180
1484.000000	0.001209
1483.000000	0.001236
1482.000000	0.001255
1481.000000	0.001267
1480.000000	0.001273
1479.000000	0.001278
1478.000000	0.001282
1477.000000	0.001289
1476.000000	0.001302
1475.000000	0.001326
1474.000000	0.001366
1473.000000	0.001423
1472.000000	0.001478
1471.000000	0.001513
1470.000000	0.001525
1469.000000	0.001524
1468.000000	0.001518
1467.000000	0.001510
1466.000000	0.001508
1465.000000	0.001524
1464.000000	0.001565
1463.000000	0.001615
1462.000000	0.001659
1461.000000	0.001694
1460.000000	0.001725
1459.000000	0.001758
1458.000000	0.001793
1457.000000	0.001833
1456.000000	0.001869
1455.000000	0.001880
1454.000000	0.001876
1453.000000	0.001885
1452.000000	0.001906
1451.000000	0.001927
1450.000000	0.001939
1449.000000	0.001948
1448.000000	0.001959
1447.000000	0.001976
1446.000000	0.001998
1445.000000	0.002026
1444.000000	0.002050
1443.000000	0.002057
1442.000000	0.002042
1441.000000	0.002019
1440.000000	0.002003
1439.000000	0.001995
1438.000000	0.001984
1437.000000	0.001975
1436.000000	0.001982
1435.000000	0.002006
1434.000000	0.002025
1433.000000	0.002032
1432.000000	0.002034
1431.000000	0.002043
1430.000000	0.002060
1429.000000	0.002078
1428.000000	0.002087
1427.000000	0.002090
1426.000000	0.002095
1425.000000	0.002105
1424.000000	0.002113
1423.000000	0.002113
1422.000000	0.002101
1421.000000	0.002076
1420.000000	0.002041
1419.000000	0.002022
1418.000000	0.002041
1417.000000	0.002085
1416.000000	0.002126
1415.000000	0.002142
1414.000000	0.002134
1413.000000	0.002115
1412.000000	0.002100
1411.000000	0.002095
1410.000000	0.002093
1409.000000	0.002090
1408.000000	0.002086
1407.000000	0.002082
1406.000000	0.002072
1405.000000	0.002047
1404.000000	0.002011
1403.000000	0.001982
1402.000000	0.001968
1401.000000	0.001966
1400.000000	0.001967
1399.000000	0.001970
1398.000000	0.001974
1397.000000	0.001973
1396.000000	0.001959
1395.000000	0.001935
1394.000000	0.001914
1393.000000	0.001897
1392.000000	0.001877
1391.000000	0.001854
1390.000000	0.001839
1389.000000	0.001842
1388.000000	0.001859
1387.000000	0.001871
1386.000000	0.001866
1385.000000	0.001848
1384.000000	0.001827
1383.000000	0.001811
1382.000000	0.001803
1381.000000	0.001804
1380.000000	0.001810
1379.000000	0.001815
1378.000000	0.001818
1377.000000	0.001817
1376.000000	0.001812
1375.000000	0.001797
1374.000000	0.001770
1373.000000	0.001746
1372.000000	0.001737
1371.000000	0.001739
1370.000000	0.001733
1369.000000	0.001704
1368.000000	0.001658
1367.000000	0.001621
1366.000000	0.001609
1365.000000	0.001615
1364.000000	0.001614
1363.000000	0.001592
1362.000000	0.001561
1361.000000	0.001543
1360.000000	0.001540
1359.000000	0.001535
1358.000000	0.001514
1357.000000	0.001482
1356.000000	0.001449
1355.000000	0.001429
1354.000000	0.001423
1353.000000	0.001420
1352.000000	0.001407
1351.000000	0.001382
1350.000000	0.001357
1349.000000	0.001346
1348.000000	0.001353
1347.000000	0.001374
1346.000000	0.001404
1345.000000	0.001434
1344.000000	0.001454
1343.000000	0.001463
1342.000000	0.001467
1341.000000	0.001472
1340.000000	0.001477
1339.000000	0.001480
1338.000000	0.001489
1337.000000	0.001506
1336.000000	0.001522
1335.000000	0.001523
1334.000000	0.001505
1333.000000	0.001486
1332.000000	0.001481
1331.000000	0.001499
1330.000000	0.001529
1329.000000	0.001555
1328.000000	0.001569
1327.000000	0.001572
1326.000000	0.001574
1325.000000	0.001583
1324.000000	0.001599
1323.000000	0.001612
1322.000000	0.001619
1321.000000	0.001621
1320.000000	0.001625
1319.000000	0.001633
1318.000000	0.001635
1317.000000	0.001617
1316.000000	0.001577
1315.000000	0.001533
1314.000000	0.001501
1313.000000	0.001479
1312.000000	0.001450
1311.000000	0.001399
1310.000000	0.001335
1309.000000	0.001279
1308.000000	0.001246
1307.000000	0.001239
1306.000000	0.001246
1305.000000	0.001250
1304.000000	0.001238
1303.000000	0.001210
1302.000000	0.001173
1301.000000	0.001130
1300.000000	0.001088
1299.000000	0.001055
1298.000000	0.001039
1297.000000	0.001037
1296.000000	0.001036
1295.000000	0.001023
1294.000000	0.000994
1293.000000	0.000958
1292.000000	0.000926
1291.000000	0.000907
1290.000000	0.000909
1289.000000	0.000929
1288.000000	0.000952
1287.000000	0.000968
1286.000000	0.000978
1285.000000	0.000986
1284.000000	0.000989
1283.000000	0.000982
1282.000000	0.000968
1281.000000	0.000957
1280.000000	0.000954
1279.000000	0.000954
1278.000000	0.000955
1277.000000	0.000966
1276.000000	0.000986
1275.000000	0.001006
1274.000000	0.001012
1273.000000	0.001002
1272.000000	0.000987
1271.000000	0.000978
1270.000000	0.000980
1269.000000	0.000991
1268.000000	0.001004
1267.000000	0.001013
1266.000000	0.001014
1265.000000	0.001012
1264.000000	0.001017
1263.000000	0.001035
1262.000000	0.001063
1261.000000	0.001087
1260.000000	0.001096
1259.000000	0.001093
1258.000000	0.001089
1257.000000	0.001093
1256.000000	0.001104
1255.000000	0.001116
1254.000000	0.001129
1253.000000	0.001144
1252.000000	0.001166
1251.000000	0.001190
1250.000000	0.001212
1249.000000	0.001232
1248.000000	0.001246
1247.000000	0.001254
1246.000000	0.001256
1245.000000	0.001260
1244.000000	0.001275
1243.000000	0.001299
1242.000000	0.001325
1241.000000	0.001340
1240.000000	0.001341
1239.000000	0.001336
1238.000000	0.001341
1237.000000	0.001367
1236.000000	0.001406
1235.000000	0.001435
1234.000000	0.001437
1233.000000	0.001413
1232.000000	0.001381
1231.000000	0.001353
1230.000000	0.001331
1229.000000	0.001316
1228.000000	0.001305
1227.000000	0.001295
1226.000000	0.001277
1225.000000	0.001250
1224.000000	0.001220
1223.000000	0.001195
1222.000000	0.001170
1221.000000	0.001139
1220.000000	0.001101
1219.000000	0.001071
1218.000000	0.001060
1217.000000	0.001069
1216.000000	0.001087
1215.000000	0.001102
1214.000000	0.001106
1213.000000	0.001101
1212.000000	0.001091
1211.000000	0.001074
1210.000000	0.001046
1209.000000	0.001005
1208.000000	0.000957
1207.000000	0.000922
1206.000000	0.000916
1205.000000	0.000936
1204.000000	0.000966
1203.000000	0.000990
1202.000000	0.001000
1201.000000	0.000995
1200.000000	0.000976
1199.000000	0.000945
1198.000000	0.000908
1197.000000	0.000878
1196.000000	0.000858
1195.000000	0.000848
1194.000000	0.000843
1193.000000	0.000836
1192.000000	0.000818
1191.000000	0.000779
1190.000000	0.000721
1189.000000	0.000656
1188.000000	0.000607
1187.000000	0.000588
1186.000000	0.000597
1185.000000	0.000613
1184.000000	0.000614
1183.000000	0.000593
1182.000000	0.000565
1181.000000	0.000546
1180.000000	0.000545
1179.000000	0.000559
1178.000000	0.000585
1177.000000	0.000617
1176.000000	0.000645
1175.000000	0.000661
1174.000000	0.000671
1173.000000	0.000686
1172.000000	0.000709
1171.000000	0.000729
1170.000000	0.000735
1169.000000	0.000738
1168.000000	0.000756
1167.000000	0.000798
1166.000000	0.000855
1165.000000	0.000915
1164.000000	0.000966
1163.000000	0.001007
1162.000000	0.001038
1161.000000	0.001068
1160.000000	0.001108
1159.000000	0.001162
1158.000000	0.001224
1157.000000	0.001285
1156.000000	0.001333
1155.000000	0.001362
1154.000000	0.001367
1153.000000	0.001350
1152.000000	0.001321
1151.000000	0.001289
1150.000000	0.001262
1149.000000	0.001245
1148.000000	0.001240
1147.000000	0.001245
1146.000000	0.001248
1145.000000	0.001241
1144.000000	0.001220
1143.000000	0.001196
1142.000000	0.001180
1141.000000	0.001176
1140.000000	0.001187
1139.000000	0.001208
1138.000000	0.001230
1137.000000	0.001241
1136.000000	0.001233
1135.000000	0.001214
1134.000000	0.001202
1133.000000	0.001210
1132.000000	0.001233
1131.000000	0.001254
1130.000000	0.001266
1129.000000	0.001274
1128.000000	0.001286
1127.000000	0.001302
1126.000000	0.001317
1125.000000	0.001328
1124.000000	0.001338
1123.000000	0.001347
1122.000000	0.001355
1121.000000	0.001360
1120.000000	0.001367
1119.000000	0.001385
1118.000000	0.001416
1117.000000	0.001455
1116.000000	0.001481
1115.000000	0.001484
1114.000000	0.001473
1113.000000	0.001475
1112.000000	0.001502
1111.000000	0.001545
1110.000000	0.001590
1109.000000	0.001635
1108.000000	0.001676
1107.000000	0.001699
1106.000000	0.001693
1105.000000	0.001670
1104.000000	0.001665
1103.000000	0.001695
1102.000000	0.001742
1101.000000	0.001776
1100.000000	0.001789
1099.000000	0.001797
1098.000000	0.001811
1097.000000	0.001824
1096.000000	0.001830
1095.000000	0.001843
1094.000000	0.001887
1093.000000	0.001958
1092.000000	0.002019
1091.000000	0.002026
1090.000000	0.001980
1089.000000	0.001918
1088.000000	0.001884
1087.000000	0.001894
1086.000000	0.001940
1085.000000	0.002011
1084.000000	0.002100
1083.000000	0.002187
1082.000000	0.002246
1081.000000	0.002270
1080.000000	0.002278
1079.000000	0.002296
1078.000000	0.002332
1077.000000	0.002372
1076.000000	0.002393
1075.000000	0.002389
1074.000000	0.002366
1073.000000	0.002336
1072.000000	0.002304
1071.000000	0.002268
1070.000000	0.002227
1069.000000	0.002191
1068.000000	0.002172
1067.000000	0.002174
1066.000000	0.002191
1065.000000	0.002212
1064.000000	0.002233
1063.000000	0.002251
1062.000000	0.002267
1061.000000	0.002283
1060.000000	0.002305
1059.000000	0.002335
1058.000000	0.002367
1057.000000	0.002388
1056.000000	0.002399
1055.000000	0.002412
1054.000000	0.002441
1053.000000	0.002479
1052.000000	0.002508
1051.000000	0.002528
1050.000000	0.002553
1049.000000	0.002594
1048.000000	0.002626
1047.000000	0.002617
1046.000000	0.002570
1045.000000	0.002531
1044.000000	0.002545
1043.000000	0.002611
1042.000000	0.002687
1041.000000	0.002739
1040.000000	0.002768
1039.000000	0.002794
1038.000000	0.002828
1037.000000	0.002864
1036.000000	0.002895
1035.000000	0.002913
1034.000000	0.002921
1033.000000	0.002925
1032.000000	0.002935
1031.000000	0.002952
1030.000000	0.002970
1029.000000	0.002982
1028.000000	0.002993
1027.000000	0.003006
1026.000000	0.003015
1025.000000	0.003005
1024.000000	0.002977
1023.000000	0.002947
1022.000000	0.002931
1021.000000	0.002929
1020.000000	0.002932
1019.000000	0.002939
1018.000000	0.002951
1017.000000	0.002956
1016.000000	0.002941
1015.000000	0.002909
1014.000000	0.002881
1013.000000	0.002875
1012.000000	0.002886
1011.000000	0.002894
1010.000000	0.002888
1009.000000	0.002870
1008.000000	0.002848
1007.000000	0.002824
1006.000000	0.002801
1005.000000	0.002779
1004.000000	0.002759
1003.000000	0.002737
1002.000000	0.002708
1001.000000	0.002669
1000.000000	0.002622
999.000000	0.002575
998.000000	0.002527
997.000000	0.002478
996.000000	0.002427
995.000000	0.002381
994.000000	0.002349
993.000000	0.002335
992.000000	0.002331
991.000000	0.002326
990.000000	0.002312
989.000000	0.002286
988.000000	0.002246
987.000000	0.002191
986.000000	0.002124
985.000000	0.002057
984.000000	0.002001
983.000000	0.001965
982.000000	0.001946
981.000000	0.001937
980.000000	0.001931
979.000000	0.001921
978.000000	0.001899
977.000000	0.001862
976.000000	0.001818
975.000000	0.001788
974.000000	0.001776
973.000000	0.001768
972.000000	0.001748
971.000000	0.001719
970.000000	0.001695
969.000000	0.001674
968.000000	0.001641
967.000000	0.001590
966.000000	0.001536
965.000000	0.001498
964.000000	0.001475
963.000000	0.001449
962.000000	0.001406
961.000000	0.001350
960.000000	0.001303
959.000000	0.001286
958.000000	0.001299
957.000000	0.001320
956.000000	0.001317
955.000000	0.001280
954.000000	0.001225
953.000000	0.001176
952.000000	0.001145
951.000000	0.001125
950.000000	0.001101
949.000000	0.001059
948.000000	0.000999
947.000000	0.000942
946.000000	0.000911
945.000000	0.000911
944.000000	0.000925
943.000000	0.000931
942.000000	0.000917
941.000000	0.000877
940.000000	0.000814
939.000000	0.000750
938.000000	0.000716
937.000000	0.000723
936.000000	0.000744
935.000000	0.000744
934.000000	0.000720
933.000000	0.000696
932.000000	0.000686
931.000000	0.000674
930.000000	0.000635
929.000000	0.000566
928.000000	0.000489
927.000000	0.000432
926.000000	0.000412
925.000000	0.000424
924.000000	0.000449
923.000000	0.000461
922.000000	0.000446
921.000000	0.000411
920.000000	0.000379
919.000000	0.000376
918.000000	0.000410
917.000000	0.000462
916.000000	0.000495
915.000000	0.000481
914.000000	0.000430
913.000000	0.000376
912.000000	0.000336
911.000000	0.000302
910.000000	0.000261
909.000000	0.000227
908.000000	0.000224
907.000000	0.000252
906.000000	0.000284
905.000000	0.000288
904.000000	0.000258
903.000000	0.000203
902.000000	0.000143
901.000000	0.000097
900.000000	0.000082
899.000000	0.000092
898.000000	0.000101
897.000000	0.000088
896.000000	0.000062
895.000000	0.000052
894.000000	0.000064
893.000000	0.000075
892.000000	0.000065
891.000000	0.000041
890.000000	0.000033
889.000000	0.000053
888.000000	0.000084
887.000000	0.000096
886.000000	0.000080
885.000000	0.000050
884.000000	0.000034
883.000000	0.000046
882.000000	0.000085
881.000000	0.000142
880.000000	0.000218
879.000000	0.000315
878.000000	0.000418
877.000000	0.000496
876.000000	0.000524
875.000000	0.000497
874.000000	0.000432
873.000000	0.000354
872.000000	0.000283
871.000000	0.000235
870.000000	0.000215
869.000000	0.000214
868.000000	0.000222
867.000000	0.000224
866.000000	0.000202
865.000000	0.000146
864.000000	0.000071
863.000000	0.000012
862.000000	-0.000003
861.000000	0.000015
860.000000	0.000033
859.000000	0.000031
858.000000	0.000010
857.000000	-0.000022
856.000000	-0.000055
855.000000	-0.000071
854.000000	-0.000057
853.000000	-0.000027
852.000000	-0.000009
851.000000	-0.000006
850.000000	0.000013
849.000000	0.000079
848.000000	0.000172
847.000000	0.000230
846.000000	0.000217
845.000000	0.000148
844.000000	0.000073
843.000000	0.000025
842.000000	0.000004
841.000000	-0.000010
840.000000	-0.000029
839.000000	-0.000043
838.000000	-0.000039
837.000000	-0.000023
836.000000	-0.000016
835.000000	-0.000033
834.000000	-0.000058
833.000000	-0.000063
832.000000	-0.000029
831.000000	0.000030
830.000000	0.000078
829.000000	0.000080
828.000000	0.000026
827.000000	-0.000055
826.000000	-0.000114
825.000000	-0.000117
824.000000	-0.000070
823.000000	-0.000002
822.000000	0.000056
821.000000	0.000088
820.000000	0.000089
819.000000	0.000064
818.000000	0.000031
817.000000	0.000006
816.000000	-0.000006
815.000000	-0.000011
814.000000	-0.000005
813.000000	0.000015
812.000000	0.000045
811.000000	0.000075
810.000000	0.000095
809.000000	0.000103
808.000000	0.000087
807.000000	0.000048
806.000000	0.000008
805.000000	0.000008
804.000000	0.000058
803.000000	0.000116
802.000000	0.000128
801.000000	0.000082
800.000000	0.000024
799.000000	0.000012
798.000000	0.000052
797.000000	0.000101
796.000000	0.000112
795.000000	0.000073
794.000000	0.000018
793.000000	-0.000011
792.000000	-0.000003
791.000000	0.000028
790.000000	0.000056
789.000000	0.000062
788.000000	0.000045
787.000000	0.000018
786.000000	0.000005
785.000000	0.000020
784.000000	0.000051
783.000000	0.000077
782.000000	0.000084
781.000000	0.000071
780.000000	0.000040
779.000000	-0.000000
778.000000	-0.000033
777.000000	-0.000037
776.000000	-0.000007
775.000000	0.000038
774.000000	0.000072
773.000000	0.000080
772.000000	0.000060
771.000000	0.000015
770.000000	-0.000045
769.000000	-0.000099
768.000000	-0.000117
767.000000	-0.000080
766.000000	0.000009
765.000000	0.000121
764.000000	0.000208
763.000000	0.000231
762.000000	0.000183
761.000000	0.000096
760.000000	0.000025
759.000000	0.000008
758.000000	0.000039
757.000000	0.000073
756.000000	0.000067
755.000000	0.000019
754.000000	-0.000031
753.000000	-0.000039
752.000000	0.000001
751.000000	0.000061
750.000000	0.000101
749.000000	0.000107
748.000000	0.000084
747.000000	0.000055
746.000000	0.000040
745.000000	0.000036
744.000000	0.000019
743.000000	-0.000021
742.000000	-0.000064
741.000000	-0.000076
740.000000	-0.000058
739.000000	-0.000037
738.000000	-0.000028
737.000000	-0.000016
736.000000	0.000016
735.000000	0.000053
734.000000	0.000077
733.000000	0.000083
732.000000	0.000077
731.000000	0.000055
730.000000	0.000014
729.000000	-0.000029
728.000000	-0.000052
727.000000	-0.000043
726.000000	-0.000009
725.000000	0.000040
724.000000	0.000085
723.000000	0.000100
722.000000	0.000078
721.000000	0.000045
720.000000	0.000039
719.000000	0.000063
718.000000	0.000092
717.000000	0.000113
716.000000	0.000142
715.000000	0.000185
714.000000	0.000217
713.000000	0.000210
712.000000	0.000169
711.000000	0.000121
710.000000	0.000079
709.000000	0.000031
708.000000	-0.000026
707.000000	-0.000067
706.000000	-0.000057
705.000000	0.000005
704.000000	0.000078
703.000000	0.000102
702.000000	0.000044
701.000000	-0.000071
700.000000	-0.000178
699.000000	-0.000214
698.000000	-0.000153
697.000000	-0.000021
696.000000	0.000132
695.000000	0.000250
694.000000	0.000291
693.000000	0.000238
692.000000	0.000114
691.000000	-0.000017
690.000000	-0.000089
689.000000	-0.000083
688.000000	-0.000039
687.000000	-0.000015
686.000000	-0.000031
685.000000	-0.000060
684.000000	-0.000064
683.000000	-0.000023
682.000000	0.000054
681.000000	0.000141
680.000000	0.000202
679.000000	0.000221
678.000000	0.000217
677.000000	0.000213
676.000000	0.000212
675.000000	0.000206
674.000000	0.000205
673.000000	0.000223
672.000000	0.000244
671.000000	0.000239
670.000000	0.000200
669.000000	0.000160
668.000000	0.000142
667.000000	0.000130
666.000000	0.000138
665.000000	0.000179
664.000000	0.000254
663.000000	0.000328
662.000000	0.000349
661.000000	0.000305
660.000000	0.000247
659.000000	0.000217
658.000000	0.000207
657.000000	0.000180
656.000000	0.000128
655.000000	0.000080
654.000000	0.000062
653.000000	0.000077
652.000000	0.000120
651.000000	0.000184
650.000000	0.000245
649.000000	0.000269
648.000000	0.000241
647.000000	0.000185
646.000000	0.000140
645.000000	0.000116
644.000000	0.000083
643.000000	0.000014
642.000000	-0.000070
641.000000	-0.000106
640.000000	-0.000062
639.000000	0.000021
638.000000	0.000075
637.000000	0.000087
636.000000	0.000094
635.000000	0.000109
634.000000	0.000100
633.000000	0.000047
632.000000	-0.000001
631.000000	0.000018
630.000000	0.000097
629.000000	0.000160
628.000000	0.000152
627.000000	0.000093
626.000000	0.000031
625.000000	-0.000009
624.000000	-0.000031
623.000000	-0.000035
622.000000	-0.000020
621.000000	-0.000001
620.000000	-0.000005
619.000000	-0.000048
618.000000	-0.000102
617.000000	-0.000116
616.000000	-0.000055
615.000000	0.000067
614.000000	0.000192
613.000000	0.000259
612.000000	0.000255
611.000000	0.000225
610.000000	0.000227
609.000000	0.000277
608.000000	0.000338
607.000000	0.000370
606.000000	0.000365
605.000000	0.000347
604.000000	0.000338
603.000000	0.000344
602.000000	0.000358
601.000000	0.000373
600.000000	0.000389
599.000000	0.000408
598.000000	0.000435
597.000000	0.000462
596.000000	0.000471
595.000000	0.000442
594.000000	0.000380
593.000000	0.000310
592.000000	0.000261
591.000000	0.000267
590.000000	0.000352
589.000000	0.000495
588.000000	0.000614
587.000000	0.000623
586.000000	0.000520
585.000000	0.000408
584.000000	0.000394
583.000000	0.000479
582.000000	0.000581
581.000000	0.000627
580.000000	0.000610
579.000000	0.000554
578.000000	0.000478
577.000000	0.000393
576.000000	0.000319
575.000000	0.000271
574.000000	0.000246
573.000000	0.000224
572.000000	0.000181
571.000000	0.000111
570.000000	0.000039
569.000000	0.000006
568.000000	0.000023
567.000000	0.000060
566.000000	0.000090
565.000000	0.000132
564.000000	0.000198
563.000000	0.000244
562.000000	0.000205
561.000000	0.000078
560.000000	-0.000067
559.000000	-0.000180
558.000000	-0.000258
557.000000	-0.000286
556.000000	-0.000210
555.000000	-0.000020
554.000000	0.000186
553.000000	0.000281
552.000000	0.000226
551.000000	0.000074
550.000000	-0.000098
549.000000	-0.000224
548.000000	-0.000257
547.000000	-0.000184
546.000000	-0.000058
545.000000	0.000052
544.000000	0.000138
543.000000	0.000236
542.000000	0.000331
541.000000	0.000356
540.000000	0.000279
539.000000	0.000156
538.000000	0.000065
537.000000	0.000038
536.000000	0.000066
535.000000	0.000135
534.000000	0.000214
533.000000	0.000252
532.000000	0.000234
531.000000	0.000218
530.000000	0.000278
529.000000	0.000405
528.000000	0.000499
527.000000	0.000460
526.000000	0.000297
525.000000	0.000145
524.000000	0.000150
523.000000	0.000331
522.000000	0.000561
521.000000	0.000658
520.000000	0.000541
519.000000	0.000303
518.000000	0.000109
517.000000	0.000026
516.000000	0.000000
515.000000	0.000002
514.000000	0.000072
513.000000	0.000213
512.000000	0.000320
511.000000	0.000270
510.000000	0.000046
509.000000	-0.000251
508.000000	-0.000501
507.000000	-0.000625
506.000000	-0.000602
505.000000	-0.000490
504.000000	-0.000380
503.000000	-0.000324
502.000000	-0.000298
501.000000	-0.000271
500.000000	-0.000252
499.000000	-0.000229
498.000000	-0.000143
497.000000	0.000021
496.000000	0.000149
495.000000	0.000117
494.000000	-0.000014
493.000000	-0.000035
492.000000	0.000159
491.000000	0.000446
490.000000	0.000639
489.000000	0.000652
488.000000	0.000470
487.000000	0.000103
486.000000	-0.000330
485.000000	-0.000552
484.000000	-0.000350
483.000000	0.000151
482.000000	0.000566
481.000000	0.000610
480.000000	0.000299
479.000000	-0.000155
478.000000	-0.000532
477.000000	-0.000709
476.000000	-0.000663
475.000000	-0.000437
474.000000	-0.000103
473.000000	0.000223
472.000000	0.000383
471.000000	0.000297
470.000000	0.000073
469.000000	-0.000107
468.000000	-0.000163
467.000000	-0.000174
466.000000	-0.000245
465.000000	-0.000380
464.000000	-0.000530
463.000000	-0.000713
462.000000	-0.000958
461.000000	-0.001189
460.000000	-0.001238
459.000000	-0.000990
458.000000	-0.000513
457.000000	-0.000039
456.000000	0.000248
455.000000	0.000376
454.000000	0.000440
453.000000	0.000457
452.000000	0.000455
451.000000	0.000357
450.000000	0.000232
