PE IR       SUBTECH     SPECTRUM    ASCII       PEDS        4.00        
   -1
P14-Noir008_1.ASC
23/06/09
16:01:09.00
23/06/09
16:36:39.00
uco
Sample 008 By uco Date Friday, June 09 2023
450.000000
#HDR
-1
-1
#GR
cm-1
A
1.0
0.0
4000.000000
-1.000000
3551
8
0.004299
-0.001005
#DATA
4000.000000	-0.000224
3999.000000	-0.000220
3998.000000	-0.000206
3997.000000	-0.000188
3996.000000	-0.000174
3995.000000	-0.000169
3994.000000	-0.000174
3993.000000	-0.000174
3992.000000	-0.000184
3991.000000	-0.000190
3990.000000	-0.000196
3989.000000	-0.000207
3988.000000	-0.000218
3987.000000	-0.000219
3986.000000	-0.000208
3985.000000	-0.000192
3984.000000	-0.000182
3983.000000	-0.000182
3982.000000	-0.000186
3981.000000	-0.000191
3980.000000	-0.000195
3979.000000	-0.000195
3978.000000	-0.000189
3977.000000	-0.000176
3976.000000	-0.000158
3975.000000	-0.000146
3974.000000	-0.000144
3973.000000	-0.000151
3972.000000	-0.000157
3971.000000	-0.000157
3970.000000	-0.000146
3969.000000	-0.000127
3968.000000	-0.000104
3967.000000	-0.000086
3966.000000	-0.000081
3965.000000	-0.000089
3964.000000	-0.000104
3963.000000	-0.000119
3962.000000	-0.000132
3961.000000	-0.000145
3960.000000	-0.000155
3959.000000	-0.000158
3958.000000	-0.000149
3957.000000	-0.000131
3956.000000	-0.000109
3955.000000	-0.000093
3954.000000	-0.000085
3953.000000	-0.000082
3952.000000	-0.000082
3951.000000	-0.000083
3950.000000	-0.000086
3949.000000	-0.000093
3948.000000	-0.000107
3947.000000	-0.000124
3946.000000	-0.000138
3945.000000	-0.000144
3944.000000	-0.000145
3943.000000	-0.000143
3942.000000	-0.000139
3941.000000	-0.000133
3940.000000	-0.000127
3939.000000	-0.000125
3938.000000	-0.000132
3937.000000	-0.000146
3936.000000	-0.000160
3935.000000	-0.000172
3934.000000	-0.000181
3933.000000	-0.000191
3932.000000	-0.000202
3931.000000	-0.000205
3930.000000	-0.000192
3929.000000	-0.000161
3928.000000	-0.000120
3927.000000	-0.000078
3926.000000	-0.000049
3925.000000	-0.000043
3924.000000	-0.000060
3923.000000	-0.000090
3922.000000	-0.000123
3921.000000	-0.000151
3920.000000	-0.000170
3919.000000	-0.000177
3918.000000	-0.000175
3917.000000	-0.000171
3916.000000	-0.000171
3915.000000	-0.000177
3914.000000	-0.000182
3913.000000	-0.000182
3912.000000	-0.000175
3911.000000	-0.000162
3910.000000	-0.000144
3909.000000	-0.000124
3908.000000	-0.000106
3907.000000	-0.000092
3906.000000	-0.000090
3905.000000	-0.000107
3904.000000	-0.000144
3903.000000	-0.000187
3902.000000	-0.000213
3901.000000	-0.000215
3900.000000	-0.000200
3899.000000	-0.000183
3898.000000	-0.000168
3897.000000	-0.000154
3896.000000	-0.000139
3895.000000	-0.000125
3894.000000	-0.000116
3893.000000	-0.000118
3892.000000	-0.000128
3891.000000	-0.000139
3890.000000	-0.000141
3889.000000	-0.000132
3888.000000	-0.000114
3887.000000	-0.000102
3886.000000	-0.000103
3885.000000	-0.000116
3884.000000	-0.000123
3883.000000	-0.000118
3882.000000	-0.000106
3881.000000	-0.000098
3880.000000	-0.000099
3879.000000	-0.000100
3878.000000	-0.000099
3877.000000	-0.000098
3876.000000	-0.000107
3875.000000	-0.000129
3874.000000	-0.000160
3873.000000	-0.000187
3872.000000	-0.000201
3871.000000	-0.000208
3870.000000	-0.000217
3869.000000	-0.000223
3868.000000	-0.000210
3867.000000	-0.000170
3866.000000	-0.000116
3865.000000	-0.000069
3864.000000	-0.000043
3863.000000	-0.000038
3862.000000	-0.000043
3861.000000	-0.000052
3860.000000	-0.000066
3859.000000	-0.000082
3858.000000	-0.000098
3857.000000	-0.000111
3856.000000	-0.000121
3855.000000	-0.000132
3854.000000	-0.000144
3853.000000	-0.000147
3852.000000	-0.000134
3851.000000	-0.000118
3850.000000	-0.000109
3849.000000	-0.000109
3848.000000	-0.000110
3847.000000	-0.000102
3846.000000	-0.000082
3845.000000	-0.000057
3844.000000	-0.000044
3843.000000	-0.000055
3842.000000	-0.000086
3841.000000	-0.000119
3840.000000	-0.000135
3839.000000	-0.000134
3838.000000	-0.000125
3837.000000	-0.000115
3836.000000	-0.000104
3835.000000	-0.000087
3834.000000	-0.000068
3833.000000	-0.000061
3832.000000	-0.000079
3831.000000	-0.000117
3830.000000	-0.000153
3829.000000	-0.000171
3828.000000	-0.000166
3827.000000	-0.000150
3826.000000	-0.000131
3825.000000	-0.000114
3824.000000	-0.000099
3823.000000	-0.000090
3822.000000	-0.000096
3821.000000	-0.000111
3820.000000	-0.000113
3819.000000	-0.000088
3818.000000	-0.000052
3817.000000	-0.000031
3816.000000	-0.000042
3815.000000	-0.000076
3814.000000	-0.000110
3813.000000	-0.000134
3812.000000	-0.000151
3811.000000	-0.000164
3810.000000	-0.000170
3809.000000	-0.000169
3808.000000	-0.000167
3807.000000	-0.000172
3806.000000	-0.000177
3805.000000	-0.000169
3804.000000	-0.000143
3803.000000	-0.000109
3802.000000	-0.000087
3801.000000	-0.000082
3800.000000	-0.000079
3799.000000	-0.000065
3798.000000	-0.000049
3797.000000	-0.000047
3796.000000	-0.000071
3795.000000	-0.000117
3794.000000	-0.000168
3793.000000	-0.000208
3792.000000	-0.000227
3791.000000	-0.000220
3790.000000	-0.000193
3789.000000	-0.000158
3788.000000	-0.000126
3787.000000	-0.000105
3786.000000	-0.000101
3785.000000	-0.000115
3784.000000	-0.000139
3783.000000	-0.000159
3782.000000	-0.000165
3781.000000	-0.000158
3780.000000	-0.000153
3779.000000	-0.000153
3778.000000	-0.000154
3777.000000	-0.000146
3776.000000	-0.000132
3775.000000	-0.000123
3774.000000	-0.000125
3773.000000	-0.000136
3772.000000	-0.000149
3771.000000	-0.000160
3770.000000	-0.000166
3769.000000	-0.000167
3768.000000	-0.000161
3767.000000	-0.000151
3766.000000	-0.000145
3765.000000	-0.000153
3764.000000	-0.000174
3763.000000	-0.000197
3762.000000	-0.000208
3761.000000	-0.000204
3760.000000	-0.000193
3759.000000	-0.000184
3758.000000	-0.000176
3757.000000	-0.000162
3756.000000	-0.000136
3755.000000	-0.000106
3754.000000	-0.000091
3753.000000	-0.000106
3752.000000	-0.000142
3751.000000	-0.000173
3750.000000	-0.000179
3749.000000	-0.000170
3748.000000	-0.000157
3747.000000	-0.000139
3746.000000	-0.000116
3745.000000	-0.000098
3744.000000	-0.000088
3743.000000	-0.000076
3742.000000	-0.000058
3741.000000	-0.000042
3740.000000	-0.000034
3739.000000	-0.000037
3738.000000	-0.000045
3737.000000	-0.000052
3736.000000	-0.000059
3735.000000	-0.000066
3734.000000	-0.000077
3733.000000	-0.000103
3732.000000	-0.000145
3731.000000	-0.000187
3730.000000	-0.000212
3729.000000	-0.000213
3728.000000	-0.000200
3727.000000	-0.000183
3726.000000	-0.000164
3725.000000	-0.000140
3724.000000	-0.000111
3723.000000	-0.000089
3722.000000	-0.000081
3721.000000	-0.000088
3720.000000	-0.000104
3719.000000	-0.000121
3718.000000	-0.000135
3717.000000	-0.000148
3716.000000	-0.000166
3715.000000	-0.000189
3714.000000	-0.000206
3713.000000	-0.000201
3712.000000	-0.000171
3711.000000	-0.000135
3710.000000	-0.000117
3709.000000	-0.000116
3708.000000	-0.000115
3707.000000	-0.000105
3706.000000	-0.000090
3705.000000	-0.000081
3704.000000	-0.000088
3703.000000	-0.000110
3702.000000	-0.000136
3701.000000	-0.000152
3700.000000	-0.000151
3699.000000	-0.000138
3698.000000	-0.000125
3697.000000	-0.000123
3696.000000	-0.000136
3695.000000	-0.000156
3694.000000	-0.000170
3693.000000	-0.000172
3692.000000	-0.000164
3691.000000	-0.000157
3690.000000	-0.000159
3689.000000	-0.000161
3688.000000	-0.000147
3687.000000	-0.000115
3686.000000	-0.000079
3685.000000	-0.000049
3684.000000	-0.000030
3683.000000	-0.000023
3682.000000	-0.000024
3681.000000	-0.000037
3680.000000	-0.000069
3679.000000	-0.000121
3678.000000	-0.000179
3677.000000	-0.000222
3676.000000	-0.000239
3675.000000	-0.000233
3674.000000	-0.000220
3673.000000	-0.000210
3672.000000	-0.000208
3671.000000	-0.000220
3670.000000	-0.000238
3669.000000	-0.000239
3668.000000	-0.000211
3667.000000	-0.000167
3666.000000	-0.000126
3665.000000	-0.000101
3664.000000	-0.000092
3663.000000	-0.000091
3662.000000	-0.000092
3661.000000	-0.000099
3660.000000	-0.000115
3659.000000	-0.000140
3658.000000	-0.000168
3657.000000	-0.000186
3656.000000	-0.000184
3655.000000	-0.000164
3654.000000	-0.000135
3653.000000	-0.000106
3652.000000	-0.000079
3651.000000	-0.000059
3650.000000	-0.000050
3649.000000	-0.000056
3648.000000	-0.000074
3647.000000	-0.000099
3646.000000	-0.000123
3645.000000	-0.000138
3644.000000	-0.000143
3643.000000	-0.000141
3642.000000	-0.000137
3641.000000	-0.000128
3640.000000	-0.000110
3639.000000	-0.000089
3638.000000	-0.000074
3637.000000	-0.000074
3636.000000	-0.000080
3635.000000	-0.000083
3634.000000	-0.000080
3633.000000	-0.000078
3632.000000	-0.000080
3631.000000	-0.000077
3630.000000	-0.000048
3629.000000	0.000017
3628.000000	0.000091
3627.000000	0.000136
3626.000000	0.000139
3625.000000	0.000113
3624.000000	0.000078
3623.000000	0.000050
3622.000000	0.000035
3621.000000	0.000032
3620.000000	0.000034
3619.000000	0.000033
3618.000000	0.000026
3617.000000	0.000010
3616.000000	-0.000013
3615.000000	-0.000040
3614.000000	-0.000064
3613.000000	-0.000077
3612.000000	-0.000070
3611.000000	-0.000047
3610.000000	-0.000018
3609.000000	0.000003
3608.000000	0.000010
3607.000000	0.000008
3606.000000	0.000006
3605.000000	0.000010
3604.000000	0.000023
3603.000000	0.000047
3602.000000	0.000082
3601.000000	0.000123
3600.000000	0.000151
3599.000000	0.000149
3598.000000	0.000106
3597.000000	0.000039
3596.000000	-0.000019
3595.000000	-0.000037
3594.000000	-0.000013
3593.000000	0.000029
3592.000000	0.000062
3591.000000	0.000078
3590.000000	0.000086
3589.000000	0.000100
3588.000000	0.000121
3587.000000	0.000137
3586.000000	0.000140
3585.000000	0.000133
3584.000000	0.000129
3583.000000	0.000138
3582.000000	0.000160
3581.000000	0.000183
3580.000000	0.000195
3579.000000	0.000191
3578.000000	0.000181
3577.000000	0.000180
3576.000000	0.000198
3575.000000	0.000232
3574.000000	0.000269
3573.000000	0.000295
3572.000000	0.000310
3571.000000	0.000320
3570.000000	0.000332
3569.000000	0.000341
3568.000000	0.000340
3567.000000	0.000326
3566.000000	0.000311
3565.000000	0.000305
3564.000000	0.000313
3563.000000	0.000329
3562.000000	0.000344
3561.000000	0.000353
3560.000000	0.000355
3559.000000	0.000359
3558.000000	0.000380
3557.000000	0.000422
3556.000000	0.000471
3555.000000	0.000503
3554.000000	0.000500
3553.000000	0.000457
3552.000000	0.000392
3551.000000	0.000335
3550.000000	0.000311
3549.000000	0.000326
3548.000000	0.000368
3547.000000	0.000415
3546.000000	0.000445
3545.000000	0.000455
3544.000000	0.000453
3543.000000	0.000453
3542.000000	0.000456
3541.000000	0.000460
3540.000000	0.000462
3539.000000	0.000464
3538.000000	0.000466
3537.000000	0.000471
3536.000000	0.000482
3535.000000	0.000504
3534.000000	0.000529
3533.000000	0.000544
3532.000000	0.000544
3531.000000	0.000530
3530.000000	0.000518
3529.000000	0.000518
3528.000000	0.000533
3527.000000	0.000563
3526.000000	0.000602
3525.000000	0.000643
3524.000000	0.000676
3523.000000	0.000691
3522.000000	0.000683
3521.000000	0.000658
3520.000000	0.000628
3519.000000	0.000604
3518.000000	0.000587
3517.000000	0.000569
3516.000000	0.000546
3515.000000	0.000529
3514.000000	0.000535
3513.000000	0.000574
3512.000000	0.000636
3511.000000	0.000697
3510.000000	0.000742
3509.000000	0.000763
3508.000000	0.000767
3507.000000	0.000757
3506.000000	0.000733
3505.000000	0.000695
3504.000000	0.000649
3503.000000	0.000612
3502.000000	0.000601
3501.000000	0.000621
3500.000000	0.000660
3499.000000	0.000704
3498.000000	0.000743
3497.000000	0.000773
3496.000000	0.000796
3495.000000	0.000809
3494.000000	0.000810
3493.000000	0.000792
3492.000000	0.000757
3491.000000	0.000718
3490.000000	0.000691
3489.000000	0.000689
3488.000000	0.000714
3487.000000	0.000758
3486.000000	0.000812
3485.000000	0.000861
3484.000000	0.000893
3483.000000	0.000898
3482.000000	0.000883
3481.000000	0.000865
3480.000000	0.000854
3479.000000	0.000853
3478.000000	0.000856
3477.000000	0.000854
3476.000000	0.000847
3475.000000	0.000842
3474.000000	0.000848
3473.000000	0.000869
3472.000000	0.000895
3471.000000	0.000916
3470.000000	0.000925
3469.000000	0.000921
3468.000000	0.000907
3467.000000	0.000894
3466.000000	0.000898
3465.000000	0.000927
3464.000000	0.000969
3463.000000	0.001001
3462.000000	0.001007
3461.000000	0.000993
3460.000000	0.000978
3459.000000	0.000975
3458.000000	0.000989
3457.000000	0.001016
3456.000000	0.001046
3455.000000	0.001066
3454.000000	0.001063
3453.000000	0.001038
3452.000000	0.001003
3451.000000	0.000976
3450.000000	0.000969
3449.000000	0.000979
3448.000000	0.000994
3447.000000	0.001000
3446.000000	0.001000
3445.000000	0.001004
3444.000000	0.001016
3443.000000	0.001030
3442.000000	0.001036
3441.000000	0.001035
3440.000000	0.001036
3439.000000	0.001047
3438.000000	0.001070
3437.000000	0.001100
3436.000000	0.001128
3435.000000	0.001147
3434.000000	0.001153
3433.000000	0.001149
3432.000000	0.001142
3431.000000	0.001135
3430.000000	0.001129
3429.000000	0.001126
3428.000000	0.001135
3427.000000	0.001160
3426.000000	0.001197
3425.000000	0.001233
3424.000000	0.001254
3423.000000	0.001258
3422.000000	0.001243
3421.000000	0.001216
3420.000000	0.001191
3419.000000	0.001182
3418.000000	0.001194
3417.000000	0.001224
3416.000000	0.001260
3415.000000	0.001293
3414.000000	0.001313
3413.000000	0.001318
3412.000000	0.001310
3411.000000	0.001304
3410.000000	0.001313
3409.000000	0.001334
3408.000000	0.001352
3407.000000	0.001354
3406.000000	0.001345
3405.000000	0.001343
3404.000000	0.001359
3403.000000	0.001388
3402.000000	0.001412
3401.000000	0.001421
3400.000000	0.001419
3399.000000	0.001417
3398.000000	0.001424
3397.000000	0.001432
3396.000000	0.001429
3395.000000	0.001412
3394.000000	0.001393
3393.000000	0.001388
3392.000000	0.001396
3391.000000	0.001400
3390.000000	0.001387
3389.000000	0.001363
3388.000000	0.001346
3387.000000	0.001348
3386.000000	0.001364
3385.000000	0.001379
3384.000000	0.001385
3383.000000	0.001380
3382.000000	0.001367
3381.000000	0.001346
3380.000000	0.001320
3379.000000	0.001294
3378.000000	0.001280
3377.000000	0.001288
3376.000000	0.001320
3375.000000	0.001362
3374.000000	0.001403
3373.000000	0.001431
3372.000000	0.001443
3371.000000	0.001439
3370.000000	0.001425
3369.000000	0.001416
3368.000000	0.001428
3367.000000	0.001465
3366.000000	0.001506
3365.000000	0.001531
3364.000000	0.001527
3363.000000	0.001502
3362.000000	0.001471
3361.000000	0.001444
3360.000000	0.001426
3359.000000	0.001413
3358.000000	0.001406
3357.000000	0.001404
3356.000000	0.001410
3355.000000	0.001423
3354.000000	0.001440
3353.000000	0.001461
3352.000000	0.001482
3351.000000	0.001500
3350.000000	0.001510
3349.000000	0.001515
3348.000000	0.001522
3347.000000	0.001536
3346.000000	0.001551
3345.000000	0.001557
3344.000000	0.001556
3343.000000	0.001561
3342.000000	0.001580
3341.000000	0.001612
3340.000000	0.001644
3339.000000	0.001660
3338.000000	0.001654
3337.000000	0.001626
3336.000000	0.001582
3335.000000	0.001538
3334.000000	0.001510
3333.000000	0.001504
3332.000000	0.001511
3331.000000	0.001516
3330.000000	0.001507
3329.000000	0.001490
3328.000000	0.001486
3327.000000	0.001512
3326.000000	0.001566
3325.000000	0.001630
3324.000000	0.001677
3323.000000	0.001695
3322.000000	0.001679
3321.000000	0.001638
3320.000000	0.001584
3319.000000	0.001537
3318.000000	0.001515
3317.000000	0.001527
3316.000000	0.001569
3315.000000	0.001627
3314.000000	0.001681
3313.000000	0.001712
3312.000000	0.001710
3311.000000	0.001680
3310.000000	0.001641
3309.000000	0.001612
3308.000000	0.001598
3307.000000	0.001593
3306.000000	0.001589
3305.000000	0.001580
3304.000000	0.001565
3303.000000	0.001546
3302.000000	0.001530
3301.000000	0.001523
3300.000000	0.001534
3299.000000	0.001559
3298.000000	0.001594
3297.000000	0.001631
3296.000000	0.001665
3295.000000	0.001693
3294.000000	0.001710
3293.000000	0.001713
3292.000000	0.001698
3291.000000	0.001669
3290.000000	0.001638
3289.000000	0.001621
3288.000000	0.001619
3287.000000	0.001624
3286.000000	0.001625
3285.000000	0.001628
3284.000000	0.001639
3283.000000	0.001653
3282.000000	0.001660
3281.000000	0.001655
3280.000000	0.001645
3279.000000	0.001640
3278.000000	0.001639
3277.000000	0.001631
3276.000000	0.001613
3275.000000	0.001585
3274.000000	0.001555
3273.000000	0.001532
3272.000000	0.001527
3271.000000	0.001544
3270.000000	0.001574
3269.000000	0.001601
3268.000000	0.001617
3267.000000	0.001623
3266.000000	0.001627
3265.000000	0.001628
3264.000000	0.001622
3263.000000	0.001608
3262.000000	0.001592
3261.000000	0.001585
3260.000000	0.001594
3259.000000	0.001617
3258.000000	0.001644
3257.000000	0.001658
3256.000000	0.001652
3255.000000	0.001630
3254.000000	0.001607
3253.000000	0.001599
3252.000000	0.001609
3251.000000	0.001627
3250.000000	0.001644
3249.000000	0.001651
3248.000000	0.001647
3247.000000	0.001634
3246.000000	0.001616
3245.000000	0.001599
3244.000000	0.001589
3243.000000	0.001590
3242.000000	0.001600
3241.000000	0.001617
3240.000000	0.001632
3239.000000	0.001634
3238.000000	0.001617
3237.000000	0.001582
3236.000000	0.001545
3235.000000	0.001520
3234.000000	0.001513
3233.000000	0.001517
3232.000000	0.001528
3231.000000	0.001542
3230.000000	0.001555
3229.000000	0.001566
3228.000000	0.001571
3227.000000	0.001569
3226.000000	0.001561
3225.000000	0.001549
3224.000000	0.001541
3223.000000	0.001546
3222.000000	0.001566
3221.000000	0.001594
3220.000000	0.001619
3219.000000	0.001631
3218.000000	0.001624
3217.000000	0.001600
3216.000000	0.001571
3215.000000	0.001548
3214.000000	0.001535
3213.000000	0.001522
3212.000000	0.001500
3211.000000	0.001469
3210.000000	0.001439
3209.000000	0.001421
3208.000000	0.001424
3207.000000	0.001448
3206.000000	0.001483
3205.000000	0.001515
3204.000000	0.001532
3203.000000	0.001527
3202.000000	0.001502
3201.000000	0.001465
3200.000000	0.001429
3199.000000	0.001408
3198.000000	0.001405
3197.000000	0.001416
3196.000000	0.001431
3195.000000	0.001446
3194.000000	0.001458
3193.000000	0.001462
3192.000000	0.001456
3191.000000	0.001443
3190.000000	0.001431
3189.000000	0.001422
3188.000000	0.001415
3187.000000	0.001410
3186.000000	0.001408
3185.000000	0.001406
3184.000000	0.001399
3183.000000	0.001385
3182.000000	0.001371
3181.000000	0.001362
3180.000000	0.001358
3179.000000	0.001348
3178.000000	0.001326
3177.000000	0.001301
3176.000000	0.001292
3175.000000	0.001312
3174.000000	0.001352
3173.000000	0.001384
3172.000000	0.001389
3171.000000	0.001362
3170.000000	0.001313
3169.000000	0.001260
3168.000000	0.001223
3167.000000	0.001221
3166.000000	0.001249
3165.000000	0.001280
3164.000000	0.001287
3163.000000	0.001271
3162.000000	0.001254
3161.000000	0.001251
3160.000000	0.001250
3159.000000	0.001239
3158.000000	0.001222
3157.000000	0.001217
3156.000000	0.001225
3155.000000	0.001236
3154.000000	0.001238
3153.000000	0.001235
3152.000000	0.001232
3151.000000	0.001232
3150.000000	0.001232
3149.000000	0.001230
3148.000000	0.001226
3147.000000	0.001219
3146.000000	0.001210
3145.000000	0.001198
3144.000000	0.001182
3143.000000	0.001162
3142.000000	0.001143
3141.000000	0.001131
3140.000000	0.001133
3139.000000	0.001148
3138.000000	0.001172
3137.000000	0.001193
3136.000000	0.001202
3135.000000	0.001196
3134.000000	0.001177
3133.000000	0.001150
3132.000000	0.001117
3131.000000	0.001079
3130.000000	0.001045
3129.000000	0.001031
3128.000000	0.001049
3127.000000	0.001093
3126.000000	0.001142
3125.000000	0.001169
3124.000000	0.001162
3123.000000	0.001126
3122.000000	0.001080
3121.000000	0.001046
3120.000000	0.001034
3119.000000	0.001037
3118.000000	0.001034
3117.000000	0.001017
3116.000000	0.000997
3115.000000	0.000991
3114.000000	0.001004
3113.000000	0.001035
3112.000000	0.001073
3111.000000	0.001112
3110.000000	0.001136
3109.000000	0.001136
3108.000000	0.001115
3107.000000	0.001091
3106.000000	0.001080
3105.000000	0.001079
3104.000000	0.001078
3103.000000	0.001068
3102.000000	0.001049
3101.000000	0.001025
3100.000000	0.001004
3099.000000	0.000995
3098.000000	0.001001
3097.000000	0.001013
3096.000000	0.001016
3095.000000	0.001008
3094.000000	0.001001
3093.000000	0.001000
3092.000000	0.001001
3091.000000	0.001001
3090.000000	0.001000
3089.000000	0.001005
3088.000000	0.001015
3087.000000	0.001027
3086.000000	0.001033
3085.000000	0.001027
3084.000000	0.001006
3083.000000	0.000980
3082.000000	0.000963
3081.000000	0.000959
3080.000000	0.000957
3079.000000	0.000941
3078.000000	0.000915
3077.000000	0.000894
3076.000000	0.000890
3075.000000	0.000904
3074.000000	0.000923
3073.000000	0.000942
3072.000000	0.000956
3071.000000	0.000964
3070.000000	0.000964
3069.000000	0.000958
3068.000000	0.000952
3067.000000	0.000952
3066.000000	0.000964
3065.000000	0.000984
3064.000000	0.001006
3063.000000	0.001020
3062.000000	0.001017
3061.000000	0.000995
3060.000000	0.000961
3059.000000	0.000929
3058.000000	0.000911
3057.000000	0.000904
3056.000000	0.000900
3055.000000	0.000889
3054.000000	0.000870
3053.000000	0.000852
3052.000000	0.000842
3051.000000	0.000845
3050.000000	0.000854
3049.000000	0.000858
3048.000000	0.000850
3047.000000	0.000834
3046.000000	0.000821
3045.000000	0.000817
3044.000000	0.000821
3043.000000	0.000827
3042.000000	0.000833
3041.000000	0.000837
3040.000000	0.000842
3039.000000	0.000850
3038.000000	0.000863
3037.000000	0.000879
3036.000000	0.000893
3035.000000	0.000900
3034.000000	0.000903
3033.000000	0.000900
3032.000000	0.000891
3031.000000	0.000876
3030.000000	0.000857
3029.000000	0.000844
3028.000000	0.000838
3027.000000	0.000838
3026.000000	0.000837
3025.000000	0.000837
3024.000000	0.000842
3023.000000	0.000852
3022.000000	0.000861
3021.000000	0.000862
3020.000000	0.000858
3019.000000	0.000856
3018.000000	0.000859
3017.000000	0.000861
3016.000000	0.000856
3015.000000	0.000846
3014.000000	0.000837
3013.000000	0.000836
3012.000000	0.000843
3011.000000	0.000860
3010.000000	0.000883
3009.000000	0.000898
3008.000000	0.000894
3007.000000	0.000868
3006.000000	0.000825
3005.000000	0.000770
3004.000000	0.000713
3003.000000	0.000676
3002.000000	0.000681
3001.000000	0.000730
3000.000000	0.000792
2999.000000	0.000834
2998.000000	0.000848
2997.000000	0.000852
2996.000000	0.000862
2995.000000	0.000876
2994.000000	0.000884
2993.000000	0.000887
2992.000000	0.000891
2991.000000	0.000903
2990.000000	0.000920
2989.000000	0.000934
2988.000000	0.000944
2987.000000	0.000953
2986.000000	0.000963
2985.000000	0.000969
2984.000000	0.000969
2983.000000	0.000965
2982.000000	0.000970
2981.000000	0.000991
2980.000000	0.001023
2979.000000	0.001054
2978.000000	0.001074
2977.000000	0.001079
2976.000000	0.001077
2975.000000	0.001079
2974.000000	0.001093
2973.000000	0.001119
2972.000000	0.001150
2971.000000	0.001185
2970.000000	0.001229
2969.000000	0.001288
2968.000000	0.001360
2967.000000	0.001438
2966.000000	0.001515
2965.000000	0.001578
2964.000000	0.001611
2963.000000	0.001606
2962.000000	0.001577
2961.000000	0.001554
2960.000000	0.001553
2959.000000	0.001571
2958.000000	0.001592
2957.000000	0.001606
2956.000000	0.001610
2955.000000	0.001603
2954.000000	0.001585
2953.000000	0.001559
2952.000000	0.001532
2951.000000	0.001507
2950.000000	0.001491
2949.000000	0.001490
2948.000000	0.001514
2947.000000	0.001563
2946.000000	0.001621
2945.000000	0.001668
2944.000000	0.001689
2943.000000	0.001686
2942.000000	0.001677
2941.000000	0.001686
2940.000000	0.001719
2939.000000	0.001769
2938.000000	0.001820
2937.000000	0.001862
2936.000000	0.001894
2935.000000	0.001925
2934.000000	0.001955
2933.000000	0.001982
2932.000000	0.002001
2931.000000	0.002011
2930.000000	0.002016
2929.000000	0.002020
2928.000000	0.002028
2927.000000	0.002044
2926.000000	0.002060
2925.000000	0.002068
2924.000000	0.002063
2923.000000	0.002046
2922.000000	0.002027
2921.000000	0.002016
2920.000000	0.002015
2919.000000	0.002020
2918.000000	0.002017
2917.000000	0.001994
2916.000000	0.001950
2915.000000	0.001893
2914.000000	0.001835
2913.000000	0.001782
2912.000000	0.001732
2911.000000	0.001685
2910.000000	0.001647
2909.000000	0.001626
2908.000000	0.001625
2907.000000	0.001638
2906.000000	0.001650
2905.000000	0.001647
2904.000000	0.001624
2903.000000	0.001592
2902.000000	0.001563
2901.000000	0.001540
2900.000000	0.001519
2899.000000	0.001491
2898.000000	0.001456
2897.000000	0.001419
2896.000000	0.001392
2895.000000	0.001379
2894.000000	0.001376
2893.000000	0.001372
2892.000000	0.001361
2891.000000	0.001345
2890.000000	0.001330
2889.000000	0.001316
2888.000000	0.001308
2887.000000	0.001316
2886.000000	0.001349
2885.000000	0.001393
2884.000000	0.001423
2883.000000	0.001424
2882.000000	0.001399
2881.000000	0.001365
2880.000000	0.001335
2879.000000	0.001319
2878.000000	0.001324
2877.000000	0.001346
2876.000000	0.001372
2875.000000	0.001391
2874.000000	0.001400
2873.000000	0.001403
2872.000000	0.001403
2871.000000	0.001397
2870.000000	0.001385
2869.000000	0.001372
2868.000000	0.001361
2867.000000	0.001352
2866.000000	0.001346
2865.000000	0.001352
2864.000000	0.001372
2863.000000	0.001405
2862.000000	0.001442
2861.000000	0.001477
2860.000000	0.001504
2859.000000	0.001519
2858.000000	0.001521
2857.000000	0.001515
2856.000000	0.001509
2855.000000	0.001506
2854.000000	0.001507
2853.000000	0.001509
2852.000000	0.001501
2851.000000	0.001470
2850.000000	0.001411
2849.000000	0.001335
2848.000000	0.001258
2847.000000	0.001193
2846.000000	0.001144
2845.000000	0.001108
2844.000000	0.001084
2843.000000	0.001073
2842.000000	0.001074
2841.000000	0.001083
2840.000000	0.001092
2839.000000	0.001094
2838.000000	0.001083
2837.000000	0.001060
2836.000000	0.001027
2835.000000	0.000987
2834.000000	0.000948
2833.000000	0.000918
2832.000000	0.000902
2831.000000	0.000902
2830.000000	0.000916
2829.000000	0.000937
2828.000000	0.000958
2827.000000	0.000977
2826.000000	0.000997
2825.000000	0.001016
2824.000000	0.001026
2823.000000	0.001020
2822.000000	0.001002
2821.000000	0.000983
2820.000000	0.000969
2819.000000	0.000956
2818.000000	0.000944
2817.000000	0.000936
2816.000000	0.000934
2815.000000	0.000934
2814.000000	0.000940
2813.000000	0.000957
2812.000000	0.000984
2811.000000	0.001002
2810.000000	0.000992
2809.000000	0.000959
2808.000000	0.000924
2807.000000	0.000910
2806.000000	0.000919
2805.000000	0.000942
2804.000000	0.000964
2803.000000	0.000977
2802.000000	0.000976
2801.000000	0.000961
2800.000000	0.000937
2799.000000	0.000916
2798.000000	0.000913
2797.000000	0.000929
2796.000000	0.000953
2795.000000	0.000959
2794.000000	0.000933
2793.000000	0.000888
2792.000000	0.000854
2791.000000	0.000849
2790.000000	0.000865
2789.000000	0.000880
2788.000000	0.000880
2787.000000	0.000875
2786.000000	0.000881
2785.000000	0.000903
2784.000000	0.000933
2783.000000	0.000951
2782.000000	0.000946
2781.000000	0.000922
2780.000000	0.000892
2779.000000	0.000867
2778.000000	0.000853
2777.000000	0.000847
2776.000000	0.000844
2775.000000	0.000842
2774.000000	0.000838
2773.000000	0.000832
2772.000000	0.000822
2771.000000	0.000807
2770.000000	0.000791
2769.000000	0.000790
2768.000000	0.000815
2767.000000	0.000861
2766.000000	0.000904
2765.000000	0.000924
2764.000000	0.000917
2763.000000	0.000900
2762.000000	0.000888
2761.000000	0.000884
2760.000000	0.000885
2759.000000	0.000892
2758.000000	0.000899
2757.000000	0.000899
2756.000000	0.000888
2755.000000	0.000871
2754.000000	0.000862
2753.000000	0.000868
2752.000000	0.000883
2751.000000	0.000892
2750.000000	0.000892
2749.000000	0.000890
2748.000000	0.000898
2747.000000	0.000917
2746.000000	0.000941
2745.000000	0.000960
2744.000000	0.000969
2743.000000	0.000971
2742.000000	0.000966
2741.000000	0.000948
2740.000000	0.000916
2739.000000	0.000880
2738.000000	0.000855
2737.000000	0.000847
2736.000000	0.000849
2735.000000	0.000851
2734.000000	0.000846
2733.000000	0.000843
2732.000000	0.000849
2731.000000	0.000863
2730.000000	0.000877
2729.000000	0.000883
2728.000000	0.000878
2727.000000	0.000868
2726.000000	0.000859
2725.000000	0.000854
2724.000000	0.000853
2723.000000	0.000851
2722.000000	0.000847
2721.000000	0.000841
2720.000000	0.000832
2719.000000	0.000824
2718.000000	0.000822
2717.000000	0.000833
2716.000000	0.000855
2715.000000	0.000884
2714.000000	0.000909
2713.000000	0.000921
2712.000000	0.000917
2711.000000	0.000902
2710.000000	0.000884
2709.000000	0.000871
2708.000000	0.000865
2707.000000	0.000863
2706.000000	0.000864
2705.000000	0.000868
2704.000000	0.000871
2703.000000	0.000867
2702.000000	0.000853
2701.000000	0.000829
2700.000000	0.000802
2699.000000	0.000778
2698.000000	0.000766
2697.000000	0.000775
2696.000000	0.000803
2695.000000	0.000835
2694.000000	0.000851
2693.000000	0.000849
2692.000000	0.000843
2691.000000	0.000845
2690.000000	0.000855
2689.000000	0.000867
2688.000000	0.000875
2687.000000	0.000885
2686.000000	0.000897
2685.000000	0.000907
2684.000000	0.000913
2683.000000	0.000918
2682.000000	0.000921
2681.000000	0.000916
2680.000000	0.000901
2679.000000	0.000882
2678.000000	0.000863
2677.000000	0.000846
2676.000000	0.000829
2675.000000	0.000813
2674.000000	0.000803
2673.000000	0.000801
2672.000000	0.000806
2671.000000	0.000817
2670.000000	0.000834
2669.000000	0.000858
2668.000000	0.000882
2667.000000	0.000897
2666.000000	0.000901
2665.000000	0.000899
2664.000000	0.000895
2663.000000	0.000892
2662.000000	0.000891
2661.000000	0.000895
2660.000000	0.000905
2659.000000	0.000922
2658.000000	0.000942
2657.000000	0.000954
2656.000000	0.000949
2655.000000	0.000929
2654.000000	0.000907
2653.000000	0.000896
2652.000000	0.000899
2651.000000	0.000906
2650.000000	0.000910
2649.000000	0.000911
2648.000000	0.000912
2647.000000	0.000911
2646.000000	0.000904
2645.000000	0.000893
2644.000000	0.000883
2643.000000	0.000881
2642.000000	0.000887
2641.000000	0.000893
2640.000000	0.000892
2639.000000	0.000884
2638.000000	0.000874
2637.000000	0.000874
2636.000000	0.000883
2635.000000	0.000894
2634.000000	0.000892
2633.000000	0.000873
2632.000000	0.000847
2631.000000	0.000828
2630.000000	0.000828
2629.000000	0.000847
2628.000000	0.000875
2627.000000	0.000892
2626.000000	0.000883
2625.000000	0.000847
2624.000000	0.000799
2623.000000	0.000754
2622.000000	0.000721
2621.000000	0.000696
2620.000000	0.000671
2619.000000	0.000646
2618.000000	0.000634
2617.000000	0.000651
2616.000000	0.000696
2615.000000	0.000745
2614.000000	0.000768
2613.000000	0.000756
2612.000000	0.000727
2611.000000	0.000705
2610.000000	0.000696
2609.000000	0.000687
2608.000000	0.000667
2607.000000	0.000647
2606.000000	0.000643
2605.000000	0.000663
2604.000000	0.000695
2603.000000	0.000720
2602.000000	0.000731
2601.000000	0.000736
2600.000000	0.000746
2599.000000	0.000765
2598.000000	0.000786
2597.000000	0.000792
2596.000000	0.000776
2595.000000	0.000741
2594.000000	0.000703
2593.000000	0.000671
2592.000000	0.000643
2591.000000	0.000613
2590.000000	0.000587
2589.000000	0.000572
2588.000000	0.000578
2587.000000	0.000612
2586.000000	0.000673
2585.000000	0.000745
2584.000000	0.000797
2583.000000	0.000794
2582.000000	0.000731
2581.000000	0.000638
2580.000000	0.000567
2579.000000	0.000551
2578.000000	0.000584
2577.000000	0.000628
2576.000000	0.000648
2575.000000	0.000643
2574.000000	0.000640
2573.000000	0.000656
2572.000000	0.000675
2571.000000	0.000672
2570.000000	0.000646
2569.000000	0.000626
2568.000000	0.000636
2567.000000	0.000670
2566.000000	0.000698
2565.000000	0.000696
2564.000000	0.000667
2563.000000	0.000632
2562.000000	0.000608
2561.000000	0.000593
2560.000000	0.000575
2559.000000	0.000550
2558.000000	0.000529
2557.000000	0.000519
2556.000000	0.000517
2555.000000	0.000517
2554.000000	0.000527
2553.000000	0.000550
2552.000000	0.000577
2551.000000	0.000591
2550.000000	0.000589
2549.000000	0.000582
2548.000000	0.000578
2547.000000	0.000577
2546.000000	0.000574
2545.000000	0.000564
2544.000000	0.000534
2543.000000	0.000481
2542.000000	0.000436
2541.000000	0.000450
2540.000000	0.000541
2539.000000	0.000658
2538.000000	0.000731
2537.000000	0.000731
2536.000000	0.000687
2535.000000	0.000638
2534.000000	0.000604
2533.000000	0.000596
2532.000000	0.000619
2531.000000	0.000659
2530.000000	0.000681
2529.000000	0.000659
2528.000000	0.000603
2527.000000	0.000546
2526.000000	0.000514
2525.000000	0.000509
2524.000000	0.000512
2523.000000	0.000507
2522.000000	0.000480
2521.000000	0.000438
2520.000000	0.000402
2519.000000	0.000396
2518.000000	0.000431
2517.000000	0.000490
2516.000000	0.000544
2515.000000	0.000572
2514.000000	0.000570
2513.000000	0.000548
2512.000000	0.000515
2511.000000	0.000478
2510.000000	0.000458
2509.000000	0.000474
2508.000000	0.000532
2507.000000	0.000605
2506.000000	0.000670
2505.000000	0.000723
2504.000000	0.000778
2503.000000	0.000824
2502.000000	0.000831
2501.000000	0.000784
2500.000000	0.000704
2499.000000	0.000626
2498.000000	0.000564
2497.000000	0.000517
2496.000000	0.000490
2495.000000	0.000494
2494.000000	0.000525
2493.000000	0.000553
2492.000000	0.000553
2491.000000	0.000527
2490.000000	0.000495
2489.000000	0.000474
2488.000000	0.000467
2487.000000	0.000472
2486.000000	0.000484
2485.000000	0.000496
2484.000000	0.000499
2483.000000	0.000497
2482.000000	0.000508
2481.000000	0.000541
2480.000000	0.000579
2479.000000	0.000591
2478.000000	0.000563
2477.000000	0.000518
2476.000000	0.000483
2475.000000	0.000463
2474.000000	0.000450
2473.000000	0.000449
2472.000000	0.000480
2471.000000	0.000550
2470.000000	0.000631
2469.000000	0.000686
2468.000000	0.000697
2467.000000	0.000669
2466.000000	0.000615
2465.000000	0.000547
2464.000000	0.000480
2463.000000	0.000437
2462.000000	0.000426
2461.000000	0.000437
2460.000000	0.000456
2459.000000	0.000475
2458.000000	0.000498
2457.000000	0.000529
2456.000000	0.000567
2455.000000	0.000600
2454.000000	0.000613
2453.000000	0.000599
2452.000000	0.000563
2451.000000	0.000518
2450.000000	0.000477
2449.000000	0.000445
2448.000000	0.000429
2447.000000	0.000442
2446.000000	0.000490
2445.000000	0.000552
2444.000000	0.000592
2443.000000	0.000590
2442.000000	0.000564
2441.000000	0.000552
2440.000000	0.000574
2439.000000	0.000613
2438.000000	0.000637
2437.000000	0.000632
2436.000000	0.000609
2435.000000	0.000587
2434.000000	0.000572
2433.000000	0.000556
2432.000000	0.000534
2431.000000	0.000511
2430.000000	0.000491
2429.000000	0.000470
2428.000000	0.000444
2427.000000	0.000415
2426.000000	0.000394
2425.000000	0.000394
2424.000000	0.000416
2423.000000	0.000454
2422.000000	0.000495
2421.000000	0.000528
2420.000000	0.000540
2419.000000	0.000523
2418.000000	0.000487
2417.000000	0.000457
2416.000000	0.000455
2415.000000	0.000485
2414.000000	0.000526
2413.000000	0.000550
2412.000000	0.000542
2411.000000	0.000510
2410.000000	0.000476
2409.000000	0.000459
2408.000000	0.000464
2407.000000	0.000485
2406.000000	0.000515
2405.000000	0.000546
2404.000000	0.000563
2403.000000	0.000554
2402.000000	0.000526
2401.000000	0.000504
2400.000000	0.000509
2399.000000	0.000535
2398.000000	0.000555
2397.000000	0.000552
2396.000000	0.000529
2395.000000	0.000503
2394.000000	0.000485
2393.000000	0.000473
2392.000000	0.000454
2391.000000	0.000425
2390.000000	0.000395
2389.000000	0.000380
2388.000000	0.000385
2387.000000	0.000398
2386.000000	0.000402
2385.000000	0.000391
2384.000000	0.000372
2383.000000	0.000356
2382.000000	0.000351
2381.000000	0.000355
2380.000000	0.000351
2379.000000	0.000324
2378.000000	0.000273
2377.000000	0.000224
2376.000000	0.000203
2375.000000	0.000212
2374.000000	0.000222
2373.000000	0.000211
2372.000000	0.000188
2371.000000	0.000178
2370.000000	0.000202
2369.000000	0.000255
2368.000000	0.000312
2367.000000	0.000343
2366.000000	0.000338
2365.000000	0.000315
2364.000000	0.000299
2363.000000	0.000298
2362.000000	0.000310
2361.000000	0.000331
2360.000000	0.000354
2359.000000	0.000362
2358.000000	0.000348
2357.000000	0.000327
2356.000000	0.000315
2355.000000	0.000310
2354.000000	0.000312
2353.000000	0.000331
2352.000000	0.000361
2351.000000	0.000381
2350.000000	0.000378
2349.000000	0.000368
2348.000000	0.000384
2347.000000	0.000435
2346.000000	0.000483
2345.000000	0.000468
2344.000000	0.000388
2343.000000	0.000309
2342.000000	0.000297
2341.000000	0.000358
2340.000000	0.000440
2339.000000	0.000476
2338.000000	0.000450
2337.000000	0.000408
2336.000000	0.000406
2335.000000	0.000453
2334.000000	0.000508
2333.000000	0.000528
2332.000000	0.000502
2331.000000	0.000449
2330.000000	0.000394
2329.000000	0.000364
2328.000000	0.000386
2327.000000	0.000468
2326.000000	0.000582
2325.000000	0.000680
2324.000000	0.000717
2323.000000	0.000683
2322.000000	0.000604
2321.000000	0.000525
2320.000000	0.000484
2319.000000	0.000491
2318.000000	0.000523
2317.000000	0.000549
2316.000000	0.000555
2315.000000	0.000550
2314.000000	0.000542
2313.000000	0.000536
2312.000000	0.000540
2311.000000	0.000555
2310.000000	0.000565
2309.000000	0.000545
2308.000000	0.000494
2307.000000	0.000435
2306.000000	0.000387
2305.000000	0.000347
2304.000000	0.000313
2303.000000	0.000305
2302.000000	0.000345
2301.000000	0.000423
2300.000000	0.000501
2299.000000	0.000545
2298.000000	0.000558
2297.000000	0.000564
2296.000000	0.000591
2295.000000	0.000638
2294.000000	0.000687
2293.000000	0.000722
2292.000000	0.000745
2291.000000	0.000769
2290.000000	0.000793
2289.000000	0.000803
2288.000000	0.000794
2287.000000	0.000779
2286.000000	0.000772
2285.000000	0.000774
2284.000000	0.000779
2283.000000	0.000784
2282.000000	0.000783
2281.000000	0.000769
2280.000000	0.000740
2279.000000	0.000695
2278.000000	0.000623
2277.000000	0.000512
2276.000000	0.000394
2275.000000	0.000347
2274.000000	0.000432
2273.000000	0.000625
2272.000000	0.000836
2271.000000	0.000985
2270.000000	0.001048
2269.000000	0.001033
2268.000000	0.000962
2267.000000	0.000866
2266.000000	0.000791
2265.000000	0.000768
2264.000000	0.000792
2263.000000	0.000830
2262.000000	0.000855
2261.000000	0.000856
2260.000000	0.000830
2259.000000	0.000766
2258.000000	0.000650
2257.000000	0.000505
2256.000000	0.000399
2255.000000	0.000399
2254.000000	0.000500
2253.000000	0.000607
2252.000000	0.000630
2251.000000	0.000556
2250.000000	0.000442
2249.000000	0.000346
2248.000000	0.000294
2247.000000	0.000302
2246.000000	0.000374
2245.000000	0.000482
2244.000000	0.000578
2243.000000	0.000635
2242.000000	0.000664
2241.000000	0.000680
2240.000000	0.000681
2239.000000	0.000662
2238.000000	0.000634
2237.000000	0.000609
2236.000000	0.000592
2235.000000	0.000592
2234.000000	0.000623
2233.000000	0.000681
2232.000000	0.000729
2231.000000	0.000726
2230.000000	0.000668
2229.000000	0.000581
2228.000000	0.000480
2227.000000	0.000359
2226.000000	0.000223
2225.000000	0.000114
2224.000000	0.000097
2223.000000	0.000209
2222.000000	0.000428
2221.000000	0.000686
2220.000000	0.000910
2219.000000	0.001051
2218.000000	0.001098
2217.000000	0.001054
2216.000000	0.000936
2215.000000	0.000775
2214.000000	0.000616
2213.000000	0.000516
2212.000000	0.000515
2211.000000	0.000604
2210.000000	0.000729
2209.000000	0.000829
2208.000000	0.000881
2207.000000	0.000899
2206.000000	0.000899
2205.000000	0.000886
2204.000000	0.000879
2203.000000	0.000905
2202.000000	0.000940
2201.000000	0.000901
2200.000000	0.000717
2199.000000	0.000424
2198.000000	0.000143
2197.000000	-0.000020
2196.000000	-0.000043
2195.000000	0.000027
2194.000000	0.000130
2193.000000	0.000219
2192.000000	0.000274
2191.000000	0.000296
2190.000000	0.000302
2189.000000	0.000301
2188.000000	0.000301
2187.000000	0.000311
2186.000000	0.000336
2185.000000	0.000355
2184.000000	0.000337
2183.000000	0.000279
2182.000000	0.000220
2181.000000	0.000215
2180.000000	0.000283
2179.000000	0.000392
2178.000000	0.000483
2177.000000	0.000524
2176.000000	0.000539
2175.000000	0.000581
2174.000000	0.000663
2173.000000	0.000733
2172.000000	0.000714
2171.000000	0.000561
2170.000000	0.000282
2169.000000	-0.000049
2168.000000	-0.000302
2167.000000	-0.000368
2166.000000	-0.000247
2165.000000	-0.000056
2164.000000	0.000108
2163.000000	0.000248
2162.000000	0.000380
2161.000000	0.000425
2160.000000	0.000274
2159.000000	-0.000049
2158.000000	-0.000392
2157.000000	-0.000646
2156.000000	-0.000790
2155.000000	-0.000805
2154.000000	-0.000671
2153.000000	-0.000453
2152.000000	-0.000274
2151.000000	-0.000183
2150.000000	-0.000121
2149.000000	-0.000034
2148.000000	0.000064
2147.000000	0.000148
2146.000000	0.000254
2145.000000	0.000413
2144.000000	0.000575
2143.000000	0.000630
2142.000000	0.000508
2141.000000	0.000240
2140.000000	-0.000049
2139.000000	-0.000208
2138.000000	-0.000146
2137.000000	0.000091
2136.000000	0.000340
2135.000000	0.000440
2134.000000	0.000367
2133.000000	0.000234
2132.000000	0.000180
2131.000000	0.000246
2130.000000	0.000356
2129.000000	0.000402
2128.000000	0.000364
2127.000000	0.000312
2126.000000	0.000316
2125.000000	0.000366
2124.000000	0.000401
2123.000000	0.000396
2122.000000	0.000387
2121.000000	0.000410
2120.000000	0.000458
2119.000000	0.000506
2118.000000	0.000537
2117.000000	0.000546
2116.000000	0.000535
2115.000000	0.000538
2114.000000	0.000598
2113.000000	0.000713
2112.000000	0.000815
2111.000000	0.000839
2110.000000	0.000786
2109.000000	0.000714
2108.000000	0.000667
2107.000000	0.000648
2106.000000	0.000637
2105.000000	0.000618
2104.000000	0.000584
2103.000000	0.000547
2102.000000	0.000531
2101.000000	0.000534
2100.000000	0.000527
2099.000000	0.000490
2098.000000	0.000457
2097.000000	0.000497
2096.000000	0.000633
2095.000000	0.000809
2094.000000	0.000921
2093.000000	0.000897
2092.000000	0.000759
2091.000000	0.000607
2090.000000	0.000542
2089.000000	0.000579
2088.000000	0.000651
2087.000000	0.000684
2086.000000	0.000660
2085.000000	0.000604
2084.000000	0.000541
2083.000000	0.000481
2082.000000	0.000415
2081.000000	0.000327
2080.000000	0.000205
2079.000000	0.000088
2078.000000	0.000047
2077.000000	0.000112
2076.000000	0.000227
2075.000000	0.000318
2074.000000	0.000370
2073.000000	0.000420
2072.000000	0.000478
2071.000000	0.000516
2070.000000	0.000520
2069.000000	0.000512
2068.000000	0.000507
2067.000000	0.000496
2066.000000	0.000472
2065.000000	0.000443
2064.000000	0.000423
2063.000000	0.000407
2062.000000	0.000380
2061.000000	0.000325
2060.000000	0.000235
2059.000000	0.000135
2058.000000	0.000080
2057.000000	0.000092
2056.000000	0.000139
2055.000000	0.000189
2054.000000	0.000278
2053.000000	0.000449
2052.000000	0.000647
2051.000000	0.000738
2050.000000	0.000653
2049.000000	0.000490
2048.000000	0.000411
2047.000000	0.000461
2046.000000	0.000534
2045.000000	0.000517
2044.000000	0.000422
2043.000000	0.000357
2042.000000	0.000430
2041.000000	0.000679
2040.000000	0.001067
2039.000000	0.001507
2038.000000	0.001861
2037.000000	0.001956
2036.000000	0.001697
2035.000000	0.001177
2034.000000	0.000630
2033.000000	0.000215
2032.000000	-0.000097
2031.000000	-0.000406
2030.000000	-0.000704
2029.000000	-0.000907
2028.000000	-0.000993
2027.000000	-0.001005
2026.000000	-0.000937
2025.000000	-0.000756
2024.000000	-0.000531
2023.000000	-0.000392
2022.000000	-0.000349
2021.000000	-0.000264
2020.000000	-0.000046
2019.000000	0.000215
2018.000000	0.000379
2017.000000	0.000416
2016.000000	0.000402
2015.000000	0.000399
2014.000000	0.000426
2013.000000	0.000479
2012.000000	0.000513
2011.000000	0.000449
2010.000000	0.000278
2009.000000	0.000114
2008.000000	0.000075
2007.000000	0.000158
2006.000000	0.000326
2005.000000	0.000643
2004.000000	0.001181
2003.000000	0.001794
2002.000000	0.002134
2001.000000	0.001971
2000.000000	0.001452
1999.000000	0.000961
1998.000000	0.000733
1997.000000	0.000694
1996.000000	0.000640
1995.000000	0.000491
1994.000000	0.000330
1993.000000	0.000261
1992.000000	0.000283
1991.000000	0.000321
1990.000000	0.000335
1989.000000	0.000365
1988.000000	0.000453
1987.000000	0.000581
1986.000000	0.000670
1985.000000	0.000664
1984.000000	0.000577
1983.000000	0.000461
1982.000000	0.000319
1981.000000	0.000103
1980.000000	-0.000189
1979.000000	-0.000442
1978.000000	-0.000486
1977.000000	-0.000281
1976.000000	0.000005
1975.000000	0.000157
1974.000000	0.000121
1973.000000	0.000002
1972.000000	-0.000085
1971.000000	-0.000124
1970.000000	-0.000163
1969.000000	-0.000228
1968.000000	-0.000296
1967.000000	-0.000326
1966.000000	-0.000321
1965.000000	-0.000306
1964.000000	-0.000271
1963.000000	-0.000161
1962.000000	0.000040
1961.000000	0.000248
1960.000000	0.000348
1959.000000	0.000318
1958.000000	0.000240
1957.000000	0.000186
1956.000000	0.000144
1955.000000	0.000077
1954.000000	-0.000006
1953.000000	-0.000055
1952.000000	-0.000050
1951.000000	-0.000021
1950.000000	-0.000017
1949.000000	-0.000052
1948.000000	-0.000099
1947.000000	-0.000099
1946.000000	-0.000014
1945.000000	0.000136
1944.000000	0.000296
1943.000000	0.000432
1942.000000	0.000533
1941.000000	0.000568
1940.000000	0.000495
1939.000000	0.000327
1938.000000	0.000155
1937.000000	0.000078
1936.000000	0.000102
1935.000000	0.000153
1934.000000	0.000174
1933.000000	0.000172
1932.000000	0.000196
1931.000000	0.000280
1930.000000	0.000414
1929.000000	0.000543
1928.000000	0.000593
1927.000000	0.000527
1926.000000	0.000385
1925.000000	0.000241
1924.000000	0.000141
1923.000000	0.000085
1922.000000	0.000047
1921.000000	0.000014
1920.000000	-0.000016
1919.000000	-0.000024
1918.000000	0.000017
1917.000000	0.000111
1916.000000	0.000225
1915.000000	0.000332
1914.000000	0.000428
1913.000000	0.000499
1912.000000	0.000509
1911.000000	0.000451
1910.000000	0.000385
1909.000000	0.000376
1908.000000	0.000411
1907.000000	0.000417
1906.000000	0.000366
1905.000000	0.000312
1904.000000	0.000310
1903.000000	0.000359
1902.000000	0.000413
1901.000000	0.000428
1900.000000	0.000374
1899.000000	0.000248
1898.000000	0.000091
1897.000000	-0.000022
1896.000000	-0.000052
1895.000000	-0.000034
1894.000000	-0.000020
1893.000000	-0.000007
1892.000000	0.000039
1891.000000	0.000118
1890.000000	0.000196
1889.000000	0.000256
1888.000000	0.000320
1887.000000	0.000395
1886.000000	0.000441
1885.000000	0.000411
1884.000000	0.000309
1883.000000	0.000184
1882.000000	0.000076
1881.000000	-0.000008
1880.000000	-0.000065
1879.000000	-0.000078
1878.000000	-0.000024
1877.000000	0.000078
1876.000000	0.000167
1875.000000	0.000185
1874.000000	0.000124
1873.000000	0.000021
1872.000000	-0.000076
1871.000000	-0.000124
1870.000000	-0.000084
1869.000000	0.000041
1868.000000	0.000174
1867.000000	0.000217
1866.000000	0.000164
1865.000000	0.000086
1864.000000	0.000056
1863.000000	0.000098
1862.000000	0.000190
1861.000000	0.000286
1860.000000	0.000329
1859.000000	0.000287
1858.000000	0.000182
1857.000000	0.000082
1856.000000	0.000040
1855.000000	0.000050
1854.000000	0.000072
1853.000000	0.000086
1852.000000	0.000102
1851.000000	0.000131
1850.000000	0.000159
1849.000000	0.000161
1848.000000	0.000134
1847.000000	0.000097
1846.000000	0.000068
1845.000000	0.000063
1844.000000	0.000086
1843.000000	0.000128
1842.000000	0.000167
1841.000000	0.000189
1840.000000	0.000190
1839.000000	0.000183
1838.000000	0.000189
1837.000000	0.000226
1836.000000	0.000282
1835.000000	0.000329
1834.000000	0.000346
1833.000000	0.000338
1832.000000	0.000317
1831.000000	0.000287
1830.000000	0.000249
1829.000000	0.000209
1828.000000	0.000176
1827.000000	0.000149
1826.000000	0.000121
1825.000000	0.000092
1824.000000	0.000074
1823.000000	0.000070
1822.000000	0.000077
1821.000000	0.000100
1820.000000	0.000142
1819.000000	0.000188
1818.000000	0.000213
1817.000000	0.000202
1816.000000	0.000162
1815.000000	0.000117
1814.000000	0.000081
1813.000000	0.000057
1812.000000	0.000045
1811.000000	0.000049
1810.000000	0.000077
1809.000000	0.000124
1808.000000	0.000162
1807.000000	0.000171
1806.000000	0.000150
1805.000000	0.000117
1804.000000	0.000091
1803.000000	0.000079
1802.000000	0.000083
1801.000000	0.000098
1800.000000	0.000115
1799.000000	0.000123
1798.000000	0.000124
1797.000000	0.000130
1796.000000	0.000140
1795.000000	0.000142
1794.000000	0.000134
1793.000000	0.000133
1792.000000	0.000162
1791.000000	0.000205
1790.000000	0.000226
1789.000000	0.000217
1788.000000	0.000188
1787.000000	0.000155
1786.000000	0.000123
1785.000000	0.000091
1784.000000	0.000058
1783.000000	0.000036
1782.000000	0.000042
1781.000000	0.000086
1780.000000	0.000143
1779.000000	0.000177
1778.000000	0.000177
1777.000000	0.000164
1776.000000	0.000153
1775.000000	0.000137
1774.000000	0.000102
1773.000000	0.000057
1772.000000	0.000038
1771.000000	0.000055
1770.000000	0.000085
1769.000000	0.000114
1768.000000	0.000143
1767.000000	0.000159
1766.000000	0.000139
1765.000000	0.000083
1764.000000	0.000028
1763.000000	0.000030
1762.000000	0.000125
1761.000000	0.000281
1760.000000	0.000418
1759.000000	0.000492
1758.000000	0.000518
1757.000000	0.000549
1756.000000	0.000626
1755.000000	0.000740
1754.000000	0.000862
1753.000000	0.000976
1752.000000	0.001088
1751.000000	0.001201
1750.000000	0.001308
1749.000000	0.001401
1748.000000	0.001483
1747.000000	0.001554
1746.000000	0.001614
1745.000000	0.001662
1744.000000	0.001694
1743.000000	0.001695
1742.000000	0.001657
1741.000000	0.001585
1740.000000	0.001500
1739.000000	0.001426
1738.000000	0.001370
1737.000000	0.001318
1736.000000	0.001245
1735.000000	0.001131
1734.000000	0.000994
1733.000000	0.000885
1732.000000	0.000805
1731.000000	0.000735
1730.000000	0.000676
1729.000000	0.000635
1728.000000	0.000607
1727.000000	0.000579
1726.000000	0.000540
1725.000000	0.000486
1724.000000	0.000420
1723.000000	0.000349
1722.000000	0.000291
1721.000000	0.000261
1720.000000	0.000258
1719.000000	0.000249
1718.000000	0.000196
1717.000000	0.000107
1716.000000	0.000035
1715.000000	0.000006
1714.000000	0.000007
1713.000000	0.000022
1712.000000	0.000039
1711.000000	0.000068
1710.000000	0.000119
1709.000000	0.000185
1708.000000	0.000239
1707.000000	0.000253
1706.000000	0.000224
1705.000000	0.000185
1704.000000	0.000163
1703.000000	0.000158
1702.000000	0.000157
1701.000000	0.000171
1700.000000	0.000226
1699.000000	0.000293
1698.000000	0.000335
1697.000000	0.000349
1696.000000	0.000350
1695.000000	0.000352
1694.000000	0.000369
1693.000000	0.000401
1692.000000	0.000442
1691.000000	0.000476
1690.000000	0.000486
1689.000000	0.000479
1688.000000	0.000473
1687.000000	0.000477
1686.000000	0.000488
1685.000000	0.000511
1684.000000	0.000559
1683.000000	0.000603
1682.000000	0.000615
1681.000000	0.000615
1680.000000	0.000626
1679.000000	0.000651
1678.000000	0.000674
1677.000000	0.000678
1676.000000	0.000662
1675.000000	0.000642
1674.000000	0.000631
1673.000000	0.000631
1672.000000	0.000638
1671.000000	0.000661
1670.000000	0.000714
1669.000000	0.000797
1668.000000	0.000882
1667.000000	0.000939
1666.000000	0.000963
1665.000000	0.000966
1664.000000	0.000961
1663.000000	0.000959
1662.000000	0.000966
1661.000000	0.000978
1660.000000	0.000997
1659.000000	0.001023
1658.000000	0.001056
1657.000000	0.001095
1656.000000	0.001139
1655.000000	0.001173
1654.000000	0.001173
1653.000000	0.001172
1652.000000	0.001207
1651.000000	0.001239
1650.000000	0.001244
1649.000000	0.001239
1648.000000	0.001228
1647.000000	0.001228
1646.000000	0.001241
1645.000000	0.001248
1644.000000	0.001239
1643.000000	0.001229
1642.000000	0.001232
1641.000000	0.001252
1640.000000	0.001283
1639.000000	0.001319
1638.000000	0.001349
1637.000000	0.001351
1636.000000	0.001310
1635.000000	0.001255
1634.000000	0.001223
1633.000000	0.001207
1632.000000	0.001195
1631.000000	0.001184
1630.000000	0.001176
1629.000000	0.001169
1628.000000	0.001160
1627.000000	0.001151
1626.000000	0.001149
1625.000000	0.001155
1624.000000	0.001162
1623.000000	0.001160
1622.000000	0.001147
1621.000000	0.001126
1620.000000	0.001101
1619.000000	0.001075
1618.000000	0.001049
1617.000000	0.001029
1616.000000	0.001021
1615.000000	0.001018
1614.000000	0.001012
1613.000000	0.001005
1612.000000	0.000999
1611.000000	0.000994
1610.000000	0.000985
1609.000000	0.000958
1608.000000	0.000912
1607.000000	0.000862
1606.000000	0.000825
1605.000000	0.000803
1604.000000	0.000784
1603.000000	0.000759
1602.000000	0.000734
1601.000000	0.000720
1600.000000	0.000718
1599.000000	0.000721
1598.000000	0.000717
1597.000000	0.000701
1596.000000	0.000678
1595.000000	0.000662
1594.000000	0.000661
1593.000000	0.000668
1592.000000	0.000674
1591.000000	0.000678
1590.000000	0.000684
1589.000000	0.000689
1588.000000	0.000681
1587.000000	0.000659
1586.000000	0.000635
1585.000000	0.000619
1584.000000	0.000613
1583.000000	0.000610
1582.000000	0.000607
1581.000000	0.000610
1580.000000	0.000622
1579.000000	0.000642
1578.000000	0.000659
1577.000000	0.000660
1576.000000	0.000656
1575.000000	0.000659
1574.000000	0.000662
1573.000000	0.000659
1572.000000	0.000656
1571.000000	0.000652
1570.000000	0.000638
1569.000000	0.000609
1568.000000	0.000573
1567.000000	0.000541
1566.000000	0.000523
1565.000000	0.000516
1564.000000	0.000520
1563.000000	0.000536
1562.000000	0.000560
1561.000000	0.000579
1560.000000	0.000579
1559.000000	0.000579
1558.000000	0.000615
1557.000000	0.000648
1556.000000	0.000654
1555.000000	0.000654
1554.000000	0.000649
1553.000000	0.000647
1552.000000	0.000652
1551.000000	0.000673
1550.000000	0.000710
1549.000000	0.000746
1548.000000	0.000771
1547.000000	0.000788
1546.000000	0.000807
1545.000000	0.000831
1544.000000	0.000852
1543.000000	0.000865
1542.000000	0.000870
1541.000000	0.000871
1540.000000	0.000859
1539.000000	0.000839
1538.000000	0.000817
1537.000000	0.000806
1536.000000	0.000816
1535.000000	0.000839
1534.000000	0.000847
1533.000000	0.000818
1532.000000	0.000769
1531.000000	0.000729
1530.000000	0.000714
1529.000000	0.000717
1528.000000	0.000724
1527.000000	0.000720
1526.000000	0.000712
1525.000000	0.000715
1524.000000	0.000732
1523.000000	0.000748
1522.000000	0.000743
1521.000000	0.000720
1520.000000	0.000699
1519.000000	0.000691
1518.000000	0.000695
1517.000000	0.000703
1516.000000	0.000703
1515.000000	0.000696
1514.000000	0.000690
1513.000000	0.000688
1512.000000	0.000688
1511.000000	0.000689
1510.000000	0.000693
1509.000000	0.000693
1508.000000	0.000662
1507.000000	0.000597
1506.000000	0.000562
1505.000000	0.000570
1504.000000	0.000564
1503.000000	0.000534
1502.000000	0.000501
1501.000000	0.000493
1500.000000	0.000513
1499.000000	0.000527
1498.000000	0.000497
1497.000000	0.000426
1496.000000	0.000369
1495.000000	0.000356
1494.000000	0.000371
1493.000000	0.000394
1492.000000	0.000414
1491.000000	0.000416
1490.000000	0.000392
1489.000000	0.000355
1488.000000	0.000326
1487.000000	0.000316
1486.000000	0.000331
1485.000000	0.000366
1484.000000	0.000409
1483.000000	0.000450
1482.000000	0.000486
1481.000000	0.000525
1480.000000	0.000569
1479.000000	0.000618
1478.000000	0.000668
1477.000000	0.000719
1476.000000	0.000762
1475.000000	0.000791
1474.000000	0.000805
1473.000000	0.000815
1472.000000	0.000831
1471.000000	0.000849
1470.000000	0.000868
1469.000000	0.000889
1468.000000	0.000910
1467.000000	0.000925
1466.000000	0.000940
1465.000000	0.000972
1464.000000	0.001022
1463.000000	0.001063
1462.000000	0.001075
1461.000000	0.001065
1460.000000	0.001052
1459.000000	0.001047
1458.000000	0.001052
1457.000000	0.001072
1456.000000	0.001099
1455.000000	0.001113
1454.000000	0.001109
1453.000000	0.001098
1452.000000	0.001084
1451.000000	0.001072
1450.000000	0.001069
1449.000000	0.001084
1448.000000	0.001113
1447.000000	0.001141
1446.000000	0.001160
1445.000000	0.001172
1444.000000	0.001174
1443.000000	0.001153
1442.000000	0.001103
1441.000000	0.001041
1440.000000	0.000993
1439.000000	0.000971
1438.000000	0.000971
1437.000000	0.000988
1436.000000	0.001017
1435.000000	0.001043
1434.000000	0.001058
1433.000000	0.001069
1432.000000	0.001084
1431.000000	0.001097
1430.000000	0.001100
1429.000000	0.001089
1428.000000	0.001074
1427.000000	0.001064
1426.000000	0.001058
1425.000000	0.001055
1424.000000	0.001057
1423.000000	0.001066
1422.000000	0.001077
1421.000000	0.001081
1420.000000	0.001076
1419.000000	0.001069
1418.000000	0.001071
1417.000000	0.001078
1416.000000	0.001080
1415.000000	0.001069
1414.000000	0.001045
1413.000000	0.001022
1412.000000	0.001010
1411.000000	0.001006
1410.000000	0.000995
1409.000000	0.000980
1408.000000	0.000974
1407.000000	0.000982
1406.000000	0.000986
1405.000000	0.000969
1404.000000	0.000938
1403.000000	0.000913
1402.000000	0.000901
1401.000000	0.000894
1400.000000	0.000895
1399.000000	0.000916
1398.000000	0.000955
1397.000000	0.000990
1396.000000	0.001005
1395.000000	0.001001
1394.000000	0.000987
1393.000000	0.000962
1392.000000	0.000928
1391.000000	0.000897
1390.000000	0.000888
1389.000000	0.000907
1388.000000	0.000944
1387.000000	0.000973
1386.000000	0.000982
1385.000000	0.000975
1384.000000	0.000961
1383.000000	0.000947
1382.000000	0.000945
1381.000000	0.000962
1380.000000	0.000989
1379.000000	0.001003
1378.000000	0.000993
1377.000000	0.000970
1376.000000	0.000955
1375.000000	0.000949
1374.000000	0.000939
1373.000000	0.000922
1372.000000	0.000911
1371.000000	0.000915
1370.000000	0.000924
1369.000000	0.000922
1368.000000	0.000909
1367.000000	0.000900
1366.000000	0.000905
1365.000000	0.000921
1364.000000	0.000935
1363.000000	0.000940
1362.000000	0.000934
1361.000000	0.000920
1360.000000	0.000903
1359.000000	0.000887
1358.000000	0.000876
1357.000000	0.000869
1356.000000	0.000864
1355.000000	0.000858
1354.000000	0.000844
1353.000000	0.000817
1352.000000	0.000783
1351.000000	0.000761
1350.000000	0.000764
1349.000000	0.000790
1348.000000	0.000824
1347.000000	0.000855
1346.000000	0.000889
1345.000000	0.000928
1344.000000	0.000963
1343.000000	0.000977
1342.000000	0.000970
1341.000000	0.000960
1340.000000	0.000956
1339.000000	0.000951
1338.000000	0.000931
1337.000000	0.000898
1336.000000	0.000871
1335.000000	0.000861
1334.000000	0.000864
1333.000000	0.000864
1332.000000	0.000853
1331.000000	0.000833
1330.000000	0.000808
1329.000000	0.000789
1328.000000	0.000781
1327.000000	0.000785
1326.000000	0.000795
1325.000000	0.000805
1324.000000	0.000809
1323.000000	0.000806
1322.000000	0.000793
1321.000000	0.000772
1320.000000	0.000754
1319.000000	0.000755
1318.000000	0.000772
1317.000000	0.000785
1316.000000	0.000781
1315.000000	0.000764
1314.000000	0.000745
1313.000000	0.000732
1312.000000	0.000720
1311.000000	0.000708
1310.000000	0.000694
1309.000000	0.000675
1308.000000	0.000648
1307.000000	0.000611
1306.000000	0.000571
1305.000000	0.000535
1304.000000	0.000510
1303.000000	0.000498
1302.000000	0.000492
1301.000000	0.000488
1300.000000	0.000486
1299.000000	0.000496
1298.000000	0.000519
1297.000000	0.000543
1296.000000	0.000554
1295.000000	0.000544
1294.000000	0.000519
1293.000000	0.000485
1292.000000	0.000450
1291.000000	0.000430
1290.000000	0.000438
1289.000000	0.000475
1288.000000	0.000519
1287.000000	0.000542
1286.000000	0.000525
1285.000000	0.000472
1284.000000	0.000408
1283.000000	0.000368
1282.000000	0.000368
1281.000000	0.000398
1280.000000	0.000422
1279.000000	0.000414
1278.000000	0.000372
1277.000000	0.000324
1276.000000	0.000295
1275.000000	0.000294
1274.000000	0.000306
1273.000000	0.000307
1272.000000	0.000290
1271.000000	0.000274
1270.000000	0.000284
1269.000000	0.000327
1268.000000	0.000386
1267.000000	0.000438
1266.000000	0.000471
1265.000000	0.000483
1264.000000	0.000485
1263.000000	0.000482
1262.000000	0.000477
1261.000000	0.000465
1260.000000	0.000446
1259.000000	0.000433
1258.000000	0.000446
1257.000000	0.000487
1256.000000	0.000533
1255.000000	0.000559
1254.000000	0.000565
1253.000000	0.000566
1252.000000	0.000572
1251.000000	0.000581
1250.000000	0.000585
1249.000000	0.000589
1248.000000	0.000599
1247.000000	0.000617
1246.000000	0.000633
1245.000000	0.000636
1244.000000	0.000632
1243.000000	0.000637
1242.000000	0.000664
1241.000000	0.000704
1240.000000	0.000726
1239.000000	0.000711
1238.000000	0.000673
1237.000000	0.000654
1236.000000	0.000674
1235.000000	0.000711
1234.000000	0.000718
1233.000000	0.000667
1232.000000	0.000581
1231.000000	0.000506
1230.000000	0.000482
1229.000000	0.000508
1228.000000	0.000550
1227.000000	0.000567
1226.000000	0.000541
1225.000000	0.000484
1224.000000	0.000420
1223.000000	0.000365
1222.000000	0.000325
1221.000000	0.000300
1220.000000	0.000295
1219.000000	0.000316
1218.000000	0.000359
1217.000000	0.000405
1216.000000	0.000429
1215.000000	0.000413
1214.000000	0.000365
1213.000000	0.000308
1212.000000	0.000269
1211.000000	0.000251
1210.000000	0.000236
1209.000000	0.000201
1208.000000	0.000153
1207.000000	0.000124
1206.000000	0.000142
1205.000000	0.000205
1204.000000	0.000286
1203.000000	0.000350
1202.000000	0.000382
1201.000000	0.000382
1200.000000	0.000356
1199.000000	0.000312
1198.000000	0.000264
1197.000000	0.000225
1196.000000	0.000200
1195.000000	0.000186
1194.000000	0.000178
1193.000000	0.000176
1192.000000	0.000173
1191.000000	0.000162
1190.000000	0.000137
1189.000000	0.000107
1188.000000	0.000093
1187.000000	0.000103
1186.000000	0.000131
1185.000000	0.000159
1184.000000	0.000178
1183.000000	0.000187
1182.000000	0.000194
1181.000000	0.000211
1180.000000	0.000246
1179.000000	0.000299
1178.000000	0.000355
1177.000000	0.000400
1176.000000	0.000427
1175.000000	0.000448
1174.000000	0.000483
1173.000000	0.000541
1172.000000	0.000615
1171.000000	0.000689
1170.000000	0.000750
1169.000000	0.000806
1168.000000	0.000869
1167.000000	0.000941
1166.000000	0.001016
1165.000000	0.001091
1164.000000	0.001174
1163.000000	0.001267
1162.000000	0.001369
1161.000000	0.001470
1160.000000	0.001565
1159.000000	0.001649
1158.000000	0.001723
1157.000000	0.001798
1156.000000	0.001884
1155.000000	0.001973
1154.000000	0.002038
1153.000000	0.002055
1152.000000	0.002034
1151.000000	0.002003
1150.000000	0.001979
1149.000000	0.001954
1148.000000	0.001918
1147.000000	0.001872
1146.000000	0.001823
1145.000000	0.001769
1144.000000	0.001705
1143.000000	0.001632
1142.000000	0.001557
1141.000000	0.001486
1140.000000	0.001418
1139.000000	0.001354
1138.000000	0.001297
1137.000000	0.001252
1136.000000	0.001220
1135.000000	0.001203
1134.000000	0.001194
1133.000000	0.001183
1132.000000	0.001158
1131.000000	0.001123
1130.000000	0.001091
1129.000000	0.001074
1128.000000	0.001073
1127.000000	0.001084
1126.000000	0.001099
1125.000000	0.001108
1124.000000	0.001111
1123.000000	0.001108
1122.000000	0.001109
1121.000000	0.001118
1120.000000	0.001136
1119.000000	0.001154
1118.000000	0.001161
1117.000000	0.001150
1116.000000	0.001136
1115.000000	0.001141
1114.000000	0.001182
1113.000000	0.001247
1112.000000	0.001304
1111.000000	0.001335
1110.000000	0.001352
1109.000000	0.001378
1108.000000	0.001413
1107.000000	0.001428
1106.000000	0.001405
1105.000000	0.001362
1104.000000	0.001346
1103.000000	0.001379
1102.000000	0.001429
1101.000000	0.001449
1100.000000	0.001426
1099.000000	0.001391
1098.000000	0.001376
1097.000000	0.001382
1096.000000	0.001392
1095.000000	0.001404
1094.000000	0.001432
1093.000000	0.001479
1092.000000	0.001522
1091.000000	0.001542
1090.000000	0.001543
1089.000000	0.001550
1088.000000	0.001583
1087.000000	0.001637
1086.000000	0.001694
1085.000000	0.001749
1084.000000	0.001807
1083.000000	0.001877
1082.000000	0.001953
1081.000000	0.002012
1080.000000	0.002036
1079.000000	0.002025
1078.000000	0.001999
1077.000000	0.001986
1076.000000	0.002000
1075.000000	0.002028
1074.000000	0.002044
1073.000000	0.002019
1072.000000	0.001945
1071.000000	0.001831
1070.000000	0.001697
1069.000000	0.001576
1068.000000	0.001494
1067.000000	0.001462
1066.000000	0.001465
1065.000000	0.001480
1064.000000	0.001499
1063.000000	0.001527
1062.000000	0.001573
1061.000000	0.001629
1060.000000	0.001683
1059.000000	0.001738
1058.000000	0.001803
1057.000000	0.001880
1056.000000	0.001957
1055.000000	0.002025
1054.000000	0.002088
1053.000000	0.002152
1052.000000	0.002211
1051.000000	0.002252
1050.000000	0.002274
1049.000000	0.002292
1048.000000	0.002325
1047.000000	0.002374
1046.000000	0.002427
1045.000000	0.002478
1044.000000	0.002544
1043.000000	0.002645
1042.000000	0.002771
1041.000000	0.002882
1040.000000	0.002955
1039.000000	0.003003
1038.000000	0.003062
1037.000000	0.003142
1036.000000	0.003219
1035.000000	0.003269
1034.000000	0.003293
1033.000000	0.003309
1032.000000	0.003327
1031.000000	0.003354
1030.000000	0.003405
1029.000000	0.003491
1028.000000	0.003599
1027.000000	0.003696
1026.000000	0.003765
1025.000000	0.003812
1024.000000	0.003853
1023.000000	0.003903
1022.000000	0.003966
1021.000000	0.004044
1020.000000	0.004123
1019.000000	0.004179
1018.000000	0.004203
1017.000000	0.004205
1016.000000	0.004202
1015.000000	0.004200
1014.000000	0.004204
1013.000000	0.004224
1012.000000	0.004257
1011.000000	0.004277
1010.000000	0.004256
1009.000000	0.004204
1008.000000	0.004156
1007.000000	0.004132
1006.000000	0.004121
1005.000000	0.004104
1004.000000	0.004076
1003.000000	0.004045
1002.000000	0.004022
1001.000000	0.004014
1000.000000	0.004029
999.000000	0.004068
998.000000	0.004122
997.000000	0.004180
996.000000	0.004234
995.000000	0.004277
994.000000	0.004299
993.000000	0.004295
992.000000	0.004281
991.000000	0.004273
990.000000	0.004267
989.000000	0.004240
988.000000	0.004167
987.000000	0.004051
986.000000	0.003919
985.000000	0.003803
984.000000	0.003720
983.000000	0.003663
982.000000	0.003605
981.000000	0.003519
980.000000	0.003397
979.000000	0.003252
978.000000	0.003105
977.000000	0.002973
976.000000	0.002860
975.000000	0.002755
974.000000	0.002644
973.000000	0.002521
972.000000	0.002399
971.000000	0.002298
970.000000	0.002226
969.000000	0.002172
968.000000	0.002121
967.000000	0.002073
966.000000	0.002026
965.000000	0.001969
964.000000	0.001887
963.000000	0.001775
962.000000	0.001641
961.000000	0.001511
960.000000	0.001420
959.000000	0.001389
958.000000	0.001401
957.000000	0.001408
956.000000	0.001375
955.000000	0.001307
954.000000	0.001233
953.000000	0.001177
952.000000	0.001140
951.000000	0.001118
950.000000	0.001105
949.000000	0.001086
948.000000	0.001049
947.000000	0.001004
946.000000	0.000981
945.000000	0.001000
944.000000	0.001055
943.000000	0.001121
942.000000	0.001170
941.000000	0.001192
940.000000	0.001191
939.000000	0.001186
938.000000	0.001198
937.000000	0.001229
936.000000	0.001258
935.000000	0.001260
934.000000	0.001231
933.000000	0.001195
932.000000	0.001179
931.000000	0.001191
930.000000	0.001207
929.000000	0.001190
928.000000	0.001128
927.000000	0.001055
926.000000	0.001020
925.000000	0.001046
924.000000	0.001098
923.000000	0.001118
922.000000	0.001071
921.000000	0.000974
920.000000	0.000870
919.000000	0.000798
918.000000	0.000774
917.000000	0.000783
916.000000	0.000800
915.000000	0.000805
914.000000	0.000795
913.000000	0.000784
912.000000	0.000779
911.000000	0.000771
910.000000	0.000743
909.000000	0.000698
908.000000	0.000658
907.000000	0.000640
906.000000	0.000634
905.000000	0.000615
904.000000	0.000569
903.000000	0.000508
902.000000	0.000446
901.000000	0.000390
900.000000	0.000333
899.000000	0.000266
898.000000	0.000188
897.000000	0.000115
896.000000	0.000078
895.000000	0.000091
894.000000	0.000134
893.000000	0.000162
892.000000	0.000155
891.000000	0.000131
890.000000	0.000120
889.000000	0.000128
888.000000	0.000146
887.000000	0.000164
886.000000	0.000178
885.000000	0.000185
884.000000	0.000176
883.000000	0.000150
882.000000	0.000109
881.000000	0.000060
880.000000	0.000022
879.000000	0.000021
878.000000	0.000065
877.000000	0.000130
876.000000	0.000180
875.000000	0.000194
874.000000	0.000180
873.000000	0.000154
872.000000	0.000133
871.000000	0.000129
870.000000	0.000150
869.000000	0.000195
868.000000	0.000254
867.000000	0.000311
866.000000	0.000344
865.000000	0.000336
864.000000	0.000299
863.000000	0.000273
862.000000	0.000290
861.000000	0.000336
860.000000	0.000376
859.000000	0.000393
858.000000	0.000397
857.000000	0.000395
856.000000	0.000383
855.000000	0.000362
854.000000	0.000337
853.000000	0.000301
852.000000	0.000247
851.000000	0.000194
850.000000	0.000185
849.000000	0.000234
848.000000	0.000300
847.000000	0.000330
846.000000	0.000314
845.000000	0.000286
844.000000	0.000281
843.000000	0.000303
842.000000	0.000327
841.000000	0.000330
840.000000	0.000302
839.000000	0.000260
838.000000	0.000230
837.000000	0.000225
836.000000	0.000226
835.000000	0.000206
834.000000	0.000155
833.000000	0.000088
832.000000	0.000034
831.000000	0.000012
830.000000	0.000013
829.000000	0.000004
828.000000	-0.000042
827.000000	-0.000112
826.000000	-0.000167
825.000000	-0.000181
824.000000	-0.000166
823.000000	-0.000151
822.000000	-0.000158
821.000000	-0.000192
820.000000	-0.000244
819.000000	-0.000286
818.000000	-0.000285
817.000000	-0.000246
816.000000	-0.000206
815.000000	-0.000191
814.000000	-0.000187
813.000000	-0.000173
812.000000	-0.000158
811.000000	-0.000172
810.000000	-0.000214
809.000000	-0.000244
808.000000	-0.000238
807.000000	-0.000205
806.000000	-0.000162
805.000000	-0.000110
804.000000	-0.000048
803.000000	0.000004
802.000000	0.000020
801.000000	-0.000002
800.000000	-0.000036
799.000000	-0.000058
798.000000	-0.000061
797.000000	-0.000053
796.000000	-0.000046
795.000000	-0.000050
794.000000	-0.000071
793.000000	-0.000096
792.000000	-0.000099
791.000000	-0.000063
790.000000	0.000002
789.000000	0.000061
788.000000	0.000090
787.000000	0.000092
786.000000	0.000084
785.000000	0.000067
784.000000	0.000027
783.000000	-0.000042
782.000000	-0.000115
781.000000	-0.000162
780.000000	-0.000169
779.000000	-0.000148
778.000000	-0.000107
777.000000	-0.000055
776.000000	-0.000004
775.000000	0.000024
774.000000	0.000016
773.000000	-0.000023
772.000000	-0.000069
771.000000	-0.000095
770.000000	-0.000081
769.000000	-0.000024
768.000000	0.000058
767.000000	0.000133
766.000000	0.000177
765.000000	0.000192
764.000000	0.000193
763.000000	0.000186
762.000000	0.000168
761.000000	0.000138
760.000000	0.000118
759.000000	0.000142
758.000000	0.000220
757.000000	0.000326
756.000000	0.000415
755.000000	0.000451
754.000000	0.000427
753.000000	0.000356
752.000000	0.000268
751.000000	0.000203
750.000000	0.000196
749.000000	0.000239
748.000000	0.000287
747.000000	0.000283
746.000000	0.000203
745.000000	0.000067
744.000000	-0.000076
743.000000	-0.000169
742.000000	-0.000183
741.000000	-0.000145
740.000000	-0.000121
739.000000	-0.000141
738.000000	-0.000169
737.000000	-0.000153
736.000000	-0.000099
735.000000	-0.000068
734.000000	-0.000102
733.000000	-0.000177
732.000000	-0.000247
731.000000	-0.000291
730.000000	-0.000312
729.000000	-0.000304
728.000000	-0.000260
727.000000	-0.000180
726.000000	-0.000079
725.000000	0.000027
724.000000	0.000109
723.000000	0.000124
722.000000	0.000047
721.000000	-0.000077
720.000000	-0.000163
719.000000	-0.000160
718.000000	-0.000095
717.000000	-0.000026
716.000000	0.000030
715.000000	0.000102
714.000000	0.000206
713.000000	0.000311
712.000000	0.000362
711.000000	0.000329
710.000000	0.000226
709.000000	0.000092
708.000000	-0.000032
707.000000	-0.000109
706.000000	-0.000118
705.000000	-0.000069
704.000000	-0.000009
703.000000	0.000008
702.000000	-0.000034
701.000000	-0.000096
700.000000	-0.000128
699.000000	-0.000104
698.000000	-0.000031
697.000000	0.000072
696.000000	0.000191
695.000000	0.000301
694.000000	0.000362
693.000000	0.000342
692.000000	0.000249
691.000000	0.000132
690.000000	0.000044
689.000000	0.000007
688.000000	0.000012
687.000000	0.000035
686.000000	0.000053
685.000000	0.000046
684.000000	0.000018
683.000000	0.000008
682.000000	0.000060
681.000000	0.000163
680.000000	0.000249
679.000000	0.000258
678.000000	0.000186
677.000000	0.000068
676.000000	-0.000059
675.000000	-0.000163
674.000000	-0.000211
673.000000	-0.000185
672.000000	-0.000113
671.000000	-0.000042
670.000000	0.000017
669.000000	0.000103
668.000000	0.000195
667.000000	0.000199
666.000000	0.000207
665.000000	0.000265
664.000000	0.000311
663.000000	0.000310
662.000000	0.000273
661.000000	0.000232
660.000000	0.000199
659.000000	0.000168
658.000000	0.000141
657.000000	0.000128
656.000000	0.000123
655.000000	0.000096
654.000000	0.000038
653.000000	-0.000020
652.000000	-0.000034
651.000000	-0.000008
650.000000	0.000000
649.000000	-0.000051
648.000000	-0.000138
647.000000	-0.000189
646.000000	-0.000163
645.000000	-0.000081
644.000000	-0.000005
643.000000	0.000024
642.000000	0.000021
641.000000	0.000030
640.000000	0.000064
639.000000	0.000092
638.000000	0.000080
637.000000	0.000031
636.000000	-0.000025
635.000000	-0.000068
634.000000	-0.000107
633.000000	-0.000157
632.000000	-0.000215
631.000000	-0.000257
630.000000	-0.000255
629.000000	-0.000207
628.000000	-0.000143
627.000000	-0.000114
626.000000	-0.000138
625.000000	-0.000177
624.000000	-0.000178
623.000000	-0.000137
622.000000	-0.000098
621.000000	-0.000094
620.000000	-0.000104
619.000000	-0.000091
618.000000	-0.000034
617.000000	0.000069
616.000000	0.000206
615.000000	0.000340
614.000000	0.000404
613.000000	0.000353
612.000000	0.000224
611.000000	0.000119
610.000000	0.000115
609.000000	0.000192
608.000000	0.000257
607.000000	0.000233
606.000000	0.000124
605.000000	0.000001
604.000000	-0.000056
603.000000	-0.000017
602.000000	0.000080
601.000000	0.000161
600.000000	0.000185
599.000000	0.000186
598.000000	0.000230
597.000000	0.000328
596.000000	0.000414
595.000000	0.000425
594.000000	0.000381
593.000000	0.000357
592.000000	0.000396
591.000000	0.000468
590.000000	0.000527
589.000000	0.000556
588.000000	0.000561
587.000000	0.000554
586.000000	0.000554
585.000000	0.000572
584.000000	0.000588
583.000000	0.000582
582.000000	0.000596
581.000000	0.000709
580.000000	0.000922
579.000000	0.001113
578.000000	0.001170
577.000000	0.001114
576.000000	0.001062
575.000000	0.001077
574.000000	0.001122
573.000000	0.001136
572.000000	0.001106
571.000000	0.001051
570.000000	0.000995
569.000000	0.000953
568.000000	0.000909
567.000000	0.000821
566.000000	0.000691
565.000000	0.000585
564.000000	0.000562
563.000000	0.000590
562.000000	0.000585
561.000000	0.000536
560.000000	0.000509
559.000000	0.000539
558.000000	0.000579
557.000000	0.000575
556.000000	0.000532
555.000000	0.000473
554.000000	0.000383
553.000000	0.000236
552.000000	0.000049
551.000000	-0.000120
550.000000	-0.000210
549.000000	-0.000199
548.000000	-0.000124
547.000000	-0.000079
546.000000	-0.000122
545.000000	-0.000192
544.000000	-0.000157
543.000000	0.000021
542.000000	0.000234
541.000000	0.000361
540.000000	0.000381
539.000000	0.000338
538.000000	0.000259
537.000000	0.000191
536.000000	0.000230
535.000000	0.000431
534.000000	0.000708
533.000000	0.000915
532.000000	0.001013
531.000000	0.001082
530.000000	0.001171
529.000000	0.001221
528.000000	0.001157
527.000000	0.000983
526.000000	0.000796
525.000000	0.000703
524.000000	0.000755
523.000000	0.000926
522.000000	0.001131
521.000000	0.001272
520.000000	0.001302
519.000000	0.001254
518.000000	0.001190
517.000000	0.001137
516.000000	0.001073
515.000000	0.000978
514.000000	0.000863
513.000000	0.000771
512.000000	0.000722
511.000000	0.000689
510.000000	0.000615
509.000000	0.000486
508.000000	0.000363
507.000000	0.000319
506.000000	0.000347
505.000000	0.000369
504.000000	0.000337
503.000000	0.000302
502.000000	0.000347
501.000000	0.000475
500.000000	0.000601
499.000000	0.000653
498.000000	0.000626
497.000000	0.000562
496.000000	0.000505
495.000000	0.000475
494.000000	0.000489
493.000000	0.000580
492.000000	0.000772
491.000000	0.001039
490.000000	0.001296
489.000000	0.001435
488.000000	0.001378
487.000000	0.001119
486.000000	0.000753
485.000000	0.000463
484.000000	0.000404
483.000000	0.000567
482.000000	0.000757
481.000000	0.000765
480.000000	0.000542
479.000000	0.000232
478.000000	0.000043
477.000000	0.000082
476.000000	0.000288
475.000000	0.000526
474.000000	0.000688
473.000000	0.000703
472.000000	0.000537
471.000000	0.000252
470.000000	0.000005
469.000000	-0.000058
468.000000	0.000072
467.000000	0.000256
466.000000	0.000343
465.000000	0.000345
464.000000	0.000372
463.000000	0.000444
462.000000	0.000455
461.000000	0.000328
460.000000	0.000124
459.000000	-0.000048
458.000000	-0.000108
457.000000	-0.000099
456.000000	-0.000139
455.000000	-0.000048
454.000000	-0.000004
453.000000	0.000012
452.000000	-0.000036
451.000000	-0.000160
450.000000	-0.000300
