PE IR       SUBTECH     SPECTRUM    ASCII       PEDS        4.00        
   -1
P14-Noir039_1.ASC
23/06/09
16:28:51.00
23/06/09
16:36:39.00
uco
Sample 039 By uco Date Friday, June 09 2023
450.000000
#HDR
-1
-1
#GR
cm-1
A
1.0
0.0
4000.000000
-1.000000
3551
8
0.014198
0.000695
#DATA
4000.000000	0.001701
3999.000000	0.001722
3998.000000	0.001743
3997.000000	0.001760
3996.000000	0.001776
3995.000000	0.001791
3994.000000	0.001802
3993.000000	0.001809
3992.000000	0.001812
3991.000000	0.001809
3990.000000	0.001796
3989.000000	0.001773
3988.000000	0.001749
3987.000000	0.001735
3986.000000	0.001736
3985.000000	0.001747
3984.000000	0.001762
3983.000000	0.001775
3982.000000	0.001787
3981.000000	0.001799
3980.000000	0.001808
3979.000000	0.001816
3978.000000	0.001823
3977.000000	0.001833
3976.000000	0.001843
3975.000000	0.001846
3974.000000	0.001838
3973.000000	0.001822
3972.000000	0.001808
3971.000000	0.001802
3970.000000	0.001806
3969.000000	0.001817
3968.000000	0.001828
3967.000000	0.001832
3966.000000	0.001827
3965.000000	0.001814
3964.000000	0.001803
3963.000000	0.001798
3962.000000	0.001798
3961.000000	0.001795
3960.000000	0.001787
3959.000000	0.001780
3958.000000	0.001779
3957.000000	0.001785
3956.000000	0.001795
3955.000000	0.001805
3954.000000	0.001819
3953.000000	0.001836
3952.000000	0.001859
3951.000000	0.001885
3950.000000	0.001908
3949.000000	0.001922
3948.000000	0.001920
3947.000000	0.001904
3946.000000	0.001882
3945.000000	0.001870
3944.000000	0.001879
3943.000000	0.001901
3942.000000	0.001919
3941.000000	0.001919
3940.000000	0.001904
3939.000000	0.001889
3938.000000	0.001881
3937.000000	0.001878
3936.000000	0.001875
3935.000000	0.001871
3934.000000	0.001862
3933.000000	0.001848
3932.000000	0.001832
3931.000000	0.001827
3930.000000	0.001843
3929.000000	0.001871
3928.000000	0.001894
3927.000000	0.001905
3926.000000	0.001912
3925.000000	0.001920
3924.000000	0.001918
3923.000000	0.001898
3922.000000	0.001866
3921.000000	0.001841
3920.000000	0.001827
3919.000000	0.001818
3918.000000	0.001811
3917.000000	0.001808
3916.000000	0.001805
3915.000000	0.001799
3914.000000	0.001792
3913.000000	0.001794
3912.000000	0.001805
3911.000000	0.001823
3910.000000	0.001843
3909.000000	0.001866
3908.000000	0.001892
3907.000000	0.001921
3906.000000	0.001949
3905.000000	0.001968
3904.000000	0.001963
3903.000000	0.001920
3902.000000	0.001852
3901.000000	0.001792
3900.000000	0.001770
3899.000000	0.001779
3898.000000	0.001798
3897.000000	0.001819
3896.000000	0.001843
3895.000000	0.001864
3894.000000	0.001861
3893.000000	0.001835
3892.000000	0.001814
3891.000000	0.001820
3890.000000	0.001828
3889.000000	0.001817
3888.000000	0.001807
3887.000000	0.001818
3886.000000	0.001846
3885.000000	0.001864
3884.000000	0.001849
3883.000000	0.001824
3882.000000	0.001836
3881.000000	0.001893
3880.000000	0.001955
3879.000000	0.001968
3878.000000	0.001928
3877.000000	0.001881
3876.000000	0.001868
3875.000000	0.001887
3874.000000	0.001904
3873.000000	0.001883
3872.000000	0.001832
3871.000000	0.001802
3870.000000	0.001818
3869.000000	0.001836
3868.000000	0.001809
3867.000000	0.001773
3866.000000	0.001784
3865.000000	0.001837
3864.000000	0.001888
3863.000000	0.001913
3862.000000	0.001914
3861.000000	0.001909
3860.000000	0.001909
3859.000000	0.001919
3858.000000	0.001936
3857.000000	0.001947
3856.000000	0.001923
3855.000000	0.001848
3854.000000	0.001763
3853.000000	0.001744
3852.000000	0.001754
3851.000000	0.001735
3850.000000	0.001735
3849.000000	0.001773
3848.000000	0.001821
3847.000000	0.001859
3846.000000	0.001890
3845.000000	0.001920
3844.000000	0.001939
3843.000000	0.001925
3842.000000	0.001863
3841.000000	0.001774
3840.000000	0.001705
3839.000000	0.001690
3838.000000	0.001717
3837.000000	0.001753
3836.000000	0.001772
3835.000000	0.001781
3834.000000	0.001793
3833.000000	0.001809
3832.000000	0.001821
3831.000000	0.001815
3830.000000	0.001792
3829.000000	0.001771
3828.000000	0.001780
3827.000000	0.001827
3826.000000	0.001876
3825.000000	0.001878
3824.000000	0.001823
3823.000000	0.001749
3822.000000	0.001716
3821.000000	0.001753
3820.000000	0.001794
3819.000000	0.001769
3818.000000	0.001727
3817.000000	0.001735
3816.000000	0.001792
3815.000000	0.001837
3814.000000	0.001829
3813.000000	0.001811
3812.000000	0.001825
3811.000000	0.001852
3810.000000	0.001855
3809.000000	0.001827
3808.000000	0.001801
3807.000000	0.001802
3806.000000	0.001799
3805.000000	0.001749
3804.000000	0.001680
3803.000000	0.001651
3802.000000	0.001697
3801.000000	0.001791
3800.000000	0.001847
3799.000000	0.001844
3798.000000	0.001843
3797.000000	0.001871
3796.000000	0.001900
3795.000000	0.001897
3794.000000	0.001869
3793.000000	0.001848
3792.000000	0.001849
3791.000000	0.001864
3790.000000	0.001884
3789.000000	0.001909
3788.000000	0.001936
3787.000000	0.001959
3786.000000	0.001976
3785.000000	0.001982
3784.000000	0.001965
3783.000000	0.001919
3782.000000	0.001859
3781.000000	0.001816
3780.000000	0.001814
3779.000000	0.001844
3778.000000	0.001874
3777.000000	0.001884
3776.000000	0.001886
3775.000000	0.001891
3774.000000	0.001889
3773.000000	0.001870
3772.000000	0.001846
3771.000000	0.001842
3770.000000	0.001858
3769.000000	0.001864
3768.000000	0.001841
3767.000000	0.001811
3766.000000	0.001807
3765.000000	0.001825
3764.000000	0.001833
3763.000000	0.001813
3762.000000	0.001788
3761.000000	0.001783
3760.000000	0.001799
3759.000000	0.001831
3758.000000	0.001868
3757.000000	0.001894
3756.000000	0.001895
3755.000000	0.001873
3754.000000	0.001837
3753.000000	0.001787
3752.000000	0.001727
3751.000000	0.001686
3750.000000	0.001686
3749.000000	0.001694
3748.000000	0.001684
3747.000000	0.001683
3746.000000	0.001718
3745.000000	0.001776
3744.000000	0.001812
3743.000000	0.001779
3742.000000	0.001716
3741.000000	0.001713
3740.000000	0.001766
3739.000000	0.001808
3738.000000	0.001801
3737.000000	0.001770
3736.000000	0.001761
3735.000000	0.001794
3734.000000	0.001835
3733.000000	0.001862
3732.000000	0.001878
3731.000000	0.001886
3730.000000	0.001891
3729.000000	0.001905
3728.000000	0.001933
3727.000000	0.001958
3726.000000	0.001959
3725.000000	0.001936
3724.000000	0.001918
3723.000000	0.001926
3722.000000	0.001950
3721.000000	0.001960
3720.000000	0.001944
3719.000000	0.001921
3718.000000	0.001912
3717.000000	0.001913
3716.000000	0.001901
3715.000000	0.001872
3714.000000	0.001832
3713.000000	0.001796
3712.000000	0.001781
3711.000000	0.001787
3710.000000	0.001788
3709.000000	0.001769
3708.000000	0.001749
3707.000000	0.001752
3706.000000	0.001780
3705.000000	0.001819
3704.000000	0.001856
3703.000000	0.001886
3702.000000	0.001911
3701.000000	0.001934
3700.000000	0.001942
3699.000000	0.001938
3698.000000	0.001937
3697.000000	0.001942
3696.000000	0.001939
3695.000000	0.001913
3694.000000	0.001868
3693.000000	0.001810
3692.000000	0.001747
3691.000000	0.001696
3690.000000	0.001690
3689.000000	0.001747
3688.000000	0.001824
3687.000000	0.001864
3686.000000	0.001877
3685.000000	0.001899
3684.000000	0.001937
3683.000000	0.001957
3682.000000	0.001934
3681.000000	0.001879
3680.000000	0.001812
3679.000000	0.001736
3678.000000	0.001656
3677.000000	0.001607
3676.000000	0.001646
3675.000000	0.001750
3674.000000	0.001788
3673.000000	0.001733
3672.000000	0.001681
3671.000000	0.001692
3670.000000	0.001763
3669.000000	0.001854
3668.000000	0.001916
3667.000000	0.001954
3666.000000	0.001992
3665.000000	0.002022
3664.000000	0.002028
3663.000000	0.002011
3662.000000	0.001988
3661.000000	0.001969
3660.000000	0.001954
3659.000000	0.001941
3658.000000	0.001937
3657.000000	0.001954
3656.000000	0.001981
3655.000000	0.001983
3654.000000	0.001946
3653.000000	0.001899
3652.000000	0.001863
3651.000000	0.001834
3650.000000	0.001822
3649.000000	0.001857
3648.000000	0.001925
3647.000000	0.001976
3646.000000	0.001993
3645.000000	0.002000
3644.000000	0.002024
3643.000000	0.002078
3642.000000	0.002147
3641.000000	0.002206
3640.000000	0.002240
3639.000000	0.002253
3638.000000	0.002253
3637.000000	0.002239
3636.000000	0.002221
3635.000000	0.002217
3634.000000	0.002234
3633.000000	0.002251
3632.000000	0.002245
3631.000000	0.002222
3630.000000	0.002218
3629.000000	0.002270
3628.000000	0.002341
3627.000000	0.002349
3626.000000	0.002316
3625.000000	0.002308
3624.000000	0.002334
3623.000000	0.002368
3622.000000	0.002394
3621.000000	0.002410
3620.000000	0.002423
3619.000000	0.002435
3618.000000	0.002436
3617.000000	0.002416
3616.000000	0.002386
3615.000000	0.002363
3614.000000	0.002354
3613.000000	0.002357
3612.000000	0.002372
3611.000000	0.002399
3610.000000	0.002440
3609.000000	0.002488
3608.000000	0.002533
3607.000000	0.002564
3606.000000	0.002579
3605.000000	0.002589
3604.000000	0.002599
3603.000000	0.002613
3602.000000	0.002637
3601.000000	0.002680
3600.000000	0.002744
3599.000000	0.002815
3598.000000	0.002875
3597.000000	0.002910
3596.000000	0.002924
3595.000000	0.002933
3594.000000	0.002950
3593.000000	0.002971
3592.000000	0.002988
3591.000000	0.002993
3590.000000	0.002980
3589.000000	0.002953
3588.000000	0.002929
3587.000000	0.002926
3586.000000	0.002929
3585.000000	0.002932
3584.000000	0.002950
3583.000000	0.002997
3582.000000	0.003057
3581.000000	0.003103
3580.000000	0.003119
3579.000000	0.003108
3578.000000	0.003090
3577.000000	0.003084
3576.000000	0.003103
3575.000000	0.003153
3574.000000	0.003223
3573.000000	0.003296
3572.000000	0.003352
3571.000000	0.003384
3570.000000	0.003398
3569.000000	0.003409
3568.000000	0.003434
3567.000000	0.003486
3566.000000	0.003547
3565.000000	0.003584
3564.000000	0.003594
3563.000000	0.003594
3562.000000	0.003593
3561.000000	0.003592
3560.000000	0.003587
3559.000000	0.003582
3558.000000	0.003589
3557.000000	0.003616
3556.000000	0.003658
3555.000000	0.003700
3554.000000	0.003730
3553.000000	0.003748
3552.000000	0.003761
3551.000000	0.003777
3550.000000	0.003804
3549.000000	0.003846
3548.000000	0.003899
3547.000000	0.003949
3546.000000	0.003987
3545.000000	0.004009
3544.000000	0.004019
3543.000000	0.004028
3542.000000	0.004044
3541.000000	0.004065
3540.000000	0.004083
3539.000000	0.004093
3538.000000	0.004099
3537.000000	0.004111
3536.000000	0.004138
3535.000000	0.004175
3534.000000	0.004213
3533.000000	0.004243
3532.000000	0.004262
3531.000000	0.004275
3530.000000	0.004292
3529.000000	0.004320
3528.000000	0.004355
3527.000000	0.004392
3526.000000	0.004423
3525.000000	0.004450
3524.000000	0.004468
3523.000000	0.004472
3522.000000	0.004464
3521.000000	0.004458
3520.000000	0.004468
3519.000000	0.004497
3518.000000	0.004532
3517.000000	0.004557
3516.000000	0.004570
3515.000000	0.004579
3514.000000	0.004594
3513.000000	0.004621
3512.000000	0.004661
3511.000000	0.004710
3510.000000	0.004754
3509.000000	0.004782
3508.000000	0.004788
3507.000000	0.004783
3506.000000	0.004783
3505.000000	0.004799
3504.000000	0.004830
3503.000000	0.004864
3502.000000	0.004890
3501.000000	0.004902
3500.000000	0.004901
3499.000000	0.004900
3498.000000	0.004914
3497.000000	0.004948
3496.000000	0.005001
3495.000000	0.005055
3494.000000	0.005095
3493.000000	0.005108
3492.000000	0.005096
3491.000000	0.005071
3490.000000	0.005050
3489.000000	0.005044
3488.000000	0.005057
3487.000000	0.005087
3486.000000	0.005125
3485.000000	0.005164
3484.000000	0.005198
3483.000000	0.005228
3482.000000	0.005261
3481.000000	0.005299
3480.000000	0.005333
3479.000000	0.005355
3478.000000	0.005368
3477.000000	0.005385
3476.000000	0.005417
3475.000000	0.005464
3474.000000	0.005514
3473.000000	0.005555
3472.000000	0.005576
3471.000000	0.005578
3470.000000	0.005570
3469.000000	0.005570
3468.000000	0.005589
3467.000000	0.005623
3466.000000	0.005660
3465.000000	0.005685
3464.000000	0.005694
3463.000000	0.005694
3462.000000	0.005696
3461.000000	0.005711
3460.000000	0.005741
3459.000000	0.005783
3458.000000	0.005826
3457.000000	0.005858
3456.000000	0.005869
3455.000000	0.005860
3454.000000	0.005847
3453.000000	0.005845
3452.000000	0.005863
3451.000000	0.005896
3450.000000	0.005933
3449.000000	0.005967
3448.000000	0.005995
3447.000000	0.006018
3446.000000	0.006039
3445.000000	0.006058
3444.000000	0.006079
3443.000000	0.006096
3442.000000	0.006106
3441.000000	0.006111
3440.000000	0.006122
3439.000000	0.006148
3438.000000	0.006190
3437.000000	0.006236
3436.000000	0.006275
3435.000000	0.006296
3434.000000	0.006300
3433.000000	0.006294
3432.000000	0.006290
3431.000000	0.006297
3430.000000	0.006313
3429.000000	0.006337
3428.000000	0.006369
3427.000000	0.006408
3426.000000	0.006449
3425.000000	0.006481
3424.000000	0.006498
3423.000000	0.006503
3422.000000	0.006506
3421.000000	0.006512
3420.000000	0.006520
3419.000000	0.006531
3418.000000	0.006548
3417.000000	0.006577
3416.000000	0.006617
3415.000000	0.006662
3414.000000	0.006702
3413.000000	0.006727
3412.000000	0.006737
3411.000000	0.006741
3410.000000	0.006749
3409.000000	0.006768
3408.000000	0.006796
3407.000000	0.006826
3406.000000	0.006856
3405.000000	0.006884
3404.000000	0.006911
3403.000000	0.006935
3402.000000	0.006954
3401.000000	0.006965
3400.000000	0.006965
3399.000000	0.006957
3398.000000	0.006946
3397.000000	0.006936
3396.000000	0.006929
3395.000000	0.006926
3394.000000	0.006934
3393.000000	0.006955
3392.000000	0.006983
3391.000000	0.007009
3390.000000	0.007029
3389.000000	0.007046
3388.000000	0.007064
3387.000000	0.007086
3386.000000	0.007114
3385.000000	0.007148
3384.000000	0.007179
3383.000000	0.007199
3382.000000	0.007206
3381.000000	0.007202
3380.000000	0.007188
3379.000000	0.007162
3378.000000	0.007129
3377.000000	0.007098
3376.000000	0.007085
3375.000000	0.007094
3374.000000	0.007124
3373.000000	0.007167
3372.000000	0.007217
3371.000000	0.007268
3370.000000	0.007314
3369.000000	0.007352
3368.000000	0.007383
3367.000000	0.007410
3366.000000	0.007432
3365.000000	0.007447
3364.000000	0.007454
3363.000000	0.007457
3362.000000	0.007460
3361.000000	0.007463
3360.000000	0.007460
3359.000000	0.007449
3358.000000	0.007435
3357.000000	0.007434
3356.000000	0.007453
3355.000000	0.007487
3354.000000	0.007521
3353.000000	0.007546
3352.000000	0.007561
3351.000000	0.007576
3350.000000	0.007598
3349.000000	0.007630
3348.000000	0.007665
3347.000000	0.007692
3346.000000	0.007701
3345.000000	0.007691
3344.000000	0.007675
3343.000000	0.007670
3342.000000	0.007686
3341.000000	0.007714
3340.000000	0.007738
3339.000000	0.007748
3338.000000	0.007747
3337.000000	0.007749
3336.000000	0.007760
3335.000000	0.007777
3334.000000	0.007789
3333.000000	0.007789
3332.000000	0.007777
3331.000000	0.007760
3330.000000	0.007748
3329.000000	0.007752
3328.000000	0.007780
3327.000000	0.007827
3326.000000	0.007881
3325.000000	0.007924
3324.000000	0.007947
3323.000000	0.007948
3322.000000	0.007935
3321.000000	0.007917
3320.000000	0.007902
3319.000000	0.007896
3318.000000	0.007898
3317.000000	0.007901
3316.000000	0.007903
3315.000000	0.007908
3314.000000	0.007923
3313.000000	0.007943
3312.000000	0.007960
3311.000000	0.007965
3310.000000	0.007961
3309.000000	0.007954
3308.000000	0.007946
3307.000000	0.007945
3306.000000	0.007954
3305.000000	0.007974
3304.000000	0.007996
3303.000000	0.008008
3302.000000	0.008006
3301.000000	0.007996
3300.000000	0.007986
3299.000000	0.007984
3298.000000	0.007992
3297.000000	0.008009
3296.000000	0.008029
3295.000000	0.008046
3294.000000	0.008052
3293.000000	0.008046
3292.000000	0.008028
3291.000000	0.008003
3290.000000	0.007980
3289.000000	0.007969
3288.000000	0.007976
3287.000000	0.007996
3286.000000	0.008021
3285.000000	0.008040
3284.000000	0.008041
3283.000000	0.008021
3282.000000	0.007988
3281.000000	0.007961
3280.000000	0.007953
3279.000000	0.007960
3278.000000	0.007965
3277.000000	0.007953
3276.000000	0.007930
3275.000000	0.007908
3274.000000	0.007896
3273.000000	0.007891
3272.000000	0.007885
3271.000000	0.007873
3270.000000	0.007854
3269.000000	0.007835
3268.000000	0.007822
3267.000000	0.007823
3266.000000	0.007836
3265.000000	0.007849
3264.000000	0.007854
3263.000000	0.007850
3262.000000	0.007844
3261.000000	0.007840
3260.000000	0.007838
3259.000000	0.007832
3258.000000	0.007819
3257.000000	0.007797
3256.000000	0.007774
3255.000000	0.007755
3254.000000	0.007742
3253.000000	0.007729
3252.000000	0.007713
3251.000000	0.007701
3250.000000	0.007699
3249.000000	0.007706
3248.000000	0.007711
3247.000000	0.007702
3246.000000	0.007679
3245.000000	0.007654
3244.000000	0.007645
3243.000000	0.007659
3242.000000	0.007687
3241.000000	0.007706
3240.000000	0.007697
3239.000000	0.007660
3238.000000	0.007611
3237.000000	0.007568
3236.000000	0.007545
3235.000000	0.007544
3234.000000	0.007555
3233.000000	0.007561
3232.000000	0.007550
3231.000000	0.007519
3230.000000	0.007482
3229.000000	0.007454
3228.000000	0.007440
3227.000000	0.007434
3226.000000	0.007424
3225.000000	0.007408
3224.000000	0.007389
3223.000000	0.007376
3222.000000	0.007369
3221.000000	0.007359
3220.000000	0.007342
3219.000000	0.007323
3218.000000	0.007311
3217.000000	0.007310
3216.000000	0.007310
3215.000000	0.007303
3214.000000	0.007287
3213.000000	0.007268
3212.000000	0.007250
3211.000000	0.007235
3210.000000	0.007217
3209.000000	0.007196
3208.000000	0.007174
3207.000000	0.007155
3206.000000	0.007138
3205.000000	0.007117
3204.000000	0.007091
3203.000000	0.007063
3202.000000	0.007038
3201.000000	0.007020
3200.000000	0.007007
3199.000000	0.006999
3198.000000	0.006996
3197.000000	0.006997
3196.000000	0.007001
3195.000000	0.007002
3194.000000	0.006993
3193.000000	0.006972
3192.000000	0.006945
3191.000000	0.006920
3190.000000	0.006902
3189.000000	0.006886
3188.000000	0.006865
3187.000000	0.006836
3186.000000	0.006805
3185.000000	0.006781
3184.000000	0.006770
3183.000000	0.006769
3182.000000	0.006768
3181.000000	0.006759
3180.000000	0.006745
3179.000000	0.006732
3178.000000	0.006722
3177.000000	0.006709
3176.000000	0.006692
3175.000000	0.006674
3174.000000	0.006660
3173.000000	0.006646
3172.000000	0.006626
3171.000000	0.006602
3170.000000	0.006575
3169.000000	0.006551
3168.000000	0.006534
3167.000000	0.006528
3166.000000	0.006531
3165.000000	0.006528
3164.000000	0.006506
3163.000000	0.006469
3162.000000	0.006433
3161.000000	0.006409
3160.000000	0.006394
3159.000000	0.006381
3158.000000	0.006370
3157.000000	0.006368
3156.000000	0.006373
3155.000000	0.006376
3154.000000	0.006365
3153.000000	0.006338
3152.000000	0.006299
3151.000000	0.006254
3150.000000	0.006208
3149.000000	0.006166
3148.000000	0.006134
3147.000000	0.006113
3146.000000	0.006102
3145.000000	0.006098
3144.000000	0.006102
3143.000000	0.006109
3142.000000	0.006115
3141.000000	0.006109
3140.000000	0.006093
3139.000000	0.006073
3138.000000	0.006052
3137.000000	0.006029
3136.000000	0.006004
3135.000000	0.005982
3134.000000	0.005966
3133.000000	0.005955
3132.000000	0.005943
3131.000000	0.005926
3130.000000	0.005906
3129.000000	0.005886
3128.000000	0.005873
3127.000000	0.005869
3126.000000	0.005872
3125.000000	0.005871
3124.000000	0.005858
3123.000000	0.005836
3122.000000	0.005813
3121.000000	0.005799
3120.000000	0.005789
3119.000000	0.005775
3118.000000	0.005753
3117.000000	0.005724
3116.000000	0.005699
3115.000000	0.005683
3114.000000	0.005675
3113.000000	0.005668
3112.000000	0.005661
3111.000000	0.005663
3110.000000	0.005680
3109.000000	0.005702
3108.000000	0.005715
3107.000000	0.005712
3106.000000	0.005697
3105.000000	0.005676
3104.000000	0.005649
3103.000000	0.005613
3102.000000	0.005572
3101.000000	0.005535
3100.000000	0.005512
3099.000000	0.005508
3098.000000	0.005515
3097.000000	0.005524
3096.000000	0.005527
3095.000000	0.005524
3094.000000	0.005517
3093.000000	0.005507
3092.000000	0.005494
3091.000000	0.005481
3090.000000	0.005476
3089.000000	0.005485
3088.000000	0.005504
3087.000000	0.005522
3086.000000	0.005527
3085.000000	0.005517
3084.000000	0.005495
3083.000000	0.005471
3082.000000	0.005447
3081.000000	0.005423
3080.000000	0.005398
3079.000000	0.005379
3078.000000	0.005370
3077.000000	0.005368
3076.000000	0.005366
3075.000000	0.005362
3074.000000	0.005361
3073.000000	0.005365
3072.000000	0.005372
3071.000000	0.005373
3070.000000	0.005365
3069.000000	0.005349
3068.000000	0.005332
3067.000000	0.005317
3066.000000	0.005303
3065.000000	0.005286
3064.000000	0.005270
3063.000000	0.005262
3062.000000	0.005266
3061.000000	0.005268
3060.000000	0.005251
3059.000000	0.005213
3058.000000	0.005171
3057.000000	0.005144
3056.000000	0.005133
3055.000000	0.005126
3054.000000	0.005113
3053.000000	0.005093
3052.000000	0.005075
3051.000000	0.005070
3050.000000	0.005081
3049.000000	0.005096
3048.000000	0.005100
3047.000000	0.005083
3046.000000	0.005054
3045.000000	0.005025
3044.000000	0.005004
3043.000000	0.004994
3042.000000	0.004990
3041.000000	0.004985
3040.000000	0.004976
3039.000000	0.004965
3038.000000	0.004959
3037.000000	0.004960
3036.000000	0.004962
3035.000000	0.004958
3034.000000	0.004951
3033.000000	0.004944
3032.000000	0.004935
3031.000000	0.004913
3030.000000	0.004877
3029.000000	0.004836
3028.000000	0.004804
3027.000000	0.004785
3026.000000	0.004772
3025.000000	0.004761
3024.000000	0.004753
3023.000000	0.004754
3022.000000	0.004764
3021.000000	0.004777
3020.000000	0.004784
3019.000000	0.004782
3018.000000	0.004770
3017.000000	0.004751
3016.000000	0.004725
3015.000000	0.004693
3014.000000	0.004661
3013.000000	0.004634
3012.000000	0.004614
3011.000000	0.004607
3010.000000	0.004618
3009.000000	0.004646
3008.000000	0.004680
3007.000000	0.004708
3006.000000	0.004723
3005.000000	0.004724
3004.000000	0.004712
3003.000000	0.004689
3002.000000	0.004664
3001.000000	0.004646
3000.000000	0.004639
2999.000000	0.004636
2998.000000	0.004634
2997.000000	0.004635
2996.000000	0.004643
2995.000000	0.004657
2994.000000	0.004676
2993.000000	0.004697
2992.000000	0.004719
2991.000000	0.004733
2990.000000	0.004736
2989.000000	0.004729
2988.000000	0.004722
2987.000000	0.004721
2986.000000	0.004729
2985.000000	0.004743
2984.000000	0.004762
2983.000000	0.004784
2982.000000	0.004808
2981.000000	0.004830
2980.000000	0.004853
2979.000000	0.004877
2978.000000	0.004903
2977.000000	0.004928
2976.000000	0.004947
2975.000000	0.004963
2974.000000	0.004982
2973.000000	0.005008
2972.000000	0.005041
2971.000000	0.005083
2970.000000	0.005135
2969.000000	0.005193
2968.000000	0.005252
2967.000000	0.005306
2966.000000	0.005356
2965.000000	0.005402
2964.000000	0.005439
2963.000000	0.005459
2962.000000	0.005463
2961.000000	0.005464
2960.000000	0.005477
2959.000000	0.005506
2958.000000	0.005545
2957.000000	0.005584
2956.000000	0.005619
2955.000000	0.005648
2954.000000	0.005673
2953.000000	0.005692
2952.000000	0.005707
2951.000000	0.005721
2950.000000	0.005740
2949.000000	0.005767
2948.000000	0.005800
2947.000000	0.005831
2946.000000	0.005853
2945.000000	0.005861
2944.000000	0.005859
2943.000000	0.005856
2942.000000	0.005862
2941.000000	0.005884
2940.000000	0.005919
2939.000000	0.005961
2938.000000	0.006002
2937.000000	0.006038
2936.000000	0.006071
2935.000000	0.006107
2934.000000	0.006148
2933.000000	0.006193
2932.000000	0.006238
2931.000000	0.006284
2930.000000	0.006329
2929.000000	0.006373
2928.000000	0.006409
2927.000000	0.006434
2926.000000	0.006451
2925.000000	0.006469
2924.000000	0.006499
2923.000000	0.006541
2922.000000	0.006588
2921.000000	0.006629
2920.000000	0.006654
2919.000000	0.006661
2918.000000	0.006652
2917.000000	0.006628
2916.000000	0.006595
2915.000000	0.006555
2914.000000	0.006504
2913.000000	0.006438
2912.000000	0.006359
2911.000000	0.006281
2910.000000	0.006224
2909.000000	0.006198
2908.000000	0.006187
2907.000000	0.006170
2906.000000	0.006132
2905.000000	0.006082
2904.000000	0.006039
2903.000000	0.006015
2902.000000	0.006007
2901.000000	0.006000
2900.000000	0.005982
2899.000000	0.005952
2898.000000	0.005921
2897.000000	0.005899
2896.000000	0.005886
2895.000000	0.005877
2894.000000	0.005865
2893.000000	0.005845
2892.000000	0.005814
2891.000000	0.005775
2890.000000	0.005733
2889.000000	0.005693
2888.000000	0.005661
2887.000000	0.005643
2886.000000	0.005642
2885.000000	0.005652
2884.000000	0.005657
2883.000000	0.005646
2882.000000	0.005622
2881.000000	0.005600
2880.000000	0.005591
2879.000000	0.005595
2878.000000	0.005604
2877.000000	0.005612
2876.000000	0.005618
2875.000000	0.005624
2874.000000	0.005634
2873.000000	0.005643
2872.000000	0.005642
2871.000000	0.005627
2870.000000	0.005599
2869.000000	0.005566
2868.000000	0.005531
2867.000000	0.005496
2866.000000	0.005469
2865.000000	0.005458
2864.000000	0.005464
2863.000000	0.005473
2862.000000	0.005479
2861.000000	0.005484
2860.000000	0.005496
2859.000000	0.005511
2858.000000	0.005523
2857.000000	0.005522
2856.000000	0.005509
2855.000000	0.005489
2854.000000	0.005469
2853.000000	0.005463
2852.000000	0.005474
2851.000000	0.005494
2850.000000	0.005498
2849.000000	0.005472
2848.000000	0.005416
2847.000000	0.005351
2846.000000	0.005295
2845.000000	0.005256
2844.000000	0.005231
2843.000000	0.005208
2842.000000	0.005179
2841.000000	0.005138
2840.000000	0.005088
2839.000000	0.005043
2838.000000	0.005014
2837.000000	0.005001
2836.000000	0.004988
2835.000000	0.004958
2834.000000	0.004910
2833.000000	0.004863
2832.000000	0.004837
2831.000000	0.004833
2830.000000	0.004838
2829.000000	0.004841
2828.000000	0.004835
2827.000000	0.004821
2826.000000	0.004796
2825.000000	0.004765
2824.000000	0.004732
2823.000000	0.004704
2822.000000	0.004683
2821.000000	0.004666
2820.000000	0.004651
2819.000000	0.004638
2818.000000	0.004631
2817.000000	0.004632
2816.000000	0.004633
2815.000000	0.004626
2814.000000	0.004611
2813.000000	0.004601
2812.000000	0.004603
2811.000000	0.004612
2810.000000	0.004612
2809.000000	0.004594
2808.000000	0.004564
2807.000000	0.004536
2806.000000	0.004521
2805.000000	0.004520
2804.000000	0.004528
2803.000000	0.004534
2802.000000	0.004530
2801.000000	0.004521
2800.000000	0.004518
2799.000000	0.004527
2798.000000	0.004543
2797.000000	0.004552
2796.000000	0.004547
2795.000000	0.004528
2794.000000	0.004504
2793.000000	0.004486
2792.000000	0.004482
2791.000000	0.004490
2790.000000	0.004501
2789.000000	0.004501
2788.000000	0.004490
2787.000000	0.004477
2786.000000	0.004471
2785.000000	0.004474
2784.000000	0.004475
2783.000000	0.004466
2782.000000	0.004442
2781.000000	0.004407
2780.000000	0.004372
2779.000000	0.004347
2778.000000	0.004338
2777.000000	0.004341
2776.000000	0.004348
2775.000000	0.004351
2774.000000	0.004346
2773.000000	0.004338
2772.000000	0.004331
2771.000000	0.004329
2770.000000	0.004332
2769.000000	0.004340
2768.000000	0.004353
2767.000000	0.004368
2766.000000	0.004381
2765.000000	0.004385
2764.000000	0.004375
2763.000000	0.004357
2762.000000	0.004341
2761.000000	0.004342
2760.000000	0.004366
2759.000000	0.004404
2758.000000	0.004435
2757.000000	0.004441
2756.000000	0.004420
2755.000000	0.004384
2754.000000	0.004350
2753.000000	0.004328
2752.000000	0.004319
2751.000000	0.004322
2750.000000	0.004337
2749.000000	0.004356
2748.000000	0.004372
2747.000000	0.004377
2746.000000	0.004371
2745.000000	0.004363
2744.000000	0.004360
2743.000000	0.004365
2742.000000	0.004373
2741.000000	0.004374
2740.000000	0.004364
2739.000000	0.004341
2738.000000	0.004311
2737.000000	0.004283
2736.000000	0.004268
2735.000000	0.004273
2734.000000	0.004296
2733.000000	0.004325
2732.000000	0.004349
2731.000000	0.004361
2730.000000	0.004361
2729.000000	0.004349
2728.000000	0.004326
2727.000000	0.004300
2726.000000	0.004284
2725.000000	0.004282
2724.000000	0.004291
2723.000000	0.004300
2722.000000	0.004302
2721.000000	0.004295
2720.000000	0.004281
2719.000000	0.004259
2718.000000	0.004233
2717.000000	0.004209
2716.000000	0.004195
2715.000000	0.004197
2714.000000	0.004209
2713.000000	0.004220
2712.000000	0.004224
2711.000000	0.004221
2710.000000	0.004219
2709.000000	0.004221
2708.000000	0.004225
2707.000000	0.004229
2706.000000	0.004232
2705.000000	0.004233
2704.000000	0.004231
2703.000000	0.004223
2702.000000	0.004212
2701.000000	0.004198
2700.000000	0.004184
2699.000000	0.004170
2698.000000	0.004160
2697.000000	0.004160
2696.000000	0.004168
2695.000000	0.004180
2694.000000	0.004185
2693.000000	0.004180
2692.000000	0.004170
2691.000000	0.004163
2690.000000	0.004165
2689.000000	0.004173
2688.000000	0.004177
2687.000000	0.004171
2686.000000	0.004157
2685.000000	0.004145
2684.000000	0.004140
2683.000000	0.004143
2682.000000	0.004149
2681.000000	0.004156
2680.000000	0.004162
2679.000000	0.004168
2678.000000	0.004170
2677.000000	0.004165
2676.000000	0.004154
2675.000000	0.004136
2674.000000	0.004116
2673.000000	0.004096
2672.000000	0.004082
2671.000000	0.004078
2670.000000	0.004085
2669.000000	0.004098
2668.000000	0.004108
2667.000000	0.004108
2666.000000	0.004105
2665.000000	0.004103
2664.000000	0.004109
2663.000000	0.004120
2662.000000	0.004138
2661.000000	0.004161
2660.000000	0.004183
2659.000000	0.004192
2658.000000	0.004179
2657.000000	0.004149
2656.000000	0.004116
2655.000000	0.004092
2654.000000	0.004078
2653.000000	0.004068
2652.000000	0.004058
2651.000000	0.004050
2650.000000	0.004047
2649.000000	0.004043
2648.000000	0.004031
2647.000000	0.004007
2646.000000	0.003983
2645.000000	0.003975
2644.000000	0.003986
2643.000000	0.004002
2642.000000	0.004007
2641.000000	0.003999
2640.000000	0.003985
2639.000000	0.003978
2638.000000	0.003984
2637.000000	0.003996
2636.000000	0.004000
2635.000000	0.003987
2634.000000	0.003962
2633.000000	0.003935
2632.000000	0.003913
2631.000000	0.003896
2630.000000	0.003879
2629.000000	0.003859
2628.000000	0.003836
2627.000000	0.003814
2626.000000	0.003795
2625.000000	0.003781
2624.000000	0.003768
2623.000000	0.003749
2622.000000	0.003724
2621.000000	0.003696
2620.000000	0.003671
2619.000000	0.003649
2618.000000	0.003634
2617.000000	0.003632
2616.000000	0.003646
2615.000000	0.003668
2614.000000	0.003678
2613.000000	0.003663
2612.000000	0.003623
2611.000000	0.003578
2610.000000	0.003547
2609.000000	0.003538
2608.000000	0.003541
2607.000000	0.003543
2606.000000	0.003539
2605.000000	0.003537
2604.000000	0.003548
2603.000000	0.003573
2602.000000	0.003604
2601.000000	0.003628
2600.000000	0.003633
2599.000000	0.003613
2598.000000	0.003577
2597.000000	0.003545
2596.000000	0.003527
2595.000000	0.003517
2594.000000	0.003504
2593.000000	0.003491
2592.000000	0.003492
2591.000000	0.003515
2590.000000	0.003550
2589.000000	0.003578
2588.000000	0.003588
2587.000000	0.003579
2586.000000	0.003559
2585.000000	0.003540
2584.000000	0.003526
2583.000000	0.003509
2582.000000	0.003480
2581.000000	0.003445
2580.000000	0.003418
2579.000000	0.003406
2578.000000	0.003399
2577.000000	0.003390
2576.000000	0.003377
2575.000000	0.003366
2574.000000	0.003361
2573.000000	0.003358
2572.000000	0.003358
2571.000000	0.003361
2570.000000	0.003362
2569.000000	0.003362
2568.000000	0.003365
2567.000000	0.003377
2566.000000	0.003392
2565.000000	0.003403
2564.000000	0.003406
2563.000000	0.003406
2562.000000	0.003409
2561.000000	0.003415
2560.000000	0.003420
2559.000000	0.003418
2558.000000	0.003395
2557.000000	0.003349
2556.000000	0.003298
2555.000000	0.003267
2554.000000	0.003271
2553.000000	0.003294
2552.000000	0.003311
2551.000000	0.003312
2550.000000	0.003305
2549.000000	0.003300
2548.000000	0.003299
2547.000000	0.003295
2546.000000	0.003289
2545.000000	0.003286
2544.000000	0.003288
2543.000000	0.003291
2542.000000	0.003298
2541.000000	0.003320
2540.000000	0.003364
2539.000000	0.003413
2538.000000	0.003431
2537.000000	0.003400
2536.000000	0.003339
2535.000000	0.003289
2534.000000	0.003269
2533.000000	0.003269
2532.000000	0.003271
2531.000000	0.003276
2530.000000	0.003292
2529.000000	0.003317
2528.000000	0.003336
2527.000000	0.003341
2526.000000	0.003337
2525.000000	0.003332
2524.000000	0.003330
2523.000000	0.003326
2522.000000	0.003314
2521.000000	0.003293
2520.000000	0.003264
2519.000000	0.003236
2518.000000	0.003221
2517.000000	0.003228
2516.000000	0.003253
2515.000000	0.003282
2514.000000	0.003300
2513.000000	0.003306
2512.000000	0.003313
2511.000000	0.003325
2510.000000	0.003336
2509.000000	0.003340
2508.000000	0.003337
2507.000000	0.003337
2506.000000	0.003336
2505.000000	0.003326
2504.000000	0.003303
2503.000000	0.003279
2502.000000	0.003275
2501.000000	0.003296
2500.000000	0.003328
2499.000000	0.003351
2498.000000	0.003344
2497.000000	0.003306
2496.000000	0.003260
2495.000000	0.003241
2494.000000	0.003260
2493.000000	0.003294
2492.000000	0.003307
2491.000000	0.003285
2490.000000	0.003245
2489.000000	0.003211
2488.000000	0.003196
2487.000000	0.003206
2486.000000	0.003236
2485.000000	0.003272
2484.000000	0.003290
2483.000000	0.003280
2482.000000	0.003251
2481.000000	0.003217
2480.000000	0.003190
2479.000000	0.003173
2478.000000	0.003171
2477.000000	0.003182
2476.000000	0.003193
2475.000000	0.003193
2474.000000	0.003188
2473.000000	0.003194
2472.000000	0.003220
2471.000000	0.003262
2470.000000	0.003308
2469.000000	0.003341
2468.000000	0.003342
2467.000000	0.003307
2466.000000	0.003253
2465.000000	0.003205
2464.000000	0.003176
2463.000000	0.003167
2462.000000	0.003173
2461.000000	0.003186
2460.000000	0.003191
2459.000000	0.003175
2458.000000	0.003140
2457.000000	0.003112
2456.000000	0.003118
2455.000000	0.003161
2454.000000	0.003220
2453.000000	0.003265
2452.000000	0.003274
2451.000000	0.003245
2450.000000	0.003193
2449.000000	0.003145
2448.000000	0.003125
2447.000000	0.003141
2446.000000	0.003184
2445.000000	0.003234
2444.000000	0.003269
2443.000000	0.003278
2442.000000	0.003267
2441.000000	0.003249
2440.000000	0.003234
2439.000000	0.003224
2438.000000	0.003215
2437.000000	0.003204
2436.000000	0.003182
2435.000000	0.003145
2434.000000	0.003101
2433.000000	0.003073
2432.000000	0.003078
2431.000000	0.003106
2430.000000	0.003132
2429.000000	0.003134
2428.000000	0.003111
2427.000000	0.003081
2426.000000	0.003062
2425.000000	0.003064
2424.000000	0.003088
2423.000000	0.003123
2422.000000	0.003155
2421.000000	0.003171
2420.000000	0.003169
2419.000000	0.003151
2418.000000	0.003123
2417.000000	0.003090
2416.000000	0.003061
2415.000000	0.003052
2414.000000	0.003069
2413.000000	0.003105
2412.000000	0.003139
2411.000000	0.003151
2410.000000	0.003135
2409.000000	0.003105
2408.000000	0.003082
2407.000000	0.003076
2406.000000	0.003090
2405.000000	0.003113
2404.000000	0.003131
2403.000000	0.003124
2402.000000	0.003089
2401.000000	0.003045
2400.000000	0.003018
2399.000000	0.003019
2398.000000	0.003030
2397.000000	0.003030
2396.000000	0.003018
2395.000000	0.003010
2394.000000	0.003019
2393.000000	0.003038
2392.000000	0.003051
2391.000000	0.003054
2390.000000	0.003054
2389.000000	0.003061
2388.000000	0.003081
2387.000000	0.003105
2386.000000	0.003122
2385.000000	0.003123
2384.000000	0.003115
2383.000000	0.003111
2382.000000	0.003118
2381.000000	0.003130
2380.000000	0.003137
2379.000000	0.003138
2378.000000	0.003137
2377.000000	0.003140
2376.000000	0.003138
2375.000000	0.003128
2374.000000	0.003114
2373.000000	0.003103
2372.000000	0.003104
2371.000000	0.003127
2370.000000	0.003175
2369.000000	0.003239
2368.000000	0.003286
2367.000000	0.003289
2366.000000	0.003254
2365.000000	0.003214
2364.000000	0.003195
2363.000000	0.003197
2362.000000	0.003216
2361.000000	0.003248
2360.000000	0.003286
2359.000000	0.003313
2358.000000	0.003315
2357.000000	0.003308
2356.000000	0.003305
2355.000000	0.003300
2354.000000	0.003300
2353.000000	0.003328
2352.000000	0.003381
2351.000000	0.003414
2350.000000	0.003402
2349.000000	0.003360
2348.000000	0.003328
2347.000000	0.003347
2346.000000	0.003419
2345.000000	0.003490
2344.000000	0.003498
2343.000000	0.003459
2342.000000	0.003433
2341.000000	0.003434
2340.000000	0.003433
2339.000000	0.003401
2338.000000	0.003352
2337.000000	0.003324
2336.000000	0.003345
2335.000000	0.003398
2334.000000	0.003443
2333.000000	0.003448
2332.000000	0.003417
2331.000000	0.003366
2330.000000	0.003323
2329.000000	0.003307
2328.000000	0.003326
2327.000000	0.003386
2326.000000	0.003475
2325.000000	0.003575
2324.000000	0.003647
2323.000000	0.003672
2322.000000	0.003658
2321.000000	0.003621
2320.000000	0.003578
2319.000000	0.003529
2318.000000	0.003476
2317.000000	0.003419
2316.000000	0.003363
2315.000000	0.003325
2314.000000	0.003316
2313.000000	0.003327
2312.000000	0.003338
2311.000000	0.003342
2310.000000	0.003348
2309.000000	0.003358
2308.000000	0.003346
2307.000000	0.003299
2306.000000	0.003236
2305.000000	0.003199
2304.000000	0.003202
2303.000000	0.003226
2302.000000	0.003246
2301.000000	0.003251
2300.000000	0.003242
2299.000000	0.003225
2298.000000	0.003219
2297.000000	0.003240
2296.000000	0.003280
2295.000000	0.003314
2294.000000	0.003327
2293.000000	0.003333
2292.000000	0.003350
2291.000000	0.003370
2290.000000	0.003369
2289.000000	0.003338
2288.000000	0.003288
2287.000000	0.003241
2286.000000	0.003211
2285.000000	0.003204
2284.000000	0.003217
2283.000000	0.003238
2282.000000	0.003254
2281.000000	0.003264
2280.000000	0.003276
2279.000000	0.003289
2278.000000	0.003287
2277.000000	0.003250
2276.000000	0.003192
2275.000000	0.003152
2274.000000	0.003169
2273.000000	0.003242
2272.000000	0.003336
2271.000000	0.003407
2270.000000	0.003435
2269.000000	0.003425
2268.000000	0.003385
2267.000000	0.003330
2266.000000	0.003287
2265.000000	0.003282
2264.000000	0.003314
2263.000000	0.003351
2262.000000	0.003360
2261.000000	0.003323
2260.000000	0.003242
2259.000000	0.003132
2258.000000	0.003026
2257.000000	0.002967
2256.000000	0.002970
2255.000000	0.003009
2254.000000	0.003036
2253.000000	0.003021
2252.000000	0.002970
2251.000000	0.002915
2250.000000	0.002889
2249.000000	0.002905
2248.000000	0.002944
2247.000000	0.002965
2246.000000	0.002944
2245.000000	0.002909
2244.000000	0.002912
2243.000000	0.002987
2242.000000	0.003100
2241.000000	0.003183
2240.000000	0.003186
2239.000000	0.003108
2238.000000	0.002989
2237.000000	0.002876
2236.000000	0.002825
2235.000000	0.002886
2234.000000	0.003061
2233.000000	0.003272
2232.000000	0.003392
2231.000000	0.003356
2230.000000	0.003212
2229.000000	0.003060
2228.000000	0.002949
2227.000000	0.002869
2226.000000	0.002809
2225.000000	0.002792
2224.000000	0.002827
2223.000000	0.002888
2222.000000	0.002942
2221.000000	0.002980
2220.000000	0.002999
2219.000000	0.002983
2218.000000	0.002929
2217.000000	0.002868
2216.000000	0.002834
2215.000000	0.002824
2214.000000	0.002811
2213.000000	0.002795
2212.000000	0.002795
2211.000000	0.002811
2210.000000	0.002820
2209.000000	0.002816
2208.000000	0.002813
2207.000000	0.002812
2206.000000	0.002777
2205.000000	0.002698
2204.000000	0.002639
2203.000000	0.002688
2202.000000	0.002846
2201.000000	0.003008
2200.000000	0.003052
2199.000000	0.002964
2198.000000	0.002836
2197.000000	0.002773
2196.000000	0.002810
2195.000000	0.002906
2194.000000	0.003002
2193.000000	0.003059
2192.000000	0.003067
2191.000000	0.003037
2190.000000	0.002989
2189.000000	0.002946
2188.000000	0.002930
2187.000000	0.002959
2186.000000	0.003024
2185.000000	0.003080
2184.000000	0.003067
2183.000000	0.002965
2182.000000	0.002823
2181.000000	0.002724
2180.000000	0.002718
2179.000000	0.002780
2178.000000	0.002822
2177.000000	0.002772
2176.000000	0.002645
2175.000000	0.002547
2174.000000	0.002575
2173.000000	0.002725
2172.000000	0.002900
2171.000000	0.003023
2170.000000	0.003101
2169.000000	0.003174
2168.000000	0.003248
2167.000000	0.003285
2166.000000	0.003253
2165.000000	0.003144
2164.000000	0.002979
2163.000000	0.002807
2162.000000	0.002678
2161.000000	0.002571
2160.000000	0.002374
2159.000000	0.001996
2158.000000	0.001520
2157.000000	0.001153
2156.000000	0.001024
2155.000000	0.001103
2154.000000	0.001300
2153.000000	0.001548
2152.000000	0.001807
2151.000000	0.002047
2150.000000	0.002225
2149.000000	0.002290
2148.000000	0.002220
2147.000000	0.002068
2146.000000	0.001950
2145.000000	0.001960
2144.000000	0.002090
2143.000000	0.002256
2142.000000	0.002381
2141.000000	0.002446
2140.000000	0.002473
2139.000000	0.002503
2138.000000	0.002559
2137.000000	0.002617
2136.000000	0.002622
2135.000000	0.002549
2134.000000	0.002448
2133.000000	0.002386
2132.000000	0.002380
2131.000000	0.002398
2130.000000	0.002416
2129.000000	0.002436
2128.000000	0.002460
2127.000000	0.002481
2126.000000	0.002505
2125.000000	0.002552
2124.000000	0.002617
2123.000000	0.002668
2122.000000	0.002685
2121.000000	0.002683
2120.000000	0.002680
2119.000000	0.002671
2118.000000	0.002654
2117.000000	0.002656
2116.000000	0.002705
2115.000000	0.002789
2114.000000	0.002873
2113.000000	0.002935
2112.000000	0.002987
2111.000000	0.003047
2110.000000	0.003101
2109.000000	0.003116
2108.000000	0.003064
2107.000000	0.002954
2106.000000	0.002834
2105.000000	0.002772
2104.000000	0.002807
2103.000000	0.002911
2102.000000	0.003002
2101.000000	0.003012
2100.000000	0.002940
2099.000000	0.002837
2098.000000	0.002752
2097.000000	0.002698
2096.000000	0.002666
2095.000000	0.002656
2094.000000	0.002680
2093.000000	0.002728
2092.000000	0.002774
2091.000000	0.002797
2090.000000	0.002807
2089.000000	0.002820
2088.000000	0.002835
2087.000000	0.002847
2086.000000	0.002862
2085.000000	0.002886
2084.000000	0.002901
2083.000000	0.002880
2082.000000	0.002830
2081.000000	0.002789
2080.000000	0.002784
2079.000000	0.002804
2078.000000	0.002826
2077.000000	0.002835
2076.000000	0.002821
2075.000000	0.002777
2074.000000	0.002720
2073.000000	0.002696
2072.000000	0.002727
2071.000000	0.002781
2070.000000	0.002799
2069.000000	0.002761
2068.000000	0.002699
2067.000000	0.002657
2066.000000	0.002641
2065.000000	0.002627
2064.000000	0.002594
2063.000000	0.002545
2062.000000	0.002503
2061.000000	0.002482
2060.000000	0.002485
2059.000000	0.002505
2058.000000	0.002528
2057.000000	0.002534
2056.000000	0.002510
2055.000000	0.002479
2054.000000	0.002509
2053.000000	0.002653
2052.000000	0.002871
2051.000000	0.003047
2050.000000	0.003073
2049.000000	0.002934
2048.000000	0.002710
2047.000000	0.002498
2046.000000	0.002357
2045.000000	0.002305
2044.000000	0.002350
2043.000000	0.002477
2042.000000	0.002634
2041.000000	0.002749
2040.000000	0.002785
2039.000000	0.002781
2038.000000	0.002785
2037.000000	0.002768
2036.000000	0.002637
2035.000000	0.002373
2034.000000	0.002097
2033.000000	0.001954
2032.000000	0.001949
2031.000000	0.001966
2030.000000	0.001913
2029.000000	0.001796
2028.000000	0.001682
2027.000000	0.001654
2026.000000	0.001785
2025.000000	0.002057
2024.000000	0.002324
2023.000000	0.002432
2022.000000	0.002378
2021.000000	0.002291
2020.000000	0.002251
2019.000000	0.002225
2018.000000	0.002171
2017.000000	0.002114
2016.000000	0.002093
2015.000000	0.002103
2014.000000	0.002134
2013.000000	0.002185
2012.000000	0.002222
2011.000000	0.002185
2010.000000	0.002077
2009.000000	0.001983
2008.000000	0.001973
2007.000000	0.002014
2006.000000	0.002022
2005.000000	0.001957
2004.000000	0.001841
2003.000000	0.001744
2002.000000	0.001770
2001.000000	0.001985
2000.000000	0.002317
1999.000000	0.002575
1998.000000	0.002622
1997.000000	0.002495
1996.000000	0.002332
1995.000000	0.002236
1994.000000	0.002227
1993.000000	0.002277
1992.000000	0.002337
1991.000000	0.002355
1990.000000	0.002332
1989.000000	0.002339
1988.000000	0.002419
1987.000000	0.002512
1986.000000	0.002511
1985.000000	0.002391
1984.000000	0.002234
1983.000000	0.002150
1982.000000	0.002181
1981.000000	0.002281
1980.000000	0.002331
1979.000000	0.002215
1978.000000	0.001916
1977.000000	0.001578
1976.000000	0.001395
1975.000000	0.001438
1974.000000	0.001618
1973.000000	0.001800
1972.000000	0.001907
1971.000000	0.001936
1970.000000	0.001910
1969.000000	0.001836
1968.000000	0.001715
1967.000000	0.001577
1966.000000	0.001496
1965.000000	0.001536
1964.000000	0.001685
1963.000000	0.001859
1962.000000	0.001977
1961.000000	0.002010
1960.000000	0.001985
1959.000000	0.001951
1958.000000	0.001947
1957.000000	0.001985
1956.000000	0.002045
1955.000000	0.002101
1954.000000	0.002145
1953.000000	0.002192
1952.000000	0.002248
1951.000000	0.002296
1950.000000	0.002315
1949.000000	0.002301
1948.000000	0.002259
1947.000000	0.002213
1946.000000	0.002204
1945.000000	0.002283
1944.000000	0.002447
1943.000000	0.002628
1942.000000	0.002735
1941.000000	0.002739
1940.000000	0.002672
1939.000000	0.002570
1938.000000	0.002439
1937.000000	0.002293
1936.000000	0.002176
1935.000000	0.002143
1934.000000	0.002209
1933.000000	0.002339
1932.000000	0.002473
1931.000000	0.002570
1930.000000	0.002608
1929.000000	0.002584
1928.000000	0.002505
1927.000000	0.002397
1926.000000	0.002302
1925.000000	0.002248
1924.000000	0.002234
1923.000000	0.002237
1922.000000	0.002241
1921.000000	0.002246
1920.000000	0.002259
1919.000000	0.002281
1918.000000	0.002302
1917.000000	0.002311
1916.000000	0.002311
1915.000000	0.002336
1914.000000	0.002423
1913.000000	0.002559
1912.000000	0.002668
1911.000000	0.002680
1910.000000	0.002596
1909.000000	0.002473
1908.000000	0.002359
1907.000000	0.002268
1906.000000	0.002218
1905.000000	0.002237
1904.000000	0.002319
1903.000000	0.002415
1902.000000	0.002473
1901.000000	0.002473
1900.000000	0.002416
1899.000000	0.002318
1898.000000	0.002214
1897.000000	0.002144
1896.000000	0.002114
1895.000000	0.002095
1894.000000	0.002071
1893.000000	0.002065
1892.000000	0.002098
1891.000000	0.002156
1890.000000	0.002211
1889.000000	0.002253
1888.000000	0.002287
1887.000000	0.002322
1886.000000	0.002361
1885.000000	0.002387
1884.000000	0.002366
1883.000000	0.002288
1882.000000	0.002195
1881.000000	0.002154
1880.000000	0.002178
1879.000000	0.002218
1878.000000	0.002231
1877.000000	0.002225
1876.000000	0.002220
1875.000000	0.002203
1874.000000	0.002149
1873.000000	0.002061
1872.000000	0.001977
1871.000000	0.001938
1870.000000	0.001962
1869.000000	0.002036
1868.000000	0.002106
1867.000000	0.002115
1866.000000	0.002073
1865.000000	0.002036
1864.000000	0.002028
1863.000000	0.002030
1862.000000	0.002024
1861.000000	0.002029
1860.000000	0.002063
1859.000000	0.002106
1858.000000	0.002131
1857.000000	0.002138
1856.000000	0.002138
1855.000000	0.002133
1854.000000	0.002118
1853.000000	0.002102
1852.000000	0.002089
1851.000000	0.002074
1850.000000	0.002061
1849.000000	0.002061
1848.000000	0.002076
1847.000000	0.002095
1846.000000	0.002115
1845.000000	0.002156
1844.000000	0.002210
1843.000000	0.002220
1842.000000	0.002150
1841.000000	0.002045
1840.000000	0.001968
1839.000000	0.001949
1838.000000	0.001975
1837.000000	0.002019
1836.000000	0.002060
1835.000000	0.002077
1834.000000	0.002065
1833.000000	0.002032
1832.000000	0.001997
1831.000000	0.001980
1830.000000	0.001995
1829.000000	0.002023
1828.000000	0.002026
1827.000000	0.002000
1826.000000	0.001972
1825.000000	0.001967
1824.000000	0.001981
1823.000000	0.001981
1822.000000	0.001952
1821.000000	0.001910
1820.000000	0.001877
1819.000000	0.001858
1818.000000	0.001850
1817.000000	0.001852
1816.000000	0.001864
1815.000000	0.001870
1814.000000	0.001862
1813.000000	0.001849
1812.000000	0.001850
1811.000000	0.001865
1810.000000	0.001875
1809.000000	0.001886
1808.000000	0.001913
1807.000000	0.001945
1806.000000	0.001954
1805.000000	0.001934
1804.000000	0.001902
1803.000000	0.001873
1802.000000	0.001854
1801.000000	0.001852
1800.000000	0.001867
1799.000000	0.001882
1798.000000	0.001880
1797.000000	0.001874
1796.000000	0.001873
1795.000000	0.001868
1794.000000	0.001857
1793.000000	0.001869
1792.000000	0.001930
1791.000000	0.001995
1790.000000	0.001998
1789.000000	0.001950
1788.000000	0.001901
1787.000000	0.001876
1786.000000	0.001865
1785.000000	0.001861
1784.000000	0.001864
1783.000000	0.001867
1782.000000	0.001869
1781.000000	0.001871
1780.000000	0.001866
1779.000000	0.001842
1778.000000	0.001791
1777.000000	0.001727
1776.000000	0.001662
1775.000000	0.001605
1774.000000	0.001586
1773.000000	0.001637
1772.000000	0.001764
1771.000000	0.001892
1770.000000	0.001949
1769.000000	0.001946
1768.000000	0.001916
1767.000000	0.001861
1766.000000	0.001772
1765.000000	0.001662
1764.000000	0.001581
1763.000000	0.001582
1762.000000	0.001681
1761.000000	0.001811
1760.000000	0.001889
1759.000000	0.001909
1758.000000	0.001917
1757.000000	0.001949
1756.000000	0.001997
1755.000000	0.002036
1754.000000	0.002070
1753.000000	0.002117
1752.000000	0.002173
1751.000000	0.002222
1750.000000	0.002257
1749.000000	0.002292
1748.000000	0.002332
1747.000000	0.002365
1746.000000	0.002392
1745.000000	0.002423
1744.000000	0.002457
1743.000000	0.002475
1742.000000	0.002463
1741.000000	0.002438
1740.000000	0.002427
1739.000000	0.002421
1738.000000	0.002381
1737.000000	0.002310
1736.000000	0.002252
1735.000000	0.002229
1734.000000	0.002249
1733.000000	0.002271
1732.000000	0.002241
1731.000000	0.002190
1730.000000	0.002164
1729.000000	0.002170
1728.000000	0.002180
1727.000000	0.002171
1726.000000	0.002140
1725.000000	0.002100
1724.000000	0.002073
1723.000000	0.002060
1722.000000	0.002040
1721.000000	0.002007
1720.000000	0.001982
1719.000000	0.001978
1718.000000	0.001978
1717.000000	0.001987
1716.000000	0.002019
1715.000000	0.002060
1714.000000	0.002094
1713.000000	0.002119
1712.000000	0.002145
1711.000000	0.002177
1710.000000	0.002208
1709.000000	0.002232
1708.000000	0.002252
1707.000000	0.002289
1706.000000	0.002356
1705.000000	0.002447
1704.000000	0.002521
1703.000000	0.002565
1702.000000	0.002619
1701.000000	0.002722
1700.000000	0.002870
1699.000000	0.002956
1698.000000	0.002948
1697.000000	0.002982
1696.000000	0.003137
1695.000000	0.003312
1694.000000	0.003384
1693.000000	0.003395
1692.000000	0.003436
1691.000000	0.003531
1690.000000	0.003656
1689.000000	0.003782
1688.000000	0.003885
1687.000000	0.003967
1686.000000	0.004064
1685.000000	0.004226
1684.000000	0.004481
1683.000000	0.004690
1682.000000	0.004765
1681.000000	0.004821
1680.000000	0.004926
1679.000000	0.005058
1678.000000	0.005198
1677.000000	0.005354
1676.000000	0.005524
1675.000000	0.005669
1674.000000	0.005764
1673.000000	0.005832
1672.000000	0.005923
1671.000000	0.006063
1670.000000	0.006258
1669.000000	0.006494
1668.000000	0.006701
1667.000000	0.006834
1666.000000	0.006925
1665.000000	0.007023
1664.000000	0.007150
1663.000000	0.007292
1662.000000	0.007420
1661.000000	0.007527
1660.000000	0.007623
1659.000000	0.007726
1658.000000	0.007845
1657.000000	0.007989
1656.000000	0.008147
1655.000000	0.008302
1654.000000	0.008384
1653.000000	0.008452
1652.000000	0.008546
1651.000000	0.008580
1650.000000	0.008612
1649.000000	0.008682
1648.000000	0.008743
1647.000000	0.008769
1646.000000	0.008767
1645.000000	0.008759
1644.000000	0.008766
1643.000000	0.008795
1642.000000	0.008839
1641.000000	0.008889
1640.000000	0.008940
1639.000000	0.008988
1638.000000	0.009031
1637.000000	0.009051
1636.000000	0.009030
1635.000000	0.008985
1634.000000	0.008923
1633.000000	0.008862
1632.000000	0.008827
1631.000000	0.008813
1630.000000	0.008810
1629.000000	0.008819
1628.000000	0.008831
1627.000000	0.008821
1626.000000	0.008787
1625.000000	0.008745
1624.000000	0.008698
1623.000000	0.008633
1622.000000	0.008554
1621.000000	0.008477
1620.000000	0.008415
1619.000000	0.008363
1618.000000	0.008303
1617.000000	0.008228
1616.000000	0.008150
1615.000000	0.008060
1614.000000	0.007961
1613.000000	0.007868
1612.000000	0.007769
1611.000000	0.007647
1610.000000	0.007514
1609.000000	0.007393
1608.000000	0.007282
1607.000000	0.007172
1606.000000	0.007077
1605.000000	0.007002
1604.000000	0.006929
1603.000000	0.006840
1602.000000	0.006747
1601.000000	0.006667
1600.000000	0.006599
1599.000000	0.006528
1598.000000	0.006453
1597.000000	0.006375
1596.000000	0.006293
1595.000000	0.006213
1594.000000	0.006148
1593.000000	0.006105
1592.000000	0.006073
1591.000000	0.006039
1590.000000	0.006006
1589.000000	0.005978
1588.000000	0.005946
1587.000000	0.005904
1586.000000	0.005862
1585.000000	0.005833
1584.000000	0.005814
1583.000000	0.005798
1582.000000	0.005796
1581.000000	0.005808
1580.000000	0.005818
1579.000000	0.005817
1578.000000	0.005814
1577.000000	0.005811
1576.000000	0.005803
1575.000000	0.005789
1574.000000	0.005771
1573.000000	0.005767
1572.000000	0.005785
1571.000000	0.005812
1570.000000	0.005845
1569.000000	0.005880
1568.000000	0.005880
1567.000000	0.005852
1566.000000	0.005844
1565.000000	0.005875
1564.000000	0.005914
1563.000000	0.005960
1562.000000	0.006020
1561.000000	0.006127
1560.000000	0.006162
1559.000000	0.006129
1558.000000	0.006186
1557.000000	0.006240
1556.000000	0.006258
1555.000000	0.006284
1554.000000	0.006309
1553.000000	0.006332
1552.000000	0.006362
1551.000000	0.006414
1550.000000	0.006477
1549.000000	0.006526
1548.000000	0.006552
1547.000000	0.006575
1546.000000	0.006612
1545.000000	0.006663
1544.000000	0.006716
1543.000000	0.006753
1542.000000	0.006756
1541.000000	0.006722
1540.000000	0.006711
1539.000000	0.006723
1538.000000	0.006689
1537.000000	0.006638
1536.000000	0.006622
1535.000000	0.006623
1534.000000	0.006586
1533.000000	0.006496
1532.000000	0.006385
1531.000000	0.006289
1530.000000	0.006222
1529.000000	0.006186
1528.000000	0.006167
1527.000000	0.006133
1526.000000	0.006063
1525.000000	0.005973
1524.000000	0.005904
1523.000000	0.005866
1522.000000	0.005842
1521.000000	0.005831
1520.000000	0.005824
1519.000000	0.005813
1518.000000	0.005796
1517.000000	0.005760
1516.000000	0.005697
1515.000000	0.005617
1514.000000	0.005539
1513.000000	0.005482
1512.000000	0.005447
1511.000000	0.005430
1510.000000	0.005410
1509.000000	0.005367
1508.000000	0.005258
1507.000000	0.005108
1506.000000	0.004989
1505.000000	0.004881
1504.000000	0.004774
1503.000000	0.004698
1502.000000	0.004653
1501.000000	0.004626
1500.000000	0.004603
1499.000000	0.004566
1498.000000	0.004488
1497.000000	0.004381
1496.000000	0.004298
1495.000000	0.004252
1494.000000	0.004210
1493.000000	0.004171
1492.000000	0.004153
1491.000000	0.004156
1490.000000	0.004156
1489.000000	0.004143
1488.000000	0.004129
1487.000000	0.004117
1486.000000	0.004103
1485.000000	0.004103
1484.000000	0.004127
1483.000000	0.004174
1482.000000	0.004228
1481.000000	0.004279
1480.000000	0.004326
1479.000000	0.004377
1478.000000	0.004441
1477.000000	0.004522
1476.000000	0.004616
1475.000000	0.004707
1474.000000	0.004790
1473.000000	0.004886
1472.000000	0.005007
1471.000000	0.005111
1470.000000	0.005174
1469.000000	0.005225
1468.000000	0.005286
1467.000000	0.005355
1466.000000	0.005426
1465.000000	0.005509
1464.000000	0.005607
1463.000000	0.005700
1462.000000	0.005774
1461.000000	0.005838
1460.000000	0.005902
1459.000000	0.005971
1458.000000	0.006049
1457.000000	0.006148
1456.000000	0.006237
1455.000000	0.006281
1454.000000	0.006314
1453.000000	0.006363
1452.000000	0.006413
1451.000000	0.006449
1450.000000	0.006470
1449.000000	0.006485
1448.000000	0.006504
1447.000000	0.006528
1446.000000	0.006559
1445.000000	0.006592
1444.000000	0.006620
1443.000000	0.006639
1442.000000	0.006647
1441.000000	0.006648
1440.000000	0.006656
1439.000000	0.006690
1438.000000	0.006750
1437.000000	0.006808
1436.000000	0.006844
1435.000000	0.006861
1434.000000	0.006875
1433.000000	0.006893
1432.000000	0.006913
1431.000000	0.006932
1430.000000	0.006955
1429.000000	0.006976
1428.000000	0.006990
1427.000000	0.007008
1426.000000	0.007043
1425.000000	0.007080
1424.000000	0.007090
1423.000000	0.007086
1422.000000	0.007097
1421.000000	0.007127
1420.000000	0.007134
1419.000000	0.007103
1418.000000	0.007066
1417.000000	0.007038
1416.000000	0.007019
1415.000000	0.007004
1414.000000	0.006991
1413.000000	0.006975
1412.000000	0.006952
1411.000000	0.006921
1410.000000	0.006881
1409.000000	0.006832
1408.000000	0.006786
1407.000000	0.006756
1406.000000	0.006740
1405.000000	0.006714
1404.000000	0.006663
1403.000000	0.006607
1402.000000	0.006579
1401.000000	0.006578
1400.000000	0.006580
1399.000000	0.006569
1398.000000	0.006545
1397.000000	0.006510
1396.000000	0.006458
1395.000000	0.006398
1394.000000	0.006352
1393.000000	0.006318
1392.000000	0.006283
1391.000000	0.006248
1390.000000	0.006220
1389.000000	0.006199
1388.000000	0.006177
1387.000000	0.006160
1386.000000	0.006159
1385.000000	0.006174
1384.000000	0.006188
1383.000000	0.006193
1382.000000	0.006197
1381.000000	0.006210
1380.000000	0.006234
1379.000000	0.006255
1378.000000	0.006271
1377.000000	0.006286
1376.000000	0.006299
1375.000000	0.006299
1374.000000	0.006276
1373.000000	0.006233
1372.000000	0.006177
1371.000000	0.006115
1370.000000	0.006053
1369.000000	0.005994
1368.000000	0.005936
1367.000000	0.005885
1366.000000	0.005852
1365.000000	0.005832
1364.000000	0.005810
1363.000000	0.005771
1362.000000	0.005724
1361.000000	0.005678
1360.000000	0.005635
1359.000000	0.005591
1358.000000	0.005546
1357.000000	0.005505
1356.000000	0.005469
1355.000000	0.005434
1354.000000	0.005398
1353.000000	0.005360
1352.000000	0.005324
1351.000000	0.005292
1350.000000	0.005271
1349.000000	0.005262
1348.000000	0.005256
1347.000000	0.005247
1346.000000	0.005245
1345.000000	0.005262
1344.000000	0.005298
1343.000000	0.005341
1342.000000	0.005389
1341.000000	0.005442
1340.000000	0.005497
1339.000000	0.005543
1338.000000	0.005567
1337.000000	0.005572
1336.000000	0.005570
1335.000000	0.005581
1334.000000	0.005613
1333.000000	0.005660
1332.000000	0.005706
1331.000000	0.005744
1330.000000	0.005782
1329.000000	0.005840
1328.000000	0.005919
1327.000000	0.006008
1326.000000	0.006093
1325.000000	0.006165
1324.000000	0.006218
1323.000000	0.006249
1322.000000	0.006264
1321.000000	0.006269
1320.000000	0.006262
1319.000000	0.006230
1318.000000	0.006159
1317.000000	0.006051
1316.000000	0.005922
1315.000000	0.005792
1314.000000	0.005673
1313.000000	0.005560
1312.000000	0.005444
1311.000000	0.005324
1310.000000	0.005206
1309.000000	0.005094
1308.000000	0.004987
1307.000000	0.004889
1306.000000	0.004810
1305.000000	0.004753
1304.000000	0.004710
1303.000000	0.004667
1302.000000	0.004615
1301.000000	0.004549
1300.000000	0.004476
1299.000000	0.004411
1298.000000	0.004363
1297.000000	0.004326
1296.000000	0.004283
1295.000000	0.004231
1294.000000	0.004175
1293.000000	0.004122
1292.000000	0.004074
1291.000000	0.004035
1290.000000	0.004011
1289.000000	0.003999
1288.000000	0.003993
1287.000000	0.003992
1286.000000	0.004000
1285.000000	0.004014
1284.000000	0.004021
1283.000000	0.004013
1282.000000	0.003995
1281.000000	0.003979
1280.000000	0.003965
1279.000000	0.003948
1278.000000	0.003928
1277.000000	0.003912
1276.000000	0.003908
1275.000000	0.003916
1274.000000	0.003927
1273.000000	0.003931
1272.000000	0.003926
1271.000000	0.003923
1270.000000	0.003936
1269.000000	0.003965
1268.000000	0.004003
1267.000000	0.004040
1266.000000	0.004068
1265.000000	0.004079
1264.000000	0.004078
1263.000000	0.004080
1262.000000	0.004099
1261.000000	0.004126
1260.000000	0.004145
1259.000000	0.004154
1258.000000	0.004164
1257.000000	0.004182
1256.000000	0.004204
1255.000000	0.004229
1254.000000	0.004261
1253.000000	0.004303
1252.000000	0.004341
1251.000000	0.004364
1250.000000	0.004371
1249.000000	0.004372
1248.000000	0.004379
1247.000000	0.004402
1246.000000	0.004443
1245.000000	0.004493
1244.000000	0.004539
1243.000000	0.004573
1242.000000	0.004600
1241.000000	0.004620
1240.000000	0.004627
1239.000000	0.004619
1238.000000	0.004608
1237.000000	0.004609
1236.000000	0.004622
1235.000000	0.004631
1234.000000	0.004620
1233.000000	0.004586
1232.000000	0.004541
1231.000000	0.004496
1230.000000	0.004460
1229.000000	0.004427
1228.000000	0.004391
1227.000000	0.004348
1226.000000	0.004295
1225.000000	0.004230
1224.000000	0.004155
1223.000000	0.004077
1222.000000	0.004008
1221.000000	0.003951
1220.000000	0.003904
1219.000000	0.003872
1218.000000	0.003860
1217.000000	0.003857
1216.000000	0.003843
1215.000000	0.003806
1214.000000	0.003750
1213.000000	0.003693
1212.000000	0.003650
1211.000000	0.003631
1210.000000	0.003630
1209.000000	0.003627
1208.000000	0.003607
1207.000000	0.003573
1206.000000	0.003543
1205.000000	0.003527
1204.000000	0.003517
1203.000000	0.003506
1202.000000	0.003493
1201.000000	0.003472
1200.000000	0.003427
1199.000000	0.003348
1198.000000	0.003245
1197.000000	0.003145
1196.000000	0.003059
1195.000000	0.002984
1194.000000	0.002916
1193.000000	0.002859
1192.000000	0.002810
1191.000000	0.002753
1190.000000	0.002669
1189.000000	0.002563
1188.000000	0.002465
1187.000000	0.002407
1186.000000	0.002390
1185.000000	0.002391
1184.000000	0.002386
1183.000000	0.002375
1182.000000	0.002372
1181.000000	0.002384
1180.000000	0.002407
1179.000000	0.002439
1178.000000	0.002484
1177.000000	0.002546
1176.000000	0.002625
1175.000000	0.002712
1174.000000	0.002800
1173.000000	0.002891
1172.000000	0.002996
1171.000000	0.003125
1170.000000	0.003280
1169.000000	0.003457
1168.000000	0.003651
1167.000000	0.003858
1166.000000	0.004080
1165.000000	0.004312
1164.000000	0.004544
1163.000000	0.004770
1162.000000	0.004988
1161.000000	0.005199
1160.000000	0.005405
1159.000000	0.005608
1158.000000	0.005805
1157.000000	0.005990
1156.000000	0.006155
1155.000000	0.006299
1154.000000	0.006424
1153.000000	0.006524
1152.000000	0.006591
1151.000000	0.006627
1150.000000	0.006644
1149.000000	0.006650
1148.000000	0.006638
1147.000000	0.006598
1146.000000	0.006534
1145.000000	0.006458
1144.000000	0.006381
1143.000000	0.006302
1142.000000	0.006212
1141.000000	0.006105
1140.000000	0.005987
1139.000000	0.005875
1138.000000	0.005787
1137.000000	0.005726
1136.000000	0.005685
1135.000000	0.005658
1134.000000	0.005644
1133.000000	0.005644
1132.000000	0.005656
1131.000000	0.005680
1130.000000	0.005715
1129.000000	0.005756
1128.000000	0.005800
1127.000000	0.005852
1126.000000	0.005920
1125.000000	0.006001
1124.000000	0.006084
1123.000000	0.006161
1122.000000	0.006235
1121.000000	0.006309
1120.000000	0.006377
1119.000000	0.006437
1118.000000	0.006498
1117.000000	0.006572
1116.000000	0.006660
1115.000000	0.006753
1114.000000	0.006844
1113.000000	0.006931
1112.000000	0.007011
1111.000000	0.007086
1110.000000	0.007163
1109.000000	0.007244
1108.000000	0.007315
1107.000000	0.007356
1106.000000	0.007363
1105.000000	0.007354
1104.000000	0.007359
1103.000000	0.007389
1102.000000	0.007431
1101.000000	0.007457
1100.000000	0.007454
1099.000000	0.007436
1098.000000	0.007425
1097.000000	0.007427
1096.000000	0.007435
1095.000000	0.007453
1094.000000	0.007501
1093.000000	0.007578
1092.000000	0.007657
1091.000000	0.007709
1090.000000	0.007744
1089.000000	0.007798
1088.000000	0.007900
1087.000000	0.008050
1086.000000	0.008236
1085.000000	0.008446
1084.000000	0.008666
1083.000000	0.008884
1082.000000	0.009086
1081.000000	0.009263
1080.000000	0.009405
1079.000000	0.009510
1078.000000	0.009588
1077.000000	0.009656
1076.000000	0.009708
1075.000000	0.009718
1074.000000	0.009665
1073.000000	0.009550
1072.000000	0.009399
1071.000000	0.009244
1070.000000	0.009110
1069.000000	0.009006
1068.000000	0.008942
1067.000000	0.008930
1066.000000	0.008975
1065.000000	0.009070
1064.000000	0.009191
1063.000000	0.009321
1062.000000	0.009460
1061.000000	0.009619
1060.000000	0.009799
1059.000000	0.009988
1058.000000	0.010166
1057.000000	0.010316
1056.000000	0.010431
1055.000000	0.010526
1054.000000	0.010624
1053.000000	0.010738
1052.000000	0.010858
1051.000000	0.010974
1050.000000	0.011094
1049.000000	0.011226
1048.000000	0.011345
1047.000000	0.011421
1046.000000	0.011458
1045.000000	0.011493
1044.000000	0.011559
1043.000000	0.011649
1042.000000	0.011738
1041.000000	0.011823
1040.000000	0.011922
1039.000000	0.012058
1038.000000	0.012228
1037.000000	0.012409
1036.000000	0.012577
1035.000000	0.012724
1034.000000	0.012863
1033.000000	0.012998
1032.000000	0.013125
1031.000000	0.013241
1030.000000	0.013365
1029.000000	0.013515
1028.000000	0.013680
1027.000000	0.013827
1026.000000	0.013930
1025.000000	0.013993
1024.000000	0.014036
1023.000000	0.014074
1022.000000	0.014116
1021.000000	0.014159
1020.000000	0.014190
1019.000000	0.014198
1018.000000	0.014190
1017.000000	0.014185
1016.000000	0.014188
1015.000000	0.014190
1014.000000	0.014183
1013.000000	0.014172
1012.000000	0.014160
1011.000000	0.014141
1010.000000	0.014109
1009.000000	0.014071
1008.000000	0.014037
1007.000000	0.014015
1006.000000	0.014004
1005.000000	0.014001
1004.000000	0.013996
1003.000000	0.013978
1002.000000	0.013943
1001.000000	0.013897
1000.000000	0.013843
999.000000	0.013785
998.000000	0.013727
997.000000	0.013678
996.000000	0.013641
995.000000	0.013599
994.000000	0.013525
993.000000	0.013399
992.000000	0.013233
991.000000	0.013056
990.000000	0.012895
989.000000	0.012744
988.000000	0.012576
987.000000	0.012375
986.000000	0.012148
985.000000	0.011920
984.000000	0.011705
983.000000	0.011502
982.000000	0.011306
981.000000	0.011108
980.000000	0.010903
979.000000	0.010690
978.000000	0.010469
977.000000	0.010239
976.000000	0.010001
975.000000	0.009764
974.000000	0.009531
973.000000	0.009299
972.000000	0.009061
971.000000	0.008828
970.000000	0.008618
969.000000	0.008438
968.000000	0.008274
967.000000	0.008107
966.000000	0.007936
965.000000	0.007770
964.000000	0.007615
963.000000	0.007468
962.000000	0.007321
961.000000	0.007169
960.000000	0.007015
959.000000	0.006863
958.000000	0.006715
957.000000	0.006571
956.000000	0.006431
955.000000	0.006298
954.000000	0.006172
953.000000	0.006046
952.000000	0.005917
951.000000	0.005798
950.000000	0.005704
949.000000	0.005627
948.000000	0.005542
947.000000	0.005441
946.000000	0.005346
945.000000	0.005279
944.000000	0.005232
943.000000	0.005186
942.000000	0.005132
941.000000	0.005085
940.000000	0.005056
939.000000	0.005038
938.000000	0.005015
937.000000	0.004971
936.000000	0.004911
935.000000	0.004846
934.000000	0.004788
933.000000	0.004733
932.000000	0.004677
931.000000	0.004622
930.000000	0.004570
929.000000	0.004513
928.000000	0.004443
927.000000	0.004371
926.000000	0.004320
925.000000	0.004298
924.000000	0.004289
923.000000	0.004270
922.000000	0.004232
921.000000	0.004174
920.000000	0.004099
919.000000	0.004021
918.000000	0.003958
917.000000	0.003913
916.000000	0.003866
915.000000	0.003795
914.000000	0.003702
913.000000	0.003611
912.000000	0.003536
911.000000	0.003470
910.000000	0.003396
909.000000	0.003310
908.000000	0.003224
907.000000	0.003150
906.000000	0.003091
905.000000	0.003035
904.000000	0.002968
903.000000	0.002888
902.000000	0.002809
901.000000	0.002749
900.000000	0.002709
899.000000	0.002673
898.000000	0.002625
897.000000	0.002568
896.000000	0.002517
895.000000	0.002488
894.000000	0.002478
893.000000	0.002466
892.000000	0.002428
891.000000	0.002359
890.000000	0.002280
889.000000	0.002217
888.000000	0.002178
887.000000	0.002153
886.000000	0.002134
885.000000	0.002126
884.000000	0.002150
883.000000	0.002219
882.000000	0.002322
881.000000	0.002444
880.000000	0.002580
879.000000	0.002737
878.000000	0.002907
877.000000	0.003068
876.000000	0.003194
875.000000	0.003272
874.000000	0.003287
873.000000	0.003223
872.000000	0.003088
871.000000	0.002925
870.000000	0.002801
869.000000	0.002751
868.000000	0.002754
867.000000	0.002748
866.000000	0.002675
865.000000	0.002538
864.000000	0.002402
863.000000	0.002343
862.000000	0.002374
861.000000	0.002438
860.000000	0.002471
859.000000	0.002463
858.000000	0.002436
857.000000	0.002396
856.000000	0.002333
855.000000	0.002257
854.000000	0.002200
853.000000	0.002174
852.000000	0.002157
851.000000	0.002129
850.000000	0.002101
849.000000	0.002095
848.000000	0.002116
847.000000	0.002145
846.000000	0.002160
845.000000	0.002156
844.000000	0.002136
843.000000	0.002109
842.000000	0.002076
841.000000	0.002023
840.000000	0.001946
839.000000	0.001864
838.000000	0.001810
837.000000	0.001786
836.000000	0.001765
835.000000	0.001729
834.000000	0.001694
833.000000	0.001687
832.000000	0.001707
831.000000	0.001740
830.000000	0.001773
829.000000	0.001804
828.000000	0.001817
827.000000	0.001802
826.000000	0.001771
825.000000	0.001751
824.000000	0.001751
823.000000	0.001751
822.000000	0.001730
821.000000	0.001698
820.000000	0.001679
819.000000	0.001687
818.000000	0.001710
817.000000	0.001720
816.000000	0.001704
815.000000	0.001680
814.000000	0.001675
813.000000	0.001696
812.000000	0.001717
811.000000	0.001720
810.000000	0.001712
809.000000	0.001712
808.000000	0.001721
807.000000	0.001725
806.000000	0.001723
805.000000	0.001728
804.000000	0.001749
803.000000	0.001779
802.000000	0.001805
801.000000	0.001814
800.000000	0.001807
799.000000	0.001801
798.000000	0.001814
797.000000	0.001850
796.000000	0.001890
795.000000	0.001910
794.000000	0.001910
793.000000	0.001904
792.000000	0.001899
791.000000	0.001891
790.000000	0.001881
789.000000	0.001878
788.000000	0.001879
787.000000	0.001872
786.000000	0.001855
785.000000	0.001847
784.000000	0.001867
783.000000	0.001909
782.000000	0.001948
781.000000	0.001968
780.000000	0.001969
779.000000	0.001959
778.000000	0.001948
777.000000	0.001942
776.000000	0.001947
775.000000	0.001965
774.000000	0.001995
773.000000	0.002034
772.000000	0.002068
771.000000	0.002092
770.000000	0.002112
769.000000	0.002149
768.000000	0.002213
767.000000	0.002299
766.000000	0.002390
765.000000	0.002475
764.000000	0.002536
763.000000	0.002551
762.000000	0.002509
761.000000	0.002429
760.000000	0.002358
759.000000	0.002336
758.000000	0.002367
757.000000	0.002414
756.000000	0.002422
755.000000	0.002368
754.000000	0.002273
753.000000	0.002194
752.000000	0.002162
751.000000	0.002163
750.000000	0.002154
749.000000	0.002111
748.000000	0.002042
747.000000	0.001970
746.000000	0.001903
745.000000	0.001840
744.000000	0.001783
743.000000	0.001737
742.000000	0.001709
741.000000	0.001701
740.000000	0.001703
739.000000	0.001706
738.000000	0.001708
737.000000	0.001715
736.000000	0.001728
735.000000	0.001734
734.000000	0.001730
733.000000	0.001723
732.000000	0.001727
731.000000	0.001733
730.000000	0.001721
729.000000	0.001687
728.000000	0.001655
727.000000	0.001653
726.000000	0.001683
725.000000	0.001728
724.000000	0.001767
723.000000	0.001786
722.000000	0.001783
721.000000	0.001777
720.000000	0.001800
719.000000	0.001865
718.000000	0.001951
717.000000	0.002036
716.000000	0.002130
715.000000	0.002260
714.000000	0.002421
713.000000	0.002562
712.000000	0.002628
711.000000	0.002609
710.000000	0.002537
709.000000	0.002451
708.000000	0.002379
707.000000	0.002334
706.000000	0.002320
705.000000	0.002331
704.000000	0.002350
703.000000	0.002354
702.000000	0.002331
701.000000	0.002289
700.000000	0.002259
699.000000	0.002273
698.000000	0.002326
697.000000	0.002377
696.000000	0.002393
695.000000	0.002382
694.000000	0.002363
693.000000	0.002334
692.000000	0.002274
691.000000	0.002185
690.000000	0.002095
689.000000	0.002018
688.000000	0.001950
687.000000	0.001895
686.000000	0.001885
685.000000	0.001935
684.000000	0.002005
683.000000	0.002040
682.000000	0.002035
681.000000	0.002030
680.000000	0.002061
679.000000	0.002123
678.000000	0.002189
677.000000	0.002238
676.000000	0.002266
675.000000	0.002287
674.000000	0.002331
673.000000	0.002424
672.000000	0.002544
671.000000	0.002631
670.000000	0.002641
669.000000	0.002586
668.000000	0.002479
667.000000	0.002333
666.000000	0.002314
665.000000	0.002431
664.000000	0.002563
663.000000	0.002650
662.000000	0.002682
661.000000	0.002657
660.000000	0.002573
659.000000	0.002445
658.000000	0.002313
657.000000	0.002208
656.000000	0.002128
655.000000	0.002065
654.000000	0.002036
653.000000	0.002068
652.000000	0.002160
651.000000	0.002267
650.000000	0.002326
649.000000	0.002307
648.000000	0.002232
647.000000	0.002160
646.000000	0.002132
645.000000	0.002139
644.000000	0.002126
643.000000	0.002060
642.000000	0.001978
641.000000	0.001948
640.000000	0.001990
639.000000	0.002054
638.000000	0.002088
637.000000	0.002102
636.000000	0.002141
635.000000	0.002203
634.000000	0.002243
633.000000	0.002247
632.000000	0.002258
631.000000	0.002319
630.000000	0.002407
629.000000	0.002462
628.000000	0.002452
627.000000	0.002400
626.000000	0.002343
625.000000	0.002304
624.000000	0.002296
623.000000	0.002325
622.000000	0.002391
621.000000	0.002481
620.000000	0.002575
619.000000	0.002659
618.000000	0.002730
617.000000	0.002786
616.000000	0.002832
615.000000	0.002878
614.000000	0.002931
613.000000	0.002978
612.000000	0.003004
611.000000	0.003017
610.000000	0.003052
609.000000	0.003133
608.000000	0.003239
607.000000	0.003323
606.000000	0.003368
605.000000	0.003398
604.000000	0.003449
603.000000	0.003527
602.000000	0.003623
601.000000	0.003720
600.000000	0.003791
599.000000	0.003810
598.000000	0.003778
597.000000	0.003737
596.000000	0.003732
595.000000	0.003760
594.000000	0.003778
593.000000	0.003750
592.000000	0.003685
591.000000	0.003635
590.000000	0.003655
589.000000	0.003752
588.000000	0.003860
587.000000	0.003883
586.000000	0.003788
585.000000	0.003651
584.000000	0.003602
583.000000	0.003704
582.000000	0.003916
581.000000	0.004143
580.000000	0.004319
579.000000	0.004442
578.000000	0.004539
577.000000	0.004619
576.000000	0.004653
575.000000	0.004618
574.000000	0.004533
573.000000	0.004452
572.000000	0.004402
571.000000	0.004377
570.000000	0.004365
569.000000	0.004375
568.000000	0.004408
567.000000	0.004431
566.000000	0.004420
565.000000	0.004394
564.000000	0.004387
563.000000	0.004387
562.000000	0.004351
561.000000	0.004265
560.000000	0.004168
559.000000	0.004086
558.000000	0.003990
557.000000	0.003826
556.000000	0.003597
555.000000	0.003378
554.000000	0.003264
553.000000	0.003294
552.000000	0.003428
551.000000	0.003580
550.000000	0.003669
549.000000	0.003652
548.000000	0.003535
547.000000	0.003374
546.000000	0.003257
545.000000	0.003254
544.000000	0.003355
543.000000	0.003487
542.000000	0.003581
541.000000	0.003615
540.000000	0.003600
539.000000	0.003559
538.000000	0.003539
537.000000	0.003599
536.000000	0.003744
535.000000	0.003894
534.000000	0.003965
533.000000	0.003973
532.000000	0.004016
531.000000	0.004143
530.000000	0.004294
529.000000	0.004373
528.000000	0.004324
527.000000	0.004170
526.000000	0.004011
525.000000	0.003988
524.000000	0.004157
523.000000	0.004418
522.000000	0.004600
521.000000	0.004609
520.000000	0.004505
519.000000	0.004424
518.000000	0.004420
517.000000	0.004416
516.000000	0.004318
515.000000	0.004136
514.000000	0.003960
513.000000	0.003855
512.000000	0.003801
511.000000	0.003751
510.000000	0.003701
509.000000	0.003675
508.000000	0.003647
507.000000	0.003549
506.000000	0.003375
505.000000	0.003221
504.000000	0.003184
503.000000	0.003265
502.000000	0.003378
501.000000	0.003442
500.000000	0.003442
499.000000	0.003411
498.000000	0.003381
497.000000	0.003351
496.000000	0.003271
495.000000	0.003087
494.000000	0.002845
493.000000	0.002694
492.000000	0.002739
491.000000	0.002917
490.000000	0.003063
489.000000	0.003073
488.000000	0.002945
487.000000	0.002724
486.000000	0.002467
485.000000	0.002271
484.000000	0.002228
483.000000	0.002353
482.000000	0.002557
481.000000	0.002723
480.000000	0.002767
479.000000	0.002688
478.000000	0.002561
477.000000	0.002483
476.000000	0.002486
475.000000	0.002539
474.000000	0.002613
473.000000	0.002722
472.000000	0.002844
471.000000	0.002899
470.000000	0.002841
469.000000	0.002717
468.000000	0.002600
467.000000	0.002536
466.000000	0.002557
465.000000	0.002687
464.000000	0.002850
463.000000	0.002822
462.000000	0.002416
461.000000	0.001714
460.000000	0.001033
459.000000	0.000695
458.000000	0.000867
457.000000	0.001436
456.000000	0.002053
455.000000	0.002429
454.000000	0.002480
453.000000	0.002281
452.000000	0.001981
451.000000	0.001721
450.000000	0.001567
