PE IR       SUBTECH     SPECTRUM    ASCII       PEDS        4.00        
   -1
P14-Noir040_1.ASC
23/06/09
16:29:35.00
23/06/09
16:36:39.00
uco
Sample 040 By uco Date Friday, June 09 2023
450.000000
#HDR
-1
-1
#GR
cm-1
A
1.0
0.0
4000.000000
-1.000000
3551
8
0.014391
0.001230
#DATA
4000.000000	0.001810
3999.000000	0.001804
3998.000000	0.001798
3997.000000	0.001807
3996.000000	0.001830
3995.000000	0.001857
3994.000000	0.001880
3993.000000	0.001894
3992.000000	0.001898
3991.000000	0.001891
3990.000000	0.001874
3989.000000	0.001850
3988.000000	0.001830
3987.000000	0.001821
3986.000000	0.001826
3985.000000	0.001839
3984.000000	0.001852
3983.000000	0.001860
3982.000000	0.001863
3981.000000	0.001862
3980.000000	0.001859
3979.000000	0.001853
3978.000000	0.001848
3977.000000	0.001847
3976.000000	0.001853
3975.000000	0.001862
3974.000000	0.001871
3973.000000	0.001878
3972.000000	0.001881
3971.000000	0.001880
3970.000000	0.001876
3969.000000	0.001873
3968.000000	0.001879
3967.000000	0.001896
3966.000000	0.001917
3965.000000	0.001931
3964.000000	0.001927
3963.000000	0.001908
3962.000000	0.001885
3961.000000	0.001869
3960.000000	0.001866
3959.000000	0.001879
3958.000000	0.001901
3957.000000	0.001925
3956.000000	0.001943
3955.000000	0.001951
3954.000000	0.001955
3953.000000	0.001960
3952.000000	0.001967
3951.000000	0.001972
3950.000000	0.001973
3949.000000	0.001969
3948.000000	0.001960
3947.000000	0.001949
3946.000000	0.001936
3945.000000	0.001929
3944.000000	0.001931
3943.000000	0.001943
3942.000000	0.001954
3941.000000	0.001955
3940.000000	0.001944
3939.000000	0.001932
3938.000000	0.001929
3937.000000	0.001936
3936.000000	0.001949
3935.000000	0.001956
3934.000000	0.001950
3933.000000	0.001933
3932.000000	0.001916
3931.000000	0.001920
3930.000000	0.001949
3929.000000	0.001989
3928.000000	0.002018
3927.000000	0.002023
3926.000000	0.002012
3925.000000	0.002001
3924.000000	0.001995
3923.000000	0.001986
3922.000000	0.001969
3921.000000	0.001946
3920.000000	0.001921
3919.000000	0.001901
3918.000000	0.001891
3917.000000	0.001891
3916.000000	0.001894
3915.000000	0.001894
3914.000000	0.001892
3913.000000	0.001896
3912.000000	0.001910
3911.000000	0.001934
3910.000000	0.001962
3909.000000	0.001991
3908.000000	0.002019
3907.000000	0.002042
3906.000000	0.002059
3905.000000	0.002065
3904.000000	0.002052
3903.000000	0.002011
3902.000000	0.001951
3901.000000	0.001896
3900.000000	0.001872
3899.000000	0.001886
3898.000000	0.001922
3897.000000	0.001961
3896.000000	0.001995
3895.000000	0.002016
3894.000000	0.002017
3893.000000	0.002001
3892.000000	0.001990
3891.000000	0.001998
3890.000000	0.002013
3889.000000	0.002026
3888.000000	0.002042
3887.000000	0.002066
3886.000000	0.002090
3885.000000	0.002103
3884.000000	0.002093
3883.000000	0.002068
3882.000000	0.002045
3881.000000	0.002033
3880.000000	0.002020
3879.000000	0.001992
3878.000000	0.001948
3877.000000	0.001915
3876.000000	0.001913
3875.000000	0.001942
3874.000000	0.001979
3873.000000	0.001995
3872.000000	0.001979
3871.000000	0.001956
3870.000000	0.001951
3869.000000	0.001956
3868.000000	0.001943
3867.000000	0.001917
3866.000000	0.001900
3865.000000	0.001898
3864.000000	0.001910
3863.000000	0.001932
3862.000000	0.001954
3861.000000	0.001972
3860.000000	0.001987
3859.000000	0.002008
3858.000000	0.002040
3857.000000	0.002075
3856.000000	0.002086
3855.000000	0.002044
3854.000000	0.001979
3853.000000	0.001963
3852.000000	0.001966
3851.000000	0.001929
3850.000000	0.001884
3849.000000	0.001863
3848.000000	0.001866
3847.000000	0.001885
3846.000000	0.001916
3845.000000	0.001952
3844.000000	0.001982
3843.000000	0.001993
3842.000000	0.001976
3841.000000	0.001945
3840.000000	0.001922
3839.000000	0.001921
3838.000000	0.001936
3837.000000	0.001949
3836.000000	0.001950
3835.000000	0.001949
3834.000000	0.001953
3833.000000	0.001958
3832.000000	0.001954
3831.000000	0.001933
3830.000000	0.001899
3829.000000	0.001869
3828.000000	0.001864
3827.000000	0.001897
3826.000000	0.001952
3825.000000	0.001999
3824.000000	0.002014
3823.000000	0.001996
3822.000000	0.001968
3821.000000	0.001966
3820.000000	0.001975
3819.000000	0.001957
3818.000000	0.001928
3817.000000	0.001916
3816.000000	0.001922
3815.000000	0.001922
3814.000000	0.001903
3813.000000	0.001885
3812.000000	0.001890
3811.000000	0.001902
3810.000000	0.001895
3809.000000	0.001859
3808.000000	0.001824
3807.000000	0.001824
3806.000000	0.001855
3805.000000	0.001878
3804.000000	0.001886
3803.000000	0.001902
3802.000000	0.001944
3801.000000	0.002003
3800.000000	0.002026
3799.000000	0.001999
3798.000000	0.001969
3797.000000	0.001966
3796.000000	0.001975
3795.000000	0.001968
3794.000000	0.001935
3793.000000	0.001895
3792.000000	0.001868
3791.000000	0.001860
3790.000000	0.001869
3789.000000	0.001892
3788.000000	0.001920
3787.000000	0.001945
3786.000000	0.001965
3785.000000	0.001978
3784.000000	0.001976
3783.000000	0.001953
3782.000000	0.001917
3781.000000	0.001889
3780.000000	0.001892
3779.000000	0.001926
3778.000000	0.001960
3777.000000	0.001965
3776.000000	0.001949
3775.000000	0.001931
3774.000000	0.001921
3773.000000	0.001914
3772.000000	0.001905
3771.000000	0.001895
3770.000000	0.001887
3769.000000	0.001880
3768.000000	0.001872
3767.000000	0.001875
3766.000000	0.001901
3765.000000	0.001939
3764.000000	0.001960
3763.000000	0.001949
3762.000000	0.001920
3761.000000	0.001889
3760.000000	0.001871
3759.000000	0.001875
3758.000000	0.001903
3757.000000	0.001941
3756.000000	0.001973
3755.000000	0.001989
3754.000000	0.001975
3753.000000	0.001918
3752.000000	0.001828
3751.000000	0.001755
3750.000000	0.001738
3749.000000	0.001754
3748.000000	0.001772
3747.000000	0.001799
3746.000000	0.001838
3745.000000	0.001875
3744.000000	0.001896
3743.000000	0.001884
3742.000000	0.001846
3741.000000	0.001827
3740.000000	0.001828
3739.000000	0.001827
3738.000000	0.001819
3737.000000	0.001822
3736.000000	0.001855
3735.000000	0.001912
3734.000000	0.001961
3733.000000	0.001977
3732.000000	0.001959
3731.000000	0.001916
3730.000000	0.001865
3729.000000	0.001828
3728.000000	0.001813
3727.000000	0.001812
3726.000000	0.001811
3725.000000	0.001806
3724.000000	0.001806
3723.000000	0.001822
3722.000000	0.001851
3721.000000	0.001880
3720.000000	0.001893
3719.000000	0.001894
3718.000000	0.001889
3717.000000	0.001881
3716.000000	0.001868
3715.000000	0.001853
3714.000000	0.001838
3713.000000	0.001824
3712.000000	0.001821
3711.000000	0.001835
3710.000000	0.001847
3709.000000	0.001839
3708.000000	0.001820
3707.000000	0.001809
3706.000000	0.001815
3705.000000	0.001835
3704.000000	0.001861
3703.000000	0.001881
3702.000000	0.001888
3701.000000	0.001879
3700.000000	0.001853
3699.000000	0.001823
3698.000000	0.001806
3697.000000	0.001810
3696.000000	0.001821
3695.000000	0.001827
3694.000000	0.001821
3693.000000	0.001806
3692.000000	0.001789
3691.000000	0.001784
3690.000000	0.001810
3689.000000	0.001866
3688.000000	0.001912
3687.000000	0.001911
3686.000000	0.001880
3685.000000	0.001855
3684.000000	0.001847
3683.000000	0.001843
3682.000000	0.001831
3681.000000	0.001820
3680.000000	0.001815
3679.000000	0.001810
3678.000000	0.001791
3677.000000	0.001764
3676.000000	0.001772
3675.000000	0.001831
3674.000000	0.001870
3673.000000	0.001854
3672.000000	0.001826
3671.000000	0.001816
3670.000000	0.001837
3669.000000	0.001876
3668.000000	0.001894
3667.000000	0.001884
3666.000000	0.001867
3665.000000	0.001857
3664.000000	0.001856
3663.000000	0.001864
3662.000000	0.001874
3661.000000	0.001881
3660.000000	0.001885
3659.000000	0.001889
3658.000000	0.001899
3657.000000	0.001918
3656.000000	0.001940
3655.000000	0.001949
3654.000000	0.001942
3653.000000	0.001935
3652.000000	0.001925
3651.000000	0.001896
3650.000000	0.001868
3649.000000	0.001892
3648.000000	0.001963
3647.000000	0.002019
3646.000000	0.002031
3645.000000	0.002018
3644.000000	0.002010
3643.000000	0.002020
3642.000000	0.002040
3641.000000	0.002053
3640.000000	0.002055
3639.000000	0.002053
3638.000000	0.002052
3637.000000	0.002047
3636.000000	0.002039
3635.000000	0.002041
3634.000000	0.002063
3633.000000	0.002101
3632.000000	0.002140
3631.000000	0.002165
3630.000000	0.002182
3629.000000	0.002224
3628.000000	0.002292
3627.000000	0.002337
3626.000000	0.002354
3625.000000	0.002375
3624.000000	0.002402
3623.000000	0.002421
3622.000000	0.002424
3621.000000	0.002414
3620.000000	0.002400
3619.000000	0.002393
3618.000000	0.002392
3617.000000	0.002383
3616.000000	0.002368
3615.000000	0.002355
3614.000000	0.002354
3613.000000	0.002367
3612.000000	0.002384
3611.000000	0.002394
3610.000000	0.002391
3609.000000	0.002387
3608.000000	0.002399
3607.000000	0.002431
3606.000000	0.002465
3605.000000	0.002488
3604.000000	0.002505
3603.000000	0.002526
3602.000000	0.002562
3601.000000	0.002613
3600.000000	0.002663
3599.000000	0.002698
3598.000000	0.002716
3597.000000	0.002728
3596.000000	0.002748
3595.000000	0.002778
3594.000000	0.002811
3593.000000	0.002836
3592.000000	0.002851
3591.000000	0.002860
3590.000000	0.002860
3589.000000	0.002850
3588.000000	0.002836
3587.000000	0.002831
3586.000000	0.002832
3585.000000	0.002838
3584.000000	0.002864
3583.000000	0.002917
3582.000000	0.002984
3581.000000	0.003038
3580.000000	0.003059
3579.000000	0.003047
3578.000000	0.003014
3577.000000	0.002984
3576.000000	0.002983
3575.000000	0.003023
3574.000000	0.003101
3573.000000	0.003190
3572.000000	0.003265
3571.000000	0.003310
3570.000000	0.003320
3569.000000	0.003299
3568.000000	0.003267
3567.000000	0.003260
3566.000000	0.003291
3565.000000	0.003344
3564.000000	0.003397
3563.000000	0.003445
3562.000000	0.003486
3561.000000	0.003514
3560.000000	0.003529
3559.000000	0.003533
3558.000000	0.003532
3557.000000	0.003536
3556.000000	0.003546
3555.000000	0.003559
3554.000000	0.003571
3553.000000	0.003584
3552.000000	0.003603
3551.000000	0.003635
3550.000000	0.003680
3549.000000	0.003733
3548.000000	0.003784
3547.000000	0.003822
3546.000000	0.003847
3545.000000	0.003861
3544.000000	0.003874
3543.000000	0.003892
3542.000000	0.003922
3541.000000	0.003960
3540.000000	0.003999
3539.000000	0.004032
3538.000000	0.004058
3537.000000	0.004080
3536.000000	0.004098
3535.000000	0.004112
3534.000000	0.004121
3533.000000	0.004125
3532.000000	0.004127
3531.000000	0.004134
3530.000000	0.004154
3529.000000	0.004188
3528.000000	0.004230
3527.000000	0.004271
3526.000000	0.004309
3525.000000	0.004344
3524.000000	0.004374
3523.000000	0.004392
3522.000000	0.004396
3521.000000	0.004389
3520.000000	0.004377
3519.000000	0.004373
3518.000000	0.004385
3517.000000	0.004412
3516.000000	0.004445
3515.000000	0.004476
3514.000000	0.004496
3513.000000	0.004507
3512.000000	0.004515
3511.000000	0.004532
3510.000000	0.004566
3509.000000	0.004612
3508.000000	0.004652
3507.000000	0.004674
3506.000000	0.004676
3505.000000	0.004668
3504.000000	0.004660
3503.000000	0.004664
3502.000000	0.004686
3501.000000	0.004727
3500.000000	0.004775
3499.000000	0.004822
3498.000000	0.004861
3497.000000	0.004897
3496.000000	0.004932
3495.000000	0.004964
3494.000000	0.004988
3493.000000	0.005004
3492.000000	0.005014
3491.000000	0.005021
3490.000000	0.005031
3489.000000	0.005045
3488.000000	0.005066
3487.000000	0.005093
3486.000000	0.005123
3485.000000	0.005152
3484.000000	0.005176
3483.000000	0.005197
3482.000000	0.005219
3481.000000	0.005244
3480.000000	0.005265
3479.000000	0.005280
3478.000000	0.005292
3477.000000	0.005308
3476.000000	0.005329
3475.000000	0.005350
3474.000000	0.005366
3473.000000	0.005380
3472.000000	0.005396
3471.000000	0.005419
3470.000000	0.005443
3469.000000	0.005462
3468.000000	0.005477
3467.000000	0.005496
3466.000000	0.005527
3465.000000	0.005567
3464.000000	0.005603
3463.000000	0.005625
3462.000000	0.005633
3461.000000	0.005639
3460.000000	0.005653
3459.000000	0.005674
3458.000000	0.005696
3457.000000	0.005716
3456.000000	0.005735
3455.000000	0.005753
3454.000000	0.005771
3453.000000	0.005787
3452.000000	0.005803
3451.000000	0.005822
3450.000000	0.005847
3449.000000	0.005880
3448.000000	0.005919
3447.000000	0.005955
3446.000000	0.005983
3445.000000	0.006001
3444.000000	0.006015
3443.000000	0.006030
3442.000000	0.006049
3441.000000	0.006070
3440.000000	0.006091
3439.000000	0.006113
3438.000000	0.006138
3437.000000	0.006166
3436.000000	0.006195
3435.000000	0.006218
3434.000000	0.006232
3433.000000	0.006239
3432.000000	0.006246
3431.000000	0.006255
3430.000000	0.006272
3429.000000	0.006300
3428.000000	0.006335
3427.000000	0.006371
3426.000000	0.006398
3425.000000	0.006413
3424.000000	0.006420
3423.000000	0.006429
3422.000000	0.006447
3421.000000	0.006472
3420.000000	0.006495
3419.000000	0.006511
3418.000000	0.006526
3417.000000	0.006548
3416.000000	0.006580
3415.000000	0.006617
3414.000000	0.006653
3413.000000	0.006684
3412.000000	0.006709
3411.000000	0.006729
3410.000000	0.006742
3409.000000	0.006750
3408.000000	0.006752
3407.000000	0.006752
3406.000000	0.006753
3405.000000	0.006760
3404.000000	0.006782
3403.000000	0.006820
3402.000000	0.006872
3401.000000	0.006925
3400.000000	0.006966
3399.000000	0.006988
3398.000000	0.006991
3397.000000	0.006981
3396.000000	0.006969
3395.000000	0.006963
3394.000000	0.006966
3393.000000	0.006975
3392.000000	0.006980
3391.000000	0.006979
3390.000000	0.006978
3389.000000	0.006984
3388.000000	0.006997
3387.000000	0.007013
3386.000000	0.007030
3385.000000	0.007049
3384.000000	0.007069
3383.000000	0.007080
3382.000000	0.007074
3381.000000	0.007054
3380.000000	0.007033
3379.000000	0.007023
3378.000000	0.007029
3377.000000	0.007050
3376.000000	0.007079
3375.000000	0.007112
3374.000000	0.007145
3373.000000	0.007179
3372.000000	0.007208
3371.000000	0.007230
3370.000000	0.007249
3369.000000	0.007268
3368.000000	0.007289
3367.000000	0.007309
3366.000000	0.007325
3365.000000	0.007338
3364.000000	0.007345
3363.000000	0.007343
3362.000000	0.007337
3361.000000	0.007337
3360.000000	0.007347
3359.000000	0.007362
3358.000000	0.007372
3357.000000	0.007378
3356.000000	0.007386
3355.000000	0.007403
3354.000000	0.007428
3353.000000	0.007456
3352.000000	0.007479
3351.000000	0.007491
3350.000000	0.007496
3349.000000	0.007505
3348.000000	0.007530
3347.000000	0.007567
3346.000000	0.007597
3345.000000	0.007609
3344.000000	0.007609
3343.000000	0.007613
3342.000000	0.007632
3341.000000	0.007667
3340.000000	0.007706
3339.000000	0.007738
3338.000000	0.007755
3337.000000	0.007755
3336.000000	0.007743
3335.000000	0.007725
3334.000000	0.007709
3333.000000	0.007699
3332.000000	0.007694
3331.000000	0.007691
3330.000000	0.007688
3329.000000	0.007692
3328.000000	0.007712
3327.000000	0.007750
3326.000000	0.007798
3325.000000	0.007842
3324.000000	0.007872
3323.000000	0.007886
3322.000000	0.007883
3321.000000	0.007863
3320.000000	0.007833
3319.000000	0.007806
3318.000000	0.007792
3317.000000	0.007797
3316.000000	0.007815
3315.000000	0.007844
3314.000000	0.007878
3313.000000	0.007911
3312.000000	0.007933
3311.000000	0.007934
3310.000000	0.007918
3309.000000	0.007895
3308.000000	0.007875
3307.000000	0.007868
3306.000000	0.007878
3305.000000	0.007901
3304.000000	0.007929
3303.000000	0.007948
3302.000000	0.007952
3301.000000	0.007945
3300.000000	0.007940
3299.000000	0.007944
3298.000000	0.007955
3297.000000	0.007966
3296.000000	0.007971
3295.000000	0.007974
3294.000000	0.007979
3293.000000	0.007988
3292.000000	0.007990
3291.000000	0.007980
3290.000000	0.007962
3289.000000	0.007950
3288.000000	0.007952
3287.000000	0.007968
3286.000000	0.007990
3285.000000	0.008010
3284.000000	0.008018
3283.000000	0.008004
3282.000000	0.007969
3281.000000	0.007928
3280.000000	0.007900
3279.000000	0.007899
3278.000000	0.007918
3277.000000	0.007940
3276.000000	0.007949
3275.000000	0.007941
3274.000000	0.007923
3273.000000	0.007901
3272.000000	0.007879
3271.000000	0.007854
3270.000000	0.007823
3269.000000	0.007793
3268.000000	0.007775
3267.000000	0.007779
3266.000000	0.007801
3265.000000	0.007825
3264.000000	0.007835
3263.000000	0.007830
3262.000000	0.007819
3261.000000	0.007809
3260.000000	0.007797
3259.000000	0.007778
3258.000000	0.007751
3257.000000	0.007723
3256.000000	0.007700
3255.000000	0.007682
3254.000000	0.007669
3253.000000	0.007658
3252.000000	0.007646
3251.000000	0.007633
3250.000000	0.007625
3249.000000	0.007627
3248.000000	0.007637
3247.000000	0.007645
3246.000000	0.007642
3245.000000	0.007633
3244.000000	0.007626
3243.000000	0.007627
3242.000000	0.007627
3241.000000	0.007620
3240.000000	0.007604
3239.000000	0.007585
3238.000000	0.007569
3237.000000	0.007559
3236.000000	0.007553
3235.000000	0.007545
3234.000000	0.007533
3233.000000	0.007517
3232.000000	0.007498
3231.000000	0.007476
3230.000000	0.007448
3229.000000	0.007418
3228.000000	0.007386
3227.000000	0.007350
3226.000000	0.007307
3225.000000	0.007263
3224.000000	0.007237
3223.000000	0.007237
3222.000000	0.007257
3221.000000	0.007278
3220.000000	0.007289
3219.000000	0.007290
3218.000000	0.007280
3217.000000	0.007258
3216.000000	0.007227
3215.000000	0.007197
3214.000000	0.007179
3213.000000	0.007175
3212.000000	0.007179
3211.000000	0.007181
3210.000000	0.007174
3209.000000	0.007160
3208.000000	0.007145
3207.000000	0.007134
3206.000000	0.007128
3205.000000	0.007122
3204.000000	0.007112
3203.000000	0.007101
3202.000000	0.007088
3201.000000	0.007070
3200.000000	0.007047
3199.000000	0.007021
3198.000000	0.006997
3197.000000	0.006977
3196.000000	0.006963
3195.000000	0.006955
3194.000000	0.006948
3193.000000	0.006938
3192.000000	0.006927
3191.000000	0.006920
3190.000000	0.006919
3189.000000	0.006915
3188.000000	0.006901
3187.000000	0.006877
3186.000000	0.006850
3185.000000	0.006827
3184.000000	0.006808
3183.000000	0.006791
3182.000000	0.006771
3181.000000	0.006751
3180.000000	0.006737
3179.000000	0.006735
3178.000000	0.006741
3177.000000	0.006738
3176.000000	0.006719
3175.000000	0.006689
3174.000000	0.006663
3173.000000	0.006646
3172.000000	0.006630
3171.000000	0.006606
3170.000000	0.006574
3169.000000	0.006540
3168.000000	0.006513
3167.000000	0.006499
3166.000000	0.006497
3165.000000	0.006495
3164.000000	0.006481
3163.000000	0.006452
3162.000000	0.006417
3161.000000	0.006384
3160.000000	0.006355
3159.000000	0.006327
3158.000000	0.006304
3157.000000	0.006289
3156.000000	0.006279
3155.000000	0.006266
3154.000000	0.006248
3153.000000	0.006227
3152.000000	0.006203
3151.000000	0.006172
3150.000000	0.006138
3149.000000	0.006114
3148.000000	0.006106
3147.000000	0.006108
3146.000000	0.006106
3145.000000	0.006098
3144.000000	0.006090
3143.000000	0.006086
3142.000000	0.006078
3141.000000	0.006060
3140.000000	0.006034
3139.000000	0.006010
3138.000000	0.005989
3137.000000	0.005967
3136.000000	0.005940
3135.000000	0.005913
3134.000000	0.005892
3133.000000	0.005879
3132.000000	0.005871
3131.000000	0.005855
3130.000000	0.005831
3129.000000	0.005807
3128.000000	0.005795
3127.000000	0.005797
3126.000000	0.005806
3125.000000	0.005808
3124.000000	0.005798
3123.000000	0.005778
3122.000000	0.005756
3121.000000	0.005738
3120.000000	0.005732
3119.000000	0.005735
3118.000000	0.005738
3117.000000	0.005723
3116.000000	0.005686
3115.000000	0.005639
3114.000000	0.005600
3113.000000	0.005579
3112.000000	0.005578
3111.000000	0.005591
3110.000000	0.005607
3109.000000	0.005617
3108.000000	0.005620
3107.000000	0.005623
3106.000000	0.005630
3105.000000	0.005631
3104.000000	0.005613
3103.000000	0.005573
3102.000000	0.005525
3101.000000	0.005493
3100.000000	0.005491
3099.000000	0.005511
3098.000000	0.005533
3097.000000	0.005543
3096.000000	0.005534
3095.000000	0.005512
3094.000000	0.005483
3093.000000	0.005458
3092.000000	0.005444
3091.000000	0.005447
3090.000000	0.005462
3089.000000	0.005480
3088.000000	0.005491
3087.000000	0.005494
3086.000000	0.005489
3085.000000	0.005474
3084.000000	0.005449
3083.000000	0.005419
3082.000000	0.005392
3081.000000	0.005375
3080.000000	0.005366
3079.000000	0.005360
3078.000000	0.005353
3077.000000	0.005343
3076.000000	0.005332
3075.000000	0.005325
3074.000000	0.005320
3073.000000	0.005314
3072.000000	0.005301
3071.000000	0.005280
3070.000000	0.005255
3069.000000	0.005231
3068.000000	0.005211
3067.000000	0.005201
3066.000000	0.005199
3065.000000	0.005205
3064.000000	0.005215
3063.000000	0.005226
3062.000000	0.005235
3061.000000	0.005237
3060.000000	0.005228
3059.000000	0.005210
3058.000000	0.005187
3057.000000	0.005163
3056.000000	0.005137
3055.000000	0.005110
3054.000000	0.005080
3053.000000	0.005048
3052.000000	0.005019
3051.000000	0.005003
3050.000000	0.005009
3049.000000	0.005029
3048.000000	0.005043
3047.000000	0.005031
3046.000000	0.004997
3045.000000	0.004954
3044.000000	0.004920
3043.000000	0.004903
3042.000000	0.004900
3041.000000	0.004908
3040.000000	0.004916
3039.000000	0.004919
3038.000000	0.004917
3037.000000	0.004917
3036.000000	0.004923
3035.000000	0.004934
3034.000000	0.004940
3033.000000	0.004934
3032.000000	0.004910
3031.000000	0.004871
3030.000000	0.004825
3029.000000	0.004784
3028.000000	0.004759
3027.000000	0.004747
3026.000000	0.004744
3025.000000	0.004743
3024.000000	0.004739
3023.000000	0.004732
3022.000000	0.004724
3021.000000	0.004717
3020.000000	0.004710
3019.000000	0.004700
3018.000000	0.004686
3017.000000	0.004669
3016.000000	0.004650
3015.000000	0.004631
3014.000000	0.004611
3013.000000	0.004596
3012.000000	0.004595
3011.000000	0.004614
3010.000000	0.004645
3009.000000	0.004675
3008.000000	0.004692
3007.000000	0.004694
3006.000000	0.004687
3005.000000	0.004674
3004.000000	0.004657
3003.000000	0.004641
3002.000000	0.004631
3001.000000	0.004625
3000.000000	0.004613
2999.000000	0.004592
2998.000000	0.004572
2997.000000	0.004566
2996.000000	0.004573
2995.000000	0.004583
2994.000000	0.004589
2993.000000	0.004594
2992.000000	0.004599
2991.000000	0.004603
2990.000000	0.004602
2989.000000	0.004603
2988.000000	0.004614
2987.000000	0.004633
2986.000000	0.004652
2985.000000	0.004667
2984.000000	0.004682
2983.000000	0.004704
2982.000000	0.004733
2981.000000	0.004764
2980.000000	0.004793
2979.000000	0.004820
2978.000000	0.004850
2977.000000	0.004882
2976.000000	0.004910
2975.000000	0.004934
2974.000000	0.004958
2973.000000	0.004988
2972.000000	0.005026
2971.000000	0.005070
2970.000000	0.005118
2969.000000	0.005169
2968.000000	0.005219
2967.000000	0.005268
2966.000000	0.005313
2965.000000	0.005352
2964.000000	0.005382
2963.000000	0.005399
2962.000000	0.005402
2961.000000	0.005399
2960.000000	0.005406
2959.000000	0.005436
2958.000000	0.005489
2957.000000	0.005553
2956.000000	0.005616
2955.000000	0.005667
2954.000000	0.005698
2953.000000	0.005708
2952.000000	0.005704
2951.000000	0.005698
2950.000000	0.005701
2949.000000	0.005713
2948.000000	0.005733
2947.000000	0.005758
2946.000000	0.005790
2945.000000	0.005821
2944.000000	0.005841
2943.000000	0.005845
2942.000000	0.005846
2941.000000	0.005860
2940.000000	0.005894
2939.000000	0.005943
2938.000000	0.005996
2937.000000	0.006046
2936.000000	0.006093
2935.000000	0.006140
2934.000000	0.006188
2933.000000	0.006236
2932.000000	0.006278
2931.000000	0.006310
2930.000000	0.006333
2929.000000	0.006353
2928.000000	0.006379
2927.000000	0.006411
2926.000000	0.006445
2925.000000	0.006477
2924.000000	0.006501
2923.000000	0.006517
2922.000000	0.006526
2921.000000	0.006536
2920.000000	0.006551
2919.000000	0.006570
2918.000000	0.006584
2917.000000	0.006580
2916.000000	0.006556
2915.000000	0.006513
2914.000000	0.006457
2913.000000	0.006391
2912.000000	0.006320
2911.000000	0.006252
2910.000000	0.006198
2909.000000	0.006162
2908.000000	0.006140
2907.000000	0.006122
2906.000000	0.006103
2905.000000	0.006081
2904.000000	0.006058
2903.000000	0.006036
2902.000000	0.006017
2901.000000	0.005997
2900.000000	0.005969
2899.000000	0.005930
2898.000000	0.005884
2897.000000	0.005840
2896.000000	0.005806
2895.000000	0.005788
2894.000000	0.005784
2893.000000	0.005785
2892.000000	0.005776
2891.000000	0.005750
2890.000000	0.005713
2889.000000	0.005679
2888.000000	0.005660
2887.000000	0.005655
2886.000000	0.005655
2885.000000	0.005650
2884.000000	0.005634
2883.000000	0.005604
2882.000000	0.005568
2881.000000	0.005541
2880.000000	0.005536
2879.000000	0.005553
2878.000000	0.005580
2877.000000	0.005598
2876.000000	0.005594
2875.000000	0.005570
2874.000000	0.005547
2873.000000	0.005540
2872.000000	0.005550
2871.000000	0.005562
2870.000000	0.005564
2869.000000	0.005553
2868.000000	0.005532
2867.000000	0.005507
2866.000000	0.005479
2865.000000	0.005456
2864.000000	0.005446
2863.000000	0.005449
2862.000000	0.005460
2861.000000	0.005468
2860.000000	0.005467
2859.000000	0.005460
2858.000000	0.005456
2857.000000	0.005465
2856.000000	0.005483
2855.000000	0.005497
2854.000000	0.005498
2853.000000	0.005492
2852.000000	0.005487
2851.000000	0.005485
2850.000000	0.005479
2849.000000	0.005459
2848.000000	0.005421
2847.000000	0.005362
2846.000000	0.005287
2845.000000	0.005211
2844.000000	0.005149
2843.000000	0.005112
2842.000000	0.005094
2841.000000	0.005082
2840.000000	0.005067
2839.000000	0.005044
2838.000000	0.005012
2837.000000	0.004976
2836.000000	0.004936
2835.000000	0.004895
2834.000000	0.004855
2833.000000	0.004821
2832.000000	0.004798
2831.000000	0.004786
2830.000000	0.004780
2829.000000	0.004779
2828.000000	0.004782
2827.000000	0.004783
2826.000000	0.004772
2825.000000	0.004745
2824.000000	0.004709
2823.000000	0.004678
2822.000000	0.004660
2821.000000	0.004649
2820.000000	0.004638
2819.000000	0.004628
2818.000000	0.004625
2817.000000	0.004629
2816.000000	0.004629
2815.000000	0.004612
2814.000000	0.004584
2813.000000	0.004563
2812.000000	0.004559
2811.000000	0.004562
2810.000000	0.004556
2809.000000	0.004537
2808.000000	0.004517
2807.000000	0.004512
2806.000000	0.004521
2805.000000	0.004533
2804.000000	0.004534
2803.000000	0.004525
2802.000000	0.004516
2801.000000	0.004524
2800.000000	0.004551
2799.000000	0.004582
2798.000000	0.004600
2797.000000	0.004591
2796.000000	0.004561
2795.000000	0.004524
2794.000000	0.004497
2793.000000	0.004487
2792.000000	0.004490
2791.000000	0.004495
2790.000000	0.004493
2789.000000	0.004479
2788.000000	0.004456
2787.000000	0.004433
2786.000000	0.004418
2785.000000	0.004415
2784.000000	0.004413
2783.000000	0.004403
2782.000000	0.004381
2781.000000	0.004356
2780.000000	0.004339
2779.000000	0.004332
2778.000000	0.004329
2777.000000	0.004326
2776.000000	0.004325
2775.000000	0.004325
2774.000000	0.004330
2773.000000	0.004336
2772.000000	0.004340
2771.000000	0.004334
2770.000000	0.004317
2769.000000	0.004304
2768.000000	0.004309
2767.000000	0.004332
2766.000000	0.004357
2765.000000	0.004367
2764.000000	0.004360
2763.000000	0.004342
2762.000000	0.004324
2761.000000	0.004317
2760.000000	0.004323
2759.000000	0.004338
2758.000000	0.004347
2757.000000	0.004340
2756.000000	0.004323
2755.000000	0.004307
2754.000000	0.004301
2753.000000	0.004304
2752.000000	0.004316
2751.000000	0.004332
2750.000000	0.004346
2749.000000	0.004351
2748.000000	0.004346
2747.000000	0.004337
2746.000000	0.004333
2745.000000	0.004334
2744.000000	0.004341
2743.000000	0.004352
2742.000000	0.004363
2741.000000	0.004367
2740.000000	0.004354
2739.000000	0.004324
2738.000000	0.004284
2737.000000	0.004246
2736.000000	0.004224
2735.000000	0.004222
2734.000000	0.004240
2733.000000	0.004270
2732.000000	0.004297
2731.000000	0.004312
2730.000000	0.004313
2729.000000	0.004306
2728.000000	0.004298
2727.000000	0.004290
2726.000000	0.004281
2725.000000	0.004269
2724.000000	0.004257
2723.000000	0.004248
2722.000000	0.004244
2721.000000	0.004242
2720.000000	0.004234
2719.000000	0.004218
2718.000000	0.004195
2717.000000	0.004176
2716.000000	0.004165
2715.000000	0.004164
2714.000000	0.004170
2713.000000	0.004181
2712.000000	0.004193
2711.000000	0.004203
2710.000000	0.004207
2709.000000	0.004208
2708.000000	0.004214
2707.000000	0.004227
2706.000000	0.004242
2705.000000	0.004248
2704.000000	0.004241
2703.000000	0.004221
2702.000000	0.004196
2701.000000	0.004175
2700.000000	0.004159
2699.000000	0.004147
2698.000000	0.004136
2697.000000	0.004128
2696.000000	0.004129
2695.000000	0.004141
2694.000000	0.004153
2693.000000	0.004156
2692.000000	0.004150
2691.000000	0.004147
2690.000000	0.004156
2689.000000	0.004170
2688.000000	0.004178
2687.000000	0.004173
2686.000000	0.004162
2685.000000	0.004150
2684.000000	0.004139
2683.000000	0.004128
2682.000000	0.004118
2681.000000	0.004112
2680.000000	0.004113
2679.000000	0.004120
2678.000000	0.004128
2677.000000	0.004134
2676.000000	0.004130
2675.000000	0.004111
2674.000000	0.004080
2673.000000	0.004048
2672.000000	0.004028
2671.000000	0.004024
2670.000000	0.004036
2669.000000	0.004057
2668.000000	0.004079
2667.000000	0.004096
2666.000000	0.004103
2665.000000	0.004104
2664.000000	0.004101
2663.000000	0.004099
2662.000000	0.004099
2661.000000	0.004103
2660.000000	0.004107
2659.000000	0.004106
2658.000000	0.004101
2657.000000	0.004095
2656.000000	0.004089
2655.000000	0.004083
2654.000000	0.004075
2653.000000	0.004069
2652.000000	0.004068
2651.000000	0.004070
2650.000000	0.004068
2649.000000	0.004057
2648.000000	0.004040
2647.000000	0.004022
2646.000000	0.004006
2645.000000	0.003993
2644.000000	0.003978
2643.000000	0.003962
2642.000000	0.003945
2641.000000	0.003934
2640.000000	0.003933
2639.000000	0.003940
2638.000000	0.003948
2637.000000	0.003949
2636.000000	0.003940
2635.000000	0.003924
2634.000000	0.003911
2633.000000	0.003911
2632.000000	0.003922
2631.000000	0.003933
2630.000000	0.003928
2629.000000	0.003901
2628.000000	0.003861
2627.000000	0.003822
2626.000000	0.003791
2625.000000	0.003768
2624.000000	0.003749
2623.000000	0.003729
2622.000000	0.003709
2621.000000	0.003691
2620.000000	0.003681
2619.000000	0.003676
2618.000000	0.003670
2617.000000	0.003662
2616.000000	0.003660
2615.000000	0.003663
2614.000000	0.003661
2613.000000	0.003643
2612.000000	0.003615
2611.000000	0.003595
2610.000000	0.003595
2609.000000	0.003607
2608.000000	0.003611
2607.000000	0.003605
2606.000000	0.003600
2605.000000	0.003604
2604.000000	0.003616
2603.000000	0.003624
2602.000000	0.003623
2601.000000	0.003615
2600.000000	0.003598
2599.000000	0.003563
2598.000000	0.003512
2597.000000	0.003463
2596.000000	0.003433
2595.000000	0.003427
2594.000000	0.003437
2593.000000	0.003459
2592.000000	0.003490
2591.000000	0.003526
2590.000000	0.003556
2589.000000	0.003578
2588.000000	0.003591
2587.000000	0.003596
2586.000000	0.003591
2585.000000	0.003572
2584.000000	0.003542
2583.000000	0.003504
2582.000000	0.003464
2581.000000	0.003429
2580.000000	0.003407
2579.000000	0.003409
2578.000000	0.003436
2577.000000	0.003478
2576.000000	0.003516
2575.000000	0.003522
2574.000000	0.003487
2573.000000	0.003427
2572.000000	0.003378
2571.000000	0.003357
2570.000000	0.003360
2569.000000	0.003372
2568.000000	0.003387
2567.000000	0.003404
2566.000000	0.003416
2565.000000	0.003415
2564.000000	0.003406
2563.000000	0.003401
2562.000000	0.003403
2561.000000	0.003406
2560.000000	0.003401
2559.000000	0.003382
2558.000000	0.003350
2557.000000	0.003313
2556.000000	0.003288
2555.000000	0.003288
2554.000000	0.003303
2553.000000	0.003312
2552.000000	0.003297
2551.000000	0.003268
2550.000000	0.003246
2549.000000	0.003244
2548.000000	0.003264
2547.000000	0.003292
2546.000000	0.003316
2545.000000	0.003324
2544.000000	0.003307
2543.000000	0.003266
2542.000000	0.003224
2541.000000	0.003217
2540.000000	0.003260
2539.000000	0.003327
2538.000000	0.003368
2537.000000	0.003354
2536.000000	0.003306
2535.000000	0.003269
2534.000000	0.003265
2533.000000	0.003284
2532.000000	0.003301
2531.000000	0.003302
2530.000000	0.003289
2529.000000	0.003265
2528.000000	0.003242
2527.000000	0.003232
2526.000000	0.003243
2525.000000	0.003269
2524.000000	0.003296
2523.000000	0.003311
2522.000000	0.003313
2521.000000	0.003314
2520.000000	0.003319
2519.000000	0.003322
2518.000000	0.003314
2517.000000	0.003296
2516.000000	0.003280
2515.000000	0.003274
2514.000000	0.003270
2513.000000	0.003257
2512.000000	0.003234
2511.000000	0.003211
2510.000000	0.003200
2509.000000	0.003203
2508.000000	0.003214
2507.000000	0.003218
2506.000000	0.003203
2505.000000	0.003173
2504.000000	0.003154
2503.000000	0.003169
2502.000000	0.003215
2501.000000	0.003265
2500.000000	0.003295
2499.000000	0.003296
2498.000000	0.003269
2497.000000	0.003224
2496.000000	0.003183
2495.000000	0.003170
2494.000000	0.003190
2493.000000	0.003216
2492.000000	0.003222
2491.000000	0.003209
2490.000000	0.003196
2489.000000	0.003194
2488.000000	0.003196
2487.000000	0.003198
2486.000000	0.003206
2485.000000	0.003219
2484.000000	0.003231
2483.000000	0.003237
2482.000000	0.003244
2481.000000	0.003253
2480.000000	0.003251
2479.000000	0.003226
2478.000000	0.003189
2477.000000	0.003161
2476.000000	0.003154
2475.000000	0.003164
2474.000000	0.003180
2473.000000	0.003197
2472.000000	0.003216
2471.000000	0.003234
2470.000000	0.003250
2469.000000	0.003261
2468.000000	0.003270
2467.000000	0.003276
2466.000000	0.003275
2465.000000	0.003256
2464.000000	0.003214
2463.000000	0.003163
2462.000000	0.003132
2461.000000	0.003140
2460.000000	0.003173
2459.000000	0.003192
2458.000000	0.003174
2457.000000	0.003130
2456.000000	0.003089
2455.000000	0.003071
2454.000000	0.003077
2453.000000	0.003100
2452.000000	0.003133
2451.000000	0.003167
2450.000000	0.003194
2449.000000	0.003211
2448.000000	0.003225
2447.000000	0.003243
2446.000000	0.003266
2445.000000	0.003283
2444.000000	0.003280
2443.000000	0.003258
2442.000000	0.003230
2441.000000	0.003210
2440.000000	0.003209
2439.000000	0.003220
2438.000000	0.003225
2437.000000	0.003208
2436.000000	0.003168
2435.000000	0.003123
2434.000000	0.003091
2433.000000	0.003082
2432.000000	0.003087
2431.000000	0.003092
2430.000000	0.003091
2429.000000	0.003079
2428.000000	0.003058
2427.000000	0.003040
2426.000000	0.003041
2425.000000	0.003066
2424.000000	0.003098
2423.000000	0.003115
2422.000000	0.003108
2421.000000	0.003095
2420.000000	0.003093
2419.000000	0.003100
2418.000000	0.003103
2417.000000	0.003100
2416.000000	0.003106
2415.000000	0.003129
2414.000000	0.003162
2413.000000	0.003185
2412.000000	0.003186
2411.000000	0.003169
2410.000000	0.003149
2409.000000	0.003136
2408.000000	0.003134
2407.000000	0.003138
2406.000000	0.003141
2405.000000	0.003143
2404.000000	0.003137
2403.000000	0.003114
2402.000000	0.003071
2401.000000	0.003022
2400.000000	0.002992
2399.000000	0.002995
2398.000000	0.003023
2397.000000	0.003055
2396.000000	0.003077
2395.000000	0.003082
2394.000000	0.003075
2393.000000	0.003063
2392.000000	0.003051
2391.000000	0.003042
2390.000000	0.003026
2389.000000	0.002997
2388.000000	0.002968
2387.000000	0.002961
2386.000000	0.002986
2385.000000	0.003026
2384.000000	0.003055
2383.000000	0.003058
2382.000000	0.003042
2381.000000	0.003019
2380.000000	0.003001
2379.000000	0.002993
2378.000000	0.002992
2377.000000	0.002983
2376.000000	0.002950
2375.000000	0.002898
2374.000000	0.002846
2373.000000	0.002816
2372.000000	0.002811
2371.000000	0.002828
2370.000000	0.002865
2369.000000	0.002918
2368.000000	0.002968
2367.000000	0.002996
2366.000000	0.003007
2365.000000	0.003019
2364.000000	0.003036
2363.000000	0.003041
2362.000000	0.003028
2361.000000	0.003004
2360.000000	0.002982
2359.000000	0.002969
2358.000000	0.002968
2357.000000	0.002992
2356.000000	0.003034
2355.000000	0.003067
2354.000000	0.003075
2353.000000	0.003067
2352.000000	0.003060
2351.000000	0.003055
2350.000000	0.003060
2349.000000	0.003077
2348.000000	0.003095
2347.000000	0.003107
2346.000000	0.003113
2345.000000	0.003116
2344.000000	0.003116
2343.000000	0.003129
2342.000000	0.003153
2341.000000	0.003164
2340.000000	0.003149
2339.000000	0.003113
2338.000000	0.003080
2337.000000	0.003072
2336.000000	0.003101
2335.000000	0.003153
2334.000000	0.003201
2333.000000	0.003221
2332.000000	0.003207
2331.000000	0.003173
2330.000000	0.003146
2329.000000	0.003146
2328.000000	0.003180
2327.000000	0.003252
2326.000000	0.003346
2325.000000	0.003431
2324.000000	0.003466
2323.000000	0.003446
2322.000000	0.003406
2321.000000	0.003380
2320.000000	0.003367
2319.000000	0.003345
2318.000000	0.003302
2317.000000	0.003246
2316.000000	0.003189
2315.000000	0.003133
2314.000000	0.003088
2313.000000	0.003067
2312.000000	0.003070
2311.000000	0.003090
2310.000000	0.003117
2309.000000	0.003143
2308.000000	0.003158
2307.000000	0.003153
2306.000000	0.003135
2305.000000	0.003127
2304.000000	0.003146
2303.000000	0.003190
2302.000000	0.003246
2301.000000	0.003294
2300.000000	0.003312
2299.000000	0.003289
2298.000000	0.003243
2297.000000	0.003212
2296.000000	0.003218
2295.000000	0.003249
2294.000000	0.003276
2293.000000	0.003289
2292.000000	0.003291
2291.000000	0.003288
2290.000000	0.003280
2289.000000	0.003276
2288.000000	0.003282
2287.000000	0.003296
2286.000000	0.003306
2285.000000	0.003311
2284.000000	0.003313
2283.000000	0.003313
2282.000000	0.003308
2281.000000	0.003299
2280.000000	0.003300
2279.000000	0.003315
2278.000000	0.003331
2277.000000	0.003333
2276.000000	0.003319
2275.000000	0.003299
2274.000000	0.003294
2273.000000	0.003320
2272.000000	0.003370
2271.000000	0.003418
2270.000000	0.003435
2269.000000	0.003421
2268.000000	0.003396
2267.000000	0.003383
2266.000000	0.003374
2265.000000	0.003345
2264.000000	0.003281
2263.000000	0.003190
2262.000000	0.003106
2261.000000	0.003057
2260.000000	0.003038
2259.000000	0.003024
2258.000000	0.003005
2257.000000	0.002998
2256.000000	0.003028
2255.000000	0.003081
2254.000000	0.003120
2253.000000	0.003113
2252.000000	0.003058
2251.000000	0.002975
2250.000000	0.002909
2249.000000	0.002908
2248.000000	0.002984
2247.000000	0.003087
2246.000000	0.003133
2245.000000	0.003093
2244.000000	0.003017
2243.000000	0.002978
2242.000000	0.002993
2241.000000	0.003023
2240.000000	0.003024
2239.000000	0.002991
2238.000000	0.002953
2237.000000	0.002942
2236.000000	0.002973
2235.000000	0.003033
2234.000000	0.003096
2233.000000	0.003142
2232.000000	0.003163
2231.000000	0.003162
2230.000000	0.003134
2229.000000	0.003084
2228.000000	0.003031
2227.000000	0.002999
2226.000000	0.002992
2225.000000	0.002986
2224.000000	0.002961
2223.000000	0.002940
2222.000000	0.002975
2221.000000	0.003090
2220.000000	0.003238
2219.000000	0.003329
2218.000000	0.003301
2217.000000	0.003162
2216.000000	0.002982
2215.000000	0.002842
2214.000000	0.002798
2213.000000	0.002848
2212.000000	0.002944
2211.000000	0.003030
2210.000000	0.003092
2209.000000	0.003142
2208.000000	0.003166
2207.000000	0.003119
2206.000000	0.002991
2205.000000	0.002859
2204.000000	0.002835
2203.000000	0.002948
2202.000000	0.003100
2201.000000	0.003160
2200.000000	0.003085
2199.000000	0.002950
2198.000000	0.002860
2197.000000	0.002865
2196.000000	0.002942
2195.000000	0.003035
2194.000000	0.003108
2193.000000	0.003154
2192.000000	0.003166
2191.000000	0.003121
2190.000000	0.003001
2189.000000	0.002832
2188.000000	0.002692
2187.000000	0.002664
2186.000000	0.002759
2185.000000	0.002899
2184.000000	0.002985
2183.000000	0.002979
2182.000000	0.002931
2181.000000	0.002907
2180.000000	0.002924
2179.000000	0.002935
2178.000000	0.002888
2177.000000	0.002784
2176.000000	0.002690
2175.000000	0.002701
2174.000000	0.002853
2173.000000	0.003074
2172.000000	0.003236
2171.000000	0.003268
2170.000000	0.003222
2169.000000	0.003211
2168.000000	0.003284
2167.000000	0.003374
2166.000000	0.003385
2165.000000	0.003305
2164.000000	0.003232
2163.000000	0.003272
2162.000000	0.003409
2161.000000	0.003466
2160.000000	0.003233
2159.000000	0.002669
2158.000000	0.001981
2157.000000	0.001457
2156.000000	0.001230
2155.000000	0.001267
2154.000000	0.001475
2153.000000	0.001755
2152.000000	0.002006
2151.000000	0.002157
2150.000000	0.002202
2149.000000	0.002166
2148.000000	0.002082
2147.000000	0.002012
2146.000000	0.002054
2145.000000	0.002262
2144.000000	0.002551
2143.000000	0.002737
2142.000000	0.002703
2141.000000	0.002498
2140.000000	0.002289
2139.000000	0.002206
2138.000000	0.002260
2137.000000	0.002361
2136.000000	0.002402
2135.000000	0.002342
2134.000000	0.002230
2133.000000	0.002146
2132.000000	0.002133
2131.000000	0.002179
2130.000000	0.002258
2129.000000	0.002355
2128.000000	0.002459
2127.000000	0.002564
2126.000000	0.002667
2125.000000	0.002768
2124.000000	0.002857
2123.000000	0.002914
2122.000000	0.002934
2121.000000	0.002927
2120.000000	0.002908
2119.000000	0.002889
2118.000000	0.002885
2117.000000	0.002915
2116.000000	0.002974
2115.000000	0.003037
2114.000000	0.003082
2113.000000	0.003118
2112.000000	0.003153
2111.000000	0.003178
2110.000000	0.003170
2109.000000	0.003124
2108.000000	0.003059
2107.000000	0.003004
2106.000000	0.002976
2105.000000	0.002978
2104.000000	0.002999
2103.000000	0.003020
2102.000000	0.003029
2101.000000	0.003027
2100.000000	0.003016
2099.000000	0.002992
2098.000000	0.002953
2097.000000	0.002909
2096.000000	0.002877
2095.000000	0.002852
2094.000000	0.002818
2093.000000	0.002766
2092.000000	0.002718
2091.000000	0.002713
2090.000000	0.002770
2089.000000	0.002864
2088.000000	0.002942
2087.000000	0.002967
2086.000000	0.002943
2085.000000	0.002889
2084.000000	0.002820
2083.000000	0.002756
2082.000000	0.002721
2081.000000	0.002733
2080.000000	0.002778
2079.000000	0.002833
2078.000000	0.002899
2077.000000	0.002974
2076.000000	0.003021
2075.000000	0.002992
2074.000000	0.002898
2073.000000	0.002813
2072.000000	0.002785
2071.000000	0.002780
2070.000000	0.002746
2069.000000	0.002692
2068.000000	0.002675
2067.000000	0.002714
2066.000000	0.002763
2065.000000	0.002769
2064.000000	0.002738
2063.000000	0.002714
2062.000000	0.002725
2061.000000	0.002744
2060.000000	0.002727
2059.000000	0.002666
2058.000000	0.002589
2057.000000	0.002517
2056.000000	0.002443
2055.000000	0.002383
2054.000000	0.002410
2053.000000	0.002583
2052.000000	0.002836
2051.000000	0.003002
2050.000000	0.002969
2049.000000	0.002789
2048.000000	0.002613
2047.000000	0.002525
2046.000000	0.002495
2045.000000	0.002473
2044.000000	0.002464
2043.000000	0.002495
2042.000000	0.002570
2041.000000	0.002666
2040.000000	0.002757
2039.000000	0.002817
2038.000000	0.002827
2037.000000	0.002765
2036.000000	0.002631
2035.000000	0.002484
2034.000000	0.002419
2033.000000	0.002484
2032.000000	0.002619
2031.000000	0.002716
2030.000000	0.002715
2029.000000	0.002611
2028.000000	0.002413
2027.000000	0.002175
2026.000000	0.002031
2025.000000	0.002086
2024.000000	0.002251
2023.000000	0.002303
2022.000000	0.002137
2021.000000	0.001886
2020.000000	0.001744
2019.000000	0.001753
2018.000000	0.001814
2017.000000	0.001841
2016.000000	0.001832
2015.000000	0.001830
2014.000000	0.001880
2013.000000	0.001997
2012.000000	0.002135
2011.000000	0.002227
2010.000000	0.002270
2009.000000	0.002321
2008.000000	0.002389
2007.000000	0.002405
2006.000000	0.002362
2005.000000	0.002373
2004.000000	0.002530
2003.000000	0.002774
2002.000000	0.002959
2001.000000	0.003008
2000.000000	0.002942
1999.000000	0.002806
1998.000000	0.002637
1997.000000	0.002481
1996.000000	0.002377
1995.000000	0.002315
1994.000000	0.002256
1993.000000	0.002196
1992.000000	0.002157
1991.000000	0.002139
1990.000000	0.002120
1989.000000	0.002106
1988.000000	0.002125
1987.000000	0.002180
1986.000000	0.002232
1985.000000	0.002255
1984.000000	0.002265
1983.000000	0.002286
1982.000000	0.002311
1981.000000	0.002293
1980.000000	0.002170
1979.000000	0.001928
1978.000000	0.001649
1977.000000	0.001471
1976.000000	0.001470
1975.000000	0.001610
1974.000000	0.001825
1973.000000	0.002072
1972.000000	0.002285
1971.000000	0.002362
1970.000000	0.002257
1969.000000	0.002056
1968.000000	0.001896
1967.000000	0.001841
1966.000000	0.001868
1965.000000	0.001953
1964.000000	0.002098
1963.000000	0.002274
1962.000000	0.002403
1961.000000	0.002424
1960.000000	0.002344
1959.000000	0.002226
1958.000000	0.002127
1957.000000	0.002068
1956.000000	0.002046
1955.000000	0.002056
1954.000000	0.002095
1953.000000	0.002155
1952.000000	0.002204
1951.000000	0.002188
1950.000000	0.002082
1949.000000	0.001925
1948.000000	0.001803
1947.000000	0.001787
1946.000000	0.001889
1945.000000	0.002068
1944.000000	0.002261
1943.000000	0.002412
1942.000000	0.002504
1941.000000	0.002545
1940.000000	0.002540
1939.000000	0.002483
1938.000000	0.002379
1937.000000	0.002266
1936.000000	0.002199
1935.000000	0.002195
1934.000000	0.002229
1933.000000	0.002272
1932.000000	0.002316
1931.000000	0.002367
1930.000000	0.002424
1929.000000	0.002475
1928.000000	0.002501
1927.000000	0.002491
1926.000000	0.002441
1925.000000	0.002360
1924.000000	0.002274
1923.000000	0.002209
1922.000000	0.002185
1921.000000	0.002203
1920.000000	0.002244
1919.000000	0.002285
1918.000000	0.002303
1917.000000	0.002295
1916.000000	0.002282
1915.000000	0.002306
1914.000000	0.002400
1913.000000	0.002545
1912.000000	0.002665
1911.000000	0.002695
1910.000000	0.002627
1909.000000	0.002511
1908.000000	0.002386
1907.000000	0.002266
1906.000000	0.002175
1905.000000	0.002155
1904.000000	0.002217
1903.000000	0.002312
1902.000000	0.002381
1901.000000	0.002396
1900.000000	0.002360
1899.000000	0.002293
1898.000000	0.002232
1897.000000	0.002209
1896.000000	0.002220
1895.000000	0.002224
1894.000000	0.002200
1893.000000	0.002171
1892.000000	0.002171
1891.000000	0.002200
1890.000000	0.002244
1889.000000	0.002297
1888.000000	0.002354
1887.000000	0.002405
1886.000000	0.002440
1885.000000	0.002454
1884.000000	0.002435
1883.000000	0.002372
1882.000000	0.002283
1881.000000	0.002213
1880.000000	0.002184
1879.000000	0.002180
1878.000000	0.002187
1877.000000	0.002206
1876.000000	0.002239
1875.000000	0.002259
1874.000000	0.002237
1873.000000	0.002179
1872.000000	0.002115
1871.000000	0.002071
1870.000000	0.002066
1869.000000	0.002112
1868.000000	0.002173
1867.000000	0.002177
1866.000000	0.002108
1865.000000	0.002029
1864.000000	0.002003
1863.000000	0.002040
1862.000000	0.002101
1861.000000	0.002151
1860.000000	0.002176
1859.000000	0.002169
1858.000000	0.002140
1857.000000	0.002114
1856.000000	0.002114
1855.000000	0.002137
1854.000000	0.002160
1853.000000	0.002169
1852.000000	0.002158
1851.000000	0.002129
1850.000000	0.002100
1849.000000	0.002091
1848.000000	0.002096
1847.000000	0.002092
1846.000000	0.002077
1845.000000	0.002080
1844.000000	0.002121
1843.000000	0.002155
1842.000000	0.002135
1841.000000	0.002088
1840.000000	0.002067
1839.000000	0.002092
1838.000000	0.002141
1837.000000	0.002179
1836.000000	0.002190
1835.000000	0.002177
1834.000000	0.002151
1833.000000	0.002118
1832.000000	0.002083
1831.000000	0.002059
1830.000000	0.002063
1829.000000	0.002079
1828.000000	0.002075
1827.000000	0.002052
1826.000000	0.002040
1825.000000	0.002054
1824.000000	0.002078
1823.000000	0.002079
1822.000000	0.002050
1821.000000	0.002014
1820.000000	0.001987
1819.000000	0.001964
1818.000000	0.001933
1817.000000	0.001904
1816.000000	0.001897
1815.000000	0.001913
1814.000000	0.001937
1813.000000	0.001961
1812.000000	0.001982
1811.000000	0.001987
1810.000000	0.001964
1809.000000	0.001933
1808.000000	0.001920
1807.000000	0.001918
1806.000000	0.001906
1805.000000	0.001884
1804.000000	0.001876
1803.000000	0.001889
1802.000000	0.001917
1801.000000	0.001955
1800.000000	0.001999
1799.000000	0.002030
1798.000000	0.002032
1797.000000	0.002014
1796.000000	0.001988
1795.000000	0.001957
1794.000000	0.001930
1793.000000	0.001937
1792.000000	0.001995
1791.000000	0.002046
1790.000000	0.002032
1789.000000	0.001980
1788.000000	0.001949
1787.000000	0.001956
1786.000000	0.001980
1785.000000	0.001999
1784.000000	0.002005
1783.000000	0.001995
1782.000000	0.001977
1781.000000	0.001954
1780.000000	0.001924
1779.000000	0.001885
1778.000000	0.001844
1777.000000	0.001809
1776.000000	0.001776
1775.000000	0.001740
1774.000000	0.001720
1773.000000	0.001746
1772.000000	0.001825
1771.000000	0.001900
1770.000000	0.001931
1769.000000	0.001942
1768.000000	0.001954
1767.000000	0.001947
1766.000000	0.001900
1765.000000	0.001828
1764.000000	0.001774
1763.000000	0.001769
1762.000000	0.001815
1761.000000	0.001871
1760.000000	0.001902
1759.000000	0.001921
1758.000000	0.001956
1757.000000	0.002017
1756.000000	0.002081
1755.000000	0.002130
1754.000000	0.002177
1753.000000	0.002234
1752.000000	0.002292
1751.000000	0.002339
1750.000000	0.002381
1749.000000	0.002436
1748.000000	0.002496
1747.000000	0.002538
1746.000000	0.002555
1745.000000	0.002564
1744.000000	0.002579
1743.000000	0.002589
1742.000000	0.002582
1741.000000	0.002570
1740.000000	0.002574
1739.000000	0.002575
1738.000000	0.002527
1737.000000	0.002436
1736.000000	0.002347
1735.000000	0.002292
1734.000000	0.002298
1733.000000	0.002324
1732.000000	0.002306
1731.000000	0.002275
1730.000000	0.002264
1729.000000	0.002271
1728.000000	0.002278
1727.000000	0.002270
1726.000000	0.002243
1725.000000	0.002204
1724.000000	0.002172
1723.000000	0.002153
1722.000000	0.002127
1721.000000	0.002085
1720.000000	0.002044
1719.000000	0.002017
1718.000000	0.002003
1717.000000	0.002011
1716.000000	0.002053
1715.000000	0.002116
1714.000000	0.002175
1713.000000	0.002217
1712.000000	0.002250
1711.000000	0.002283
1710.000000	0.002318
1709.000000	0.002353
1708.000000	0.002393
1707.000000	0.002448
1706.000000	0.002516
1705.000000	0.002579
1704.000000	0.002608
1703.000000	0.002612
1702.000000	0.002628
1701.000000	0.002685
1700.000000	0.002788
1699.000000	0.002859
1698.000000	0.002880
1697.000000	0.002967
1696.000000	0.003165
1695.000000	0.003360
1694.000000	0.003453
1693.000000	0.003509
1692.000000	0.003608
1691.000000	0.003744
1690.000000	0.003878
1689.000000	0.003984
1688.000000	0.004055
1687.000000	0.004111
1686.000000	0.004184
1685.000000	0.004321
1684.000000	0.004564
1683.000000	0.004772
1682.000000	0.004868
1681.000000	0.004964
1680.000000	0.005084
1679.000000	0.005195
1678.000000	0.005300
1677.000000	0.005427
1676.000000	0.005579
1675.000000	0.005717
1674.000000	0.005818
1673.000000	0.005907
1672.000000	0.006026
1671.000000	0.006182
1670.000000	0.006368
1669.000000	0.006574
1668.000000	0.006753
1667.000000	0.006889
1666.000000	0.007011
1665.000000	0.007146
1664.000000	0.007298
1663.000000	0.007445
1662.000000	0.007569
1661.000000	0.007670
1660.000000	0.007764
1659.000000	0.007863
1658.000000	0.007974
1657.000000	0.008106
1656.000000	0.008250
1655.000000	0.008392
1654.000000	0.008480
1653.000000	0.008565
1652.000000	0.008618
1651.000000	0.008610
1650.000000	0.008648
1649.000000	0.008749
1648.000000	0.008866
1647.000000	0.008952
1646.000000	0.008968
1645.000000	0.008938
1644.000000	0.008931
1643.000000	0.008966
1642.000000	0.009019
1641.000000	0.009065
1640.000000	0.009098
1639.000000	0.009127
1638.000000	0.009158
1637.000000	0.009175
1636.000000	0.009155
1635.000000	0.009094
1634.000000	0.009017
1633.000000	0.008976
1632.000000	0.008987
1631.000000	0.009011
1630.000000	0.009020
1629.000000	0.009015
1628.000000	0.008996
1627.000000	0.008950
1626.000000	0.008882
1625.000000	0.008813
1624.000000	0.008755
1623.000000	0.008705
1622.000000	0.008658
1621.000000	0.008621
1620.000000	0.008594
1619.000000	0.008570
1618.000000	0.008515
1617.000000	0.008420
1616.000000	0.008297
1615.000000	0.008165
1614.000000	0.008054
1613.000000	0.007974
1612.000000	0.007895
1611.000000	0.007789
1610.000000	0.007669
1609.000000	0.007552
1608.000000	0.007431
1607.000000	0.007300
1606.000000	0.007188
1605.000000	0.007114
1604.000000	0.007060
1603.000000	0.006997
1602.000000	0.006921
1601.000000	0.006839
1600.000000	0.006753
1599.000000	0.006660
1598.000000	0.006569
1597.000000	0.006488
1596.000000	0.006418
1595.000000	0.006355
1594.000000	0.006306
1593.000000	0.006270
1592.000000	0.006233
1591.000000	0.006183
1590.000000	0.006132
1589.000000	0.006089
1588.000000	0.006053
1587.000000	0.006016
1586.000000	0.005985
1585.000000	0.005968
1584.000000	0.005959
1583.000000	0.005954
1582.000000	0.005961
1581.000000	0.005981
1580.000000	0.005996
1579.000000	0.006004
1578.000000	0.006014
1577.000000	0.006017
1576.000000	0.005992
1575.000000	0.005933
1574.000000	0.005878
1573.000000	0.005864
1572.000000	0.005882
1571.000000	0.005897
1570.000000	0.005907
1569.000000	0.005920
1568.000000	0.005916
1567.000000	0.005901
1566.000000	0.005906
1565.000000	0.005938
1564.000000	0.005970
1563.000000	0.006018
1562.000000	0.006095
1561.000000	0.006217
1560.000000	0.006261
1559.000000	0.006243
1558.000000	0.006253
1557.000000	0.006250
1556.000000	0.006274
1555.000000	0.006324
1554.000000	0.006364
1553.000000	0.006397
1552.000000	0.006444
1551.000000	0.006517
1550.000000	0.006593
1549.000000	0.006646
1548.000000	0.006677
1547.000000	0.006710
1546.000000	0.006758
1545.000000	0.006815
1544.000000	0.006869
1543.000000	0.006904
1542.000000	0.006910
1541.000000	0.006891
1540.000000	0.006879
1539.000000	0.006836
1538.000000	0.006741
1537.000000	0.006672
1536.000000	0.006662
1535.000000	0.006660
1534.000000	0.006617
1533.000000	0.006531
1532.000000	0.006440
1531.000000	0.006374
1530.000000	0.006338
1529.000000	0.006326
1528.000000	0.006326
1527.000000	0.006305
1526.000000	0.006237
1525.000000	0.006143
1524.000000	0.006070
1523.000000	0.006031
1522.000000	0.006002
1521.000000	0.005967
1520.000000	0.005928
1519.000000	0.005894
1518.000000	0.005868
1517.000000	0.005824
1516.000000	0.005755
1515.000000	0.005682
1514.000000	0.005631
1513.000000	0.005607
1512.000000	0.005589
1511.000000	0.005568
1510.000000	0.005527
1509.000000	0.005459
1508.000000	0.005333
1507.000000	0.005178
1506.000000	0.005027
1505.000000	0.004884
1504.000000	0.004795
1503.000000	0.004761
1502.000000	0.004742
1501.000000	0.004721
1500.000000	0.004702
1499.000000	0.004686
1498.000000	0.004649
1497.000000	0.004575
1496.000000	0.004489
1495.000000	0.004409
1494.000000	0.004330
1493.000000	0.004262
1492.000000	0.004220
1491.000000	0.004204
1490.000000	0.004206
1489.000000	0.004214
1488.000000	0.004231
1487.000000	0.004247
1486.000000	0.004254
1485.000000	0.004271
1484.000000	0.004306
1483.000000	0.004352
1482.000000	0.004392
1481.000000	0.004424
1480.000000	0.004459
1479.000000	0.004510
1478.000000	0.004574
1477.000000	0.004650
1476.000000	0.004737
1475.000000	0.004822
1474.000000	0.004896
1473.000000	0.004980
1472.000000	0.005085
1471.000000	0.005177
1470.000000	0.005243
1469.000000	0.005307
1468.000000	0.005380
1467.000000	0.005452
1466.000000	0.005514
1465.000000	0.005582
1464.000000	0.005668
1463.000000	0.005764
1462.000000	0.005856
1461.000000	0.005944
1460.000000	0.006028
1459.000000	0.006109
1458.000000	0.006176
1457.000000	0.006227
1456.000000	0.006255
1455.000000	0.006278
1454.000000	0.006335
1453.000000	0.006414
1452.000000	0.006485
1451.000000	0.006537
1450.000000	0.006576
1449.000000	0.006604
1448.000000	0.006622
1447.000000	0.006634
1446.000000	0.006651
1445.000000	0.006682
1444.000000	0.006719
1443.000000	0.006750
1442.000000	0.006765
1441.000000	0.006765
1440.000000	0.006762
1439.000000	0.006774
1438.000000	0.006801
1437.000000	0.006830
1436.000000	0.006857
1435.000000	0.006887
1434.000000	0.006924
1433.000000	0.006965
1432.000000	0.007006
1431.000000	0.007052
1430.000000	0.007100
1429.000000	0.007128
1428.000000	0.007125
1427.000000	0.007113
1426.000000	0.007123
1425.000000	0.007152
1424.000000	0.007177
1423.000000	0.007198
1422.000000	0.007231
1421.000000	0.007265
1420.000000	0.007259
1419.000000	0.007217
1418.000000	0.007186
1417.000000	0.007183
1416.000000	0.007195
1415.000000	0.007194
1414.000000	0.007167
1413.000000	0.007120
1412.000000	0.007069
1411.000000	0.007030
1410.000000	0.006998
1409.000000	0.006960
1408.000000	0.006918
1407.000000	0.006882
1406.000000	0.006855
1405.000000	0.006822
1404.000000	0.006774
1403.000000	0.006728
1402.000000	0.006707
1401.000000	0.006705
1400.000000	0.006700
1399.000000	0.006685
1398.000000	0.006666
1397.000000	0.006636
1396.000000	0.006578
1395.000000	0.006498
1394.000000	0.006428
1393.000000	0.006386
1392.000000	0.006367
1391.000000	0.006364
1390.000000	0.006366
1389.000000	0.006361
1388.000000	0.006336
1387.000000	0.006297
1386.000000	0.006269
1385.000000	0.006264
1384.000000	0.006276
1383.000000	0.006288
1382.000000	0.006302
1381.000000	0.006329
1380.000000	0.006376
1379.000000	0.006424
1378.000000	0.006452
1377.000000	0.006449
1376.000000	0.006416
1375.000000	0.006362
1374.000000	0.006299
1373.000000	0.006243
1372.000000	0.006198
1371.000000	0.006162
1370.000000	0.006124
1369.000000	0.006076
1368.000000	0.006020
1367.000000	0.005976
1366.000000	0.005960
1365.000000	0.005959
1364.000000	0.005944
1363.000000	0.005892
1362.000000	0.005815
1361.000000	0.005743
1360.000000	0.005692
1359.000000	0.005656
1358.000000	0.005620
1357.000000	0.005578
1356.000000	0.005533
1355.000000	0.005497
1354.000000	0.005474
1353.000000	0.005459
1352.000000	0.005439
1351.000000	0.005412
1350.000000	0.005388
1349.000000	0.005378
1348.000000	0.005381
1347.000000	0.005391
1346.000000	0.005409
1345.000000	0.005435
1344.000000	0.005465
1343.000000	0.005499
1342.000000	0.005540
1341.000000	0.005591
1340.000000	0.005643
1339.000000	0.005687
1338.000000	0.005720
1337.000000	0.005740
1336.000000	0.005749
1335.000000	0.005753
1334.000000	0.005765
1333.000000	0.005798
1332.000000	0.005848
1331.000000	0.005903
1330.000000	0.005959
1329.000000	0.006014
1328.000000	0.006071
1327.000000	0.006130
1326.000000	0.006194
1325.000000	0.006262
1324.000000	0.006326
1323.000000	0.006372
1322.000000	0.006394
1321.000000	0.006392
1320.000000	0.006372
1319.000000	0.006332
1318.000000	0.006264
1317.000000	0.006162
1316.000000	0.006037
1315.000000	0.005912
1314.000000	0.005800
1313.000000	0.005689
1312.000000	0.005561
1311.000000	0.005420
1310.000000	0.005292
1309.000000	0.005194
1308.000000	0.005119
1307.000000	0.005054
1306.000000	0.004994
1305.000000	0.004935
1304.000000	0.004867
1303.000000	0.004779
1302.000000	0.004682
1301.000000	0.004595
1300.000000	0.004533
1299.000000	0.004493
1298.000000	0.004459
1297.000000	0.004418
1296.000000	0.004371
1295.000000	0.004329
1294.000000	0.004297
1293.000000	0.004265
1292.000000	0.004223
1291.000000	0.004180
1290.000000	0.004153
1289.000000	0.004141
1288.000000	0.004125
1287.000000	0.004101
1286.000000	0.004084
1285.000000	0.004085
1284.000000	0.004094
1283.000000	0.004097
1282.000000	0.004093
1281.000000	0.004092
1280.000000	0.004091
1279.000000	0.004080
1278.000000	0.004056
1277.000000	0.004034
1276.000000	0.004028
1275.000000	0.004040
1274.000000	0.004058
1273.000000	0.004072
1272.000000	0.004075
1271.000000	0.004072
1270.000000	0.004071
1269.000000	0.004080
1268.000000	0.004104
1267.000000	0.004137
1266.000000	0.004171
1265.000000	0.004193
1264.000000	0.004202
1263.000000	0.004207
1262.000000	0.004218
1261.000000	0.004240
1260.000000	0.004267
1259.000000	0.004297
1258.000000	0.004328
1257.000000	0.004353
1256.000000	0.004372
1255.000000	0.004392
1254.000000	0.004421
1253.000000	0.004457
1252.000000	0.004485
1251.000000	0.004499
1250.000000	0.004507
1249.000000	0.004524
1248.000000	0.004554
1247.000000	0.004587
1246.000000	0.004610
1245.000000	0.004622
1244.000000	0.004633
1243.000000	0.004651
1242.000000	0.004680
1241.000000	0.004713
1240.000000	0.004743
1239.000000	0.004764
1238.000000	0.004781
1237.000000	0.004794
1236.000000	0.004796
1235.000000	0.004779
1234.000000	0.004743
1233.000000	0.004698
1232.000000	0.004651
1231.000000	0.004601
1230.000000	0.004550
1229.000000	0.004501
1228.000000	0.004456
1227.000000	0.004413
1226.000000	0.004360
1225.000000	0.004297
1224.000000	0.004233
1223.000000	0.004179
1222.000000	0.004126
1221.000000	0.004062
1220.000000	0.003986
1219.000000	0.003916
1218.000000	0.003873
1217.000000	0.003853
1216.000000	0.003843
1215.000000	0.003832
1214.000000	0.003818
1213.000000	0.003805
1212.000000	0.003797
1211.000000	0.003794
1210.000000	0.003788
1209.000000	0.003765
1208.000000	0.003715
1207.000000	0.003656
1206.000000	0.003614
1205.000000	0.003596
1204.000000	0.003590
1203.000000	0.003576
1202.000000	0.003549
1201.000000	0.003506
1200.000000	0.003449
1199.000000	0.003382
1198.000000	0.003316
1197.000000	0.003257
1196.000000	0.003201
1195.000000	0.003137
1194.000000	0.003067
1193.000000	0.002996
1192.000000	0.002927
1191.000000	0.002852
1190.000000	0.002759
1189.000000	0.002653
1188.000000	0.002559
1187.000000	0.002502
1186.000000	0.002488
1185.000000	0.002495
1184.000000	0.002492
1183.000000	0.002472
1182.000000	0.002448
1181.000000	0.002442
1180.000000	0.002466
1179.000000	0.002520
1178.000000	0.002592
1177.000000	0.002670
1176.000000	0.002745
1175.000000	0.002822
1174.000000	0.002912
1173.000000	0.003021
1172.000000	0.003145
1171.000000	0.003273
1170.000000	0.003402
1169.000000	0.003545
1168.000000	0.003723
1167.000000	0.003943
1166.000000	0.004192
1165.000000	0.004444
1164.000000	0.004681
1163.000000	0.004904
1162.000000	0.005116
1161.000000	0.005323
1160.000000	0.005523
1159.000000	0.005720
1158.000000	0.005912
1157.000000	0.006096
1156.000000	0.006267
1155.000000	0.006424
1154.000000	0.006561
1153.000000	0.006666
1152.000000	0.006734
1151.000000	0.006769
1150.000000	0.006785
1149.000000	0.006788
1148.000000	0.006776
1147.000000	0.006744
1146.000000	0.006696
1145.000000	0.006635
1144.000000	0.006565
1143.000000	0.006482
1142.000000	0.006385
1141.000000	0.006274
1140.000000	0.006155
1139.000000	0.006039
1138.000000	0.005933
1137.000000	0.005844
1136.000000	0.005774
1135.000000	0.005728
1134.000000	0.005705
1133.000000	0.005700
1132.000000	0.005711
1131.000000	0.005745
1130.000000	0.005804
1129.000000	0.005878
1128.000000	0.005950
1127.000000	0.006013
1126.000000	0.006074
1125.000000	0.006136
1124.000000	0.006192
1123.000000	0.006241
1122.000000	0.006293
1121.000000	0.006362
1120.000000	0.006451
1119.000000	0.006552
1118.000000	0.006650
1117.000000	0.006735
1116.000000	0.006799
1115.000000	0.006851
1114.000000	0.006910
1113.000000	0.006991
1112.000000	0.007093
1111.000000	0.007197
1110.000000	0.007287
1109.000000	0.007358
1108.000000	0.007409
1107.000000	0.007441
1106.000000	0.007458
1105.000000	0.007468
1104.000000	0.007487
1103.000000	0.007521
1102.000000	0.007561
1101.000000	0.007584
1100.000000	0.007576
1099.000000	0.007548
1098.000000	0.007527
1097.000000	0.007528
1096.000000	0.007548
1095.000000	0.007583
1094.000000	0.007637
1093.000000	0.007712
1092.000000	0.007791
1091.000000	0.007862
1090.000000	0.007925
1089.000000	0.007995
1088.000000	0.008079
1087.000000	0.008182
1086.000000	0.008316
1085.000000	0.008494
1084.000000	0.008713
1083.000000	0.008947
1082.000000	0.009166
1081.000000	0.009357
1080.000000	0.009523
1079.000000	0.009664
1078.000000	0.009780
1077.000000	0.009864
1076.000000	0.009911
1075.000000	0.009908
1074.000000	0.009846
1073.000000	0.009727
1072.000000	0.009570
1071.000000	0.009407
1070.000000	0.009272
1069.000000	0.009187
1068.000000	0.009157
1067.000000	0.009169
1066.000000	0.009205
1065.000000	0.009253
1064.000000	0.009323
1063.000000	0.009431
1062.000000	0.009582
1061.000000	0.009760
1060.000000	0.009944
1059.000000	0.010127
1058.000000	0.010309
1057.000000	0.010480
1056.000000	0.010620
1055.000000	0.010726
1054.000000	0.010817
1053.000000	0.010911
1052.000000	0.011007
1051.000000	0.011102
1050.000000	0.011202
1049.000000	0.011315
1048.000000	0.011424
1047.000000	0.011505
1046.000000	0.011558
1045.000000	0.011607
1044.000000	0.011669
1043.000000	0.011746
1042.000000	0.011830
1041.000000	0.011924
1040.000000	0.012034
1039.000000	0.012161
1038.000000	0.012296
1037.000000	0.012432
1036.000000	0.012567
1035.000000	0.012706
1034.000000	0.012852
1033.000000	0.013002
1032.000000	0.013149
1031.000000	0.013298
1030.000000	0.013465
1029.000000	0.013649
1028.000000	0.013828
1027.000000	0.013970
1026.000000	0.014072
1025.000000	0.014145
1024.000000	0.014199
1023.000000	0.014236
1022.000000	0.014262
1021.000000	0.014291
1020.000000	0.014323
1019.000000	0.014345
1018.000000	0.014354
1017.000000	0.014360
1016.000000	0.014373
1015.000000	0.014386
1014.000000	0.014391
1013.000000	0.014379
1012.000000	0.014346
1011.000000	0.014289
1010.000000	0.014222
1009.000000	0.014168
1008.000000	0.014139
1007.000000	0.014124
1006.000000	0.014104
1005.000000	0.014080
1004.000000	0.014061
1003.000000	0.014049
1002.000000	0.014037
1001.000000	0.014016
1000.000000	0.013983
999.000000	0.013939
998.000000	0.013889
997.000000	0.013835
996.000000	0.013784
995.000000	0.013730
994.000000	0.013654
993.000000	0.013532
992.000000	0.013361
991.000000	0.013167
990.000000	0.012984
989.000000	0.012821
988.000000	0.012653
987.000000	0.012454
986.000000	0.012222
985.000000	0.011983
984.000000	0.011761
983.000000	0.011566
982.000000	0.011392
981.000000	0.011220
980.000000	0.011029
979.000000	0.010810
978.000000	0.010570
977.000000	0.010323
976.000000	0.010083
975.000000	0.009852
974.000000	0.009628
973.000000	0.009401
972.000000	0.009164
971.000000	0.008928
970.000000	0.008712
969.000000	0.008531
968.000000	0.008371
967.000000	0.008210
966.000000	0.008040
965.000000	0.007866
964.000000	0.007695
963.000000	0.007520
962.000000	0.007336
961.000000	0.007152
960.000000	0.006989
959.000000	0.006858
958.000000	0.006746
957.000000	0.006626
956.000000	0.006492
955.000000	0.006360
954.000000	0.006238
953.000000	0.006119
952.000000	0.005996
951.000000	0.005884
950.000000	0.005797
949.000000	0.005724
948.000000	0.005639
947.000000	0.005539
946.000000	0.005445
945.000000	0.005375
944.000000	0.005330
943.000000	0.005302
942.000000	0.005282
941.000000	0.005254
940.000000	0.005207
939.000000	0.005148
938.000000	0.005098
937.000000	0.005067
936.000000	0.005042
935.000000	0.005008
934.000000	0.004959
933.000000	0.004899
932.000000	0.004828
931.000000	0.004750
930.000000	0.004671
929.000000	0.004591
928.000000	0.004508
927.000000	0.004436
926.000000	0.004396
925.000000	0.004392
924.000000	0.004394
923.000000	0.004361
922.000000	0.004282
921.000000	0.004181
920.000000	0.004097
919.000000	0.004050
918.000000	0.004036
917.000000	0.004024
916.000000	0.003979
915.000000	0.003893
914.000000	0.003792
913.000000	0.003709
912.000000	0.003647
911.000000	0.003584
910.000000	0.003503
909.000000	0.003413
908.000000	0.003337
907.000000	0.003284
906.000000	0.003240
905.000000	0.003183
904.000000	0.003100
903.000000	0.003001
902.000000	0.002901
901.000000	0.002815
900.000000	0.002752
899.000000	0.002711
898.000000	0.002685
897.000000	0.002657
896.000000	0.002621
895.000000	0.002581
894.000000	0.002546
893.000000	0.002519
892.000000	0.002493
891.000000	0.002466
890.000000	0.002438
889.000000	0.002412
888.000000	0.002386
887.000000	0.002359
886.000000	0.002333
885.000000	0.002319
884.000000	0.002325
883.000000	0.002357
882.000000	0.002418
881.000000	0.002508
880.000000	0.002633
879.000000	0.002806
878.000000	0.003021
877.000000	0.003241
876.000000	0.003408
875.000000	0.003478
874.000000	0.003442
873.000000	0.003325
872.000000	0.003171
871.000000	0.003022
870.000000	0.002914
869.000000	0.002860
868.000000	0.002843
867.000000	0.002827
866.000000	0.002775
865.000000	0.002685
864.000000	0.002584
863.000000	0.002515
862.000000	0.002488
861.000000	0.002480
860.000000	0.002465
859.000000	0.002439
858.000000	0.002413
857.000000	0.002392
856.000000	0.002373
855.000000	0.002352
854.000000	0.002323
853.000000	0.002280
852.000000	0.002228
851.000000	0.002194
850.000000	0.002201
849.000000	0.002238
848.000000	0.002271
847.000000	0.002278
846.000000	0.002266
845.000000	0.002243
844.000000	0.002201
843.000000	0.002137
842.000000	0.002067
841.000000	0.002015
840.000000	0.001992
839.000000	0.001996
838.000000	0.002013
837.000000	0.002021
836.000000	0.001999
835.000000	0.001937
834.000000	0.001854
833.000000	0.001785
832.000000	0.001755
831.000000	0.001772
830.000000	0.001822
829.000000	0.001868
828.000000	0.001881
827.000000	0.001859
826.000000	0.001827
825.000000	0.001799
824.000000	0.001774
823.000000	0.001754
822.000000	0.001757
821.000000	0.001788
820.000000	0.001828
819.000000	0.001857
818.000000	0.001874
817.000000	0.001876
816.000000	0.001852
815.000000	0.001798
814.000000	0.001737
813.000000	0.001702
812.000000	0.001706
811.000000	0.001746
810.000000	0.001818
809.000000	0.001908
808.000000	0.001981
807.000000	0.001998
806.000000	0.001963
805.000000	0.001923
804.000000	0.001913
803.000000	0.001930
802.000000	0.001952
801.000000	0.001968
800.000000	0.001977
799.000000	0.001983
798.000000	0.001990
797.000000	0.002007
796.000000	0.002030
795.000000	0.002041
794.000000	0.002031
793.000000	0.002018
792.000000	0.002029
791.000000	0.002066
790.000000	0.002102
789.000000	0.002104
788.000000	0.002065
787.000000	0.002008
786.000000	0.001970
785.000000	0.001974
784.000000	0.002005
783.000000	0.002032
782.000000	0.002043
781.000000	0.002057
780.000000	0.002095
779.000000	0.002149
778.000000	0.002195
777.000000	0.002221
776.000000	0.002237
775.000000	0.002251
774.000000	0.002261
773.000000	0.002268
772.000000	0.002281
771.000000	0.002308
770.000000	0.002345
769.000000	0.002378
768.000000	0.002398
767.000000	0.002409
766.000000	0.002423
765.000000	0.002457
764.000000	0.002517
763.000000	0.002582
762.000000	0.002615
761.000000	0.002596
760.000000	0.002548
759.000000	0.002522
758.000000	0.002543
757.000000	0.002586
756.000000	0.002597
755.000000	0.002553
754.000000	0.002479
753.000000	0.002415
752.000000	0.002381
751.000000	0.002369
750.000000	0.002359
749.000000	0.002332
748.000000	0.002280
747.000000	0.002214
746.000000	0.002157
745.000000	0.002120
744.000000	0.002085
743.000000	0.002039
742.000000	0.001992
741.000000	0.001969
740.000000	0.001966
739.000000	0.001954
738.000000	0.001920
737.000000	0.001882
736.000000	0.001861
735.000000	0.001851
734.000000	0.001840
733.000000	0.001829
732.000000	0.001816
731.000000	0.001786
730.000000	0.001737
729.000000	0.001701
728.000000	0.001721
727.000000	0.001794
726.000000	0.001875
725.000000	0.001929
724.000000	0.001958
723.000000	0.001980
722.000000	0.001999
721.000000	0.002012
720.000000	0.002031
719.000000	0.002070
718.000000	0.002132
717.000000	0.002214
716.000000	0.002319
715.000000	0.002449
714.000000	0.002584
713.000000	0.002689
712.000000	0.002735
711.000000	0.002712
710.000000	0.002635
709.000000	0.002545
708.000000	0.002484
707.000000	0.002482
706.000000	0.002537
705.000000	0.002621
704.000000	0.002686
703.000000	0.002687
702.000000	0.002603
701.000000	0.002468
700.000000	0.002354
699.000000	0.002323
698.000000	0.002383
697.000000	0.002487
696.000000	0.002573
695.000000	0.002596
694.000000	0.002544
693.000000	0.002437
692.000000	0.002327
691.000000	0.002264
690.000000	0.002257
689.000000	0.002268
688.000000	0.002247
687.000000	0.002194
686.000000	0.002149
685.000000	0.002144
684.000000	0.002172
683.000000	0.002199
682.000000	0.002216
681.000000	0.002245
680.000000	0.002303
679.000000	0.002380
678.000000	0.002448
677.000000	0.002485
676.000000	0.002492
675.000000	0.002493
674.000000	0.002519
673.000000	0.002585
672.000000	0.002665
671.000000	0.002714
670.000000	0.002715
669.000000	0.002698
668.000000	0.002662
667.000000	0.002618
666.000000	0.002690
665.000000	0.002860
664.000000	0.003011
663.000000	0.003067
662.000000	0.003009
661.000000	0.002887
660.000000	0.002773
659.000000	0.002708
658.000000	0.002678
657.000000	0.002646
656.000000	0.002593
655.000000	0.002536
654.000000	0.002497
653.000000	0.002491
652.000000	0.002515
651.000000	0.002559
650.000000	0.002610
649.000000	0.002644
648.000000	0.002642
647.000000	0.002608
646.000000	0.002565
645.000000	0.002537
644.000000	0.002525
643.000000	0.002515
642.000000	0.002510
641.000000	0.002518
640.000000	0.002523
639.000000	0.002484
638.000000	0.002403
637.000000	0.002340
636.000000	0.002359
635.000000	0.002445
634.000000	0.002515
633.000000	0.002519
632.000000	0.002484
631.000000	0.002462
630.000000	0.002463
629.000000	0.002468
628.000000	0.002474
627.000000	0.002499
626.000000	0.002546
625.000000	0.002584
624.000000	0.002593
623.000000	0.002591
622.000000	0.002617
621.000000	0.002686
620.000000	0.002780
619.000000	0.002883
618.000000	0.002993
617.000000	0.003113
616.000000	0.003223
615.000000	0.003293
614.000000	0.003315
613.000000	0.003321
612.000000	0.003351
611.000000	0.003423
610.000000	0.003521
609.000000	0.003603
608.000000	0.003626
607.000000	0.003584
606.000000	0.003533
605.000000	0.003544
604.000000	0.003634
603.000000	0.003758
602.000000	0.003872
601.000000	0.003977
600.000000	0.004082
599.000000	0.004160
598.000000	0.004170
597.000000	0.004103
596.000000	0.003981
595.000000	0.003836
594.000000	0.003703
593.000000	0.003636
592.000000	0.003664
591.000000	0.003763
590.000000	0.003879
589.000000	0.003981
588.000000	0.004069
587.000000	0.004136
586.000000	0.004161
585.000000	0.004143
584.000000	0.004109
583.000000	0.004099
582.000000	0.004156
581.000000	0.004307
580.000000	0.004528
579.000000	0.004732
578.000000	0.004844
577.000000	0.004862
576.000000	0.004833
575.000000	0.004782
574.000000	0.004712
573.000000	0.004659
572.000000	0.004677
571.000000	0.004764
570.000000	0.004843
569.000000	0.004845
568.000000	0.004767
567.000000	0.004662
566.000000	0.004587
565.000000	0.004584
564.000000	0.004651
563.000000	0.004713
562.000000	0.004669
561.000000	0.004505
560.000000	0.004319
559.000000	0.004223
558.000000	0.004236
557.000000	0.004294
556.000000	0.004327
555.000000	0.004306
554.000000	0.004245
553.000000	0.004190
552.000000	0.004182
551.000000	0.004204
550.000000	0.004188
549.000000	0.004099
548.000000	0.003976
547.000000	0.003883
546.000000	0.003852
545.000000	0.003887
544.000000	0.003993
543.000000	0.004149
542.000000	0.004281
541.000000	0.004310
540.000000	0.004221
539.000000	0.004082
538.000000	0.003991
537.000000	0.004018
536.000000	0.004169
535.000000	0.004371
534.000000	0.004521
533.000000	0.004575
532.000000	0.004572
531.000000	0.004569
530.000000	0.004588
529.000000	0.004637
528.000000	0.004720
527.000000	0.004796
526.000000	0.004786
525.000000	0.004681
524.000000	0.004598
523.000000	0.004652
522.000000	0.004825
521.000000	0.004999
520.000000	0.005090
519.000000	0.005096
518.000000	0.005039
517.000000	0.004910
516.000000	0.004715
515.000000	0.004527
514.000000	0.004422
513.000000	0.004389
512.000000	0.004338
511.000000	0.004200
510.000000	0.004012
509.000000	0.003877
508.000000	0.003845
507.000000	0.003865
506.000000	0.003861
505.000000	0.003826
504.000000	0.003806
503.000000	0.003816
502.000000	0.003810
501.000000	0.003751
500.000000	0.003656
499.000000	0.003566
498.000000	0.003493
497.000000	0.003424
496.000000	0.003346
495.000000	0.003278
494.000000	0.003283
493.000000	0.003427
492.000000	0.003695
491.000000	0.003948
490.000000	0.004028
489.000000	0.003910
488.000000	0.003716
487.000000	0.003564
486.000000	0.003467
485.000000	0.003373
484.000000	0.003292
483.000000	0.003291
482.000000	0.003377
481.000000	0.003426
480.000000	0.003326
479.000000	0.003139
478.000000	0.003065
477.000000	0.003212
476.000000	0.003436
475.000000	0.003502
474.000000	0.003357
473.000000	0.003202
472.000000	0.003239
471.000000	0.003405
470.000000	0.003480
469.000000	0.003389
468.000000	0.003242
467.000000	0.003156
466.000000	0.003137
465.000000	0.003154
464.000000	0.003190
463.000000	0.003164
462.000000	0.002908
461.000000	0.002353
460.000000	0.001702
459.000000	0.001345
458.000000	0.001553
457.000000	0.002144
456.000000	0.002659
455.000000	0.002866
454.000000	0.002797
453.000000	0.002523
452.000000	0.002103
451.000000	0.001712
450.000000	0.001588
