PE IR       SUBTECH     SPECTRUM    ASCII       PEDS        4.00        
   -1
P14-Noir036_1.ASC
23/06/09
16:26:20.00
23/06/09
16:36:39.00
uco
Sample 036 By uco Date Friday, June 09 2023
450.000000
#HDR
-1
-1
#GR
cm-1
A
1.0
0.0
4000.000000
-1.000000
3551
8
0.013549
0.000865
#DATA
4000.000000	0.001354
3999.000000	0.001369
3998.000000	0.001383
3997.000000	0.001398
3996.000000	0.001405
3995.000000	0.001403
3994.000000	0.001395
3993.000000	0.001416
3992.000000	0.001420
3991.000000	0.001429
3990.000000	0.001435
3989.000000	0.001433
3988.000000	0.001426
3987.000000	0.001422
3986.000000	0.001426
3985.000000	0.001434
3984.000000	0.001438
3983.000000	0.001437
3982.000000	0.001432
3981.000000	0.001430
3980.000000	0.001432
3979.000000	0.001434
3978.000000	0.001431
3977.000000	0.001423
3976.000000	0.001416
3975.000000	0.001414
3974.000000	0.001419
3973.000000	0.001431
3972.000000	0.001442
3971.000000	0.001451
3970.000000	0.001455
3969.000000	0.001458
3968.000000	0.001461
3967.000000	0.001465
3966.000000	0.001465
3965.000000	0.001460
3964.000000	0.001452
3963.000000	0.001447
3962.000000	0.001446
3961.000000	0.001448
3960.000000	0.001451
3959.000000	0.001457
3958.000000	0.001466
3957.000000	0.001474
3956.000000	0.001477
3955.000000	0.001474
3954.000000	0.001469
3953.000000	0.001466
3952.000000	0.001466
3951.000000	0.001467
3950.000000	0.001467
3949.000000	0.001467
3948.000000	0.001470
3947.000000	0.001477
3946.000000	0.001487
3945.000000	0.001502
3944.000000	0.001518
3943.000000	0.001533
3942.000000	0.001541
3941.000000	0.001544
3940.000000	0.001541
3939.000000	0.001535
3938.000000	0.001523
3937.000000	0.001508
3936.000000	0.001499
3935.000000	0.001500
3934.000000	0.001511
3933.000000	0.001520
3932.000000	0.001521
3931.000000	0.001521
3930.000000	0.001531
3929.000000	0.001550
3928.000000	0.001569
3927.000000	0.001578
3926.000000	0.001578
3925.000000	0.001571
3924.000000	0.001559
3923.000000	0.001543
3922.000000	0.001528
3921.000000	0.001520
3920.000000	0.001516
3919.000000	0.001511
3918.000000	0.001503
3917.000000	0.001493
3916.000000	0.001484
3915.000000	0.001477
3914.000000	0.001476
3913.000000	0.001483
3912.000000	0.001497
3911.000000	0.001513
3910.000000	0.001528
3909.000000	0.001542
3908.000000	0.001555
3907.000000	0.001566
3906.000000	0.001574
3905.000000	0.001578
3904.000000	0.001576
3903.000000	0.001565
3902.000000	0.001544
3901.000000	0.001523
3900.000000	0.001510
3899.000000	0.001503
3898.000000	0.001501
3897.000000	0.001504
3896.000000	0.001517
3895.000000	0.001536
3894.000000	0.001550
3893.000000	0.001556
3892.000000	0.001560
3891.000000	0.001570
3890.000000	0.001577
3889.000000	0.001573
3888.000000	0.001567
3887.000000	0.001562
3886.000000	0.001557
3885.000000	0.001551
3884.000000	0.001544
3883.000000	0.001542
3882.000000	0.001550
3881.000000	0.001563
3880.000000	0.001569
3879.000000	0.001557
3878.000000	0.001533
3877.000000	0.001517
3876.000000	0.001520
3875.000000	0.001536
3874.000000	0.001546
3873.000000	0.001532
3872.000000	0.001504
3871.000000	0.001488
3870.000000	0.001499
3869.000000	0.001513
3868.000000	0.001500
3867.000000	0.001478
3866.000000	0.001478
3865.000000	0.001502
3864.000000	0.001533
3863.000000	0.001553
3862.000000	0.001556
3861.000000	0.001547
3860.000000	0.001538
3859.000000	0.001540
3858.000000	0.001558
3857.000000	0.001586
3856.000000	0.001603
3855.000000	0.001583
3854.000000	0.001544
3853.000000	0.001542
3852.000000	0.001558
3851.000000	0.001542
3850.000000	0.001519
3849.000000	0.001505
3848.000000	0.001500
3847.000000	0.001497
3846.000000	0.001501
3845.000000	0.001516
3844.000000	0.001540
3843.000000	0.001561
3842.000000	0.001567
3841.000000	0.001565
3840.000000	0.001573
3839.000000	0.001599
3838.000000	0.001633
3837.000000	0.001654
3836.000000	0.001651
3835.000000	0.001633
3834.000000	0.001612
3833.000000	0.001590
3832.000000	0.001559
3831.000000	0.001513
3830.000000	0.001460
3829.000000	0.001416
3828.000000	0.001404
3827.000000	0.001434
3826.000000	0.001490
3825.000000	0.001544
3824.000000	0.001576
3823.000000	0.001584
3822.000000	0.001582
3821.000000	0.001594
3820.000000	0.001608
3819.000000	0.001600
3818.000000	0.001594
3817.000000	0.001607
3816.000000	0.001630
3815.000000	0.001628
3814.000000	0.001591
3813.000000	0.001544
3812.000000	0.001518
3811.000000	0.001508
3810.000000	0.001495
3809.000000	0.001473
3808.000000	0.001457
3807.000000	0.001468
3806.000000	0.001493
3805.000000	0.001504
3804.000000	0.001501
3803.000000	0.001501
3802.000000	0.001518
3801.000000	0.001544
3800.000000	0.001543
3799.000000	0.001507
3798.000000	0.001470
3797.000000	0.001457
3796.000000	0.001459
3795.000000	0.001456
3794.000000	0.001438
3793.000000	0.001417
3792.000000	0.001402
3791.000000	0.001399
3790.000000	0.001411
3789.000000	0.001439
3788.000000	0.001475
3787.000000	0.001509
3786.000000	0.001531
3785.000000	0.001534
3784.000000	0.001516
3783.000000	0.001483
3782.000000	0.001452
3781.000000	0.001441
3780.000000	0.001454
3779.000000	0.001479
3778.000000	0.001494
3777.000000	0.001498
3776.000000	0.001505
3775.000000	0.001525
3774.000000	0.001548
3773.000000	0.001562
3772.000000	0.001565
3771.000000	0.001561
3770.000000	0.001552
3769.000000	0.001532
3768.000000	0.001500
3767.000000	0.001470
3766.000000	0.001458
3765.000000	0.001459
3764.000000	0.001454
3763.000000	0.001433
3762.000000	0.001405
3761.000000	0.001380
3760.000000	0.001367
3759.000000	0.001374
3758.000000	0.001405
3757.000000	0.001447
3756.000000	0.001486
3755.000000	0.001514
3754.000000	0.001528
3753.000000	0.001523
3752.000000	0.001509
3751.000000	0.001511
3750.000000	0.001536
3749.000000	0.001555
3748.000000	0.001558
3747.000000	0.001572
3746.000000	0.001606
3745.000000	0.001632
3744.000000	0.001624
3743.000000	0.001578
3742.000000	0.001523
3741.000000	0.001499
3740.000000	0.001500
3739.000000	0.001496
3738.000000	0.001466
3737.000000	0.001424
3736.000000	0.001398
3735.000000	0.001408
3734.000000	0.001440
3733.000000	0.001469
3732.000000	0.001483
3731.000000	0.001482
3730.000000	0.001477
3729.000000	0.001484
3728.000000	0.001505
3727.000000	0.001518
3726.000000	0.001500
3725.000000	0.001459
3724.000000	0.001429
3723.000000	0.001437
3722.000000	0.001480
3721.000000	0.001523
3720.000000	0.001531
3719.000000	0.001503
3718.000000	0.001457
3717.000000	0.001415
3716.000000	0.001383
3715.000000	0.001364
3714.000000	0.001349
3713.000000	0.001334
3712.000000	0.001331
3711.000000	0.001350
3710.000000	0.001375
3709.000000	0.001381
3708.000000	0.001374
3707.000000	0.001376
3706.000000	0.001395
3705.000000	0.001425
3704.000000	0.001455
3703.000000	0.001473
3702.000000	0.001475
3701.000000	0.001466
3700.000000	0.001449
3699.000000	0.001433
3698.000000	0.001431
3697.000000	0.001436
3696.000000	0.001433
3695.000000	0.001415
3694.000000	0.001388
3693.000000	0.001359
3692.000000	0.001334
3691.000000	0.001321
3690.000000	0.001339
3689.000000	0.001397
3688.000000	0.001463
3687.000000	0.001497
3686.000000	0.001503
3685.000000	0.001506
3684.000000	0.001512
3683.000000	0.001510
3682.000000	0.001492
3681.000000	0.001466
3680.000000	0.001444
3679.000000	0.001424
3678.000000	0.001398
3677.000000	0.001369
3676.000000	0.001369
3675.000000	0.001414
3674.000000	0.001449
3673.000000	0.001444
3672.000000	0.001427
3671.000000	0.001416
3670.000000	0.001417
3669.000000	0.001436
3668.000000	0.001455
3667.000000	0.001466
3666.000000	0.001477
3665.000000	0.001483
3664.000000	0.001479
3663.000000	0.001468
3662.000000	0.001455
3661.000000	0.001449
3660.000000	0.001450
3659.000000	0.001454
3658.000000	0.001459
3657.000000	0.001466
3656.000000	0.001481
3655.000000	0.001501
3654.000000	0.001517
3653.000000	0.001534
3652.000000	0.001543
3651.000000	0.001526
3650.000000	0.001492
3649.000000	0.001485
3648.000000	0.001514
3647.000000	0.001545
3646.000000	0.001557
3645.000000	0.001560
3644.000000	0.001574
3643.000000	0.001610
3642.000000	0.001659
3641.000000	0.001699
3640.000000	0.001718
3639.000000	0.001716
3638.000000	0.001705
3637.000000	0.001692
3636.000000	0.001679
3635.000000	0.001673
3634.000000	0.001678
3633.000000	0.001690
3632.000000	0.001702
3631.000000	0.001710
3630.000000	0.001723
3629.000000	0.001764
3628.000000	0.001823
3627.000000	0.001852
3626.000000	0.001848
3625.000000	0.001843
3624.000000	0.001852
3623.000000	0.001875
3622.000000	0.001909
3621.000000	0.001950
3620.000000	0.001991
3619.000000	0.002026
3618.000000	0.002046
3617.000000	0.002042
3616.000000	0.002022
3615.000000	0.001999
3614.000000	0.001984
3613.000000	0.001983
3612.000000	0.001990
3611.000000	0.002002
3610.000000	0.002016
3609.000000	0.002037
3608.000000	0.002067
3607.000000	0.002098
3606.000000	0.002120
3605.000000	0.002130
3604.000000	0.002136
3603.000000	0.002145
3602.000000	0.002161
3601.000000	0.002182
3600.000000	0.002206
3599.000000	0.002230
3598.000000	0.002259
3597.000000	0.002293
3596.000000	0.002331
3595.000000	0.002367
3594.000000	0.002397
3593.000000	0.002418
3592.000000	0.002431
3591.000000	0.002442
3590.000000	0.002450
3589.000000	0.002451
3588.000000	0.002443
3587.000000	0.002431
3586.000000	0.002419
3585.000000	0.002415
3584.000000	0.002435
3583.000000	0.002481
3582.000000	0.002538
3581.000000	0.002578
3580.000000	0.002583
3579.000000	0.002558
3578.000000	0.002528
3577.000000	0.002526
3576.000000	0.002568
3575.000000	0.002648
3574.000000	0.002740
3573.000000	0.002814
3572.000000	0.002854
3571.000000	0.002863
3570.000000	0.002855
3569.000000	0.002842
3568.000000	0.002835
3567.000000	0.002850
3566.000000	0.002887
3565.000000	0.002931
3564.000000	0.002969
3563.000000	0.003000
3562.000000	0.003023
3561.000000	0.003040
3560.000000	0.003054
3559.000000	0.003068
3558.000000	0.003090
3557.000000	0.003119
3556.000000	0.003150
3555.000000	0.003176
3554.000000	0.003190
3553.000000	0.003197
3552.000000	0.003199
3551.000000	0.003206
3550.000000	0.003226
3549.000000	0.003269
3548.000000	0.003329
3547.000000	0.003392
3546.000000	0.003440
3545.000000	0.003463
3544.000000	0.003466
3543.000000	0.003461
3542.000000	0.003460
3541.000000	0.003468
3540.000000	0.003481
3539.000000	0.003494
3538.000000	0.003507
3537.000000	0.003519
3536.000000	0.003531
3535.000000	0.003542
3534.000000	0.003557
3533.000000	0.003580
3532.000000	0.003613
3531.000000	0.003649
3530.000000	0.003683
3529.000000	0.003712
3528.000000	0.003741
3527.000000	0.003772
3526.000000	0.003808
3525.000000	0.003846
3524.000000	0.003883
3523.000000	0.003913
3522.000000	0.003935
3521.000000	0.003948
3520.000000	0.003957
3519.000000	0.003971
3518.000000	0.003997
3517.000000	0.004034
3516.000000	0.004066
3515.000000	0.004082
3514.000000	0.004083
3513.000000	0.004084
3512.000000	0.004102
3511.000000	0.004140
3510.000000	0.004188
3509.000000	0.004230
3508.000000	0.004254
3507.000000	0.004263
3506.000000	0.004268
3505.000000	0.004279
3504.000000	0.004295
3503.000000	0.004308
3502.000000	0.004314
3501.000000	0.004321
3500.000000	0.004338
3499.000000	0.004368
3498.000000	0.004402
3497.000000	0.004428
3496.000000	0.004445
3495.000000	0.004459
3494.000000	0.004478
3493.000000	0.004499
3492.000000	0.004517
3491.000000	0.004530
3490.000000	0.004540
3489.000000	0.004555
3488.000000	0.004581
3487.000000	0.004620
3486.000000	0.004666
3485.000000	0.004710
3484.000000	0.004741
3483.000000	0.004759
3482.000000	0.004772
3481.000000	0.004791
3480.000000	0.004814
3479.000000	0.004834
3478.000000	0.004851
3477.000000	0.004873
3476.000000	0.004905
3475.000000	0.004942
3474.000000	0.004973
3473.000000	0.004991
3472.000000	0.004995
3471.000000	0.004987
3470.000000	0.004971
3469.000000	0.004960
3468.000000	0.004966
3467.000000	0.004993
3466.000000	0.005034
3465.000000	0.005074
3464.000000	0.005102
3463.000000	0.005122
3462.000000	0.005144
3461.000000	0.005173
3460.000000	0.005206
3459.000000	0.005235
3458.000000	0.005256
3457.000000	0.005272
3456.000000	0.005284
3455.000000	0.005293
3454.000000	0.005296
3453.000000	0.005298
3452.000000	0.005303
3451.000000	0.005319
3450.000000	0.005346
3449.000000	0.005384
3448.000000	0.005425
3447.000000	0.005456
3446.000000	0.005477
3445.000000	0.005494
3444.000000	0.005517
3443.000000	0.005547
3442.000000	0.005580
3441.000000	0.005606
3440.000000	0.005622
3439.000000	0.005630
3438.000000	0.005639
3437.000000	0.005658
3436.000000	0.005689
3435.000000	0.005724
3434.000000	0.005752
3433.000000	0.005772
3432.000000	0.005789
3431.000000	0.005807
3430.000000	0.005829
3429.000000	0.005851
3428.000000	0.005869
3427.000000	0.005882
3426.000000	0.005891
3425.000000	0.005896
3424.000000	0.005896
3423.000000	0.005893
3422.000000	0.005894
3421.000000	0.005905
3420.000000	0.005926
3419.000000	0.005952
3418.000000	0.005981
3417.000000	0.006009
3416.000000	0.006036
3415.000000	0.006059
3414.000000	0.006078
3413.000000	0.006095
3412.000000	0.006118
3411.000000	0.006150
3410.000000	0.006185
3409.000000	0.006218
3408.000000	0.006244
3407.000000	0.006264
3406.000000	0.006278
3405.000000	0.006288
3404.000000	0.006301
3403.000000	0.006322
3402.000000	0.006357
3401.000000	0.006395
3400.000000	0.006424
3399.000000	0.006435
3398.000000	0.006438
3397.000000	0.006444
3396.000000	0.006458
3395.000000	0.006476
3394.000000	0.006491
3393.000000	0.006501
3392.000000	0.006509
3391.000000	0.006516
3390.000000	0.006519
3389.000000	0.006513
3388.000000	0.006496
3387.000000	0.006477
3386.000000	0.006473
3385.000000	0.006492
3384.000000	0.006523
3383.000000	0.006547
3382.000000	0.006556
3381.000000	0.006551
3380.000000	0.006543
3379.000000	0.006537
3378.000000	0.006534
3377.000000	0.006535
3376.000000	0.006540
3375.000000	0.006553
3374.000000	0.006577
3373.000000	0.006611
3372.000000	0.006648
3371.000000	0.006682
3370.000000	0.006713
3369.000000	0.006746
3368.000000	0.006783
3367.000000	0.006816
3366.000000	0.006839
3365.000000	0.006849
3364.000000	0.006851
3363.000000	0.006854
3362.000000	0.006859
3361.000000	0.006866
3360.000000	0.006871
3359.000000	0.006875
3358.000000	0.006879
3357.000000	0.006890
3356.000000	0.006906
3355.000000	0.006924
3354.000000	0.006936
3353.000000	0.006940
3352.000000	0.006938
3351.000000	0.006937
3350.000000	0.006946
3349.000000	0.006975
3348.000000	0.007022
3347.000000	0.007072
3346.000000	0.007104
3345.000000	0.007107
3344.000000	0.007093
3343.000000	0.007084
3342.000000	0.007095
3341.000000	0.007123
3340.000000	0.007156
3339.000000	0.007180
3338.000000	0.007191
3337.000000	0.007191
3336.000000	0.007188
3335.000000	0.007190
3334.000000	0.007198
3333.000000	0.007206
3332.000000	0.007208
3331.000000	0.007205
3330.000000	0.007208
3329.000000	0.007229
3328.000000	0.007267
3327.000000	0.007310
3326.000000	0.007344
3325.000000	0.007363
3324.000000	0.007371
3323.000000	0.007375
3322.000000	0.007370
3321.000000	0.007352
3320.000000	0.007323
3319.000000	0.007297
3318.000000	0.007287
3317.000000	0.007294
3316.000000	0.007313
3315.000000	0.007338
3314.000000	0.007367
3313.000000	0.007392
3312.000000	0.007405
3311.000000	0.007404
3310.000000	0.007396
3309.000000	0.007390
3308.000000	0.007389
3307.000000	0.007390
3306.000000	0.007392
3305.000000	0.007393
3304.000000	0.007391
3303.000000	0.007385
3302.000000	0.007380
3301.000000	0.007380
3300.000000	0.007389
3299.000000	0.007406
3298.000000	0.007426
3297.000000	0.007443
3296.000000	0.007455
3295.000000	0.007461
3294.000000	0.007462
3293.000000	0.007460
3292.000000	0.007455
3291.000000	0.007445
3290.000000	0.007434
3289.000000	0.007427
3288.000000	0.007428
3287.000000	0.007437
3286.000000	0.007455
3285.000000	0.007482
3284.000000	0.007505
3283.000000	0.007509
3282.000000	0.007483
3281.000000	0.007439
3280.000000	0.007402
3279.000000	0.007395
3278.000000	0.007418
3277.000000	0.007456
3276.000000	0.007486
3275.000000	0.007493
3274.000000	0.007476
3273.000000	0.007439
3272.000000	0.007393
3271.000000	0.007351
3270.000000	0.007323
3269.000000	0.007311
3268.000000	0.007313
3267.000000	0.007327
3266.000000	0.007344
3265.000000	0.007352
3264.000000	0.007341
3263.000000	0.007314
3262.000000	0.007281
3261.000000	0.007254
3260.000000	0.007234
3259.000000	0.007221
3258.000000	0.007211
3257.000000	0.007203
3256.000000	0.007193
3255.000000	0.007180
3254.000000	0.007168
3253.000000	0.007163
3252.000000	0.007160
3251.000000	0.007151
3250.000000	0.007133
3249.000000	0.007110
3248.000000	0.007091
3247.000000	0.007080
3246.000000	0.007079
3245.000000	0.007081
3244.000000	0.007083
3243.000000	0.007081
3242.000000	0.007078
3241.000000	0.007080
3240.000000	0.007087
3239.000000	0.007092
3238.000000	0.007081
3237.000000	0.007050
3236.000000	0.007009
3235.000000	0.006973
3234.000000	0.006958
3233.000000	0.006965
3232.000000	0.006981
3231.000000	0.006988
3230.000000	0.006981
3229.000000	0.006962
3228.000000	0.006938
3227.000000	0.006905
3226.000000	0.006860
3225.000000	0.006809
3224.000000	0.006770
3223.000000	0.006755
3222.000000	0.006760
3221.000000	0.006769
3220.000000	0.006770
3219.000000	0.006764
3218.000000	0.006759
3217.000000	0.006757
3216.000000	0.006757
3215.000000	0.006758
3214.000000	0.006759
3213.000000	0.006757
3212.000000	0.006751
3211.000000	0.006740
3210.000000	0.006725
3209.000000	0.006706
3208.000000	0.006686
3207.000000	0.006670
3206.000000	0.006662
3205.000000	0.006658
3204.000000	0.006653
3203.000000	0.006646
3202.000000	0.006640
3201.000000	0.006634
3200.000000	0.006621
3199.000000	0.006595
3198.000000	0.006556
3197.000000	0.006513
3196.000000	0.006481
3195.000000	0.006464
3194.000000	0.006460
3193.000000	0.006457
3192.000000	0.006449
3191.000000	0.006435
3190.000000	0.006421
3189.000000	0.006412
3188.000000	0.006403
3187.000000	0.006390
3186.000000	0.006371
3185.000000	0.006351
3184.000000	0.006336
3183.000000	0.006328
3182.000000	0.006318
3181.000000	0.006299
3180.000000	0.006274
3179.000000	0.006249
3178.000000	0.006230
3177.000000	0.006212
3176.000000	0.006192
3175.000000	0.006175
3174.000000	0.006168
3173.000000	0.006168
3172.000000	0.006160
3171.000000	0.006134
3170.000000	0.006094
3169.000000	0.006055
3168.000000	0.006030
3167.000000	0.006024
3166.000000	0.006031
3165.000000	0.006032
3164.000000	0.006017
3163.000000	0.005986
3162.000000	0.005953
3161.000000	0.005923
3160.000000	0.005897
3159.000000	0.005868
3158.000000	0.005837
3157.000000	0.005814
3156.000000	0.005805
3155.000000	0.005808
3154.000000	0.005814
3153.000000	0.005812
3152.000000	0.005799
3151.000000	0.005775
3150.000000	0.005746
3149.000000	0.005717
3148.000000	0.005687
3147.000000	0.005660
3146.000000	0.005644
3145.000000	0.005642
3144.000000	0.005647
3143.000000	0.005646
3142.000000	0.005634
3141.000000	0.005616
3140.000000	0.005606
3139.000000	0.005605
3138.000000	0.005602
3137.000000	0.005584
3136.000000	0.005548
3135.000000	0.005508
3134.000000	0.005475
3133.000000	0.005449
3132.000000	0.005424
3131.000000	0.005397
3130.000000	0.005373
3129.000000	0.005362
3128.000000	0.005366
3127.000000	0.005378
3126.000000	0.005391
3125.000000	0.005397
3124.000000	0.005395
3123.000000	0.005383
3122.000000	0.005362
3121.000000	0.005338
3120.000000	0.005318
3119.000000	0.005308
3118.000000	0.005305
3117.000000	0.005298
3116.000000	0.005281
3115.000000	0.005258
3114.000000	0.005236
3113.000000	0.005221
3112.000000	0.005211
3111.000000	0.005206
3110.000000	0.005203
3109.000000	0.005200
3108.000000	0.005194
3107.000000	0.005189
3106.000000	0.005190
3105.000000	0.005198
3104.000000	0.005202
3103.000000	0.005190
3102.000000	0.005160
3101.000000	0.005120
3100.000000	0.005085
3099.000000	0.005066
3098.000000	0.005068
3097.000000	0.005088
3096.000000	0.005111
3095.000000	0.005118
3094.000000	0.005103
3093.000000	0.005069
3092.000000	0.005027
3091.000000	0.004992
3090.000000	0.004971
3089.000000	0.004970
3088.000000	0.004987
3087.000000	0.005013
3086.000000	0.005036
3085.000000	0.005044
3084.000000	0.005032
3083.000000	0.005008
3082.000000	0.004985
3081.000000	0.004976
3080.000000	0.004978
3079.000000	0.004984
3078.000000	0.004987
3077.000000	0.004988
3076.000000	0.004986
3075.000000	0.004980
3074.000000	0.004969
3073.000000	0.004955
3072.000000	0.004938
3071.000000	0.004915
3070.000000	0.004884
3069.000000	0.004852
3068.000000	0.004831
3067.000000	0.004830
3066.000000	0.004844
3065.000000	0.004861
3064.000000	0.004872
3063.000000	0.004871
3062.000000	0.004861
3061.000000	0.004841
3060.000000	0.004812
3059.000000	0.004776
3058.000000	0.004742
3057.000000	0.004719
3056.000000	0.004709
3055.000000	0.004702
3054.000000	0.004691
3053.000000	0.004674
3052.000000	0.004661
3051.000000	0.004662
3050.000000	0.004672
3049.000000	0.004675
3048.000000	0.004660
3047.000000	0.004627
3046.000000	0.004591
3045.000000	0.004563
3044.000000	0.004546
3043.000000	0.004535
3042.000000	0.004528
3041.000000	0.004524
3040.000000	0.004521
3039.000000	0.004512
3038.000000	0.004500
3037.000000	0.004494
3036.000000	0.004501
3035.000000	0.004517
3034.000000	0.004531
3033.000000	0.004538
3032.000000	0.004536
3031.000000	0.004523
3030.000000	0.004497
3029.000000	0.004460
3028.000000	0.004423
3027.000000	0.004400
3026.000000	0.004389
3025.000000	0.004382
3024.000000	0.004368
3023.000000	0.004351
3022.000000	0.004340
3021.000000	0.004340
3020.000000	0.004349
3019.000000	0.004356
3018.000000	0.004349
3017.000000	0.004324
3016.000000	0.004292
3015.000000	0.004265
3014.000000	0.004248
3013.000000	0.004236
3012.000000	0.004225
3011.000000	0.004221
3010.000000	0.004235
3009.000000	0.004263
3008.000000	0.004290
3007.000000	0.004300
3006.000000	0.004287
3005.000000	0.004257
3004.000000	0.004224
3003.000000	0.004205
3002.000000	0.004213
3001.000000	0.004243
3000.000000	0.004276
2999.000000	0.004293
2998.000000	0.004293
2997.000000	0.004283
2996.000000	0.004270
2995.000000	0.004259
2994.000000	0.004249
2993.000000	0.004243
2992.000000	0.004243
2991.000000	0.004244
2990.000000	0.004244
2989.000000	0.004247
2988.000000	0.004257
2987.000000	0.004280
2986.000000	0.004314
2985.000000	0.004350
2984.000000	0.004376
2983.000000	0.004391
2982.000000	0.004404
2981.000000	0.004424
2980.000000	0.004450
2979.000000	0.004476
2978.000000	0.004498
2977.000000	0.004516
2976.000000	0.004534
2975.000000	0.004553
2974.000000	0.004577
2973.000000	0.004608
2972.000000	0.004647
2971.000000	0.004691
2970.000000	0.004738
2969.000000	0.004784
2968.000000	0.004824
2967.000000	0.004859
2966.000000	0.004892
2965.000000	0.004935
2964.000000	0.004991
2963.000000	0.005052
2962.000000	0.005102
2961.000000	0.005132
2960.000000	0.005146
2959.000000	0.005159
2958.000000	0.005177
2957.000000	0.005200
2956.000000	0.005219
2955.000000	0.005235
2954.000000	0.005253
2953.000000	0.005279
2952.000000	0.005314
2951.000000	0.005349
2950.000000	0.005377
2949.000000	0.005395
2948.000000	0.005406
2947.000000	0.005416
2946.000000	0.005429
2945.000000	0.005447
2944.000000	0.005464
2943.000000	0.005475
2942.000000	0.005482
2941.000000	0.005495
2940.000000	0.005522
2939.000000	0.005560
2938.000000	0.005601
2937.000000	0.005639
2936.000000	0.005674
2935.000000	0.005706
2934.000000	0.005735
2933.000000	0.005762
2932.000000	0.005791
2931.000000	0.005831
2930.000000	0.005883
2929.000000	0.005940
2928.000000	0.005990
2927.000000	0.006027
2926.000000	0.006053
2925.000000	0.006077
2924.000000	0.006104
2923.000000	0.006134
2922.000000	0.006160
2921.000000	0.006180
2920.000000	0.006196
2919.000000	0.006210
2918.000000	0.006219
2917.000000	0.006211
2916.000000	0.006180
2915.000000	0.006128
2914.000000	0.006064
2913.000000	0.005993
2912.000000	0.005917
2911.000000	0.005847
2910.000000	0.005794
2909.000000	0.005764
2908.000000	0.005753
2907.000000	0.005750
2906.000000	0.005744
2905.000000	0.005726
2904.000000	0.005693
2903.000000	0.005652
2902.000000	0.005614
2901.000000	0.005583
2900.000000	0.005556
2899.000000	0.005525
2898.000000	0.005492
2897.000000	0.005466
2896.000000	0.005448
2895.000000	0.005432
2894.000000	0.005416
2893.000000	0.005401
2892.000000	0.005387
2891.000000	0.005372
2890.000000	0.005350
2889.000000	0.005322
2888.000000	0.005291
2887.000000	0.005265
2886.000000	0.005250
2885.000000	0.005245
2884.000000	0.005246
2883.000000	0.005243
2882.000000	0.005236
2881.000000	0.005229
2880.000000	0.005228
2879.000000	0.005235
2878.000000	0.005247
2877.000000	0.005256
2876.000000	0.005256
2875.000000	0.005245
2874.000000	0.005229
2873.000000	0.005214
2872.000000	0.005204
2871.000000	0.005201
2870.000000	0.005204
2869.000000	0.005205
2868.000000	0.005196
2867.000000	0.005174
2866.000000	0.005147
2865.000000	0.005128
2864.000000	0.005123
2863.000000	0.005127
2862.000000	0.005136
2861.000000	0.005147
2860.000000	0.005152
2859.000000	0.005146
2858.000000	0.005133
2857.000000	0.005121
2856.000000	0.005119
2855.000000	0.005123
2854.000000	0.005128
2853.000000	0.005134
2852.000000	0.005138
2851.000000	0.005136
2850.000000	0.005121
2849.000000	0.005092
2848.000000	0.005052
2847.000000	0.004999
2846.000000	0.004935
2845.000000	0.004871
2844.000000	0.004819
2843.000000	0.004788
2842.000000	0.004771
2841.000000	0.004753
2840.000000	0.004723
2839.000000	0.004684
2838.000000	0.004645
2837.000000	0.004616
2836.000000	0.004593
2835.000000	0.004570
2834.000000	0.004543
2833.000000	0.004515
2832.000000	0.004493
2831.000000	0.004481
2830.000000	0.004475
2829.000000	0.004470
2828.000000	0.004462
2827.000000	0.004449
2826.000000	0.004432
2825.000000	0.004413
2824.000000	0.004393
2823.000000	0.004376
2822.000000	0.004361
2821.000000	0.004348
2820.000000	0.004337
2819.000000	0.004323
2818.000000	0.004309
2817.000000	0.004292
2816.000000	0.004273
2815.000000	0.004252
2814.000000	0.004236
2813.000000	0.004230
2812.000000	0.004237
2811.000000	0.004247
2810.000000	0.004250
2809.000000	0.004238
2808.000000	0.004218
2807.000000	0.004198
2806.000000	0.004186
2805.000000	0.004184
2804.000000	0.004183
2803.000000	0.004178
2802.000000	0.004168
2801.000000	0.004160
2800.000000	0.004157
2799.000000	0.004156
2798.000000	0.004153
2797.000000	0.004147
2796.000000	0.004140
2795.000000	0.004134
2794.000000	0.004136
2793.000000	0.004148
2792.000000	0.004167
2791.000000	0.004175
2790.000000	0.004160
2789.000000	0.004126
2788.000000	0.004093
2787.000000	0.004077
2786.000000	0.004081
2785.000000	0.004093
2784.000000	0.004098
2783.000000	0.004088
2782.000000	0.004064
2781.000000	0.004033
2780.000000	0.004007
2779.000000	0.003994
2778.000000	0.003997
2777.000000	0.004008
2776.000000	0.004022
2775.000000	0.004030
2774.000000	0.004031
2773.000000	0.004026
2772.000000	0.004017
2771.000000	0.004009
2770.000000	0.004005
2769.000000	0.004006
2768.000000	0.004014
2767.000000	0.004026
2766.000000	0.004036
2765.000000	0.004038
2764.000000	0.004034
2763.000000	0.004026
2762.000000	0.004024
2761.000000	0.004029
2760.000000	0.004038
2759.000000	0.004042
2758.000000	0.004036
2757.000000	0.004020
2756.000000	0.003997
2755.000000	0.003974
2754.000000	0.003956
2753.000000	0.003949
2752.000000	0.003958
2751.000000	0.003983
2750.000000	0.004016
2749.000000	0.004040
2748.000000	0.004046
2747.000000	0.004036
2746.000000	0.004024
2745.000000	0.004017
2744.000000	0.004019
2743.000000	0.004027
2742.000000	0.004038
2741.000000	0.004045
2740.000000	0.004041
2739.000000	0.004023
2738.000000	0.003999
2737.000000	0.003977
2736.000000	0.003963
2735.000000	0.003956
2734.000000	0.003955
2733.000000	0.003959
2732.000000	0.003967
2731.000000	0.003974
2730.000000	0.003979
2729.000000	0.003985
2728.000000	0.003995
2727.000000	0.004005
2726.000000	0.004010
2725.000000	0.004006
2724.000000	0.003993
2723.000000	0.003972
2722.000000	0.003945
2721.000000	0.003918
2720.000000	0.003894
2719.000000	0.003876
2718.000000	0.003863
2717.000000	0.003860
2716.000000	0.003870
2715.000000	0.003889
2714.000000	0.003909
2713.000000	0.003918
2712.000000	0.003910
2711.000000	0.003892
2710.000000	0.003880
2709.000000	0.003885
2708.000000	0.003910
2707.000000	0.003946
2706.000000	0.003978
2705.000000	0.003992
2704.000000	0.003980
2703.000000	0.003949
2702.000000	0.003914
2701.000000	0.003884
2700.000000	0.003859
2699.000000	0.003834
2698.000000	0.003815
2697.000000	0.003808
2696.000000	0.003818
2695.000000	0.003833
2694.000000	0.003840
2693.000000	0.003839
2692.000000	0.003837
2691.000000	0.003842
2690.000000	0.003851
2689.000000	0.003857
2688.000000	0.003857
2687.000000	0.003851
2686.000000	0.003848
2685.000000	0.003853
2684.000000	0.003865
2683.000000	0.003876
2682.000000	0.003881
2681.000000	0.003882
2680.000000	0.003883
2679.000000	0.003886
2678.000000	0.003885
2677.000000	0.003876
2676.000000	0.003856
2675.000000	0.003831
2674.000000	0.003809
2673.000000	0.003795
2672.000000	0.003787
2671.000000	0.003782
2670.000000	0.003783
2669.000000	0.003789
2668.000000	0.003796
2667.000000	0.003801
2666.000000	0.003809
2665.000000	0.003829
2664.000000	0.003858
2663.000000	0.003882
2662.000000	0.003891
2661.000000	0.003885
2660.000000	0.003875
2659.000000	0.003869
2658.000000	0.003867
2657.000000	0.003867
2656.000000	0.003863
2655.000000	0.003856
2654.000000	0.003846
2653.000000	0.003833
2652.000000	0.003819
2651.000000	0.003805
2650.000000	0.003795
2649.000000	0.003791
2648.000000	0.003788
2647.000000	0.003780
2646.000000	0.003764
2645.000000	0.003748
2644.000000	0.003734
2643.000000	0.003720
2642.000000	0.003700
2641.000000	0.003677
2640.000000	0.003657
2639.000000	0.003647
2638.000000	0.003646
2637.000000	0.003652
2636.000000	0.003659
2635.000000	0.003662
2634.000000	0.003655
2633.000000	0.003643
2632.000000	0.003633
2631.000000	0.003623
2630.000000	0.003609
2629.000000	0.003586
2628.000000	0.003557
2627.000000	0.003526
2626.000000	0.003496
2625.000000	0.003473
2624.000000	0.003460
2623.000000	0.003453
2622.000000	0.003441
2621.000000	0.003417
2620.000000	0.003382
2619.000000	0.003351
2618.000000	0.003339
2617.000000	0.003350
2616.000000	0.003374
2615.000000	0.003392
2614.000000	0.003388
2613.000000	0.003361
2612.000000	0.003327
2611.000000	0.003304
2610.000000	0.003299
2609.000000	0.003307
2608.000000	0.003315
2607.000000	0.003315
2606.000000	0.003313
2605.000000	0.003324
2604.000000	0.003348
2603.000000	0.003373
2602.000000	0.003378
2601.000000	0.003361
2600.000000	0.003333
2599.000000	0.003310
2598.000000	0.003304
2597.000000	0.003313
2596.000000	0.003326
2595.000000	0.003325
2594.000000	0.003306
2593.000000	0.003280
2592.000000	0.003263
2591.000000	0.003263
2590.000000	0.003269
2589.000000	0.003267
2588.000000	0.003254
2587.000000	0.003239
2586.000000	0.003232
2585.000000	0.003237
2584.000000	0.003242
2583.000000	0.003231
2582.000000	0.003203
2581.000000	0.003176
2580.000000	0.003170
2579.000000	0.003185
2578.000000	0.003203
2577.000000	0.003211
2576.000000	0.003209
2575.000000	0.003203
2574.000000	0.003195
2573.000000	0.003193
2572.000000	0.003198
2571.000000	0.003201
2570.000000	0.003188
2569.000000	0.003158
2568.000000	0.003135
2567.000000	0.003139
2566.000000	0.003165
2565.000000	0.003194
2564.000000	0.003213
2563.000000	0.003223
2562.000000	0.003224
2561.000000	0.003209
2560.000000	0.003173
2559.000000	0.003128
2558.000000	0.003091
2557.000000	0.003069
2556.000000	0.003058
2555.000000	0.003054
2554.000000	0.003059
2553.000000	0.003074
2552.000000	0.003091
2551.000000	0.003103
2550.000000	0.003108
2549.000000	0.003106
2548.000000	0.003099
2547.000000	0.003085
2546.000000	0.003069
2545.000000	0.003065
2544.000000	0.003076
2543.000000	0.003087
2542.000000	0.003087
2541.000000	0.003084
2540.000000	0.003095
2539.000000	0.003119
2538.000000	0.003128
2537.000000	0.003105
2536.000000	0.003070
2535.000000	0.003055
2534.000000	0.003073
2533.000000	0.003100
2532.000000	0.003109
2531.000000	0.003094
2530.000000	0.003072
2529.000000	0.003054
2528.000000	0.003037
2527.000000	0.003014
2526.000000	0.002990
2525.000000	0.002979
2524.000000	0.002990
2523.000000	0.003021
2522.000000	0.003058
2521.000000	0.003083
2520.000000	0.003086
2519.000000	0.003069
2518.000000	0.003044
2517.000000	0.003023
2516.000000	0.003010
2515.000000	0.002999
2514.000000	0.002993
2513.000000	0.002998
2512.000000	0.003018
2511.000000	0.003041
2510.000000	0.003045
2509.000000	0.003027
2508.000000	0.003001
2507.000000	0.002991
2506.000000	0.003005
2505.000000	0.003033
2504.000000	0.003057
2503.000000	0.003068
2502.000000	0.003065
2501.000000	0.003052
2500.000000	0.003035
2499.000000	0.003014
2498.000000	0.002985
2497.000000	0.002948
2496.000000	0.002919
2495.000000	0.002927
2494.000000	0.002985
2493.000000	0.003067
2492.000000	0.003124
2491.000000	0.003122
2490.000000	0.003068
2489.000000	0.002999
2488.000000	0.002950
2487.000000	0.002931
2486.000000	0.002930
2485.000000	0.002926
2484.000000	0.002906
2483.000000	0.002880
2482.000000	0.002869
2481.000000	0.002886
2480.000000	0.002919
2479.000000	0.002945
2478.000000	0.002952
2477.000000	0.002949
2476.000000	0.002948
2475.000000	0.002955
2474.000000	0.002977
2473.000000	0.003015
2472.000000	0.003061
2471.000000	0.003097
2470.000000	0.003116
2469.000000	0.003119
2468.000000	0.003109
2467.000000	0.003087
2466.000000	0.003055
2465.000000	0.003017
2464.000000	0.002976
2463.000000	0.002934
2462.000000	0.002906
2461.000000	0.002913
2460.000000	0.002950
2459.000000	0.002984
2458.000000	0.002980
2457.000000	0.002944
2456.000000	0.002910
2455.000000	0.002903
2454.000000	0.002924
2453.000000	0.002951
2452.000000	0.002971
2451.000000	0.002978
2450.000000	0.002975
2449.000000	0.002968
2448.000000	0.002967
2447.000000	0.002978
2446.000000	0.002998
2445.000000	0.003020
2444.000000	0.003033
2443.000000	0.003036
2442.000000	0.003038
2441.000000	0.003045
2440.000000	0.003054
2439.000000	0.003048
2438.000000	0.003012
2437.000000	0.002955
2436.000000	0.002898
2435.000000	0.002860
2434.000000	0.002855
2433.000000	0.002882
2432.000000	0.002926
2431.000000	0.002958
2430.000000	0.002960
2429.000000	0.002935
2428.000000	0.002899
2427.000000	0.002866
2426.000000	0.002842
2425.000000	0.002832
2424.000000	0.002839
2423.000000	0.002865
2422.000000	0.002898
2421.000000	0.002926
2420.000000	0.002941
2419.000000	0.002936
2418.000000	0.002912
2417.000000	0.002884
2416.000000	0.002871
2415.000000	0.002884
2414.000000	0.002911
2413.000000	0.002928
2412.000000	0.002923
2411.000000	0.002897
2410.000000	0.002867
2409.000000	0.002851
2408.000000	0.002855
2407.000000	0.002870
2406.000000	0.002886
2405.000000	0.002894
2404.000000	0.002891
2403.000000	0.002870
2402.000000	0.002827
2401.000000	0.002777
2400.000000	0.002746
2399.000000	0.002754
2398.000000	0.002795
2397.000000	0.002840
2396.000000	0.002860
2395.000000	0.002848
2394.000000	0.002823
2393.000000	0.002807
2392.000000	0.002812
2391.000000	0.002823
2390.000000	0.002822
2389.000000	0.002812
2388.000000	0.002817
2387.000000	0.002854
2386.000000	0.002909
2385.000000	0.002944
2384.000000	0.002936
2383.000000	0.002895
2382.000000	0.002848
2381.000000	0.002813
2380.000000	0.002784
2379.000000	0.002750
2378.000000	0.002717
2377.000000	0.002701
2376.000000	0.002705
2375.000000	0.002714
2374.000000	0.002708
2373.000000	0.002689
2372.000000	0.002679
2371.000000	0.002694
2370.000000	0.002736
2369.000000	0.002795
2368.000000	0.002857
2367.000000	0.002905
2366.000000	0.002927
2365.000000	0.002926
2364.000000	0.002914
2363.000000	0.002897
2362.000000	0.002875
2361.000000	0.002854
2360.000000	0.002846
2359.000000	0.002856
2358.000000	0.002877
2357.000000	0.002903
2356.000000	0.002927
2355.000000	0.002941
2354.000000	0.002938
2353.000000	0.002921
2352.000000	0.002907
2351.000000	0.002917
2350.000000	0.002956
2349.000000	0.003011
2348.000000	0.003057
2347.000000	0.003076
2346.000000	0.003066
2345.000000	0.003036
2344.000000	0.003011
2343.000000	0.003005
2342.000000	0.003005
2341.000000	0.002996
2340.000000	0.002980
2339.000000	0.002976
2338.000000	0.002993
2337.000000	0.003026
2336.000000	0.003066
2335.000000	0.003106
2334.000000	0.003135
2333.000000	0.003136
2332.000000	0.003103
2331.000000	0.003051
2330.000000	0.003011
2329.000000	0.003007
2328.000000	0.003046
2327.000000	0.003115
2326.000000	0.003196
2325.000000	0.003264
2324.000000	0.003295
2323.000000	0.003283
2322.000000	0.003246
2321.000000	0.003211
2320.000000	0.003191
2319.000000	0.003185
2318.000000	0.003183
2317.000000	0.003171
2316.000000	0.003138
2315.000000	0.003084
2314.000000	0.003028
2313.000000	0.002996
2312.000000	0.003000
2311.000000	0.003023
2310.000000	0.003046
2309.000000	0.003056
2308.000000	0.003052
2307.000000	0.003040
2306.000000	0.003031
2305.000000	0.003040
2304.000000	0.003076
2303.000000	0.003133
2302.000000	0.003191
2301.000000	0.003233
2300.000000	0.003247
2299.000000	0.003236
2298.000000	0.003212
2297.000000	0.003190
2296.000000	0.003173
2295.000000	0.003145
2294.000000	0.003092
2293.000000	0.003031
2292.000000	0.003000
2291.000000	0.003019
2290.000000	0.003070
2289.000000	0.003115
2288.000000	0.003132
2287.000000	0.003125
2286.000000	0.003113
2285.000000	0.003106
2284.000000	0.003102
2283.000000	0.003096
2282.000000	0.003088
2281.000000	0.003091
2280.000000	0.003111
2279.000000	0.003134
2278.000000	0.003132
2277.000000	0.003086
2276.000000	0.003012
2275.000000	0.002953
2274.000000	0.002952
2273.000000	0.003015
2272.000000	0.003100
2271.000000	0.003152
2270.000000	0.003147
2269.000000	0.003110
2268.000000	0.003076
2267.000000	0.003062
2266.000000	0.003064
2265.000000	0.003072
2264.000000	0.003078
2263.000000	0.003069
2262.000000	0.003031
2261.000000	0.002974
2260.000000	0.002926
2259.000000	0.002903
2258.000000	0.002903
2257.000000	0.002910
2256.000000	0.002910
2255.000000	0.002890
2254.000000	0.002849
2253.000000	0.002804
2252.000000	0.002773
2251.000000	0.002749
2250.000000	0.002715
2249.000000	0.002680
2248.000000	0.002671
2247.000000	0.002700
2246.000000	0.002739
2245.000000	0.002761
2244.000000	0.002780
2243.000000	0.002820
2242.000000	0.002870
2241.000000	0.002889
2240.000000	0.002865
2239.000000	0.002836
2238.000000	0.002839
2237.000000	0.002865
2236.000000	0.002874
2235.000000	0.002847
2234.000000	0.002813
2233.000000	0.002815
2232.000000	0.002859
2231.000000	0.002906
2230.000000	0.002910
2229.000000	0.002876
2228.000000	0.002843
2227.000000	0.002839
2226.000000	0.002846
2225.000000	0.002826
2224.000000	0.002771
2223.000000	0.002711
2222.000000	0.002681
2221.000000	0.002683
2220.000000	0.002693
2219.000000	0.002688
2218.000000	0.002662
2217.000000	0.002637
2216.000000	0.002651
2215.000000	0.002732
2214.000000	0.002869
2213.000000	0.003005
2212.000000	0.003065
2211.000000	0.003013
2210.000000	0.002888
2209.000000	0.002771
2208.000000	0.002723
2207.000000	0.002730
2206.000000	0.002735
2205.000000	0.002709
2204.000000	0.002691
2203.000000	0.002732
2202.000000	0.002819
2201.000000	0.002877
2200.000000	0.002846
2199.000000	0.002746
2198.000000	0.002660
2197.000000	0.002652
2196.000000	0.002719
2195.000000	0.002810
2194.000000	0.002876
2193.000000	0.002893
2192.000000	0.002855
2191.000000	0.002767
2190.000000	0.002665
2189.000000	0.002610
2188.000000	0.002652
2187.000000	0.002779
2186.000000	0.002915
2185.000000	0.002978
2184.000000	0.002950
2183.000000	0.002879
2182.000000	0.002821
2181.000000	0.002800
2180.000000	0.002803
2179.000000	0.002799
2178.000000	0.002761
2177.000000	0.002672
2176.000000	0.002544
2175.000000	0.002428
2174.000000	0.002382
2173.000000	0.002424
2172.000000	0.002517
2171.000000	0.002597
2170.000000	0.002625
2169.000000	0.002621
2168.000000	0.002643
2167.000000	0.002714
2166.000000	0.002769
2165.000000	0.002727
2164.000000	0.002608
2163.000000	0.002554
2162.000000	0.002669
2161.000000	0.002860
2160.000000	0.002880
2159.000000	0.002569
2158.000000	0.002029
2157.000000	0.001521
2156.000000	0.001221
2155.000000	0.001133
2154.000000	0.001175
2153.000000	0.001283
2152.000000	0.001443
2151.000000	0.001661
2150.000000	0.001900
2149.000000	0.002054
2148.000000	0.002046
2147.000000	0.001935
2146.000000	0.001888
2145.000000	0.002005
2144.000000	0.002215
2143.000000	0.002354
2142.000000	0.002325
2141.000000	0.002169
2140.000000	0.002005
2139.000000	0.001932
2138.000000	0.001966
2137.000000	0.002043
2136.000000	0.002078
2135.000000	0.002047
2134.000000	0.001991
2133.000000	0.001966
2132.000000	0.001986
2131.000000	0.002036
2130.000000	0.002100
2129.000000	0.002165
2128.000000	0.002222
2127.000000	0.002276
2126.000000	0.002353
2125.000000	0.002461
2124.000000	0.002573
2123.000000	0.002649
2122.000000	0.002682
2121.000000	0.002687
2120.000000	0.002675
2119.000000	0.002641
2118.000000	0.002588
2117.000000	0.002542
2116.000000	0.002525
2115.000000	0.002546
2114.000000	0.002598
2113.000000	0.002663
2112.000000	0.002712
2111.000000	0.002730
2110.000000	0.002735
2109.000000	0.002746
2108.000000	0.002749
2107.000000	0.002714
2106.000000	0.002656
2105.000000	0.002635
2104.000000	0.002690
2103.000000	0.002785
2102.000000	0.002847
2101.000000	0.002834
2100.000000	0.002758
2099.000000	0.002655
2098.000000	0.002562
2097.000000	0.002515
2096.000000	0.002541
2095.000000	0.002632
2094.000000	0.002743
2093.000000	0.002822
2092.000000	0.002842
2091.000000	0.002829
2090.000000	0.002833
2089.000000	0.002884
2088.000000	0.002956
2087.000000	0.002999
2086.000000	0.002995
2085.000000	0.002959
2084.000000	0.002902
2083.000000	0.002808
2082.000000	0.002681
2081.000000	0.002577
2080.000000	0.002554
2079.000000	0.002613
2078.000000	0.002700
2077.000000	0.002762
2076.000000	0.002778
2075.000000	0.002748
2074.000000	0.002687
2073.000000	0.002633
2072.000000	0.002621
2071.000000	0.002640
2070.000000	0.002636
2069.000000	0.002575
2068.000000	0.002491
2067.000000	0.002438
2066.000000	0.002433
2065.000000	0.002444
2064.000000	0.002453
2063.000000	0.002473
2062.000000	0.002506
2061.000000	0.002514
2060.000000	0.002462
2059.000000	0.002377
2058.000000	0.002329
2057.000000	0.002347
2056.000000	0.002393
2055.000000	0.002427
2054.000000	0.002467
2053.000000	0.002558
2052.000000	0.002691
2051.000000	0.002801
2050.000000	0.002831
2049.000000	0.002780
2048.000000	0.002684
2047.000000	0.002577
2046.000000	0.002476
2045.000000	0.002402
2044.000000	0.002373
2043.000000	0.002385
2042.000000	0.002407
2041.000000	0.002404
2040.000000	0.002384
2039.000000	0.002401
2038.000000	0.002492
2037.000000	0.002602
2036.000000	0.002611
2035.000000	0.002457
2034.000000	0.002227
2033.000000	0.002070
2032.000000	0.002056
2031.000000	0.002138
2030.000000	0.002233
2029.000000	0.002293
2028.000000	0.002304
2027.000000	0.002287
2026.000000	0.002279
2025.000000	0.002261
2024.000000	0.002149
2023.000000	0.001900
2022.000000	0.001612
2021.000000	0.001453
2020.000000	0.001482
2019.000000	0.001599
2018.000000	0.001676
2017.000000	0.001667
2016.000000	0.001609
2015.000000	0.001557
2014.000000	0.001564
2013.000000	0.001650
2012.000000	0.001765
2011.000000	0.001846
2010.000000	0.001884
2009.000000	0.001916
2008.000000	0.001936
2007.000000	0.001904
2006.000000	0.001836
2005.000000	0.001809
2004.000000	0.001860
2003.000000	0.001943
2002.000000	0.002019
2001.000000	0.002103
2000.000000	0.002194
1999.000000	0.002231
1998.000000	0.002166
1997.000000	0.002040
1996.000000	0.001945
1995.000000	0.001935
1994.000000	0.002005
1993.000000	0.002114
1992.000000	0.002210
1991.000000	0.002248
1990.000000	0.002227
1989.000000	0.002186
1988.000000	0.002157
1987.000000	0.002138
1986.000000	0.002120
1985.000000	0.002106
1984.000000	0.002096
1983.000000	0.002068
1982.000000	0.002006
1981.000000	0.001927
1980.000000	0.001833
1979.000000	0.001693
1978.000000	0.001485
1977.000000	0.001265
1976.000000	0.001121
1975.000000	0.001089
1974.000000	0.001157
1973.000000	0.001307
1972.000000	0.001510
1971.000000	0.001694
1970.000000	0.001777
1969.000000	0.001735
1968.000000	0.001616
1967.000000	0.001513
1966.000000	0.001500
1965.000000	0.001606
1964.000000	0.001798
1963.000000	0.001998
1962.000000	0.002118
1961.000000	0.002108
1960.000000	0.001986
1959.000000	0.001830
1958.000000	0.001718
1957.000000	0.001687
1956.000000	0.001724
1955.000000	0.001796
1954.000000	0.001875
1953.000000	0.001939
1952.000000	0.001969
1951.000000	0.001965
1950.000000	0.001950
1949.000000	0.001940
1948.000000	0.001922
1947.000000	0.001887
1946.000000	0.001855
1945.000000	0.001860
1944.000000	0.001907
1943.000000	0.001982
1942.000000	0.002084
1941.000000	0.002203
1940.000000	0.002281
1939.000000	0.002241
1938.000000	0.002075
1937.000000	0.001877
1936.000000	0.001760
1935.000000	0.001756
1934.000000	0.001825
1933.000000	0.001928
1932.000000	0.002057
1931.000000	0.002192
1930.000000	0.002287
1929.000000	0.002305
1928.000000	0.002251
1927.000000	0.002160
1926.000000	0.002065
1925.000000	0.001987
1924.000000	0.001945
1923.000000	0.001943
1922.000000	0.001962
1921.000000	0.001979
1920.000000	0.001989
1919.000000	0.002007
1918.000000	0.002036
1917.000000	0.002062
1916.000000	0.002078
1915.000000	0.002106
1914.000000	0.002168
1913.000000	0.002242
1912.000000	0.002271
1911.000000	0.002227
1910.000000	0.002153
1909.000000	0.002108
1908.000000	0.002096
1907.000000	0.002085
1906.000000	0.002064
1905.000000	0.002052
1904.000000	0.002065
1903.000000	0.002093
1902.000000	0.002116
1901.000000	0.002120
1900.000000	0.002091
1899.000000	0.002026
1898.000000	0.001951
1897.000000	0.001906
1896.000000	0.001894
1895.000000	0.001890
1894.000000	0.001880
1893.000000	0.001883
1892.000000	0.001913
1891.000000	0.001950
1890.000000	0.001962
1889.000000	0.001943
1888.000000	0.001909
1887.000000	0.001882
1886.000000	0.001879
1885.000000	0.001892
1884.000000	0.001894
1883.000000	0.001861
1882.000000	0.001804
1881.000000	0.001756
1880.000000	0.001732
1879.000000	0.001731
1878.000000	0.001763
1877.000000	0.001837
1876.000000	0.001923
1875.000000	0.001967
1874.000000	0.001945
1873.000000	0.001883
1872.000000	0.001821
1871.000000	0.001777
1870.000000	0.001763
1869.000000	0.001792
1868.000000	0.001828
1867.000000	0.001807
1866.000000	0.001731
1865.000000	0.001675
1864.000000	0.001687
1863.000000	0.001743
1862.000000	0.001795
1861.000000	0.001829
1860.000000	0.001857
1859.000000	0.001872
1858.000000	0.001855
1857.000000	0.001814
1856.000000	0.001783
1855.000000	0.001785
1854.000000	0.001814
1853.000000	0.001850
1852.000000	0.001865
1851.000000	0.001848
1850.000000	0.001811
1849.000000	0.001782
1848.000000	0.001771
1847.000000	0.001765
1846.000000	0.001760
1845.000000	0.001775
1844.000000	0.001817
1843.000000	0.001840
1842.000000	0.001804
1841.000000	0.001732
1840.000000	0.001669
1839.000000	0.001640
1838.000000	0.001649
1837.000000	0.001683
1836.000000	0.001728
1835.000000	0.001763
1834.000000	0.001779
1833.000000	0.001777
1832.000000	0.001753
1831.000000	0.001706
1830.000000	0.001651
1829.000000	0.001610
1828.000000	0.001586
1827.000000	0.001572
1826.000000	0.001572
1825.000000	0.001595
1824.000000	0.001638
1823.000000	0.001668
1822.000000	0.001660
1821.000000	0.001618
1820.000000	0.001567
1819.000000	0.001530
1818.000000	0.001513
1817.000000	0.001515
1816.000000	0.001535
1815.000000	0.001560
1814.000000	0.001574
1813.000000	0.001572
1812.000000	0.001568
1811.000000	0.001572
1810.000000	0.001584
1809.000000	0.001599
1808.000000	0.001613
1807.000000	0.001613
1806.000000	0.001593
1805.000000	0.001565
1804.000000	0.001545
1803.000000	0.001527
1802.000000	0.001507
1801.000000	0.001495
1800.000000	0.001495
1799.000000	0.001500
1798.000000	0.001504
1797.000000	0.001522
1796.000000	0.001559
1795.000000	0.001598
1794.000000	0.001625
1793.000000	0.001652
1792.000000	0.001686
1791.000000	0.001691
1790.000000	0.001635
1789.000000	0.001551
1788.000000	0.001493
1787.000000	0.001478
1786.000000	0.001493
1785.000000	0.001517
1784.000000	0.001534
1783.000000	0.001534
1782.000000	0.001521
1781.000000	0.001502
1780.000000	0.001473
1779.000000	0.001429
1778.000000	0.001381
1777.000000	0.001347
1776.000000	0.001327
1775.000000	0.001310
1774.000000	0.001300
1773.000000	0.001323
1772.000000	0.001398
1771.000000	0.001476
1770.000000	0.001507
1769.000000	0.001506
1768.000000	0.001497
1767.000000	0.001471
1766.000000	0.001409
1765.000000	0.001320
1764.000000	0.001247
1763.000000	0.001236
1762.000000	0.001305
1761.000000	0.001407
1760.000000	0.001475
1759.000000	0.001497
1758.000000	0.001512
1757.000000	0.001551
1756.000000	0.001608
1755.000000	0.001656
1754.000000	0.001697
1753.000000	0.001747
1752.000000	0.001805
1751.000000	0.001859
1750.000000	0.001905
1749.000000	0.001956
1748.000000	0.002016
1747.000000	0.002070
1746.000000	0.002110
1745.000000	0.002140
1744.000000	0.002160
1743.000000	0.002160
1742.000000	0.002136
1741.000000	0.002105
1740.000000	0.002095
1739.000000	0.002098
1738.000000	0.002081
1737.000000	0.002043
1736.000000	0.002013
1735.000000	0.001991
1734.000000	0.001983
1733.000000	0.001979
1732.000000	0.001943
1731.000000	0.001893
1730.000000	0.001864
1729.000000	0.001860
1728.000000	0.001854
1727.000000	0.001820
1726.000000	0.001761
1725.000000	0.001703
1724.000000	0.001677
1723.000000	0.001682
1722.000000	0.001684
1721.000000	0.001669
1720.000000	0.001656
1719.000000	0.001657
1718.000000	0.001658
1717.000000	0.001659
1716.000000	0.001676
1715.000000	0.001697
1714.000000	0.001715
1713.000000	0.001741
1712.000000	0.001781
1711.000000	0.001830
1710.000000	0.001870
1709.000000	0.001898
1708.000000	0.001926
1707.000000	0.001969
1706.000000	0.002029
1705.000000	0.002096
1704.000000	0.002146
1703.000000	0.002175
1702.000000	0.002200
1701.000000	0.002243
1700.000000	0.002339
1699.000000	0.002440
1698.000000	0.002501
1697.000000	0.002603
1696.000000	0.002790
1695.000000	0.002959
1694.000000	0.003025
1693.000000	0.003046
1692.000000	0.003107
1691.000000	0.003213
1690.000000	0.003326
1689.000000	0.003424
1688.000000	0.003510
1687.000000	0.003604
1686.000000	0.003721
1685.000000	0.003872
1684.000000	0.004082
1683.000000	0.004258
1682.000000	0.004341
1681.000000	0.004416
1680.000000	0.004511
1679.000000	0.004602
1678.000000	0.004693
1677.000000	0.004808
1676.000000	0.004951
1675.000000	0.005088
1674.000000	0.005197
1673.000000	0.005293
1672.000000	0.005411
1671.000000	0.005565
1670.000000	0.005756
1669.000000	0.005974
1668.000000	0.006162
1667.000000	0.006287
1666.000000	0.006376
1665.000000	0.006471
1664.000000	0.006594
1663.000000	0.006729
1662.000000	0.006851
1661.000000	0.006956
1660.000000	0.007060
1659.000000	0.007171
1658.000000	0.007292
1657.000000	0.007434
1656.000000	0.007598
1655.000000	0.007776
1654.000000	0.007886
1653.000000	0.007945
1652.000000	0.008000
1651.000000	0.008024
1650.000000	0.008061
1649.000000	0.008139
1648.000000	0.008223
1647.000000	0.008275
1646.000000	0.008284
1645.000000	0.008274
1644.000000	0.008280
1643.000000	0.008309
1642.000000	0.008353
1641.000000	0.008396
1640.000000	0.008426
1639.000000	0.008442
1638.000000	0.008446
1637.000000	0.008428
1636.000000	0.008379
1635.000000	0.008326
1634.000000	0.008290
1633.000000	0.008281
1632.000000	0.008296
1631.000000	0.008312
1630.000000	0.008317
1629.000000	0.008321
1628.000000	0.008321
1627.000000	0.008293
1626.000000	0.008232
1625.000000	0.008157
1624.000000	0.008082
1623.000000	0.008009
1622.000000	0.007942
1621.000000	0.007892
1620.000000	0.007862
1619.000000	0.007841
1618.000000	0.007791
1617.000000	0.007693
1616.000000	0.007568
1615.000000	0.007446
1614.000000	0.007347
1613.000000	0.007278
1612.000000	0.007217
1611.000000	0.007137
1610.000000	0.007045
1609.000000	0.006956
1608.000000	0.006861
1607.000000	0.006745
1606.000000	0.006624
1605.000000	0.006520
1604.000000	0.006430
1603.000000	0.006341
1602.000000	0.006254
1601.000000	0.006168
1600.000000	0.006082
1599.000000	0.005997
1598.000000	0.005924
1597.000000	0.005865
1596.000000	0.005808
1595.000000	0.005746
1594.000000	0.005689
1593.000000	0.005646
1592.000000	0.005608
1591.000000	0.005563
1590.000000	0.005517
1589.000000	0.005479
1588.000000	0.005444
1587.000000	0.005406
1586.000000	0.005377
1585.000000	0.005366
1584.000000	0.005365
1583.000000	0.005359
1582.000000	0.005357
1581.000000	0.005365
1580.000000	0.005375
1579.000000	0.005387
1578.000000	0.005407
1577.000000	0.005426
1576.000000	0.005421
1575.000000	0.005380
1574.000000	0.005328
1573.000000	0.005306
1572.000000	0.005324
1571.000000	0.005356
1570.000000	0.005379
1569.000000	0.005385
1568.000000	0.005366
1567.000000	0.005342
1566.000000	0.005342
1565.000000	0.005365
1564.000000	0.005382
1563.000000	0.005408
1562.000000	0.005457
1561.000000	0.005544
1560.000000	0.005557
1559.000000	0.005536
1558.000000	0.005602
1557.000000	0.005671
1556.000000	0.005725
1555.000000	0.005781
1554.000000	0.005825
1553.000000	0.005861
1552.000000	0.005903
1551.000000	0.005958
1550.000000	0.006009
1549.000000	0.006035
1548.000000	0.006042
1547.000000	0.006056
1546.000000	0.006090
1545.000000	0.006140
1544.000000	0.006191
1543.000000	0.006223
1542.000000	0.006224
1541.000000	0.006194
1540.000000	0.006182
1539.000000	0.006181
1538.000000	0.006152
1537.000000	0.006119
1536.000000	0.006114
1535.000000	0.006113
1534.000000	0.006073
1533.000000	0.005990
1532.000000	0.005902
1531.000000	0.005833
1530.000000	0.005784
1529.000000	0.005750
1528.000000	0.005722
1527.000000	0.005680
1526.000000	0.005607
1525.000000	0.005524
1524.000000	0.005464
1523.000000	0.005428
1522.000000	0.005378
1521.000000	0.005314
1520.000000	0.005262
1519.000000	0.005238
1518.000000	0.005235
1517.000000	0.005227
1516.000000	0.005192
1515.000000	0.005136
1514.000000	0.005081
1513.000000	0.005039
1512.000000	0.005009
1511.000000	0.004994
1510.000000	0.004985
1509.000000	0.004964
1508.000000	0.004873
1507.000000	0.004692
1506.000000	0.004492
1505.000000	0.004345
1504.000000	0.004264
1503.000000	0.004221
1502.000000	0.004191
1501.000000	0.004171
1500.000000	0.004163
1499.000000	0.004161
1498.000000	0.004127
1497.000000	0.004038
1496.000000	0.003935
1495.000000	0.003856
1494.000000	0.003798
1493.000000	0.003758
1492.000000	0.003740
1491.000000	0.003735
1490.000000	0.003724
1489.000000	0.003706
1488.000000	0.003700
1487.000000	0.003703
1486.000000	0.003704
1485.000000	0.003712
1484.000000	0.003739
1483.000000	0.003782
1482.000000	0.003826
1481.000000	0.003862
1480.000000	0.003896
1479.000000	0.003944
1478.000000	0.004015
1477.000000	0.004110
1476.000000	0.004222
1475.000000	0.004324
1474.000000	0.004403
1473.000000	0.004477
1472.000000	0.004568
1471.000000	0.004652
1470.000000	0.004715
1469.000000	0.004773
1468.000000	0.004838
1467.000000	0.004906
1466.000000	0.004974
1465.000000	0.005055
1464.000000	0.005150
1463.000000	0.005241
1462.000000	0.005314
1461.000000	0.005381
1460.000000	0.005457
1459.000000	0.005550
1458.000000	0.005646
1457.000000	0.005728
1456.000000	0.005774
1455.000000	0.005787
1454.000000	0.005801
1453.000000	0.005831
1452.000000	0.005870
1451.000000	0.005911
1450.000000	0.005953
1449.000000	0.005993
1448.000000	0.006026
1447.000000	0.006053
1446.000000	0.006081
1445.000000	0.006112
1444.000000	0.006137
1443.000000	0.006150
1442.000000	0.006154
1441.000000	0.006157
1440.000000	0.006168
1439.000000	0.006197
1438.000000	0.006238
1437.000000	0.006275
1436.000000	0.006307
1435.000000	0.006339
1434.000000	0.006372
1433.000000	0.006405
1432.000000	0.006431
1431.000000	0.006451
1430.000000	0.006464
1429.000000	0.006468
1428.000000	0.006473
1427.000000	0.006499
1426.000000	0.006554
1425.000000	0.006612
1424.000000	0.006630
1423.000000	0.006615
1422.000000	0.006604
1421.000000	0.006613
1420.000000	0.006617
1419.000000	0.006608
1418.000000	0.006600
1417.000000	0.006590
1416.000000	0.006573
1415.000000	0.006549
1414.000000	0.006521
1413.000000	0.006492
1412.000000	0.006462
1411.000000	0.006427
1410.000000	0.006383
1409.000000	0.006332
1408.000000	0.006293
1407.000000	0.006280
1406.000000	0.006284
1405.000000	0.006274
1404.000000	0.006229
1403.000000	0.006168
1402.000000	0.006121
1401.000000	0.006092
1400.000000	0.006072
1399.000000	0.006060
1398.000000	0.006061
1397.000000	0.006058
1396.000000	0.006028
1395.000000	0.005970
1394.000000	0.005912
1393.000000	0.005873
1392.000000	0.005847
1391.000000	0.005825
1390.000000	0.005805
1389.000000	0.005779
1388.000000	0.005746
1387.000000	0.005716
1386.000000	0.005698
1385.000000	0.005689
1384.000000	0.005677
1383.000000	0.005663
1382.000000	0.005662
1381.000000	0.005691
1380.000000	0.005742
1379.000000	0.005789
1378.000000	0.005815
1377.000000	0.005823
1376.000000	0.005822
1375.000000	0.005806
1374.000000	0.005768
1373.000000	0.005716
1372.000000	0.005667
1371.000000	0.005628
1370.000000	0.005585
1369.000000	0.005519
1368.000000	0.005432
1367.000000	0.005360
1366.000000	0.005336
1365.000000	0.005357
1364.000000	0.005388
1363.000000	0.005385
1362.000000	0.005336
1361.000000	0.005259
1360.000000	0.005177
1359.000000	0.005106
1358.000000	0.005050
1357.000000	0.005012
1356.000000	0.004985
1355.000000	0.004963
1354.000000	0.004942
1353.000000	0.004918
1352.000000	0.004888
1351.000000	0.004854
1350.000000	0.004828
1349.000000	0.004820
1348.000000	0.004824
1347.000000	0.004833
1346.000000	0.004847
1345.000000	0.004866
1344.000000	0.004894
1343.000000	0.004933
1342.000000	0.004986
1341.000000	0.005049
1340.000000	0.005102
1339.000000	0.005127
1338.000000	0.005131
1337.000000	0.005132
1336.000000	0.005137
1335.000000	0.005142
1334.000000	0.005148
1333.000000	0.005165
1332.000000	0.005198
1331.000000	0.005239
1330.000000	0.005286
1329.000000	0.005343
1328.000000	0.005416
1327.000000	0.005500
1326.000000	0.005579
1325.000000	0.005642
1324.000000	0.005689
1323.000000	0.005730
1322.000000	0.005766
1321.000000	0.005788
1320.000000	0.005784
1319.000000	0.005750
1318.000000	0.005687
1317.000000	0.005596
1316.000000	0.005478
1315.000000	0.005348
1314.000000	0.005225
1313.000000	0.005109
1312.000000	0.004988
1311.000000	0.004856
1310.000000	0.004724
1309.000000	0.004610
1308.000000	0.004520
1307.000000	0.004452
1306.000000	0.004397
1305.000000	0.004343
1304.000000	0.004281
1303.000000	0.004212
1302.000000	0.004141
1301.000000	0.004075
1300.000000	0.004012
1299.000000	0.003956
1298.000000	0.003907
1297.000000	0.003860
1296.000000	0.003811
1295.000000	0.003763
1294.000000	0.003722
1293.000000	0.003684
1292.000000	0.003644
1291.000000	0.003612
1290.000000	0.003605
1289.000000	0.003622
1288.000000	0.003639
1287.000000	0.003636
1286.000000	0.003616
1285.000000	0.003596
1284.000000	0.003584
1283.000000	0.003577
1282.000000	0.003571
1281.000000	0.003564
1280.000000	0.003554
1279.000000	0.003540
1278.000000	0.003525
1277.000000	0.003513
1276.000000	0.003506
1275.000000	0.003502
1274.000000	0.003499
1273.000000	0.003496
1272.000000	0.003496
1271.000000	0.003508
1270.000000	0.003540
1269.000000	0.003581
1268.000000	0.003613
1267.000000	0.003623
1266.000000	0.003617
1265.000000	0.003611
1264.000000	0.003620
1263.000000	0.003648
1262.000000	0.003688
1261.000000	0.003728
1260.000000	0.003756
1259.000000	0.003770
1258.000000	0.003781
1257.000000	0.003798
1256.000000	0.003819
1255.000000	0.003838
1254.000000	0.003858
1253.000000	0.003890
1252.000000	0.003934
1251.000000	0.003973
1250.000000	0.003996
1249.000000	0.004004
1248.000000	0.004010
1247.000000	0.004021
1246.000000	0.004033
1245.000000	0.004045
1244.000000	0.004062
1243.000000	0.004091
1242.000000	0.004127
1241.000000	0.004155
1240.000000	0.004167
1239.000000	0.004168
1238.000000	0.004168
1237.000000	0.004173
1236.000000	0.004175
1235.000000	0.004165
1234.000000	0.004139
1233.000000	0.004103
1232.000000	0.004066
1231.000000	0.004035
1230.000000	0.004008
1229.000000	0.003976
1228.000000	0.003935
1227.000000	0.003885
1226.000000	0.003830
1225.000000	0.003772
1224.000000	0.003721
1223.000000	0.003682
1222.000000	0.003646
1221.000000	0.003597
1220.000000	0.003528
1219.000000	0.003456
1218.000000	0.003398
1217.000000	0.003357
1216.000000	0.003323
1215.000000	0.003293
1214.000000	0.003272
1213.000000	0.003261
1212.000000	0.003254
1211.000000	0.003250
1210.000000	0.003250
1209.000000	0.003245
1208.000000	0.003230
1207.000000	0.003213
1206.000000	0.003208
1205.000000	0.003214
1204.000000	0.003212
1203.000000	0.003185
1202.000000	0.003138
1201.000000	0.003083
1200.000000	0.003023
1199.000000	0.002952
1198.000000	0.002870
1197.000000	0.002788
1196.000000	0.002717
1195.000000	0.002655
1194.000000	0.002593
1193.000000	0.002521
1192.000000	0.002438
1191.000000	0.002347
1190.000000	0.002254
1189.000000	0.002164
1188.000000	0.002089
1187.000000	0.002042
1186.000000	0.002024
1185.000000	0.002017
1184.000000	0.002000
1183.000000	0.001971
1182.000000	0.001949
1181.000000	0.001949
1180.000000	0.001980
1179.000000	0.002039
1178.000000	0.002116
1177.000000	0.002198
1176.000000	0.002275
1175.000000	0.002353
1174.000000	0.002444
1173.000000	0.002549
1172.000000	0.002661
1171.000000	0.002776
1170.000000	0.002907
1169.000000	0.003067
1168.000000	0.003255
1167.000000	0.003462
1166.000000	0.003681
1165.000000	0.003916
1164.000000	0.004168
1163.000000	0.004419
1162.000000	0.004647
1161.000000	0.004843
1160.000000	0.005018
1159.000000	0.005194
1158.000000	0.005376
1157.000000	0.005558
1156.000000	0.005726
1155.000000	0.005873
1154.000000	0.005995
1153.000000	0.006087
1152.000000	0.006143
1151.000000	0.006169
1150.000000	0.006171
1149.000000	0.006156
1148.000000	0.006124
1147.000000	0.006082
1146.000000	0.006038
1145.000000	0.005989
1144.000000	0.005923
1143.000000	0.005833
1142.000000	0.005724
1141.000000	0.005614
1140.000000	0.005522
1139.000000	0.005459
1138.000000	0.005420
1137.000000	0.005379
1136.000000	0.005316
1135.000000	0.005236
1134.000000	0.005176
1133.000000	0.005169
1132.000000	0.005217
1131.000000	0.005292
1130.000000	0.005360
1129.000000	0.005407
1128.000000	0.005436
1127.000000	0.005462
1126.000000	0.005502
1125.000000	0.005561
1124.000000	0.005629
1123.000000	0.005697
1122.000000	0.005758
1121.000000	0.005815
1120.000000	0.005873
1119.000000	0.005939
1118.000000	0.006018
1117.000000	0.006107
1116.000000	0.006190
1115.000000	0.006260
1114.000000	0.006319
1113.000000	0.006376
1112.000000	0.006435
1111.000000	0.006498
1110.000000	0.006569
1109.000000	0.006649
1108.000000	0.006726
1107.000000	0.006787
1106.000000	0.006827
1105.000000	0.006856
1104.000000	0.006888
1103.000000	0.006930
1102.000000	0.006977
1101.000000	0.007013
1100.000000	0.007025
1099.000000	0.007012
1098.000000	0.006985
1097.000000	0.006962
1096.000000	0.006952
1095.000000	0.006964
1094.000000	0.007004
1093.000000	0.007063
1092.000000	0.007121
1091.000000	0.007169
1090.000000	0.007223
1089.000000	0.007303
1088.000000	0.007408
1087.000000	0.007532
1086.000000	0.007686
1085.000000	0.007887
1084.000000	0.008125
1083.000000	0.008353
1082.000000	0.008534
1081.000000	0.008671
1080.000000	0.008795
1079.000000	0.008928
1078.000000	0.009067
1077.000000	0.009185
1076.000000	0.009248
1075.000000	0.009228
1074.000000	0.009127
1073.000000	0.008979
1072.000000	0.008819
1071.000000	0.008665
1070.000000	0.008524
1069.000000	0.008410
1068.000000	0.008343
1067.000000	0.008331
1066.000000	0.008364
1065.000000	0.008430
1064.000000	0.008530
1063.000000	0.008669
1062.000000	0.008842
1061.000000	0.009036
1060.000000	0.009239
1059.000000	0.009441
1058.000000	0.009632
1057.000000	0.009792
1056.000000	0.009911
1055.000000	0.009996
1054.000000	0.010074
1053.000000	0.010160
1052.000000	0.010245
1051.000000	0.010316
1050.000000	0.010385
1049.000000	0.010473
1048.000000	0.010573
1047.000000	0.010652
1046.000000	0.010703
1045.000000	0.010762
1044.000000	0.010866
1043.000000	0.011003
1042.000000	0.011124
1041.000000	0.011204
1040.000000	0.011265
1039.000000	0.011350
1038.000000	0.011475
1037.000000	0.011628
1036.000000	0.011792
1035.000000	0.011956
1034.000000	0.012116
1033.000000	0.012272
1032.000000	0.012420
1031.000000	0.012557
1030.000000	0.012687
1029.000000	0.012812
1028.000000	0.012932
1027.000000	0.013036
1026.000000	0.013116
1025.000000	0.013173
1024.000000	0.013220
1023.000000	0.013273
1022.000000	0.013340
1021.000000	0.013410
1020.000000	0.013459
1019.000000	0.013480
1018.000000	0.013491
1017.000000	0.013513
1016.000000	0.013540
1015.000000	0.013549
1014.000000	0.013536
1013.000000	0.013518
1012.000000	0.013505
1011.000000	0.013483
1010.000000	0.013441
1009.000000	0.013396
1008.000000	0.013373
1007.000000	0.013368
1006.000000	0.013349
1005.000000	0.013305
1004.000000	0.013259
1003.000000	0.013243
1002.000000	0.013255
1001.000000	0.013259
1000.000000	0.013229
999.000000	0.013164
998.000000	0.013087
997.000000	0.013020
996.000000	0.012964
995.000000	0.012908
994.000000	0.012829
993.000000	0.012711
992.000000	0.012559
991.000000	0.012392
990.000000	0.012231
989.000000	0.012077
988.000000	0.011915
987.000000	0.011730
986.000000	0.011522
985.000000	0.011302
984.000000	0.011082
983.000000	0.010867
982.000000	0.010651
981.000000	0.010432
980.000000	0.010215
979.000000	0.010012
978.000000	0.009821
977.000000	0.009625
976.000000	0.009412
975.000000	0.009190
974.000000	0.008971
973.000000	0.008750
972.000000	0.008514
971.000000	0.008274
970.000000	0.008064
969.000000	0.007903
968.000000	0.007770
967.000000	0.007626
966.000000	0.007457
965.000000	0.007273
964.000000	0.007087
963.000000	0.006902
962.000000	0.006722
961.000000	0.006550
960.000000	0.006395
959.000000	0.006257
958.000000	0.006138
957.000000	0.006036
956.000000	0.005942
955.000000	0.005839
954.000000	0.005712
953.000000	0.005565
952.000000	0.005421
951.000000	0.005302
950.000000	0.005205
949.000000	0.005106
948.000000	0.004993
947.000000	0.004879
946.000000	0.004792
945.000000	0.004741
944.000000	0.004705
943.000000	0.004664
942.000000	0.004614
941.000000	0.004571
940.000000	0.004548
939.000000	0.004545
938.000000	0.004544
937.000000	0.004528
936.000000	0.004491
935.000000	0.004444
934.000000	0.004399
933.000000	0.004349
932.000000	0.004284
931.000000	0.004201
930.000000	0.004111
929.000000	0.004024
928.000000	0.003936
927.000000	0.003849
926.000000	0.003780
925.000000	0.003754
924.000000	0.003773
923.000000	0.003807
922.000000	0.003819
921.000000	0.003793
920.000000	0.003741
919.000000	0.003688
918.000000	0.003644
917.000000	0.003595
916.000000	0.003520
915.000000	0.003420
914.000000	0.003319
913.000000	0.003237
912.000000	0.003173
911.000000	0.003101
910.000000	0.003000
909.000000	0.002884
908.000000	0.002786
907.000000	0.002731
906.000000	0.002708
905.000000	0.002681
904.000000	0.002622
903.000000	0.002532
902.000000	0.002435
901.000000	0.002350
900.000000	0.002285
899.000000	0.002234
898.000000	0.002186
897.000000	0.002133
896.000000	0.002079
895.000000	0.002040
894.000000	0.002025
893.000000	0.002028
892.000000	0.002035
891.000000	0.002036
890.000000	0.002028
889.000000	0.002012
888.000000	0.001989
887.000000	0.001958
886.000000	0.001918
885.000000	0.001883
884.000000	0.001877
883.000000	0.001920
882.000000	0.002009
881.000000	0.002127
880.000000	0.002267
879.000000	0.002430
878.000000	0.002606
877.000000	0.002766
876.000000	0.002884
875.000000	0.002951
874.000000	0.002960
873.000000	0.002898
872.000000	0.002763
871.000000	0.002594
870.000000	0.002449
869.000000	0.002368
868.000000	0.002338
867.000000	0.002311
866.000000	0.002240
865.000000	0.002130
864.000000	0.002029
863.000000	0.001989
862.000000	0.002003
861.000000	0.002026
860.000000	0.002022
859.000000	0.002002
858.000000	0.001985
857.000000	0.001964
856.000000	0.001920
855.000000	0.001862
854.000000	0.001817
853.000000	0.001799
852.000000	0.001796
851.000000	0.001794
850.000000	0.001795
849.000000	0.001804
848.000000	0.001812
847.000000	0.001807
846.000000	0.001784
845.000000	0.001756
844.000000	0.001740
843.000000	0.001741
842.000000	0.001741
841.000000	0.001714
840.000000	0.001652
839.000000	0.001586
838.000000	0.001546
837.000000	0.001526
836.000000	0.001498
835.000000	0.001451
834.000000	0.001406
833.000000	0.001389
832.000000	0.001400
831.000000	0.001415
830.000000	0.001409
829.000000	0.001378
828.000000	0.001336
827.000000	0.001311
826.000000	0.001313
825.000000	0.001334
824.000000	0.001354
823.000000	0.001365
822.000000	0.001364
821.000000	0.001352
820.000000	0.001340
819.000000	0.001350
818.000000	0.001386
817.000000	0.001419
816.000000	0.001418
815.000000	0.001384
814.000000	0.001352
813.000000	0.001342
812.000000	0.001346
811.000000	0.001349
810.000000	0.001354
809.000000	0.001368
808.000000	0.001383
807.000000	0.001390
806.000000	0.001389
805.000000	0.001386
804.000000	0.001380
803.000000	0.001365
802.000000	0.001344
801.000000	0.001330
800.000000	0.001334
799.000000	0.001358
798.000000	0.001391
797.000000	0.001412
796.000000	0.001408
795.000000	0.001394
794.000000	0.001395
793.000000	0.001420
792.000000	0.001453
791.000000	0.001479
790.000000	0.001490
789.000000	0.001485
788.000000	0.001459
787.000000	0.001414
786.000000	0.001372
785.000000	0.001354
784.000000	0.001364
783.000000	0.001387
782.000000	0.001412
781.000000	0.001442
780.000000	0.001482
779.000000	0.001527
778.000000	0.001563
777.000000	0.001578
776.000000	0.001581
775.000000	0.001590
774.000000	0.001618
773.000000	0.001653
772.000000	0.001670
771.000000	0.001662
770.000000	0.001647
769.000000	0.001648
768.000000	0.001675
767.000000	0.001729
766.000000	0.001807
765.000000	0.001900
764.000000	0.001987
763.000000	0.002043
762.000000	0.002055
761.000000	0.002023
760.000000	0.001962
759.000000	0.001895
758.000000	0.001846
757.000000	0.001824
756.000000	0.001823
755.000000	0.001838
754.000000	0.001860
753.000000	0.001870
752.000000	0.001846
751.000000	0.001785
750.000000	0.001711
749.000000	0.001650
748.000000	0.001601
747.000000	0.001553
746.000000	0.001503
745.000000	0.001459
744.000000	0.001418
743.000000	0.001372
742.000000	0.001326
741.000000	0.001302
740.000000	0.001312
739.000000	0.001344
738.000000	0.001377
737.000000	0.001405
736.000000	0.001429
735.000000	0.001445
734.000000	0.001447
733.000000	0.001429
732.000000	0.001394
731.000000	0.001350
730.000000	0.001310
729.000000	0.001283
728.000000	0.001275
727.000000	0.001294
726.000000	0.001348
725.000000	0.001436
724.000000	0.001530
723.000000	0.001588
722.000000	0.001593
721.000000	0.001570
720.000000	0.001562
719.000000	0.001585
718.000000	0.001630
717.000000	0.001694
716.000000	0.001795
715.000000	0.001950
714.000000	0.002134
713.000000	0.002278
712.000000	0.002316
711.000000	0.002231
710.000000	0.002081
709.000000	0.001948
708.000000	0.001884
707.000000	0.001884
706.000000	0.001917
705.000000	0.001957
704.000000	0.001998
703.000000	0.002024
702.000000	0.002019
701.000000	0.001983
700.000000	0.001941
699.000000	0.001918
698.000000	0.001923
697.000000	0.001945
696.000000	0.001974
695.000000	0.002003
694.000000	0.002022
693.000000	0.002021
692.000000	0.001996
691.000000	0.001953
690.000000	0.001896
689.000000	0.001823
688.000000	0.001743
687.000000	0.001675
686.000000	0.001641
685.000000	0.001644
684.000000	0.001671
683.000000	0.001707
682.000000	0.001749
681.000000	0.001799
680.000000	0.001840
679.000000	0.001849
678.000000	0.001827
677.000000	0.001802
676.000000	0.001806
675.000000	0.001847
674.000000	0.001916
673.000000	0.002006
672.000000	0.002103
671.000000	0.002174
670.000000	0.002180
669.000000	0.002096
668.000000	0.001943
667.000000	0.001885
666.000000	0.002029
665.000000	0.002233
664.000000	0.002351
663.000000	0.002335
662.000000	0.002216
661.000000	0.002068
660.000000	0.001960
659.000000	0.001925
658.000000	0.001963
657.000000	0.002033
656.000000	0.002082
655.000000	0.002082
654.000000	0.002047
653.000000	0.002015
652.000000	0.002015
651.000000	0.002037
650.000000	0.002052
649.000000	0.002038
648.000000	0.002014
647.000000	0.002008
646.000000	0.002020
645.000000	0.002010
644.000000	0.001940
643.000000	0.001829
642.000000	0.001741
641.000000	0.001725
640.000000	0.001772
639.000000	0.001838
638.000000	0.001896
637.000000	0.001943
636.000000	0.001981
635.000000	0.001995
634.000000	0.001973
633.000000	0.001937
632.000000	0.001929
631.000000	0.001970
630.000000	0.002031
629.000000	0.002056
628.000000	0.002024
627.000000	0.001968
626.000000	0.001934
625.000000	0.001937
624.000000	0.001957
623.000000	0.001991
622.000000	0.002063
621.000000	0.002191
620.000000	0.002351
619.000000	0.002501
618.000000	0.002624
617.000000	0.002731
616.000000	0.002823
615.000000	0.002878
614.000000	0.002883
613.000000	0.002865
612.000000	0.002873
611.000000	0.002929
610.000000	0.003012
609.000000	0.003084
608.000000	0.003122
607.000000	0.003133
606.000000	0.003147
605.000000	0.003191
604.000000	0.003274
603.000000	0.003380
602.000000	0.003484
601.000000	0.003560
600.000000	0.003591
599.000000	0.003581
598.000000	0.003566
597.000000	0.003579
596.000000	0.003610
595.000000	0.003615
594.000000	0.003557
593.000000	0.003436
592.000000	0.003294
591.000000	0.003203
590.000000	0.003232
589.000000	0.003379
588.000000	0.003539
587.000000	0.003592
586.000000	0.003527
585.000000	0.003451
584.000000	0.003462
583.000000	0.003535
582.000000	0.003604
581.000000	0.003667
580.000000	0.003784
579.000000	0.003965
578.000000	0.004149
577.000000	0.004280
576.000000	0.004369
575.000000	0.004450
574.000000	0.004520
573.000000	0.004546
572.000000	0.004516
571.000000	0.004456
570.000000	0.004408
569.000000	0.004385
568.000000	0.004365
567.000000	0.004320
566.000000	0.004264
565.000000	0.004229
564.000000	0.004208
563.000000	0.004144
562.000000	0.004008
561.000000	0.003851
560.000000	0.003744
559.000000	0.003700
558.000000	0.003685
557.000000	0.003681
556.000000	0.003693
555.000000	0.003695
554.000000	0.003643
553.000000	0.003550
552.000000	0.003487
551.000000	0.003491
550.000000	0.003518
549.000000	0.003507
548.000000	0.003458
547.000000	0.003416
546.000000	0.003405
545.000000	0.003427
544.000000	0.003493
543.000000	0.003600
542.000000	0.003694
541.000000	0.003695
540.000000	0.003592
539.000000	0.003463
538.000000	0.003411
537.000000	0.003472
536.000000	0.003604
535.000000	0.003728
534.000000	0.003786
533.000000	0.003765
532.000000	0.003707
531.000000	0.003683
530.000000	0.003750
529.000000	0.003899
528.000000	0.004066
527.000000	0.004186
526.000000	0.004252
525.000000	0.004306
524.000000	0.004368
523.000000	0.004410
522.000000	0.004413
521.000000	0.004407
520.000000	0.004442
519.000000	0.004528
518.000000	0.004623
517.000000	0.004675
516.000000	0.004655
515.000000	0.004562
514.000000	0.004414
513.000000	0.004231
512.000000	0.004016
511.000000	0.003768
510.000000	0.003520
509.000000	0.003331
508.000000	0.003220
507.000000	0.003149
506.000000	0.003105
505.000000	0.003126
504.000000	0.003228
503.000000	0.003331
502.000000	0.003322
501.000000	0.003207
500.000000	0.003099
499.000000	0.003076
498.000000	0.003106
497.000000	0.003107
496.000000	0.003031
495.000000	0.002906
494.000000	0.002823
493.000000	0.002865
492.000000	0.003022
491.000000	0.003181
490.000000	0.003231
489.000000	0.003156
488.000000	0.002984
487.000000	0.002717
486.000000	0.002373
485.000000	0.002067
484.000000	0.001969
483.000000	0.002136
482.000000	0.002438
481.000000	0.002645
480.000000	0.002591
479.000000	0.002283
478.000000	0.001921
477.000000	0.001766
476.000000	0.001897
475.000000	0.002126
474.000000	0.002192
473.000000	0.002052
472.000000	0.001939
471.000000	0.002079
470.000000	0.002422
469.000000	0.002744
468.000000	0.002880
467.000000	0.002809
466.000000	0.002641
465.000000	0.002528
464.000000	0.002551
463.000000	0.002658
462.000000	0.002700
461.000000	0.002530
460.000000	0.002099
459.000000	0.001489
458.000000	0.000968
457.000000	0.000865
456.000000	0.001205
455.000000	0.001671
454.000000	0.001926
453.000000	0.001838
452.000000	0.001519
451.000000	0.001263
450.000000	0.001316
