PE IR       SUBTECH     SPECTRUM    ASCII       PEDS        4.00        
   -1
P14-Noir015_1.ASC
23/06/09
16:07:05.00
23/06/09
16:36:39.00
uco
Sample 015 By uco Date Friday, June 09 2023
450.000000
#HDR
-1
-1
#GR
cm-1
A
1.0
0.0
4000.000000
-1.000000
3551
8
0.011955
0.000517
#DATA
4000.000000	0.000858
3999.000000	0.000862
3998.000000	0.000871
3997.000000	0.000877
3996.000000	0.000875
3995.000000	0.000866
3994.000000	0.000860
3993.000000	0.000870
3992.000000	0.000900
3991.000000	0.000935
3990.000000	0.000957
3989.000000	0.000950
3988.000000	0.000922
3987.000000	0.000891
3986.000000	0.000876
3985.000000	0.000881
3984.000000	0.000895
3983.000000	0.000908
3982.000000	0.000916
3981.000000	0.000916
3980.000000	0.000911
3979.000000	0.000903
3978.000000	0.000900
3977.000000	0.000907
3976.000000	0.000919
3975.000000	0.000928
3974.000000	0.000924
3973.000000	0.000910
3972.000000	0.000894
3971.000000	0.000888
3970.000000	0.000894
3969.000000	0.000912
3968.000000	0.000935
3967.000000	0.000955
3966.000000	0.000963
3965.000000	0.000958
3964.000000	0.000946
3963.000000	0.000935
3962.000000	0.000928
3961.000000	0.000923
3960.000000	0.000918
3959.000000	0.000912
3958.000000	0.000910
3957.000000	0.000913
3956.000000	0.000922
3955.000000	0.000935
3954.000000	0.000949
3953.000000	0.000962
3952.000000	0.000973
3951.000000	0.000986
3950.000000	0.001000
3949.000000	0.001011
3948.000000	0.001011
3947.000000	0.001000
3946.000000	0.000988
3945.000000	0.000986
3944.000000	0.000999
3943.000000	0.001020
3942.000000	0.001035
3941.000000	0.001040
3940.000000	0.001040
3939.000000	0.001040
3938.000000	0.001039
3937.000000	0.001031
3936.000000	0.001013
3935.000000	0.000988
3934.000000	0.000960
3933.000000	0.000939
3932.000000	0.000932
3931.000000	0.000943
3930.000000	0.000964
3929.000000	0.000987
3928.000000	0.001005
3927.000000	0.001018
3926.000000	0.001028
3925.000000	0.001030
3924.000000	0.001017
3923.000000	0.000992
3922.000000	0.000966
3921.000000	0.000952
3920.000000	0.000955
3919.000000	0.000968
3918.000000	0.000985
3917.000000	0.000999
3916.000000	0.001007
3915.000000	0.001010
3914.000000	0.001012
3913.000000	0.001017
3912.000000	0.001023
3911.000000	0.001026
3910.000000	0.001026
3909.000000	0.001024
3908.000000	0.001027
3907.000000	0.001038
3906.000000	0.001055
3905.000000	0.001069
3904.000000	0.001069
3903.000000	0.001050
3902.000000	0.001019
3901.000000	0.000988
3900.000000	0.000963
3899.000000	0.000944
3898.000000	0.000936
3897.000000	0.000942
3896.000000	0.000964
3895.000000	0.000991
3894.000000	0.001014
3893.000000	0.001027
3892.000000	0.001029
3891.000000	0.001021
3890.000000	0.001009
3889.000000	0.001005
3888.000000	0.001019
3887.000000	0.001045
3886.000000	0.001069
3885.000000	0.001078
3884.000000	0.001077
3883.000000	0.001080
3882.000000	0.001090
3881.000000	0.001092
3880.000000	0.001071
3879.000000	0.001032
3878.000000	0.000994
3877.000000	0.000975
3876.000000	0.000974
3875.000000	0.000980
3874.000000	0.000984
3873.000000	0.000978
3872.000000	0.000964
3871.000000	0.000949
3870.000000	0.000929
3869.000000	0.000899
3868.000000	0.000869
3867.000000	0.000861
3866.000000	0.000876
3865.000000	0.000902
3864.000000	0.000927
3863.000000	0.000947
3862.000000	0.000969
3861.000000	0.000994
3860.000000	0.001021
3859.000000	0.001045
3858.000000	0.001057
3857.000000	0.001048
3856.000000	0.001015
3855.000000	0.000973
3854.000000	0.000953
3853.000000	0.000958
3852.000000	0.000956
3851.000000	0.000952
3850.000000	0.000959
3849.000000	0.000973
3848.000000	0.000987
3847.000000	0.001004
3846.000000	0.001026
3845.000000	0.001045
3844.000000	0.001048
3843.000000	0.001026
3842.000000	0.000987
3841.000000	0.000952
3840.000000	0.000936
3839.000000	0.000933
3838.000000	0.000927
3837.000000	0.000913
3836.000000	0.000903
3835.000000	0.000909
3834.000000	0.000929
3833.000000	0.000952
3832.000000	0.000967
3831.000000	0.000974
3830.000000	0.000980
3829.000000	0.000992
3828.000000	0.001010
3827.000000	0.001026
3826.000000	0.001030
3825.000000	0.001020
3824.000000	0.001007
3823.000000	0.001003
3822.000000	0.001012
3821.000000	0.001021
3820.000000	0.001009
3819.000000	0.000984
3818.000000	0.000970
3817.000000	0.000970
3816.000000	0.000968
3815.000000	0.000953
3814.000000	0.000942
3813.000000	0.000954
3812.000000	0.000984
3811.000000	0.001010
3810.000000	0.001016
3809.000000	0.001004
3808.000000	0.000981
3807.000000	0.000951
3806.000000	0.000915
3805.000000	0.000887
3804.000000	0.000884
3803.000000	0.000912
3802.000000	0.000965
3801.000000	0.001015
3800.000000	0.001037
3799.000000	0.001043
3798.000000	0.001048
3797.000000	0.001047
3796.000000	0.001030
3795.000000	0.000999
3794.000000	0.000965
3793.000000	0.000938
3792.000000	0.000922
3791.000000	0.000915
3790.000000	0.000920
3789.000000	0.000937
3788.000000	0.000965
3787.000000	0.001003
3786.000000	0.001041
3785.000000	0.001068
3784.000000	0.001072
3783.000000	0.001059
3782.000000	0.001048
3781.000000	0.001055
3780.000000	0.001080
3779.000000	0.001100
3778.000000	0.001098
3777.000000	0.001077
3776.000000	0.001054
3775.000000	0.001042
3774.000000	0.001039
3773.000000	0.001043
3772.000000	0.001054
3771.000000	0.001068
3770.000000	0.001074
3769.000000	0.001065
3768.000000	0.001045
3767.000000	0.001028
3766.000000	0.001018
3765.000000	0.001008
3764.000000	0.000992
3763.000000	0.000977
3762.000000	0.000970
3761.000000	0.000970
3760.000000	0.000968
3759.000000	0.000964
3758.000000	0.000967
3757.000000	0.000980
3756.000000	0.000999
3755.000000	0.001011
3754.000000	0.001004
3753.000000	0.000978
3752.000000	0.000940
3751.000000	0.000894
3750.000000	0.000838
3749.000000	0.000783
3748.000000	0.000760
3747.000000	0.000788
3746.000000	0.000859
3745.000000	0.000939
3744.000000	0.000985
3743.000000	0.000996
3742.000000	0.001013
3741.000000	0.001049
3740.000000	0.001073
3739.000000	0.001062
3738.000000	0.001029
3737.000000	0.001004
3736.000000	0.001004
3735.000000	0.001023
3734.000000	0.001040
3733.000000	0.001040
3732.000000	0.001021
3731.000000	0.000990
3730.000000	0.000963
3729.000000	0.000953
3728.000000	0.000962
3727.000000	0.000981
3726.000000	0.001001
3725.000000	0.001017
3724.000000	0.001030
3723.000000	0.001043
3722.000000	0.001057
3721.000000	0.001064
3720.000000	0.001059
3719.000000	0.001041
3718.000000	0.001011
3717.000000	0.000978
3716.000000	0.000948
3715.000000	0.000929
3714.000000	0.000922
3713.000000	0.000930
3712.000000	0.000949
3711.000000	0.000963
3710.000000	0.000954
3709.000000	0.000928
3708.000000	0.000905
3707.000000	0.000899
3706.000000	0.000909
3705.000000	0.000926
3704.000000	0.000942
3703.000000	0.000953
3702.000000	0.000957
3701.000000	0.000955
3700.000000	0.000948
3699.000000	0.000943
3698.000000	0.000944
3697.000000	0.000945
3696.000000	0.000940
3695.000000	0.000929
3694.000000	0.000918
3693.000000	0.000911
3692.000000	0.000911
3691.000000	0.000926
3690.000000	0.000960
3689.000000	0.000995
3688.000000	0.001000
3687.000000	0.000974
3686.000000	0.000945
3685.000000	0.000930
3684.000000	0.000926
3683.000000	0.000927
3682.000000	0.000930
3681.000000	0.000935
3680.000000	0.000931
3679.000000	0.000903
3678.000000	0.000852
3677.000000	0.000803
3676.000000	0.000788
3675.000000	0.000807
3674.000000	0.000837
3673.000000	0.000885
3672.000000	0.000959
3671.000000	0.001029
3670.000000	0.001057
3669.000000	0.001029
3668.000000	0.000983
3667.000000	0.000964
3666.000000	0.000975
3665.000000	0.000995
3664.000000	0.001002
3663.000000	0.000991
3662.000000	0.000968
3661.000000	0.000942
3660.000000	0.000923
3659.000000	0.000916
3658.000000	0.000922
3657.000000	0.000939
3656.000000	0.000957
3655.000000	0.000970
3654.000000	0.000982
3653.000000	0.000997
3652.000000	0.001010
3651.000000	0.001014
3650.000000	0.001018
3649.000000	0.001034
3648.000000	0.001060
3647.000000	0.001078
3646.000000	0.001082
3645.000000	0.001082
3644.000000	0.001088
3643.000000	0.001103
3642.000000	0.001118
3641.000000	0.001123
3640.000000	0.001119
3639.000000	0.001117
3638.000000	0.001125
3637.000000	0.001138
3636.000000	0.001150
3635.000000	0.001156
3634.000000	0.001155
3633.000000	0.001146
3632.000000	0.001128
3631.000000	0.001113
3630.000000	0.001122
3629.000000	0.001167
3628.000000	0.001222
3627.000000	0.001256
3626.000000	0.001272
3625.000000	0.001278
3624.000000	0.001276
3623.000000	0.001271
3622.000000	0.001272
3621.000000	0.001283
3620.000000	0.001298
3619.000000	0.001305
3618.000000	0.001301
3617.000000	0.001289
3616.000000	0.001273
3615.000000	0.001251
3614.000000	0.001228
3613.000000	0.001212
3612.000000	0.001214
3611.000000	0.001234
3610.000000	0.001262
3609.000000	0.001291
3608.000000	0.001317
3607.000000	0.001339
3606.000000	0.001354
3605.000000	0.001368
3604.000000	0.001383
3603.000000	0.001404
3602.000000	0.001430
3601.000000	0.001460
3600.000000	0.001485
3599.000000	0.001492
3598.000000	0.001477
3597.000000	0.001449
3596.000000	0.001429
3595.000000	0.001436
3594.000000	0.001469
3593.000000	0.001509
3592.000000	0.001537
3591.000000	0.001548
3590.000000	0.001550
3589.000000	0.001555
3588.000000	0.001569
3587.000000	0.001585
3586.000000	0.001592
3585.000000	0.001594
3584.000000	0.001605
3583.000000	0.001633
3582.000000	0.001668
3581.000000	0.001698
3580.000000	0.001709
3579.000000	0.001696
3578.000000	0.001672
3577.000000	0.001654
3576.000000	0.001654
3575.000000	0.001675
3574.000000	0.001708
3573.000000	0.001744
3572.000000	0.001779
3571.000000	0.001814
3570.000000	0.001848
3569.000000	0.001876
3568.000000	0.001897
3567.000000	0.001913
3566.000000	0.001928
3565.000000	0.001943
3564.000000	0.001959
3563.000000	0.001973
3562.000000	0.001978
3561.000000	0.001967
3560.000000	0.001942
3559.000000	0.001917
3558.000000	0.001911
3557.000000	0.001932
3556.000000	0.001974
3555.000000	0.002022
3554.000000	0.002057
3553.000000	0.002073
3552.000000	0.002077
3551.000000	0.002087
3550.000000	0.002117
3549.000000	0.002165
3548.000000	0.002216
3547.000000	0.002252
3546.000000	0.002264
3545.000000	0.002255
3544.000000	0.002235
3543.000000	0.002216
3542.000000	0.002211
3541.000000	0.002218
3540.000000	0.002229
3539.000000	0.002240
3538.000000	0.002251
3537.000000	0.002272
3536.000000	0.002304
3535.000000	0.002343
3534.000000	0.002380
3533.000000	0.002412
3532.000000	0.002434
3531.000000	0.002445
3530.000000	0.002447
3529.000000	0.002453
3528.000000	0.002472
3527.000000	0.002506
3526.000000	0.002543
3525.000000	0.002572
3524.000000	0.002583
3523.000000	0.002574
3522.000000	0.002552
3521.000000	0.002533
3520.000000	0.002535
3519.000000	0.002563
3518.000000	0.002604
3517.000000	0.002640
3516.000000	0.002657
3515.000000	0.002658
3514.000000	0.002656
3513.000000	0.002666
3512.000000	0.002689
3511.000000	0.002717
3510.000000	0.002740
3509.000000	0.002756
3508.000000	0.002768
3507.000000	0.002779
3506.000000	0.002789
3505.000000	0.002801
3504.000000	0.002813
3503.000000	0.002820
3502.000000	0.002820
3501.000000	0.002816
3500.000000	0.002819
3499.000000	0.002833
3498.000000	0.002856
3497.000000	0.002883
3496.000000	0.002910
3495.000000	0.002938
3494.000000	0.002963
3493.000000	0.002982
3492.000000	0.002990
3491.000000	0.002989
3490.000000	0.002985
3489.000000	0.002989
3488.000000	0.003005
3487.000000	0.003031
3486.000000	0.003061
3485.000000	0.003090
3484.000000	0.003115
3483.000000	0.003133
3482.000000	0.003144
3481.000000	0.003153
3480.000000	0.003164
3479.000000	0.003177
3478.000000	0.003188
3477.000000	0.003201
3476.000000	0.003219
3475.000000	0.003243
3474.000000	0.003262
3473.000000	0.003270
3472.000000	0.003271
3471.000000	0.003275
3470.000000	0.003294
3469.000000	0.003327
3468.000000	0.003366
3467.000000	0.003401
3466.000000	0.003423
3465.000000	0.003429
3464.000000	0.003425
3463.000000	0.003420
3462.000000	0.003424
3461.000000	0.003444
3460.000000	0.003479
3459.000000	0.003519
3458.000000	0.003555
3457.000000	0.003581
3456.000000	0.003599
3455.000000	0.003612
3454.000000	0.003617
3453.000000	0.003612
3452.000000	0.003600
3451.000000	0.003594
3450.000000	0.003603
3449.000000	0.003627
3448.000000	0.003654
3447.000000	0.003672
3446.000000	0.003679
3445.000000	0.003687
3444.000000	0.003708
3443.000000	0.003743
3442.000000	0.003785
3441.000000	0.003824
3440.000000	0.003860
3439.000000	0.003896
3438.000000	0.003934
3437.000000	0.003973
3436.000000	0.004004
3435.000000	0.004019
3434.000000	0.004011
3433.000000	0.003983
3432.000000	0.003947
3431.000000	0.003925
3430.000000	0.003935
3429.000000	0.003977
3428.000000	0.004037
3427.000000	0.004097
3426.000000	0.004143
3425.000000	0.004175
3424.000000	0.004196
3423.000000	0.004211
3422.000000	0.004221
3421.000000	0.004224
3420.000000	0.004224
3419.000000	0.004225
3418.000000	0.004235
3417.000000	0.004252
3416.000000	0.004274
3415.000000	0.004301
3414.000000	0.004330
3413.000000	0.004361
3412.000000	0.004388
3411.000000	0.004410
3410.000000	0.004425
3409.000000	0.004432
3408.000000	0.004430
3407.000000	0.004425
3406.000000	0.004427
3405.000000	0.004441
3404.000000	0.004471
3403.000000	0.004514
3402.000000	0.004560
3401.000000	0.004595
3400.000000	0.004608
3399.000000	0.004601
3398.000000	0.004582
3397.000000	0.004559
3396.000000	0.004540
3395.000000	0.004533
3394.000000	0.004547
3393.000000	0.004584
3392.000000	0.004628
3391.000000	0.004662
3390.000000	0.004673
3389.000000	0.004667
3388.000000	0.004653
3387.000000	0.004642
3386.000000	0.004636
3385.000000	0.004634
3384.000000	0.004636
3383.000000	0.004645
3382.000000	0.004662
3381.000000	0.004683
3380.000000	0.004702
3379.000000	0.004715
3378.000000	0.004726
3377.000000	0.004733
3376.000000	0.004734
3375.000000	0.004728
3374.000000	0.004724
3373.000000	0.004738
3372.000000	0.004775
3371.000000	0.004822
3370.000000	0.004864
3369.000000	0.004891
3368.000000	0.004905
3367.000000	0.004911
3366.000000	0.004913
3365.000000	0.004912
3364.000000	0.004909
3363.000000	0.004907
3362.000000	0.004905
3361.000000	0.004908
3360.000000	0.004919
3359.000000	0.004938
3358.000000	0.004960
3357.000000	0.004980
3356.000000	0.004997
3355.000000	0.005012
3354.000000	0.005032
3353.000000	0.005056
3352.000000	0.005086
3351.000000	0.005119
3350.000000	0.005158
3349.000000	0.005205
3348.000000	0.005254
3347.000000	0.005297
3346.000000	0.005321
3345.000000	0.005326
3344.000000	0.005321
3343.000000	0.005322
3342.000000	0.005337
3341.000000	0.005363
3340.000000	0.005385
3339.000000	0.005395
3338.000000	0.005395
3337.000000	0.005395
3336.000000	0.005402
3335.000000	0.005417
3334.000000	0.005429
3333.000000	0.005431
3332.000000	0.005420
3331.000000	0.005402
3330.000000	0.005388
3329.000000	0.005389
3328.000000	0.005408
3327.000000	0.005437
3326.000000	0.005470
3325.000000	0.005498
3324.000000	0.005522
3323.000000	0.005538
3322.000000	0.005545
3321.000000	0.005537
3320.000000	0.005513
3319.000000	0.005478
3318.000000	0.005443
3317.000000	0.005421
3316.000000	0.005425
3315.000000	0.005454
3314.000000	0.005493
3313.000000	0.005521
3312.000000	0.005524
3311.000000	0.005506
3310.000000	0.005485
3309.000000	0.005475
3308.000000	0.005481
3307.000000	0.005495
3306.000000	0.005506
3305.000000	0.005506
3304.000000	0.005494
3303.000000	0.005479
3302.000000	0.005474
3301.000000	0.005481
3300.000000	0.005497
3299.000000	0.005515
3298.000000	0.005533
3297.000000	0.005547
3296.000000	0.005558
3295.000000	0.005566
3294.000000	0.005573
3293.000000	0.005575
3292.000000	0.005566
3291.000000	0.005549
3290.000000	0.005534
3289.000000	0.005534
3288.000000	0.005550
3287.000000	0.005572
3286.000000	0.005589
3285.000000	0.005596
3284.000000	0.005592
3283.000000	0.005579
3282.000000	0.005564
3281.000000	0.005553
3280.000000	0.005547
3279.000000	0.005540
3278.000000	0.005531
3277.000000	0.005522
3276.000000	0.005516
3275.000000	0.005511
3274.000000	0.005499
3273.000000	0.005478
3272.000000	0.005454
3271.000000	0.005434
3270.000000	0.005421
3269.000000	0.005416
3268.000000	0.005418
3267.000000	0.005427
3266.000000	0.005441
3265.000000	0.005450
3264.000000	0.005451
3263.000000	0.005443
3262.000000	0.005427
3261.000000	0.005410
3260.000000	0.005393
3259.000000	0.005376
3258.000000	0.005355
3257.000000	0.005330
3256.000000	0.005304
3255.000000	0.005283
3254.000000	0.005269
3253.000000	0.005260
3252.000000	0.005252
3251.000000	0.005239
3250.000000	0.005222
3249.000000	0.005206
3248.000000	0.005195
3247.000000	0.005190
3246.000000	0.005185
3245.000000	0.005172
3244.000000	0.005156
3243.000000	0.005144
3242.000000	0.005140
3241.000000	0.005135
3240.000000	0.005116
3239.000000	0.005083
3238.000000	0.005047
3237.000000	0.005020
3236.000000	0.005006
3235.000000	0.005003
3234.000000	0.005010
3233.000000	0.005021
3232.000000	0.005022
3231.000000	0.005004
3230.000000	0.004964
3229.000000	0.004914
3228.000000	0.004864
3227.000000	0.004815
3226.000000	0.004772
3225.000000	0.004744
3224.000000	0.004739
3223.000000	0.004754
3222.000000	0.004774
3221.000000	0.004788
3220.000000	0.004796
3219.000000	0.004803
3218.000000	0.004812
3217.000000	0.004816
3216.000000	0.004816
3215.000000	0.004811
3214.000000	0.004798
3213.000000	0.004771
3212.000000	0.004731
3211.000000	0.004695
3210.000000	0.004679
3209.000000	0.004682
3208.000000	0.004689
3207.000000	0.004681
3206.000000	0.004650
3205.000000	0.004604
3204.000000	0.004563
3203.000000	0.004542
3202.000000	0.004543
3201.000000	0.004555
3200.000000	0.004561
3199.000000	0.004553
3198.000000	0.004533
3197.000000	0.004509
3196.000000	0.004493
3195.000000	0.004489
3194.000000	0.004495
3193.000000	0.004498
3192.000000	0.004487
3191.000000	0.004462
3190.000000	0.004434
3189.000000	0.004413
3188.000000	0.004404
3187.000000	0.004401
3186.000000	0.004398
3185.000000	0.004393
3184.000000	0.004387
3183.000000	0.004385
3182.000000	0.004383
3181.000000	0.004377
3180.000000	0.004367
3179.000000	0.004352
3178.000000	0.004334
3177.000000	0.004310
3176.000000	0.004287
3175.000000	0.004274
3174.000000	0.004274
3173.000000	0.004281
3172.000000	0.004285
3171.000000	0.004273
3170.000000	0.004243
3169.000000	0.004198
3168.000000	0.004156
3167.000000	0.004138
3166.000000	0.004146
3165.000000	0.004158
3164.000000	0.004146
3163.000000	0.004106
3162.000000	0.004057
3161.000000	0.004021
3160.000000	0.004005
3159.000000	0.004000
3158.000000	0.003998
3157.000000	0.004000
3156.000000	0.004002
3155.000000	0.003999
3154.000000	0.003986
3153.000000	0.003965
3152.000000	0.003940
3151.000000	0.003917
3150.000000	0.003899
3149.000000	0.003884
3148.000000	0.003868
3147.000000	0.003849
3146.000000	0.003829
3145.000000	0.003817
3144.000000	0.003815
3143.000000	0.003820
3142.000000	0.003822
3141.000000	0.003820
3140.000000	0.003818
3139.000000	0.003820
3138.000000	0.003825
3137.000000	0.003821
3136.000000	0.003803
3135.000000	0.003774
3134.000000	0.003745
3133.000000	0.003721
3132.000000	0.003701
3131.000000	0.003687
3130.000000	0.003679
3129.000000	0.003673
3128.000000	0.003667
3127.000000	0.003661
3126.000000	0.003658
3125.000000	0.003663
3124.000000	0.003670
3123.000000	0.003670
3122.000000	0.003657
3121.000000	0.003636
3120.000000	0.003617
3119.000000	0.003608
3118.000000	0.003604
3117.000000	0.003598
3116.000000	0.003589
3115.000000	0.003581
3114.000000	0.003580
3113.000000	0.003582
3112.000000	0.003581
3111.000000	0.003579
3110.000000	0.003580
3109.000000	0.003582
3108.000000	0.003578
3107.000000	0.003562
3106.000000	0.003536
3105.000000	0.003511
3104.000000	0.003492
3103.000000	0.003478
3102.000000	0.003465
3101.000000	0.003451
3100.000000	0.003441
3099.000000	0.003440
3098.000000	0.003449
3097.000000	0.003463
3096.000000	0.003475
3095.000000	0.003480
3094.000000	0.003477
3093.000000	0.003463
3092.000000	0.003441
3091.000000	0.003418
3090.000000	0.003404
3089.000000	0.003409
3088.000000	0.003432
3087.000000	0.003462
3086.000000	0.003487
3085.000000	0.003493
3084.000000	0.003476
3083.000000	0.003443
3082.000000	0.003410
3081.000000	0.003389
3080.000000	0.003384
3079.000000	0.003391
3078.000000	0.003404
3077.000000	0.003412
3076.000000	0.003409
3075.000000	0.003397
3074.000000	0.003389
3073.000000	0.003393
3072.000000	0.003406
3071.000000	0.003410
3070.000000	0.003395
3069.000000	0.003368
3068.000000	0.003347
3067.000000	0.003341
3066.000000	0.003343
3065.000000	0.003343
3064.000000	0.003336
3063.000000	0.003325
3062.000000	0.003313
3061.000000	0.003293
3060.000000	0.003258
3059.000000	0.003219
3058.000000	0.003193
3057.000000	0.003193
3056.000000	0.003209
3055.000000	0.003223
3054.000000	0.003220
3053.000000	0.003196
3052.000000	0.003162
3051.000000	0.003136
3050.000000	0.003128
3049.000000	0.003135
3048.000000	0.003141
3047.000000	0.003136
3046.000000	0.003117
3045.000000	0.003091
3044.000000	0.003063
3043.000000	0.003038
3042.000000	0.003022
3041.000000	0.003017
3040.000000	0.003022
3039.000000	0.003034
3038.000000	0.003054
3037.000000	0.003081
3036.000000	0.003108
3035.000000	0.003128
3034.000000	0.003141
3033.000000	0.003149
3032.000000	0.003145
3031.000000	0.003124
3030.000000	0.003091
3029.000000	0.003058
3028.000000	0.003038
3027.000000	0.003027
3026.000000	0.003013
3025.000000	0.002991
3024.000000	0.002967
3023.000000	0.002950
3022.000000	0.002947
3021.000000	0.002962
3020.000000	0.002986
3019.000000	0.003007
3018.000000	0.003014
3017.000000	0.003003
3016.000000	0.002981
3015.000000	0.002955
3014.000000	0.002931
3013.000000	0.002919
3012.000000	0.002924
3011.000000	0.002947
3010.000000	0.002978
3009.000000	0.003004
3008.000000	0.003016
3007.000000	0.003016
3006.000000	0.003008
3005.000000	0.002995
3004.000000	0.002980
3003.000000	0.002965
3002.000000	0.002954
3001.000000	0.002947
3000.000000	0.002939
2999.000000	0.002926
2998.000000	0.002914
2997.000000	0.002916
2996.000000	0.002937
2995.000000	0.002967
2994.000000	0.002988
2993.000000	0.002992
2992.000000	0.002984
2991.000000	0.002975
2990.000000	0.002978
2989.000000	0.002995
2988.000000	0.003020
2987.000000	0.003047
2986.000000	0.003069
2985.000000	0.003082
2984.000000	0.003087
2983.000000	0.003090
2982.000000	0.003098
2981.000000	0.003115
2980.000000	0.003139
2979.000000	0.003169
2978.000000	0.003204
2977.000000	0.003242
2976.000000	0.003279
2975.000000	0.003312
2974.000000	0.003349
2973.000000	0.003398
2972.000000	0.003464
2971.000000	0.003544
2970.000000	0.003629
2969.000000	0.003710
2968.000000	0.003777
2967.000000	0.003829
2966.000000	0.003873
2965.000000	0.003918
2964.000000	0.003966
2963.000000	0.004010
2962.000000	0.004040
2961.000000	0.004061
2960.000000	0.004085
2959.000000	0.004119
2958.000000	0.004160
2957.000000	0.004197
2956.000000	0.004219
2955.000000	0.004220
2954.000000	0.004205
2953.000000	0.004185
2952.000000	0.004172
2951.000000	0.004170
2950.000000	0.004180
2949.000000	0.004201
2948.000000	0.004233
2947.000000	0.004275
2946.000000	0.004316
2945.000000	0.004341
2944.000000	0.004340
2943.000000	0.004319
2942.000000	0.004299
2941.000000	0.004299
2940.000000	0.004324
2939.000000	0.004363
2938.000000	0.004406
2937.000000	0.004451
2936.000000	0.004501
2935.000000	0.004559
2934.000000	0.004623
2933.000000	0.004686
2932.000000	0.004743
2931.000000	0.004794
2930.000000	0.004841
2929.000000	0.004884
2928.000000	0.004922
2927.000000	0.004952
2926.000000	0.004975
2925.000000	0.004996
2924.000000	0.005017
2923.000000	0.005035
2922.000000	0.005045
2921.000000	0.005047
2920.000000	0.005047
2919.000000	0.005046
2918.000000	0.005041
2917.000000	0.005025
2916.000000	0.004993
2915.000000	0.004950
2914.000000	0.004900
2913.000000	0.004848
2912.000000	0.004794
2911.000000	0.004743
2910.000000	0.004700
2909.000000	0.004671
2908.000000	0.004653
2907.000000	0.004638
2906.000000	0.004617
2905.000000	0.004588
2904.000000	0.004558
2903.000000	0.004536
2902.000000	0.004526
2901.000000	0.004519
2900.000000	0.004505
2899.000000	0.004480
2898.000000	0.004447
2897.000000	0.004409
2896.000000	0.004369
2895.000000	0.004333
2894.000000	0.004307
2893.000000	0.004293
2892.000000	0.004280
2891.000000	0.004257
2890.000000	0.004223
2889.000000	0.004187
2888.000000	0.004163
2887.000000	0.004156
2886.000000	0.004164
2885.000000	0.004171
2884.000000	0.004164
2883.000000	0.004140
2882.000000	0.004115
2881.000000	0.004106
2880.000000	0.004122
2879.000000	0.004157
2878.000000	0.004194
2877.000000	0.004219
2876.000000	0.004228
2875.000000	0.004227
2874.000000	0.004228
2873.000000	0.004233
2872.000000	0.004235
2871.000000	0.004225
2870.000000	0.004207
2869.000000	0.004191
2868.000000	0.004183
2867.000000	0.004183
2866.000000	0.004191
2865.000000	0.004204
2864.000000	0.004218
2863.000000	0.004229
2862.000000	0.004237
2861.000000	0.004245
2860.000000	0.004254
2859.000000	0.004261
2858.000000	0.004265
2857.000000	0.004265
2856.000000	0.004257
2855.000000	0.004238
2854.000000	0.004217
2853.000000	0.004204
2852.000000	0.004205
2851.000000	0.004204
2850.000000	0.004183
2849.000000	0.004135
2848.000000	0.004068
2847.000000	0.003992
2846.000000	0.003916
2845.000000	0.003845
2844.000000	0.003786
2843.000000	0.003747
2842.000000	0.003725
2841.000000	0.003707
2840.000000	0.003680
2839.000000	0.003642
2838.000000	0.003606
2837.000000	0.003583
2836.000000	0.003572
2835.000000	0.003556
2834.000000	0.003528
2833.000000	0.003496
2832.000000	0.003471
2831.000000	0.003461
2830.000000	0.003464
2829.000000	0.003470
2828.000000	0.003472
2827.000000	0.003461
2826.000000	0.003436
2825.000000	0.003399
2824.000000	0.003359
2823.000000	0.003326
2822.000000	0.003303
2821.000000	0.003291
2820.000000	0.003285
2819.000000	0.003280
2818.000000	0.003271
2817.000000	0.003258
2816.000000	0.003242
2815.000000	0.003228
2814.000000	0.003221
2813.000000	0.003223
2812.000000	0.003228
2811.000000	0.003228
2810.000000	0.003219
2809.000000	0.003202
2808.000000	0.003185
2807.000000	0.003178
2806.000000	0.003181
2805.000000	0.003190
2804.000000	0.003194
2803.000000	0.003186
2802.000000	0.003170
2801.000000	0.003157
2800.000000	0.003154
2799.000000	0.003160
2798.000000	0.003166
2797.000000	0.003167
2796.000000	0.003160
2795.000000	0.003148
2794.000000	0.003137
2793.000000	0.003129
2792.000000	0.003127
2791.000000	0.003125
2790.000000	0.003119
2789.000000	0.003108
2788.000000	0.003095
2787.000000	0.003082
2786.000000	0.003071
2785.000000	0.003063
2784.000000	0.003055
2783.000000	0.003043
2782.000000	0.003021
2781.000000	0.002994
2780.000000	0.002968
2779.000000	0.002954
2778.000000	0.002957
2777.000000	0.002975
2776.000000	0.002998
2775.000000	0.003015
2774.000000	0.003022
2773.000000	0.003025
2772.000000	0.003025
2771.000000	0.003021
2770.000000	0.003007
2769.000000	0.002992
2768.000000	0.002986
2767.000000	0.002990
2766.000000	0.002996
2765.000000	0.002995
2764.000000	0.002987
2763.000000	0.002981
2762.000000	0.002980
2761.000000	0.002984
2760.000000	0.002991
2759.000000	0.002999
2758.000000	0.003006
2757.000000	0.003009
2756.000000	0.003005
2755.000000	0.002992
2754.000000	0.002976
2753.000000	0.002961
2752.000000	0.002954
2751.000000	0.002960
2750.000000	0.002976
2749.000000	0.002997
2748.000000	0.003015
2747.000000	0.003024
2746.000000	0.003025
2745.000000	0.003021
2744.000000	0.003017
2743.000000	0.003017
2742.000000	0.003013
2741.000000	0.003000
2740.000000	0.002976
2739.000000	0.002951
2738.000000	0.002932
2737.000000	0.002922
2736.000000	0.002918
2735.000000	0.002922
2734.000000	0.002939
2733.000000	0.002967
2732.000000	0.002992
2731.000000	0.002999
2730.000000	0.002986
2729.000000	0.002961
2728.000000	0.002942
2727.000000	0.002937
2726.000000	0.002951
2725.000000	0.002976
2724.000000	0.003000
2723.000000	0.003011
2722.000000	0.003005
2721.000000	0.002988
2720.000000	0.002970
2719.000000	0.002957
2718.000000	0.002951
2717.000000	0.002948
2716.000000	0.002944
2715.000000	0.002937
2714.000000	0.002925
2713.000000	0.002909
2712.000000	0.002892
2711.000000	0.002879
2710.000000	0.002879
2709.000000	0.002892
2708.000000	0.002910
2707.000000	0.002927
2706.000000	0.002939
2705.000000	0.002949
2704.000000	0.002957
2703.000000	0.002958
2702.000000	0.002950
2701.000000	0.002936
2700.000000	0.002920
2699.000000	0.002906
2698.000000	0.002899
2697.000000	0.002904
2696.000000	0.002920
2695.000000	0.002934
2694.000000	0.002934
2693.000000	0.002917
2692.000000	0.002895
2691.000000	0.002885
2690.000000	0.002889
2689.000000	0.002897
2688.000000	0.002897
2687.000000	0.002883
2686.000000	0.002866
2685.000000	0.002855
2684.000000	0.002854
2683.000000	0.002858
2682.000000	0.002863
2681.000000	0.002869
2680.000000	0.002880
2679.000000	0.002897
2678.000000	0.002915
2677.000000	0.002925
2676.000000	0.002920
2675.000000	0.002900
2674.000000	0.002871
2673.000000	0.002844
2672.000000	0.002830
2671.000000	0.002830
2670.000000	0.002839
2669.000000	0.002854
2668.000000	0.002871
2667.000000	0.002886
2666.000000	0.002898
2665.000000	0.002904
2664.000000	0.002908
2663.000000	0.002914
2662.000000	0.002924
2661.000000	0.002940
2660.000000	0.002958
2659.000000	0.002970
2658.000000	0.002971
2657.000000	0.002960
2656.000000	0.002945
2655.000000	0.002934
2654.000000	0.002927
2653.000000	0.002918
2652.000000	0.002902
2651.000000	0.002883
2650.000000	0.002873
2649.000000	0.002877
2648.000000	0.002892
2647.000000	0.002904
2646.000000	0.002905
2645.000000	0.002893
2644.000000	0.002873
2643.000000	0.002847
2642.000000	0.002822
2641.000000	0.002804
2640.000000	0.002800
2639.000000	0.002808
2638.000000	0.002820
2637.000000	0.002826
2636.000000	0.002823
2635.000000	0.002815
2634.000000	0.002813
2633.000000	0.002823
2632.000000	0.002840
2631.000000	0.002847
2630.000000	0.002831
2629.000000	0.002793
2628.000000	0.002746
2627.000000	0.002705
2626.000000	0.002672
2625.000000	0.002645
2624.000000	0.002621
2623.000000	0.002599
2622.000000	0.002579
2621.000000	0.002560
2620.000000	0.002543
2619.000000	0.002531
2618.000000	0.002534
2617.000000	0.002557
2616.000000	0.002594
2615.000000	0.002622
2614.000000	0.002626
2613.000000	0.002609
2612.000000	0.002591
2611.000000	0.002591
2610.000000	0.002609
2609.000000	0.002627
2608.000000	0.002629
2607.000000	0.002610
2606.000000	0.002585
2605.000000	0.002577
2604.000000	0.002593
2603.000000	0.002616
2602.000000	0.002626
2601.000000	0.002615
2600.000000	0.002592
2599.000000	0.002567
2598.000000	0.002538
2597.000000	0.002504
2596.000000	0.002479
2595.000000	0.002478
2594.000000	0.002504
2593.000000	0.002546
2592.000000	0.002585
2591.000000	0.002607
2590.000000	0.002610
2589.000000	0.002601
2588.000000	0.002591
2587.000000	0.002584
2586.000000	0.002583
2585.000000	0.002581
2584.000000	0.002574
2583.000000	0.002555
2582.000000	0.002526
2581.000000	0.002494
2580.000000	0.002468
2579.000000	0.002449
2578.000000	0.002438
2577.000000	0.002439
2576.000000	0.002450
2575.000000	0.002459
2574.000000	0.002453
2573.000000	0.002434
2572.000000	0.002418
2571.000000	0.002411
2570.000000	0.002409
2569.000000	0.002406
2568.000000	0.002406
2567.000000	0.002416
2566.000000	0.002429
2565.000000	0.002437
2564.000000	0.002436
2563.000000	0.002425
2562.000000	0.002405
2561.000000	0.002374
2560.000000	0.002338
2559.000000	0.002305
2558.000000	0.002286
2557.000000	0.002290
2556.000000	0.002322
2555.000000	0.002375
2554.000000	0.002426
2553.000000	0.002450
2552.000000	0.002442
2551.000000	0.002417
2550.000000	0.002389
2549.000000	0.002363
2548.000000	0.002339
2547.000000	0.002322
2546.000000	0.002320
2545.000000	0.002330
2544.000000	0.002340
2543.000000	0.002336
2542.000000	0.002323
2541.000000	0.002327
2540.000000	0.002359
2539.000000	0.002401
2538.000000	0.002413
2537.000000	0.002380
2536.000000	0.002330
2535.000000	0.002304
2534.000000	0.002311
2533.000000	0.002331
2532.000000	0.002346
2531.000000	0.002353
2530.000000	0.002358
2529.000000	0.002361
2528.000000	0.002362
2527.000000	0.002361
2526.000000	0.002363
2525.000000	0.002369
2524.000000	0.002374
2523.000000	0.002369
2522.000000	0.002348
2521.000000	0.002305
2520.000000	0.002252
2519.000000	0.002218
2518.000000	0.002222
2517.000000	0.002259
2516.000000	0.002298
2515.000000	0.002311
2514.000000	0.002297
2513.000000	0.002279
2512.000000	0.002274
2511.000000	0.002282
2510.000000	0.002290
2509.000000	0.002291
2508.000000	0.002292
2507.000000	0.002299
2506.000000	0.002304
2505.000000	0.002301
2504.000000	0.002294
2503.000000	0.002297
2502.000000	0.002318
2501.000000	0.002346
2500.000000	0.002362
2499.000000	0.002359
2498.000000	0.002344
2497.000000	0.002332
2496.000000	0.002336
2495.000000	0.002361
2494.000000	0.002392
2493.000000	0.002412
2492.000000	0.002407
2491.000000	0.002382
2490.000000	0.002343
2489.000000	0.002299
2488.000000	0.002263
2487.000000	0.002249
2486.000000	0.002263
2485.000000	0.002284
2484.000000	0.002289
2483.000000	0.002272
2482.000000	0.002258
2481.000000	0.002271
2480.000000	0.002309
2479.000000	0.002347
2478.000000	0.002359
2477.000000	0.002343
2476.000000	0.002319
2475.000000	0.002303
2474.000000	0.002301
2473.000000	0.002307
2472.000000	0.002320
2471.000000	0.002340
2470.000000	0.002359
2469.000000	0.002360
2468.000000	0.002330
2467.000000	0.002281
2466.000000	0.002244
2465.000000	0.002241
2464.000000	0.002266
2463.000000	0.002292
2462.000000	0.002298
2461.000000	0.002285
2460.000000	0.002268
2459.000000	0.002258
2458.000000	0.002255
2457.000000	0.002256
2456.000000	0.002269
2455.000000	0.002303
2454.000000	0.002355
2453.000000	0.002404
2452.000000	0.002427
2451.000000	0.002416
2450.000000	0.002386
2449.000000	0.002361
2448.000000	0.002355
2447.000000	0.002359
2446.000000	0.002355
2445.000000	0.002335
2444.000000	0.002308
2443.000000	0.002294
2442.000000	0.002300
2441.000000	0.002314
2440.000000	0.002320
2439.000000	0.002309
2438.000000	0.002286
2437.000000	0.002261
2436.000000	0.002237
2435.000000	0.002214
2434.000000	0.002189
2433.000000	0.002168
2432.000000	0.002158
2431.000000	0.002157
2430.000000	0.002157
2429.000000	0.002149
2428.000000	0.002132
2427.000000	0.002122
2426.000000	0.002128
2425.000000	0.002150
2424.000000	0.002174
2423.000000	0.002189
2422.000000	0.002199
2421.000000	0.002210
2420.000000	0.002219
2419.000000	0.002215
2418.000000	0.002193
2417.000000	0.002160
2416.000000	0.002134
2415.000000	0.002133
2414.000000	0.002159
2413.000000	0.002204
2412.000000	0.002245
2411.000000	0.002265
2410.000000	0.002264
2409.000000	0.002257
2408.000000	0.002263
2407.000000	0.002281
2406.000000	0.002297
2405.000000	0.002299
2404.000000	0.002282
2403.000000	0.002250
2402.000000	0.002207
2401.000000	0.002164
2400.000000	0.002137
2399.000000	0.002137
2398.000000	0.002149
2397.000000	0.002153
2396.000000	0.002139
2395.000000	0.002119
2394.000000	0.002115
2393.000000	0.002137
2392.000000	0.002174
2391.000000	0.002208
2390.000000	0.002221
2389.000000	0.002210
2388.000000	0.002186
2387.000000	0.002169
2386.000000	0.002168
2385.000000	0.002183
2384.000000	0.002202
2383.000000	0.002216
2382.000000	0.002220
2381.000000	0.002215
2380.000000	0.002202
2379.000000	0.002180
2378.000000	0.002150
2377.000000	0.002117
2376.000000	0.002088
2375.000000	0.002070
2374.000000	0.002067
2373.000000	0.002081
2372.000000	0.002111
2371.000000	0.002158
2370.000000	0.002219
2369.000000	0.002288
2368.000000	0.002343
2367.000000	0.002362
2366.000000	0.002334
2365.000000	0.002276
2364.000000	0.002214
2363.000000	0.002168
2362.000000	0.002154
2361.000000	0.002180
2360.000000	0.002237
2359.000000	0.002292
2358.000000	0.002311
2357.000000	0.002297
2356.000000	0.002269
2355.000000	0.002250
2354.000000	0.002258
2353.000000	0.002297
2352.000000	0.002344
2351.000000	0.002365
2350.000000	0.002351
2349.000000	0.002317
2348.000000	0.002297
2347.000000	0.002311
2346.000000	0.002342
2345.000000	0.002348
2344.000000	0.002319
2343.000000	0.002302
2342.000000	0.002321
2341.000000	0.002358
2340.000000	0.002380
2339.000000	0.002375
2338.000000	0.002359
2337.000000	0.002356
2336.000000	0.002385
2335.000000	0.002434
2334.000000	0.002482
2333.000000	0.002505
2332.000000	0.002494
2331.000000	0.002457
2330.000000	0.002412
2329.000000	0.002367
2328.000000	0.002340
2327.000000	0.002346
2326.000000	0.002395
2325.000000	0.002471
2324.000000	0.002540
2323.000000	0.002582
2322.000000	0.002595
2321.000000	0.002584
2320.000000	0.002550
2319.000000	0.002498
2318.000000	0.002444
2317.000000	0.002394
2316.000000	0.002350
2315.000000	0.002306
2314.000000	0.002271
2313.000000	0.002259
2312.000000	0.002283
2311.000000	0.002339
2310.000000	0.002410
2309.000000	0.002456
2308.000000	0.002454
2307.000000	0.002407
2306.000000	0.002353
2305.000000	0.002329
2304.000000	0.002351
2303.000000	0.002405
2302.000000	0.002469
2301.000000	0.002514
2300.000000	0.002519
2299.000000	0.002485
2298.000000	0.002443
2297.000000	0.002421
2296.000000	0.002426
2295.000000	0.002439
2294.000000	0.002442
2293.000000	0.002437
2292.000000	0.002439
2291.000000	0.002453
2290.000000	0.002471
2289.000000	0.002488
2288.000000	0.002508
2287.000000	0.002533
2286.000000	0.002548
2285.000000	0.002535
2284.000000	0.002501
2283.000000	0.002468
2282.000000	0.002453
2281.000000	0.002447
2280.000000	0.002437
2279.000000	0.002422
2278.000000	0.002405
2277.000000	0.002378
2276.000000	0.002339
2275.000000	0.002313
2274.000000	0.002346
2273.000000	0.002449
2272.000000	0.002581
2271.000000	0.002673
2270.000000	0.002685
2269.000000	0.002619
2268.000000	0.002514
2267.000000	0.002422
2266.000000	0.002374
2265.000000	0.002359
2264.000000	0.002348
2263.000000	0.002326
2262.000000	0.002306
2261.000000	0.002296
2260.000000	0.002283
2259.000000	0.002259
2258.000000	0.002249
2257.000000	0.002284
2256.000000	0.002359
2255.000000	0.002429
2254.000000	0.002451
2253.000000	0.002417
2252.000000	0.002342
2251.000000	0.002253
2250.000000	0.002184
2249.000000	0.002163
2248.000000	0.002180
2247.000000	0.002198
2246.000000	0.002191
2245.000000	0.002176
2244.000000	0.002194
2243.000000	0.002247
2242.000000	0.002294
2241.000000	0.002293
2240.000000	0.002254
2239.000000	0.002227
2238.000000	0.002241
2237.000000	0.002270
2236.000000	0.002272
2235.000000	0.002241
2234.000000	0.002213
2233.000000	0.002216
2232.000000	0.002238
2231.000000	0.002248
2230.000000	0.002230
2229.000000	0.002182
2228.000000	0.002101
2227.000000	0.001997
2226.000000	0.001910
2225.000000	0.001893
2224.000000	0.001957
2223.000000	0.002054
2222.000000	0.002123
2221.000000	0.002138
2220.000000	0.002122
2219.000000	0.002106
2218.000000	0.002102
2217.000000	0.002101
2216.000000	0.002089
2215.000000	0.002067
2214.000000	0.002046
2213.000000	0.002037
2212.000000	0.002038
2211.000000	0.002043
2210.000000	0.002071
2209.000000	0.002147
2208.000000	0.002263
2207.000000	0.002361
2206.000000	0.002377
2205.000000	0.002303
2204.000000	0.002204
2203.000000	0.002152
2202.000000	0.002153
2201.000000	0.002142
2200.000000	0.002052
2199.000000	0.001886
2198.000000	0.001705
2197.000000	0.001577
2196.000000	0.001533
2195.000000	0.001576
2194.000000	0.001691
2193.000000	0.001839
2192.000000	0.001959
2191.000000	0.002007
2190.000000	0.001997
2189.000000	0.001986
2188.000000	0.002021
2187.000000	0.002096
2186.000000	0.002168
2185.000000	0.002193
2184.000000	0.002160
2183.000000	0.002102
2182.000000	0.002076
2181.000000	0.002130
2180.000000	0.002254
2179.000000	0.002367
2178.000000	0.002379
2177.000000	0.002270
2176.000000	0.002129
2175.000000	0.002065
2174.000000	0.002098
2173.000000	0.002141
2172.000000	0.002111
2171.000000	0.002024
2170.000000	0.001970
2169.000000	0.002020
2168.000000	0.002162
2167.000000	0.002318
2166.000000	0.002411
2165.000000	0.002415
2164.000000	0.002382
2163.000000	0.002391
2162.000000	0.002450
2161.000000	0.002435
2160.000000	0.002181
2159.000000	0.001665
2158.000000	0.001078
2157.000000	0.000661
2156.000000	0.000517
2155.000000	0.000596
2154.000000	0.000801
2153.000000	0.001033
2152.000000	0.001212
2151.000000	0.001296
2150.000000	0.001278
2149.000000	0.001175
2148.000000	0.001032
2147.000000	0.000941
2146.000000	0.000988
2145.000000	0.001169
2144.000000	0.001388
2143.000000	0.001539
2142.000000	0.001580
2141.000000	0.001532
2140.000000	0.001448
2139.000000	0.001398
2138.000000	0.001436
2137.000000	0.001543
2136.000000	0.001627
2135.000000	0.001613
2134.000000	0.001526
2133.000000	0.001455
2132.000000	0.001452
2131.000000	0.001491
2130.000000	0.001525
2129.000000	0.001545
2128.000000	0.001585
2127.000000	0.001685
2126.000000	0.001844
2125.000000	0.002006
2124.000000	0.002097
2123.000000	0.002095
2122.000000	0.002044
2121.000000	0.002003
2120.000000	0.001985
2119.000000	0.001966
2118.000000	0.001937
2117.000000	0.001918
2116.000000	0.001930
2115.000000	0.001973
2114.000000	0.002033
2113.000000	0.002091
2112.000000	0.002128
2111.000000	0.002130
2110.000000	0.002111
2109.000000	0.002095
2108.000000	0.002089
2107.000000	0.002079
2106.000000	0.002068
2105.000000	0.002085
2104.000000	0.002148
2103.000000	0.002227
2102.000000	0.002266
2101.000000	0.002236
2100.000000	0.002163
2099.000000	0.002101
2098.000000	0.002090
2097.000000	0.002132
2096.000000	0.002201
2095.000000	0.002270
2094.000000	0.002322
2093.000000	0.002340
2092.000000	0.002307
2091.000000	0.002219
2090.000000	0.002110
2089.000000	0.002034
2088.000000	0.002028
2087.000000	0.002084
2086.000000	0.002163
2085.000000	0.002220
2084.000000	0.002223
2083.000000	0.002167
2082.000000	0.002083
2081.000000	0.002014
2080.000000	0.001991
2079.000000	0.002008
2078.000000	0.002038
2077.000000	0.002056
2076.000000	0.002050
2075.000000	0.002018
2074.000000	0.001971
2073.000000	0.001934
2072.000000	0.001927
2071.000000	0.001945
2070.000000	0.001949
2069.000000	0.001898
2068.000000	0.001803
2067.000000	0.001730
2066.000000	0.001738
2065.000000	0.001809
2064.000000	0.001863
2063.000000	0.001850
2062.000000	0.001802
2061.000000	0.001772
2060.000000	0.001759
2059.000000	0.001721
2058.000000	0.001647
2057.000000	0.001581
2056.000000	0.001572
2055.000000	0.001637
2054.000000	0.001777
2053.000000	0.001972
2052.000000	0.002164
2051.000000	0.002258
2050.000000	0.002201
2049.000000	0.002033
2048.000000	0.001856
2047.000000	0.001730
2046.000000	0.001643
2045.000000	0.001578
2044.000000	0.001570
2043.000000	0.001648
2042.000000	0.001775
2041.000000	0.001864
2040.000000	0.001885
2039.000000	0.001891
2038.000000	0.001921
2037.000000	0.001901
2036.000000	0.001713
2035.000000	0.001375
2034.000000	0.001077
2033.000000	0.000998
2032.000000	0.001112
2031.000000	0.001243
2030.000000	0.001259
2029.000000	0.001140
2028.000000	0.000930
2027.000000	0.000718
2026.000000	0.000647
2025.000000	0.000808
2024.000000	0.001094
2023.000000	0.001276
2022.000000	0.001257
2021.000000	0.001164
2020.000000	0.001151
2019.000000	0.001194
2018.000000	0.001169
2017.000000	0.001065
2016.000000	0.001006
2015.000000	0.001088
2014.000000	0.001273
2013.000000	0.001459
2012.000000	0.001567
2011.000000	0.001563
2010.000000	0.001455
2009.000000	0.001306
2008.000000	0.001214
2007.000000	0.001227
2006.000000	0.001300
2005.000000	0.001340
2004.000000	0.001317
2003.000000	0.001290
2002.000000	0.001335
2001.000000	0.001462
2000.000000	0.001598
1999.000000	0.001669
1998.000000	0.001675
1997.000000	0.001664
1996.000000	0.001661
1995.000000	0.001648
1994.000000	0.001609
1993.000000	0.001570
1992.000000	0.001573
1991.000000	0.001618
1990.000000	0.001676
1989.000000	0.001735
1988.000000	0.001812
1987.000000	0.001903
1986.000000	0.001963
1985.000000	0.001931
1984.000000	0.001792
1983.000000	0.001592
1982.000000	0.001398
1981.000000	0.001241
1980.000000	0.001092
1979.000000	0.000921
1978.000000	0.000753
1977.000000	0.000661
1976.000000	0.000675
1975.000000	0.000744
1974.000000	0.000806
1973.000000	0.000865
1972.000000	0.000964
1971.000000	0.001109
1970.000000	0.001248
1969.000000	0.001328
1968.000000	0.001359
1967.000000	0.001413
1966.000000	0.001542
1965.000000	0.001714
1964.000000	0.001849
1963.000000	0.001883
1962.000000	0.001807
1961.000000	0.001651
1960.000000	0.001469
1959.000000	0.001313
1958.000000	0.001221
1957.000000	0.001210
1956.000000	0.001278
1955.000000	0.001406
1954.000000	0.001557
1953.000000	0.001680
1952.000000	0.001732
1951.000000	0.001703
1950.000000	0.001620
1949.000000	0.001520
1948.000000	0.001425
1947.000000	0.001342
1946.000000	0.001275
1945.000000	0.001242
1944.000000	0.001271
1943.000000	0.001385
1942.000000	0.001553
1941.000000	0.001685
1940.000000	0.001695
1939.000000	0.001582
1938.000000	0.001422
1937.000000	0.001308
1936.000000	0.001276
1935.000000	0.001299
1934.000000	0.001343
1933.000000	0.001417
1932.000000	0.001545
1931.000000	0.001705
1930.000000	0.001818
1929.000000	0.001809
1928.000000	0.001694
1927.000000	0.001564
1926.000000	0.001487
1925.000000	0.001455
1924.000000	0.001427
1923.000000	0.001402
1922.000000	0.001411
1921.000000	0.001456
1920.000000	0.001503
1919.000000	0.001531
1918.000000	0.001551
1917.000000	0.001572
1916.000000	0.001581
1915.000000	0.001590
1914.000000	0.001637
1913.000000	0.001739
1912.000000	0.001853
1911.000000	0.001913
1910.000000	0.001890
1909.000000	0.001807
1908.000000	0.001697
1907.000000	0.001585
1906.000000	0.001492
1905.000000	0.001434
1904.000000	0.001418
1903.000000	0.001443
1902.000000	0.001509
1901.000000	0.001586
1900.000000	0.001613
1899.000000	0.001554
1898.000000	0.001443
1897.000000	0.001353
1896.000000	0.001318
1895.000000	0.001313
1894.000000	0.001304
1893.000000	0.001290
1892.000000	0.001282
1891.000000	0.001282
1890.000000	0.001290
1889.000000	0.001317
1888.000000	0.001364
1887.000000	0.001416
1886.000000	0.001456
1885.000000	0.001467
1884.000000	0.001441
1883.000000	0.001392
1882.000000	0.001349
1881.000000	0.001331
1880.000000	0.001326
1879.000000	0.001323
1878.000000	0.001328
1877.000000	0.001354
1876.000000	0.001383
1875.000000	0.001376
1874.000000	0.001325
1873.000000	0.001262
1872.000000	0.001230
1871.000000	0.001247
1870.000000	0.001311
1869.000000	0.001391
1868.000000	0.001420
1867.000000	0.001361
1866.000000	0.001260
1865.000000	0.001193
1864.000000	0.001193
1863.000000	0.001239
1862.000000	0.001289
1861.000000	0.001325
1860.000000	0.001340
1859.000000	0.001327
1858.000000	0.001293
1857.000000	0.001261
1856.000000	0.001246
1855.000000	0.001240
1854.000000	0.001229
1853.000000	0.001211
1852.000000	0.001194
1851.000000	0.001184
1850.000000	0.001184
1849.000000	0.001191
1848.000000	0.001189
1847.000000	0.001171
1846.000000	0.001147
1845.000000	0.001150
1844.000000	0.001187
1843.000000	0.001220
1842.000000	0.001216
1841.000000	0.001192
1840.000000	0.001174
1839.000000	0.001175
1838.000000	0.001191
1837.000000	0.001216
1836.000000	0.001243
1835.000000	0.001260
1834.000000	0.001263
1833.000000	0.001252
1832.000000	0.001220
1831.000000	0.001153
1830.000000	0.001057
1829.000000	0.000974
1828.000000	0.000948
1827.000000	0.000980
1826.000000	0.001046
1825.000000	0.001117
1824.000000	0.001167
1823.000000	0.001181
1822.000000	0.001159
1821.000000	0.001115
1820.000000	0.001066
1819.000000	0.001025
1818.000000	0.000995
1817.000000	0.000985
1816.000000	0.000995
1815.000000	0.001008
1814.000000	0.001007
1813.000000	0.000992
1812.000000	0.000973
1811.000000	0.000958
1810.000000	0.000955
1809.000000	0.000970
1808.000000	0.001002
1807.000000	0.001034
1806.000000	0.001049
1805.000000	0.001048
1804.000000	0.001039
1803.000000	0.001024
1802.000000	0.001006
1801.000000	0.000987
1800.000000	0.000971
1799.000000	0.000955
1798.000000	0.000946
1797.000000	0.000956
1796.000000	0.000984
1795.000000	0.001011
1794.000000	0.001017
1793.000000	0.001004
1792.000000	0.001002
1791.000000	0.001012
1790.000000	0.001013
1789.000000	0.001001
1788.000000	0.000989
1787.000000	0.000991
1786.000000	0.001006
1785.000000	0.001023
1784.000000	0.001025
1783.000000	0.001007
1782.000000	0.000979
1781.000000	0.000949
1780.000000	0.000926
1779.000000	0.000915
1778.000000	0.000912
1777.000000	0.000908
1776.000000	0.000892
1775.000000	0.000864
1774.000000	0.000833
1773.000000	0.000815
1772.000000	0.000836
1771.000000	0.000892
1770.000000	0.000960
1769.000000	0.001019
1768.000000	0.001055
1767.000000	0.001051
1766.000000	0.001016
1765.000000	0.000977
1764.000000	0.000954
1763.000000	0.000954
1762.000000	0.000982
1761.000000	0.001033
1760.000000	0.001103
1759.000000	0.001181
1758.000000	0.001267
1757.000000	0.001363
1756.000000	0.001474
1755.000000	0.001603
1754.000000	0.001748
1753.000000	0.001902
1752.000000	0.002048
1751.000000	0.002173
1750.000000	0.002283
1749.000000	0.002396
1748.000000	0.002508
1747.000000	0.002598
1746.000000	0.002667
1745.000000	0.002727
1744.000000	0.002781
1743.000000	0.002817
1742.000000	0.002823
1741.000000	0.002803
1740.000000	0.002758
1739.000000	0.002683
1738.000000	0.002585
1737.000000	0.002489
1736.000000	0.002398
1735.000000	0.002288
1734.000000	0.002159
1733.000000	0.002038
1732.000000	0.001938
1731.000000	0.001859
1730.000000	0.001802
1729.000000	0.001768
1728.000000	0.001744
1727.000000	0.001711
1726.000000	0.001655
1725.000000	0.001579
1724.000000	0.001506
1723.000000	0.001447
1722.000000	0.001399
1721.000000	0.001361
1720.000000	0.001326
1719.000000	0.001270
1718.000000	0.001172
1717.000000	0.001061
1716.000000	0.000996
1715.000000	0.000991
1714.000000	0.001025
1713.000000	0.001075
1712.000000	0.001124
1711.000000	0.001163
1710.000000	0.001196
1709.000000	0.001223
1708.000000	0.001242
1707.000000	0.001253
1706.000000	0.001262
1705.000000	0.001274
1704.000000	0.001292
1703.000000	0.001320
1702.000000	0.001356
1701.000000	0.001387
1700.000000	0.001406
1699.000000	0.001414
1698.000000	0.001449
1697.000000	0.001536
1696.000000	0.001644
1695.000000	0.001707
1694.000000	0.001723
1693.000000	0.001750
1692.000000	0.001813
1691.000000	0.001896
1690.000000	0.001977
1689.000000	0.002046
1688.000000	0.002099
1687.000000	0.002142
1686.000000	0.002179
1685.000000	0.002222
1684.000000	0.002291
1683.000000	0.002358
1682.000000	0.002418
1681.000000	0.002500
1680.000000	0.002593
1679.000000	0.002681
1678.000000	0.002766
1677.000000	0.002863
1676.000000	0.002959
1675.000000	0.003020
1674.000000	0.003044
1673.000000	0.003072
1672.000000	0.003135
1671.000000	0.003228
1670.000000	0.003340
1669.000000	0.003463
1668.000000	0.003570
1667.000000	0.003647
1666.000000	0.003699
1665.000000	0.003749
1664.000000	0.003813
1663.000000	0.003893
1662.000000	0.003979
1661.000000	0.004066
1660.000000	0.004154
1659.000000	0.004238
1658.000000	0.004304
1657.000000	0.004350
1656.000000	0.004393
1655.000000	0.004438
1654.000000	0.004481
1653.000000	0.004535
1652.000000	0.004566
1651.000000	0.004563
1650.000000	0.004573
1649.000000	0.004608
1648.000000	0.004665
1647.000000	0.004726
1646.000000	0.004766
1645.000000	0.004776
1644.000000	0.004788
1643.000000	0.004822
1642.000000	0.004875
1641.000000	0.004923
1640.000000	0.004943
1639.000000	0.004935
1638.000000	0.004918
1637.000000	0.004914
1636.000000	0.004924
1635.000000	0.004925
1634.000000	0.004904
1633.000000	0.004886
1632.000000	0.004883
1631.000000	0.004881
1630.000000	0.004874
1629.000000	0.004869
1628.000000	0.004869
1627.000000	0.004860
1626.000000	0.004829
1625.000000	0.004774
1624.000000	0.004705
1623.000000	0.004642
1622.000000	0.004599
1621.000000	0.004567
1620.000000	0.004536
1619.000000	0.004499
1618.000000	0.004454
1617.000000	0.004402
1616.000000	0.004342
1615.000000	0.004272
1614.000000	0.004208
1613.000000	0.004159
1612.000000	0.004117
1611.000000	0.004072
1610.000000	0.004023
1609.000000	0.003967
1608.000000	0.003896
1607.000000	0.003812
1606.000000	0.003729
1605.000000	0.003658
1604.000000	0.003598
1603.000000	0.003546
1602.000000	0.003498
1601.000000	0.003450
1600.000000	0.003396
1599.000000	0.003338
1598.000000	0.003280
1597.000000	0.003229
1596.000000	0.003193
1595.000000	0.003177
1594.000000	0.003176
1593.000000	0.003174
1592.000000	0.003157
1591.000000	0.003127
1590.000000	0.003098
1589.000000	0.003072
1588.000000	0.003044
1587.000000	0.003016
1586.000000	0.003001
1585.000000	0.003004
1584.000000	0.003017
1583.000000	0.003034
1582.000000	0.003053
1581.000000	0.003069
1580.000000	0.003073
1579.000000	0.003062
1578.000000	0.003035
1577.000000	0.002988
1576.000000	0.002933
1575.000000	0.002900
1574.000000	0.002904
1573.000000	0.002936
1572.000000	0.002978
1571.000000	0.003003
1570.000000	0.003004
1569.000000	0.002994
1568.000000	0.002989
1567.000000	0.003004
1566.000000	0.003034
1565.000000	0.003062
1564.000000	0.003070
1563.000000	0.003070
1562.000000	0.003080
1561.000000	0.003098
1560.000000	0.003099
1559.000000	0.003104
1558.000000	0.003124
1557.000000	0.003132
1556.000000	0.003163
1555.000000	0.003220
1554.000000	0.003283
1553.000000	0.003333
1552.000000	0.003383
1551.000000	0.003448
1550.000000	0.003513
1549.000000	0.003557
1548.000000	0.003574
1547.000000	0.003589
1546.000000	0.003618
1545.000000	0.003661
1544.000000	0.003702
1543.000000	0.003727
1542.000000	0.003732
1541.000000	0.003736
1540.000000	0.003755
1539.000000	0.003762
1538.000000	0.003737
1537.000000	0.003711
1536.000000	0.003700
1535.000000	0.003690
1534.000000	0.003660
1533.000000	0.003608
1532.000000	0.003558
1531.000000	0.003522
1530.000000	0.003497
1529.000000	0.003474
1528.000000	0.003444
1527.000000	0.003397
1526.000000	0.003331
1525.000000	0.003258
1524.000000	0.003201
1523.000000	0.003168
1522.000000	0.003155
1521.000000	0.003153
1520.000000	0.003150
1519.000000	0.003150
1518.000000	0.003159
1517.000000	0.003169
1516.000000	0.003163
1515.000000	0.003139
1514.000000	0.003115
1513.000000	0.003094
1512.000000	0.003066
1511.000000	0.003018
1510.000000	0.002957
1509.000000	0.002885
1508.000000	0.002787
1507.000000	0.002659
1506.000000	0.002548
1505.000000	0.002493
1504.000000	0.002485
1503.000000	0.002498
1502.000000	0.002510
1501.000000	0.002519
1500.000000	0.002527
1499.000000	0.002526
1498.000000	0.002492
1497.000000	0.002416
1496.000000	0.002326
1495.000000	0.002256
1494.000000	0.002218
1493.000000	0.002205
1492.000000	0.002201
1491.000000	0.002187
1490.000000	0.002162
1489.000000	0.002148
1488.000000	0.002156
1487.000000	0.002173
1486.000000	0.002194
1485.000000	0.002227
1484.000000	0.002268
1483.000000	0.002307
1482.000000	0.002340
1481.000000	0.002373
1480.000000	0.002414
1479.000000	0.002461
1478.000000	0.002508
1477.000000	0.002553
1476.000000	0.002600
1475.000000	0.002656
1474.000000	0.002740
1473.000000	0.002868
1472.000000	0.003018
1471.000000	0.003140
1470.000000	0.003229
1469.000000	0.003308
1468.000000	0.003383
1467.000000	0.003438
1466.000000	0.003472
1465.000000	0.003503
1464.000000	0.003555
1463.000000	0.003626
1462.000000	0.003695
1461.000000	0.003756
1460.000000	0.003805
1459.000000	0.003845
1458.000000	0.003881
1457.000000	0.003924
1456.000000	0.003972
1455.000000	0.004018
1454.000000	0.004077
1453.000000	0.004143
1452.000000	0.004201
1451.000000	0.004236
1450.000000	0.004244
1449.000000	0.004231
1448.000000	0.004205
1447.000000	0.004180
1446.000000	0.004177
1445.000000	0.004195
1444.000000	0.004221
1443.000000	0.004238
1442.000000	0.004239
1441.000000	0.004230
1440.000000	0.004224
1439.000000	0.004235
1438.000000	0.004261
1437.000000	0.004297
1436.000000	0.004329
1435.000000	0.004352
1434.000000	0.004374
1433.000000	0.004406
1432.000000	0.004446
1431.000000	0.004488
1430.000000	0.004528
1429.000000	0.004558
1428.000000	0.004573
1427.000000	0.004575
1426.000000	0.004577
1425.000000	0.004577
1424.000000	0.004571
1423.000000	0.004559
1422.000000	0.004553
1421.000000	0.004547
1420.000000	0.004520
1419.000000	0.004467
1418.000000	0.004417
1417.000000	0.004391
1416.000000	0.004381
1415.000000	0.004362
1414.000000	0.004325
1413.000000	0.004280
1412.000000	0.004244
1411.000000	0.004218
1410.000000	0.004184
1409.000000	0.004135
1408.000000	0.004086
1407.000000	0.004058
1406.000000	0.004050
1405.000000	0.004035
1404.000000	0.003996
1403.000000	0.003952
1402.000000	0.003927
1401.000000	0.003924
1400.000000	0.003920
1399.000000	0.003903
1398.000000	0.003886
1397.000000	0.003877
1396.000000	0.003867
1395.000000	0.003847
1394.000000	0.003827
1393.000000	0.003814
1392.000000	0.003805
1391.000000	0.003787
1390.000000	0.003760
1389.000000	0.003736
1388.000000	0.003733
1387.000000	0.003750
1386.000000	0.003775
1385.000000	0.003797
1384.000000	0.003813
1383.000000	0.003827
1382.000000	0.003849
1381.000000	0.003892
1380.000000	0.003959
1379.000000	0.004031
1378.000000	0.004086
1377.000000	0.004116
1376.000000	0.004125
1375.000000	0.004120
1374.000000	0.004109
1373.000000	0.004093
1372.000000	0.004076
1371.000000	0.004051
1370.000000	0.004013
1369.000000	0.003958
1368.000000	0.003901
1367.000000	0.003865
1366.000000	0.003859
1365.000000	0.003867
1364.000000	0.003865
1363.000000	0.003840
1362.000000	0.003809
1361.000000	0.003786
1360.000000	0.003767
1359.000000	0.003739
1358.000000	0.003702
1357.000000	0.003665
1356.000000	0.003635
1355.000000	0.003610
1354.000000	0.003585
1353.000000	0.003556
1352.000000	0.003521
1351.000000	0.003479
1350.000000	0.003438
1349.000000	0.003410
1348.000000	0.003399
1347.000000	0.003404
1346.000000	0.003425
1345.000000	0.003461
1344.000000	0.003510
1343.000000	0.003567
1342.000000	0.003634
1341.000000	0.003710
1340.000000	0.003783
1339.000000	0.003834
1338.000000	0.003864
1337.000000	0.003885
1336.000000	0.003899
1335.000000	0.003893
1334.000000	0.003864
1333.000000	0.003828
1332.000000	0.003799
1331.000000	0.003776
1330.000000	0.003752
1329.000000	0.003729
1328.000000	0.003712
1327.000000	0.003703
1326.000000	0.003695
1325.000000	0.003683
1324.000000	0.003670
1323.000000	0.003666
1322.000000	0.003675
1321.000000	0.003702
1320.000000	0.003743
1319.000000	0.003788
1318.000000	0.003822
1317.000000	0.003836
1316.000000	0.003827
1315.000000	0.003801
1314.000000	0.003766
1313.000000	0.003720
1312.000000	0.003662
1311.000000	0.003586
1310.000000	0.003499
1309.000000	0.003411
1308.000000	0.003335
1307.000000	0.003274
1306.000000	0.003224
1305.000000	0.003175
1304.000000	0.003119
1303.000000	0.003051
1302.000000	0.002971
1301.000000	0.002890
1300.000000	0.002821
1299.000000	0.002774
1298.000000	0.002744
1297.000000	0.002720
1296.000000	0.002696
1295.000000	0.002671
1294.000000	0.002646
1293.000000	0.002620
1292.000000	0.002592
1291.000000	0.002570
1290.000000	0.002560
1289.000000	0.002565
1288.000000	0.002580
1287.000000	0.002603
1286.000000	0.002629
1285.000000	0.002649
1284.000000	0.002656
1283.000000	0.002652
1282.000000	0.002649
1281.000000	0.002653
1280.000000	0.002658
1279.000000	0.002655
1278.000000	0.002639
1277.000000	0.002612
1276.000000	0.002581
1275.000000	0.002556
1274.000000	0.002548
1273.000000	0.002562
1272.000000	0.002591
1271.000000	0.002616
1270.000000	0.002627
1269.000000	0.002627
1268.000000	0.002633
1267.000000	0.002654
1266.000000	0.002689
1265.000000	0.002724
1264.000000	0.002746
1263.000000	0.002754
1262.000000	0.002756
1261.000000	0.002759
1260.000000	0.002770
1259.000000	0.002787
1258.000000	0.002803
1257.000000	0.002814
1256.000000	0.002820
1255.000000	0.002829
1254.000000	0.002846
1253.000000	0.002870
1252.000000	0.002902
1251.000000	0.002944
1250.000000	0.002996
1249.000000	0.003044
1248.000000	0.003076
1247.000000	0.003087
1246.000000	0.003090
1245.000000	0.003098
1244.000000	0.003115
1243.000000	0.003139
1242.000000	0.003162
1241.000000	0.003177
1240.000000	0.003180
1239.000000	0.003172
1238.000000	0.003163
1237.000000	0.003163
1236.000000	0.003170
1235.000000	0.003175
1234.000000	0.003172
1233.000000	0.003157
1232.000000	0.003126
1231.000000	0.003071
1230.000000	0.002998
1229.000000	0.002920
1228.000000	0.002851
1227.000000	0.002794
1226.000000	0.002739
1225.000000	0.002679
1224.000000	0.002615
1223.000000	0.002546
1222.000000	0.002468
1221.000000	0.002377
1220.000000	0.002279
1219.000000	0.002197
1218.000000	0.002152
1217.000000	0.002146
1216.000000	0.002160
1215.000000	0.002173
1214.000000	0.002176
1213.000000	0.002173
1212.000000	0.002173
1211.000000	0.002184
1210.000000	0.002201
1209.000000	0.002215
1208.000000	0.002220
1207.000000	0.002219
1206.000000	0.002222
1205.000000	0.002237
1204.000000	0.002256
1203.000000	0.002266
1202.000000	0.002258
1201.000000	0.002235
1200.000000	0.002202
1199.000000	0.002165
1198.000000	0.002126
1197.000000	0.002085
1196.000000	0.002042
1195.000000	0.001998
1194.000000	0.001958
1193.000000	0.001925
1192.000000	0.001898
1191.000000	0.001867
1190.000000	0.001827
1189.000000	0.001787
1188.000000	0.001759
1187.000000	0.001747
1186.000000	0.001744
1185.000000	0.001745
1184.000000	0.001750
1183.000000	0.001765
1182.000000	0.001798
1181.000000	0.001848
1180.000000	0.001908
1179.000000	0.001972
1178.000000	0.002044
1177.000000	0.002136
1176.000000	0.002256
1175.000000	0.002393
1174.000000	0.002535
1173.000000	0.002680
1172.000000	0.002843
1171.000000	0.003030
1170.000000	0.003238
1169.000000	0.003459
1168.000000	0.003693
1167.000000	0.003941
1166.000000	0.004199
1165.000000	0.004463
1164.000000	0.004726
1163.000000	0.004974
1162.000000	0.005178
1161.000000	0.005315
1160.000000	0.005387
1159.000000	0.005421
1158.000000	0.005444
1157.000000	0.005474
1156.000000	0.005515
1155.000000	0.005555
1154.000000	0.005576
1153.000000	0.005557
1152.000000	0.005492
1151.000000	0.005399
1150.000000	0.005306
1149.000000	0.005227
1148.000000	0.005153
1147.000000	0.005067
1146.000000	0.004959
1145.000000	0.004835
1144.000000	0.004703
1143.000000	0.004568
1142.000000	0.004432
1141.000000	0.004302
1140.000000	0.004190
1139.000000	0.004101
1138.000000	0.004036
1137.000000	0.003993
1136.000000	0.003972
1135.000000	0.003977
1134.000000	0.004005
1133.000000	0.004048
1132.000000	0.004096
1131.000000	0.004143
1130.000000	0.004190
1129.000000	0.004241
1128.000000	0.004308
1127.000000	0.004398
1126.000000	0.004512
1125.000000	0.004644
1124.000000	0.004781
1123.000000	0.004914
1122.000000	0.005035
1121.000000	0.005137
1120.000000	0.005229
1119.000000	0.005329
1118.000000	0.005460
1117.000000	0.005637
1116.000000	0.005856
1115.000000	0.006103
1114.000000	0.006349
1113.000000	0.006566
1112.000000	0.006733
1111.000000	0.006851
1110.000000	0.006931
1109.000000	0.006977
1108.000000	0.006984
1107.000000	0.006957
1106.000000	0.006914
1105.000000	0.006881
1104.000000	0.006868
1103.000000	0.006863
1102.000000	0.006843
1101.000000	0.006794
1100.000000	0.006722
1099.000000	0.006647
1098.000000	0.006589
1097.000000	0.006544
1096.000000	0.006502
1095.000000	0.006464
1094.000000	0.006444
1093.000000	0.006438
1092.000000	0.006421
1091.000000	0.006377
1090.000000	0.006320
1089.000000	0.006281
1088.000000	0.006280
1087.000000	0.006318
1086.000000	0.006390
1085.000000	0.006494
1084.000000	0.006612
1083.000000	0.006718
1082.000000	0.006799
1081.000000	0.006866
1080.000000	0.006945
1079.000000	0.007051
1078.000000	0.007176
1077.000000	0.007296
1076.000000	0.007387
1075.000000	0.007435
1074.000000	0.007441
1073.000000	0.007420
1072.000000	0.007396
1071.000000	0.007394
1070.000000	0.007430
1069.000000	0.007506
1068.000000	0.007617
1067.000000	0.007763
1066.000000	0.007945
1065.000000	0.008152
1064.000000	0.008372
1063.000000	0.008608
1062.000000	0.008871
1061.000000	0.009160
1060.000000	0.009445
1059.000000	0.009697
1058.000000	0.009906
1057.000000	0.010073
1056.000000	0.010190
1055.000000	0.010256
1054.000000	0.010285
1053.000000	0.010294
1052.000000	0.010276
1051.000000	0.010222
1050.000000	0.010150
1049.000000	0.010093
1048.000000	0.010051
1047.000000	0.009991
1046.000000	0.009903
1045.000000	0.009826
1044.000000	0.009805
1043.000000	0.009846
1042.000000	0.009920
1041.000000	0.010001
1040.000000	0.010085
1039.000000	0.010189
1038.000000	0.010331
1037.000000	0.010521
1036.000000	0.010749
1035.000000	0.010993
1034.000000	0.011229
1033.000000	0.011436
1032.000000	0.011592
1031.000000	0.011691
1030.000000	0.011756
1029.000000	0.011825
1028.000000	0.011903
1027.000000	0.011955
1026.000000	0.011948
1025.000000	0.011894
1024.000000	0.011832
1023.000000	0.011790
1022.000000	0.011760
1021.000000	0.011712
1020.000000	0.011631
1019.000000	0.011528
1018.000000	0.011440
1017.000000	0.011392
1016.000000	0.011376
1015.000000	0.011366
1014.000000	0.011345
1013.000000	0.011313
1012.000000	0.011265
1011.000000	0.011195
1010.000000	0.011116
1009.000000	0.011049
1008.000000	0.011001
1007.000000	0.010954
1006.000000	0.010897
1005.000000	0.010844
1004.000000	0.010819
1003.000000	0.010820
1002.000000	0.010818
1001.000000	0.010787
1000.000000	0.010728
999.000000	0.010655
998.000000	0.010582
997.000000	0.010513
996.000000	0.010441
995.000000	0.010352
994.000000	0.010241
993.000000	0.010117
992.000000	0.009996
991.000000	0.009883
990.000000	0.009771
989.000000	0.009656
988.000000	0.009542
987.000000	0.009436
986.000000	0.009338
985.000000	0.009244
984.000000	0.009145
983.000000	0.009034
982.000000	0.008900
981.000000	0.008740
980.000000	0.008558
979.000000	0.008363
978.000000	0.008162
977.000000	0.007951
976.000000	0.007731
975.000000	0.007510
974.000000	0.007300
973.000000	0.007103
972.000000	0.006913
971.000000	0.006731
970.000000	0.006564
969.000000	0.006414
968.000000	0.006272
967.000000	0.006134
966.000000	0.006004
965.000000	0.005889
964.000000	0.005777
963.000000	0.005651
962.000000	0.005504
961.000000	0.005350
960.000000	0.005213
959.000000	0.005109
958.000000	0.005032
957.000000	0.004963
956.000000	0.004878
955.000000	0.004769
954.000000	0.004647
953.000000	0.004529
952.000000	0.004424
951.000000	0.004332
950.000000	0.004243
949.000000	0.004145
948.000000	0.004030
947.000000	0.003911
946.000000	0.003812
945.000000	0.003748
944.000000	0.003711
943.000000	0.003676
942.000000	0.003628
941.000000	0.003567
940.000000	0.003508
939.000000	0.003458
938.000000	0.003422
937.000000	0.003392
936.000000	0.003359
935.000000	0.003313
934.000000	0.003257
933.000000	0.003199
932.000000	0.003148
931.000000	0.003102
930.000000	0.003047
929.000000	0.002970
928.000000	0.002880
927.000000	0.002809
926.000000	0.002787
925.000000	0.002815
924.000000	0.002856
923.000000	0.002865
922.000000	0.002823
921.000000	0.002739
920.000000	0.002640
919.000000	0.002556
918.000000	0.002511
917.000000	0.002503
916.000000	0.002502
915.000000	0.002474
914.000000	0.002419
913.000000	0.002367
912.000000	0.002340
911.000000	0.002324
910.000000	0.002297
909.000000	0.002255
908.000000	0.002223
907.000000	0.002211
906.000000	0.002207
905.000000	0.002188
904.000000	0.002150
903.000000	0.002102
902.000000	0.002054
901.000000	0.002007
900.000000	0.001964
899.000000	0.001927
898.000000	0.001896
897.000000	0.001875
896.000000	0.001872
895.000000	0.001884
894.000000	0.001890
893.000000	0.001864
892.000000	0.001803
891.000000	0.001731
890.000000	0.001677
889.000000	0.001658
888.000000	0.001663
887.000000	0.001670
886.000000	0.001661
885.000000	0.001641
884.000000	0.001639
883.000000	0.001675
882.000000	0.001738
881.000000	0.001801
880.000000	0.001860
879.000000	0.001933
878.000000	0.002028
877.000000	0.002121
876.000000	0.002173
875.000000	0.002168
874.000000	0.002114
873.000000	0.002031
872.000000	0.001940
871.000000	0.001870
870.000000	0.001832
869.000000	0.001814
868.000000	0.001788
867.000000	0.001740
866.000000	0.001669
865.000000	0.001579
864.000000	0.001489
863.000000	0.001425
862.000000	0.001405
861.000000	0.001415
860.000000	0.001423
859.000000	0.001410
858.000000	0.001380
857.000000	0.001332
856.000000	0.001264
855.000000	0.001184
854.000000	0.001115
853.000000	0.001074
852.000000	0.001064
851.000000	0.001089
850.000000	0.001159
849.000000	0.001260
848.000000	0.001340
847.000000	0.001345
846.000000	0.001270
845.000000	0.001159
844.000000	0.001077
843.000000	0.001055
842.000000	0.001077
841.000000	0.001096
840.000000	0.001080
839.000000	0.001040
838.000000	0.001007
837.000000	0.000992
836.000000	0.000973
835.000000	0.000933
834.000000	0.000875
833.000000	0.000819
832.000000	0.000788
831.000000	0.000796
830.000000	0.000847
829.000000	0.000910
828.000000	0.000945
827.000000	0.000935
826.000000	0.000905
825.000000	0.000878
824.000000	0.000849
823.000000	0.000812
822.000000	0.000788
821.000000	0.000801
820.000000	0.000848
819.000000	0.000896
818.000000	0.000922
817.000000	0.000921
816.000000	0.000895
815.000000	0.000853
814.000000	0.000821
813.000000	0.000827
812.000000	0.000868
811.000000	0.000914
810.000000	0.000935
809.000000	0.000925
808.000000	0.000893
807.000000	0.000851
806.000000	0.000814
805.000000	0.000803
804.000000	0.000824
803.000000	0.000857
802.000000	0.000880
801.000000	0.000885
800.000000	0.000890
799.000000	0.000909
798.000000	0.000936
797.000000	0.000949
796.000000	0.000937
795.000000	0.000911
794.000000	0.000891
793.000000	0.000877
792.000000	0.000864
791.000000	0.000860
790.000000	0.000882
789.000000	0.000921
788.000000	0.000939
787.000000	0.000912
786.000000	0.000861
785.000000	0.000829
784.000000	0.000824
783.000000	0.000829
782.000000	0.000833
781.000000	0.000847
780.000000	0.000880
779.000000	0.000911
778.000000	0.000911
777.000000	0.000877
776.000000	0.000834
775.000000	0.000818
774.000000	0.000839
773.000000	0.000869
772.000000	0.000868
771.000000	0.000830
770.000000	0.000802
769.000000	0.000834
768.000000	0.000922
767.000000	0.001011
766.000000	0.001054
765.000000	0.001052
764.000000	0.001037
763.000000	0.001030
762.000000	0.001034
761.000000	0.001043
760.000000	0.001059
759.000000	0.001083
758.000000	0.001108
757.000000	0.001122
756.000000	0.001113
755.000000	0.001081
754.000000	0.001040
753.000000	0.001005
752.000000	0.000990
751.000000	0.000997
750.000000	0.001022
749.000000	0.001056
748.000000	0.001083
747.000000	0.001086
746.000000	0.001055
745.000000	0.000990
744.000000	0.000899
743.000000	0.000810
742.000000	0.000763
741.000000	0.000774
740.000000	0.000817
739.000000	0.000855
738.000000	0.000874
737.000000	0.000890
736.000000	0.000916
735.000000	0.000950
734.000000	0.000990
733.000000	0.001035
732.000000	0.001067
731.000000	0.001058
730.000000	0.000998
729.000000	0.000918
728.000000	0.000865
727.000000	0.000874
726.000000	0.000952
725.000000	0.001074
724.000000	0.001195
723.000000	0.001267
722.000000	0.001278
721.000000	0.001265
720.000000	0.001271
719.000000	0.001309
718.000000	0.001366
717.000000	0.001441
716.000000	0.001547
715.000000	0.001689
714.000000	0.001851
713.000000	0.001994
712.000000	0.002082
711.000000	0.002105
710.000000	0.002076
709.000000	0.002027
708.000000	0.001991
707.000000	0.001990
706.000000	0.002026
705.000000	0.002072
704.000000	0.002081
703.000000	0.002025
702.000000	0.001915
701.000000	0.001802
700.000000	0.001738
699.000000	0.001752
698.000000	0.001836
697.000000	0.001955
696.000000	0.002059
695.000000	0.002105
694.000000	0.002074
693.000000	0.001970
692.000000	0.001819
691.000000	0.001671
690.000000	0.001580
689.000000	0.001569
688.000000	0.001603
687.000000	0.001636
686.000000	0.001668
685.000000	0.001725
684.000000	0.001808
683.000000	0.001880
682.000000	0.001921
681.000000	0.001953
680.000000	0.001996
679.000000	0.002050
678.000000	0.002109
677.000000	0.002169
676.000000	0.002226
675.000000	0.002277
674.000000	0.002349
673.000000	0.002471
672.000000	0.002625
671.000000	0.002745
670.000000	0.002808
669.000000	0.002864
668.000000	0.002930
667.000000	0.002947
666.000000	0.002980
665.000000	0.003027
664.000000	0.003048
663.000000	0.003047
662.000000	0.003035
661.000000	0.003003
660.000000	0.002933
659.000000	0.002831
658.000000	0.002725
657.000000	0.002632
656.000000	0.002541
655.000000	0.002436
654.000000	0.002321
653.000000	0.002225
652.000000	0.002171
651.000000	0.002171
650.000000	0.002210
649.000000	0.002252
648.000000	0.002262
647.000000	0.002239
646.000000	0.002226
645.000000	0.002253
644.000000	0.002293
643.000000	0.002295
642.000000	0.002254
641.000000	0.002221
640.000000	0.002228
639.000000	0.002250
638.000000	0.002252
637.000000	0.002246
636.000000	0.002268
635.000000	0.002321
634.000000	0.002370
633.000000	0.002407
632.000000	0.002460
631.000000	0.002554
630.000000	0.002672
629.000000	0.002768
628.000000	0.002796
627.000000	0.002736
626.000000	0.002616
625.000000	0.002510
624.000000	0.002496
623.000000	0.002604
622.000000	0.002802
621.000000	0.003021
620.000000	0.003194
619.000000	0.003287
618.000000	0.003313
617.000000	0.003318
616.000000	0.003347
615.000000	0.003415
614.000000	0.003512
613.000000	0.003604
612.000000	0.003651
611.000000	0.003639
610.000000	0.003608
609.000000	0.003615
608.000000	0.003669
607.000000	0.003725
606.000000	0.003755
605.000000	0.003783
604.000000	0.003842
603.000000	0.003923
602.000000	0.003990
601.000000	0.004015
600.000000	0.003989
599.000000	0.003913
598.000000	0.003815
597.000000	0.003740
596.000000	0.003701
595.000000	0.003669
594.000000	0.003628
593.000000	0.003599
592.000000	0.003597
591.000000	0.003609
590.000000	0.003631
589.000000	0.003687
588.000000	0.003770
587.000000	0.003807
586.000000	0.003741
585.000000	0.003613
584.000000	0.003528
583.000000	0.003536
582.000000	0.003605
581.000000	0.003681
580.000000	0.003737
579.000000	0.003771
578.000000	0.003807
577.000000	0.003874
576.000000	0.003961
575.000000	0.004006
574.000000	0.003962
573.000000	0.003855
572.000000	0.003746
571.000000	0.003681
570.000000	0.003700
569.000000	0.003823
568.000000	0.004001
567.000000	0.004124
566.000000	0.004136
565.000000	0.004113
564.000000	0.004147
563.000000	0.004222
562.000000	0.004252
561.000000	0.004208
560.000000	0.004134
559.000000	0.004056
558.000000	0.003970
557.000000	0.003887
556.000000	0.003827
555.000000	0.003756
554.000000	0.003633
553.000000	0.003495
552.000000	0.003432
551.000000	0.003455
550.000000	0.003477
549.000000	0.003420
548.000000	0.003290
547.000000	0.003139
546.000000	0.003016
545.000000	0.002974
544.000000	0.003038
543.000000	0.003160
542.000000	0.003241
541.000000	0.003239
540.000000	0.003199
539.000000	0.003178
538.000000	0.003178
537.000000	0.003187
536.000000	0.003205
535.000000	0.003215
534.000000	0.003174
533.000000	0.003084
532.000000	0.003033
531.000000	0.003108
530.000000	0.003295
529.000000	0.003481
528.000000	0.003545
527.000000	0.003448
526.000000	0.003273
525.000000	0.003181
524.000000	0.003264
523.000000	0.003476
522.000000	0.003709
521.000000	0.003882
520.000000	0.003971
519.000000	0.003983
518.000000	0.003945
517.000000	0.003897
516.000000	0.003833
515.000000	0.003686
514.000000	0.003422
513.000000	0.003125
512.000000	0.002923
511.000000	0.002861
510.000000	0.002872
509.000000	0.002855
508.000000	0.002741
507.000000	0.002509
506.000000	0.002203
505.000000	0.001929
504.000000	0.001765
503.000000	0.001714
502.000000	0.001743
501.000000	0.001846
500.000000	0.002022
499.000000	0.002215
498.000000	0.002334
497.000000	0.002338
496.000000	0.002264
495.000000	0.002178
494.000000	0.002148
493.000000	0.002233
492.000000	0.002417
491.000000	0.002572
490.000000	0.002569
489.000000	0.002417
488.000000	0.002199
487.000000	0.001943
486.000000	0.001629
485.000000	0.001322
484.000000	0.001167
483.000000	0.001220
482.000000	0.001391
481.000000	0.001556
480.000000	0.001644
479.000000	0.001617
478.000000	0.001479
477.000000	0.001326
476.000000	0.001268
475.000000	0.001294
474.000000	0.001293
473.000000	0.001234
472.000000	0.001192
471.000000	0.001182
470.000000	0.001102
469.000000	0.000932
468.000000	0.000798
467.000000	0.000780
466.000000	0.000788
465.000000	0.000731
464.000000	0.000678
463.000000	0.000744
462.000000	0.000901
461.000000	0.001001
460.000000	0.000982
459.000000	0.000918
458.000000	0.000937
457.000000	0.001091
456.000000	0.001287
455.000000	0.001320
454.000000	0.001225
453.000000	0.001008
452.000000	0.000855
451.000000	0.000841
450.000000	0.000898
