PE IR       SUBTECH     SPECTRUM    ASCII       PEDS        4.00        
   -1
P14-Noir002_1.ASC
23/06/09
15:54:47.00
23/06/09
16:36:39.00
uco
Sample 002 By uco Date Friday, June 09 2023
450.000000
#HDR
-1
-1
#GR
cm-1
A
1.0
0.0
4000.000000
-1.000000
3551
8
0.003255
-0.000988
#DATA
4000.000000	0.000063
3999.000000	0.000058
3998.000000	0.000048
3997.000000	0.000035
3996.000000	0.000025
3995.000000	0.000023
3994.000000	0.000031
3993.000000	0.000053
3992.000000	0.000085
3991.000000	0.000117
3990.000000	0.000138
3989.000000	0.000135
3988.000000	0.000112
3987.000000	0.000084
3986.000000	0.000068
3985.000000	0.000068
3984.000000	0.000079
3983.000000	0.000089
3982.000000	0.000093
3981.000000	0.000093
3980.000000	0.000092
3979.000000	0.000091
3978.000000	0.000092
3977.000000	0.000095
3976.000000	0.000099
3975.000000	0.000099
3974.000000	0.000092
3973.000000	0.000082
3972.000000	0.000075
3971.000000	0.000076
3970.000000	0.000083
3969.000000	0.000093
3968.000000	0.000102
3967.000000	0.000108
3966.000000	0.000114
3965.000000	0.000120
3964.000000	0.000127
3963.000000	0.000136
3962.000000	0.000144
3961.000000	0.000146
3960.000000	0.000140
3959.000000	0.000130
3958.000000	0.000122
3957.000000	0.000117
3956.000000	0.000113
3955.000000	0.000105
3954.000000	0.000095
3953.000000	0.000092
3952.000000	0.000099
3951.000000	0.000113
3950.000000	0.000123
3949.000000	0.000122
3948.000000	0.000112
3947.000000	0.000100
3946.000000	0.000092
3945.000000	0.000093
3944.000000	0.000105
3943.000000	0.000126
3942.000000	0.000148
3941.000000	0.000158
3940.000000	0.000153
3939.000000	0.000138
3938.000000	0.000122
3937.000000	0.000112
3936.000000	0.000110
3935.000000	0.000109
3934.000000	0.000103
3933.000000	0.000093
3932.000000	0.000085
3931.000000	0.000088
3930.000000	0.000102
3929.000000	0.000118
3928.000000	0.000125
3927.000000	0.000119
3926.000000	0.000108
3925.000000	0.000098
3924.000000	0.000094
3923.000000	0.000092
3922.000000	0.000092
3921.000000	0.000096
3920.000000	0.000106
3919.000000	0.000119
3918.000000	0.000129
3917.000000	0.000130
3916.000000	0.000121
3915.000000	0.000108
3914.000000	0.000096
3913.000000	0.000093
3912.000000	0.000101
3911.000000	0.000119
3910.000000	0.000143
3909.000000	0.000172
3908.000000	0.000204
3907.000000	0.000232
3906.000000	0.000248
3905.000000	0.000247
3904.000000	0.000233
3903.000000	0.000213
3902.000000	0.000194
3901.000000	0.000173
3900.000000	0.000151
3899.000000	0.000133
3898.000000	0.000128
3897.000000	0.000138
3896.000000	0.000160
3895.000000	0.000183
3894.000000	0.000193
3893.000000	0.000184
3892.000000	0.000161
3891.000000	0.000140
3890.000000	0.000131
3889.000000	0.000132
3888.000000	0.000139
3887.000000	0.000152
3886.000000	0.000174
3885.000000	0.000199
3884.000000	0.000217
3883.000000	0.000225
3882.000000	0.000227
3881.000000	0.000223
3880.000000	0.000214
3879.000000	0.000201
3878.000000	0.000186
3877.000000	0.000172
3876.000000	0.000164
3875.000000	0.000166
3874.000000	0.000173
3873.000000	0.000177
3872.000000	0.000170
3871.000000	0.000157
3870.000000	0.000151
3869.000000	0.000158
3868.000000	0.000168
3867.000000	0.000171
3866.000000	0.000169
3865.000000	0.000168
3864.000000	0.000172
3863.000000	0.000181
3862.000000	0.000193
3861.000000	0.000205
3860.000000	0.000219
3859.000000	0.000236
3858.000000	0.000257
3857.000000	0.000277
3856.000000	0.000283
3855.000000	0.000274
3854.000000	0.000262
3853.000000	0.000254
3852.000000	0.000236
3851.000000	0.000199
3850.000000	0.000157
3849.000000	0.000128
3848.000000	0.000123
3847.000000	0.000143
3846.000000	0.000179
3845.000000	0.000220
3844.000000	0.000251
3843.000000	0.000261
3842.000000	0.000248
3841.000000	0.000222
3840.000000	0.000201
3839.000000	0.000195
3838.000000	0.000202
3837.000000	0.000212
3836.000000	0.000222
3835.000000	0.000233
3834.000000	0.000245
3833.000000	0.000245
3832.000000	0.000228
3831.000000	0.000198
3830.000000	0.000172
3829.000000	0.000160
3828.000000	0.000163
3827.000000	0.000175
3826.000000	0.000189
3825.000000	0.000201
3824.000000	0.000208
3823.000000	0.000213
3822.000000	0.000226
3821.000000	0.000253
3820.000000	0.000285
3819.000000	0.000301
3818.000000	0.000287
3817.000000	0.000246
3816.000000	0.000196
3815.000000	0.000159
3814.000000	0.000140
3813.000000	0.000136
3812.000000	0.000142
3811.000000	0.000152
3810.000000	0.000157
3809.000000	0.000150
3808.000000	0.000137
3807.000000	0.000141
3806.000000	0.000171
3805.000000	0.000217
3804.000000	0.000258
3803.000000	0.000278
3802.000000	0.000276
3801.000000	0.000259
3800.000000	0.000238
3799.000000	0.000214
3798.000000	0.000183
3797.000000	0.000144
3796.000000	0.000101
3795.000000	0.000062
3794.000000	0.000033
3793.000000	0.000015
3792.000000	0.000010
3791.000000	0.000018
3790.000000	0.000039
3789.000000	0.000067
3788.000000	0.000095
3787.000000	0.000119
3786.000000	0.000135
3785.000000	0.000145
3784.000000	0.000149
3783.000000	0.000149
3782.000000	0.000148
3781.000000	0.000149
3780.000000	0.000152
3779.000000	0.000155
3778.000000	0.000155
3777.000000	0.000153
3776.000000	0.000153
3775.000000	0.000157
3774.000000	0.000163
3773.000000	0.000167
3772.000000	0.000167
3771.000000	0.000163
3770.000000	0.000157
3769.000000	0.000144
3768.000000	0.000124
3767.000000	0.000099
3766.000000	0.000079
3765.000000	0.000073
3764.000000	0.000080
3763.000000	0.000093
3762.000000	0.000104
3761.000000	0.000107
3760.000000	0.000093
3759.000000	0.000068
3758.000000	0.000052
3757.000000	0.000066
3756.000000	0.000107
3755.000000	0.000160
3754.000000	0.000205
3753.000000	0.000232
3752.000000	0.000240
3751.000000	0.000232
3750.000000	0.000221
3749.000000	0.000222
3748.000000	0.000236
3747.000000	0.000253
3746.000000	0.000262
3745.000000	0.000260
3744.000000	0.000259
3743.000000	0.000260
3742.000000	0.000261
3741.000000	0.000258
3740.000000	0.000250
3739.000000	0.000230
3738.000000	0.000198
3737.000000	0.000162
3736.000000	0.000146
3735.000000	0.000162
3734.000000	0.000198
3733.000000	0.000223
3732.000000	0.000220
3731.000000	0.000193
3730.000000	0.000160
3729.000000	0.000138
3728.000000	0.000129
3727.000000	0.000130
3726.000000	0.000133
3725.000000	0.000130
3724.000000	0.000121
3723.000000	0.000111
3722.000000	0.000109
3721.000000	0.000116
3720.000000	0.000125
3719.000000	0.000130
3718.000000	0.000128
3717.000000	0.000123
3716.000000	0.000115
3715.000000	0.000104
3714.000000	0.000093
3713.000000	0.000091
3712.000000	0.000098
3711.000000	0.000103
3710.000000	0.000092
3709.000000	0.000066
3708.000000	0.000043
3707.000000	0.000038
3706.000000	0.000054
3705.000000	0.000081
3704.000000	0.000097
3703.000000	0.000090
3702.000000	0.000063
3701.000000	0.000038
3700.000000	0.000032
3699.000000	0.000041
3698.000000	0.000053
3697.000000	0.000058
3696.000000	0.000054
3695.000000	0.000045
3694.000000	0.000043
3693.000000	0.000058
3692.000000	0.000082
3691.000000	0.000100
3690.000000	0.000106
3689.000000	0.000111
3688.000000	0.000129
3687.000000	0.000148
3686.000000	0.000156
3685.000000	0.000151
3684.000000	0.000139
3683.000000	0.000124
3682.000000	0.000107
3681.000000	0.000093
3680.000000	0.000084
3679.000000	0.000081
3678.000000	0.000079
3677.000000	0.000083
3676.000000	0.000103
3675.000000	0.000137
3674.000000	0.000164
3673.000000	0.000172
3672.000000	0.000160
3671.000000	0.000134
3670.000000	0.000107
3669.000000	0.000090
3668.000000	0.000087
3667.000000	0.000093
3666.000000	0.000100
3665.000000	0.000106
3664.000000	0.000108
3663.000000	0.000105
3662.000000	0.000098
3661.000000	0.000092
3660.000000	0.000093
3659.000000	0.000102
3658.000000	0.000113
3657.000000	0.000122
3656.000000	0.000130
3655.000000	0.000137
3654.000000	0.000139
3653.000000	0.000134
3652.000000	0.000123
3651.000000	0.000112
3650.000000	0.000103
3649.000000	0.000099
3648.000000	0.000102
3647.000000	0.000107
3646.000000	0.000107
3645.000000	0.000098
3644.000000	0.000083
3643.000000	0.000072
3642.000000	0.000073
3641.000000	0.000088
3640.000000	0.000109
3639.000000	0.000130
3638.000000	0.000144
3637.000000	0.000152
3636.000000	0.000159
3635.000000	0.000170
3634.000000	0.000187
3633.000000	0.000204
3632.000000	0.000217
3631.000000	0.000228
3630.000000	0.000252
3629.000000	0.000298
3628.000000	0.000344
3627.000000	0.000359
3626.000000	0.000337
3625.000000	0.000299
3624.000000	0.000267
3623.000000	0.000251
3622.000000	0.000245
3621.000000	0.000239
3620.000000	0.000225
3619.000000	0.000210
3618.000000	0.000201
3617.000000	0.000200
3616.000000	0.000201
3615.000000	0.000202
3614.000000	0.000204
3613.000000	0.000214
3612.000000	0.000231
3611.000000	0.000250
3610.000000	0.000262
3609.000000	0.000261
3608.000000	0.000244
3607.000000	0.000215
3606.000000	0.000184
3605.000000	0.000161
3604.000000	0.000157
3603.000000	0.000176
3602.000000	0.000217
3601.000000	0.000273
3600.000000	0.000327
3599.000000	0.000365
3598.000000	0.000382
3597.000000	0.000384
3596.000000	0.000385
3595.000000	0.000391
3594.000000	0.000399
3593.000000	0.000401
3592.000000	0.000393
3591.000000	0.000378
3590.000000	0.000366
3589.000000	0.000365
3588.000000	0.000373
3587.000000	0.000379
3586.000000	0.000371
3585.000000	0.000353
3584.000000	0.000339
3583.000000	0.000341
3582.000000	0.000357
3581.000000	0.000375
3580.000000	0.000382
3579.000000	0.000374
3578.000000	0.000361
3577.000000	0.000354
3576.000000	0.000364
3575.000000	0.000394
3574.000000	0.000438
3573.000000	0.000482
3572.000000	0.000510
3571.000000	0.000515
3570.000000	0.000506
3569.000000	0.000496
3568.000000	0.000497
3567.000000	0.000511
3566.000000	0.000532
3565.000000	0.000557
3564.000000	0.000581
3563.000000	0.000596
3562.000000	0.000597
3561.000000	0.000581
3560.000000	0.000557
3559.000000	0.000541
3558.000000	0.000546
3557.000000	0.000571
3556.000000	0.000599
3555.000000	0.000614
3554.000000	0.000604
3553.000000	0.000575
3552.000000	0.000548
3551.000000	0.000542
3550.000000	0.000568
3549.000000	0.000618
3548.000000	0.000673
3547.000000	0.000714
3546.000000	0.000733
3545.000000	0.000731
3544.000000	0.000718
3543.000000	0.000701
3542.000000	0.000686
3541.000000	0.000679
3540.000000	0.000683
3539.000000	0.000693
3538.000000	0.000705
3537.000000	0.000711
3536.000000	0.000713
3535.000000	0.000713
3534.000000	0.000712
3533.000000	0.000711
3532.000000	0.000709
3531.000000	0.000706
3530.000000	0.000707
3529.000000	0.000712
3528.000000	0.000724
3527.000000	0.000741
3526.000000	0.000764
3525.000000	0.000791
3524.000000	0.000814
3523.000000	0.000826
3522.000000	0.000824
3521.000000	0.000813
3520.000000	0.000805
3519.000000	0.000801
3518.000000	0.000800
3517.000000	0.000798
3516.000000	0.000793
3515.000000	0.000791
3514.000000	0.000796
3513.000000	0.000808
3512.000000	0.000821
3511.000000	0.000827
3510.000000	0.000826
3509.000000	0.000827
3508.000000	0.000837
3507.000000	0.000854
3506.000000	0.000870
3505.000000	0.000877
3504.000000	0.000876
3503.000000	0.000869
3502.000000	0.000857
3501.000000	0.000843
3500.000000	0.000832
3499.000000	0.000829
3498.000000	0.000836
3497.000000	0.000852
3496.000000	0.000876
3495.000000	0.000904
3494.000000	0.000931
3493.000000	0.000952
3492.000000	0.000959
3491.000000	0.000947
3490.000000	0.000923
3489.000000	0.000899
3488.000000	0.000893
3487.000000	0.000909
3486.000000	0.000937
3485.000000	0.000962
3484.000000	0.000975
3483.000000	0.000979
3482.000000	0.000981
3481.000000	0.000984
3480.000000	0.000990
3479.000000	0.000995
3478.000000	0.000996
3477.000000	0.000996
3476.000000	0.000997
3475.000000	0.001002
3474.000000	0.001007
3473.000000	0.001009
3472.000000	0.001008
3471.000000	0.001007
3470.000000	0.001007
3469.000000	0.001006
3468.000000	0.001005
3467.000000	0.001014
3466.000000	0.001042
3465.000000	0.001084
3464.000000	0.001123
3463.000000	0.001142
3462.000000	0.001136
3461.000000	0.001118
3460.000000	0.001100
3459.000000	0.001090
3458.000000	0.001085
3457.000000	0.001083
3456.000000	0.001081
3455.000000	0.001078
3454.000000	0.001075
3453.000000	0.001076
3452.000000	0.001082
3451.000000	0.001091
3450.000000	0.001099
3449.000000	0.001105
3448.000000	0.001109
3447.000000	0.001112
3446.000000	0.001114
3445.000000	0.001117
3444.000000	0.001122
3443.000000	0.001130
3442.000000	0.001143
3441.000000	0.001162
3440.000000	0.001187
3439.000000	0.001217
3438.000000	0.001250
3437.000000	0.001284
3436.000000	0.001315
3435.000000	0.001331
3434.000000	0.001324
3433.000000	0.001295
3432.000000	0.001256
3431.000000	0.001220
3430.000000	0.001195
3429.000000	0.001187
3428.000000	0.001195
3427.000000	0.001218
3426.000000	0.001245
3425.000000	0.001268
3424.000000	0.001285
3423.000000	0.001297
3422.000000	0.001304
3421.000000	0.001304
3420.000000	0.001298
3419.000000	0.001293
3418.000000	0.001293
3417.000000	0.001300
3416.000000	0.001312
3415.000000	0.001321
3414.000000	0.001323
3413.000000	0.001318
3412.000000	0.001311
3411.000000	0.001312
3410.000000	0.001326
3409.000000	0.001348
3408.000000	0.001370
3407.000000	0.001381
3406.000000	0.001382
3405.000000	0.001381
3404.000000	0.001386
3403.000000	0.001401
3402.000000	0.001414
3401.000000	0.001413
3400.000000	0.001391
3399.000000	0.001358
3398.000000	0.001331
3397.000000	0.001320
3396.000000	0.001328
3395.000000	0.001350
3394.000000	0.001379
3393.000000	0.001410
3392.000000	0.001432
3391.000000	0.001438
3390.000000	0.001432
3389.000000	0.001420
3388.000000	0.001410
3387.000000	0.001407
3386.000000	0.001411
3385.000000	0.001424
3384.000000	0.001444
3383.000000	0.001463
3382.000000	0.001470
3381.000000	0.001461
3380.000000	0.001440
3379.000000	0.001418
3378.000000	0.001402
3377.000000	0.001392
3376.000000	0.001382
3375.000000	0.001372
3374.000000	0.001368
3373.000000	0.001379
3372.000000	0.001404
3371.000000	0.001437
3370.000000	0.001473
3369.000000	0.001511
3368.000000	0.001546
3367.000000	0.001568
3366.000000	0.001568
3365.000000	0.001549
3364.000000	0.001524
3363.000000	0.001502
3362.000000	0.001488
3361.000000	0.001480
3360.000000	0.001477
3359.000000	0.001479
3358.000000	0.001488
3357.000000	0.001499
3356.000000	0.001509
3355.000000	0.001513
3354.000000	0.001514
3353.000000	0.001520
3352.000000	0.001534
3351.000000	0.001551
3350.000000	0.001561
3349.000000	0.001563
3348.000000	0.001562
3347.000000	0.001566
3346.000000	0.001572
3345.000000	0.001571
3344.000000	0.001561
3343.000000	0.001552
3342.000000	0.001552
3341.000000	0.001562
3340.000000	0.001575
3339.000000	0.001580
3338.000000	0.001577
3337.000000	0.001573
3336.000000	0.001577
3335.000000	0.001589
3334.000000	0.001600
3333.000000	0.001603
3332.000000	0.001598
3331.000000	0.001586
3330.000000	0.001571
3329.000000	0.001561
3328.000000	0.001563
3327.000000	0.001581
3326.000000	0.001612
3325.000000	0.001649
3324.000000	0.001687
3323.000000	0.001720
3322.000000	0.001737
3321.000000	0.001736
3320.000000	0.001719
3319.000000	0.001695
3318.000000	0.001673
3317.000000	0.001654
3316.000000	0.001643
3315.000000	0.001643
3314.000000	0.001655
3313.000000	0.001670
3312.000000	0.001678
3311.000000	0.001673
3310.000000	0.001662
3309.000000	0.001654
3308.000000	0.001652
3307.000000	0.001655
3306.000000	0.001659
3305.000000	0.001659
3304.000000	0.001655
3303.000000	0.001648
3302.000000	0.001644
3301.000000	0.001647
3300.000000	0.001654
3299.000000	0.001661
3298.000000	0.001666
3297.000000	0.001672
3296.000000	0.001678
3295.000000	0.001685
3294.000000	0.001691
3293.000000	0.001694
3292.000000	0.001688
3291.000000	0.001674
3290.000000	0.001658
3289.000000	0.001652
3288.000000	0.001660
3287.000000	0.001680
3286.000000	0.001705
3285.000000	0.001727
3284.000000	0.001734
3283.000000	0.001718
3282.000000	0.001677
3281.000000	0.001629
3280.000000	0.001603
3279.000000	0.001610
3278.000000	0.001643
3277.000000	0.001679
3276.000000	0.001699
3275.000000	0.001695
3274.000000	0.001676
3273.000000	0.001654
3272.000000	0.001642
3271.000000	0.001638
3270.000000	0.001635
3269.000000	0.001631
3268.000000	0.001627
3267.000000	0.001629
3266.000000	0.001637
3265.000000	0.001643
3264.000000	0.001643
3263.000000	0.001637
3262.000000	0.001631
3261.000000	0.001630
3260.000000	0.001631
3259.000000	0.001630
3258.000000	0.001625
3257.000000	0.001619
3256.000000	0.001612
3255.000000	0.001603
3254.000000	0.001589
3253.000000	0.001577
3252.000000	0.001579
3251.000000	0.001597
3250.000000	0.001626
3249.000000	0.001655
3248.000000	0.001679
3247.000000	0.001694
3246.000000	0.001693
3245.000000	0.001677
3244.000000	0.001655
3243.000000	0.001644
3242.000000	0.001649
3241.000000	0.001660
3240.000000	0.001660
3239.000000	0.001642
3238.000000	0.001606
3237.000000	0.001568
3236.000000	0.001545
3235.000000	0.001546
3234.000000	0.001565
3233.000000	0.001586
3232.000000	0.001593
3231.000000	0.001584
3230.000000	0.001570
3229.000000	0.001560
3228.000000	0.001558
3227.000000	0.001559
3226.000000	0.001553
3225.000000	0.001541
3224.000000	0.001532
3223.000000	0.001534
3222.000000	0.001546
3221.000000	0.001558
3220.000000	0.001567
3219.000000	0.001573
3218.000000	0.001575
3217.000000	0.001567
3216.000000	0.001550
3215.000000	0.001531
3214.000000	0.001520
3213.000000	0.001521
3212.000000	0.001531
3211.000000	0.001544
3210.000000	0.001552
3209.000000	0.001548
3208.000000	0.001536
3207.000000	0.001527
3206.000000	0.001532
3205.000000	0.001547
3204.000000	0.001556
3203.000000	0.001547
3202.000000	0.001528
3201.000000	0.001515
3200.000000	0.001518
3199.000000	0.001532
3198.000000	0.001542
3197.000000	0.001543
3196.000000	0.001538
3195.000000	0.001532
3194.000000	0.001519
3193.000000	0.001491
3192.000000	0.001453
3191.000000	0.001419
3190.000000	0.001408
3189.000000	0.001423
3188.000000	0.001449
3187.000000	0.001467
3186.000000	0.001467
3185.000000	0.001453
3184.000000	0.001436
3183.000000	0.001429
3182.000000	0.001432
3181.000000	0.001439
3180.000000	0.001449
3179.000000	0.001464
3178.000000	0.001483
3177.000000	0.001497
3176.000000	0.001503
3175.000000	0.001505
3174.000000	0.001504
3173.000000	0.001499
3172.000000	0.001483
3171.000000	0.001458
3170.000000	0.001430
3169.000000	0.001405
3168.000000	0.001386
3167.000000	0.001382
3166.000000	0.001394
3165.000000	0.001412
3164.000000	0.001417
3163.000000	0.001405
3162.000000	0.001386
3161.000000	0.001370
3160.000000	0.001355
3159.000000	0.001333
3158.000000	0.001308
3157.000000	0.001291
3156.000000	0.001288
3155.000000	0.001293
3154.000000	0.001301
3153.000000	0.001308
3152.000000	0.001314
3151.000000	0.001316
3150.000000	0.001315
3149.000000	0.001313
3148.000000	0.001307
3147.000000	0.001294
3146.000000	0.001273
3145.000000	0.001254
3144.000000	0.001245
3143.000000	0.001244
3142.000000	0.001244
3141.000000	0.001244
3140.000000	0.001251
3139.000000	0.001266
3138.000000	0.001282
3137.000000	0.001288
3136.000000	0.001277
3135.000000	0.001257
3134.000000	0.001240
3133.000000	0.001231
3132.000000	0.001233
3131.000000	0.001241
3130.000000	0.001249
3129.000000	0.001253
3128.000000	0.001254
3127.000000	0.001254
3126.000000	0.001253
3125.000000	0.001248
3124.000000	0.001239
3123.000000	0.001226
3122.000000	0.001213
3121.000000	0.001206
3120.000000	0.001207
3119.000000	0.001210
3118.000000	0.001210
3117.000000	0.001197
3116.000000	0.001172
3115.000000	0.001143
3114.000000	0.001121
3113.000000	0.001113
3112.000000	0.001120
3111.000000	0.001137
3110.000000	0.001161
3109.000000	0.001185
3108.000000	0.001205
3107.000000	0.001221
3106.000000	0.001232
3105.000000	0.001235
3104.000000	0.001224
3103.000000	0.001196
3102.000000	0.001160
3101.000000	0.001135
3100.000000	0.001136
3099.000000	0.001166
3098.000000	0.001209
3097.000000	0.001241
3096.000000	0.001250
3095.000000	0.001240
3094.000000	0.001228
3093.000000	0.001226
3092.000000	0.001230
3091.000000	0.001230
3090.000000	0.001227
3089.000000	0.001225
3088.000000	0.001229
3087.000000	0.001238
3086.000000	0.001245
3085.000000	0.001245
3084.000000	0.001240
3083.000000	0.001231
3082.000000	0.001223
3081.000000	0.001215
3080.000000	0.001205
3079.000000	0.001194
3078.000000	0.001187
3077.000000	0.001185
3076.000000	0.001187
3075.000000	0.001186
3074.000000	0.001184
3073.000000	0.001182
3072.000000	0.001182
3071.000000	0.001183
3070.000000	0.001184
3069.000000	0.001186
3068.000000	0.001190
3067.000000	0.001196
3066.000000	0.001202
3065.000000	0.001208
3064.000000	0.001214
3063.000000	0.001222
3062.000000	0.001229
3061.000000	0.001226
3060.000000	0.001208
3059.000000	0.001183
3058.000000	0.001166
3057.000000	0.001161
3056.000000	0.001159
3055.000000	0.001146
3054.000000	0.001123
3053.000000	0.001103
3052.000000	0.001095
3051.000000	0.001100
3050.000000	0.001106
3049.000000	0.001105
3048.000000	0.001093
3047.000000	0.001073
3046.000000	0.001057
3045.000000	0.001053
3044.000000	0.001060
3043.000000	0.001069
3042.000000	0.001072
3041.000000	0.001073
3040.000000	0.001076
3039.000000	0.001087
3038.000000	0.001104
3037.000000	0.001119
3036.000000	0.001127
3035.000000	0.001126
3034.000000	0.001119
3033.000000	0.001112
3032.000000	0.001100
3031.000000	0.001079
3030.000000	0.001055
3029.000000	0.001038
3028.000000	0.001035
3027.000000	0.001039
3026.000000	0.001045
3025.000000	0.001048
3024.000000	0.001052
3023.000000	0.001057
3022.000000	0.001060
3021.000000	0.001063
3020.000000	0.001067
3019.000000	0.001073
3018.000000	0.001075
3017.000000	0.001068
3016.000000	0.001048
3015.000000	0.001023
3014.000000	0.001000
3013.000000	0.000989
3012.000000	0.000993
3011.000000	0.001009
3010.000000	0.001034
3009.000000	0.001062
3008.000000	0.001085
3007.000000	0.001098
3006.000000	0.001099
3005.000000	0.001087
3004.000000	0.001066
3003.000000	0.001043
3002.000000	0.001023
3001.000000	0.001009
3000.000000	0.000996
2999.000000	0.000980
2998.000000	0.000969
2997.000000	0.000972
2996.000000	0.000988
2995.000000	0.001006
2994.000000	0.001015
2993.000000	0.001014
2992.000000	0.001012
2991.000000	0.001016
2990.000000	0.001026
2989.000000	0.001035
2988.000000	0.001040
2987.000000	0.001038
2986.000000	0.001033
2985.000000	0.001034
2984.000000	0.001045
2983.000000	0.001063
2982.000000	0.001081
2981.000000	0.001088
2980.000000	0.001083
2979.000000	0.001070
2978.000000	0.001059
2977.000000	0.001055
2976.000000	0.001057
2975.000000	0.001063
2974.000000	0.001068
2973.000000	0.001073
2972.000000	0.001080
2971.000000	0.001092
2970.000000	0.001109
2969.000000	0.001126
2968.000000	0.001139
2967.000000	0.001146
2966.000000	0.001155
2965.000000	0.001178
2964.000000	0.001214
2963.000000	0.001249
2962.000000	0.001269
2961.000000	0.001268
2960.000000	0.001254
2959.000000	0.001238
2958.000000	0.001235
2957.000000	0.001249
2956.000000	0.001275
2955.000000	0.001299
2954.000000	0.001306
2953.000000	0.001296
2952.000000	0.001277
2951.000000	0.001264
2950.000000	0.001264
2949.000000	0.001273
2948.000000	0.001285
2947.000000	0.001295
2946.000000	0.001303
2945.000000	0.001307
2944.000000	0.001300
2943.000000	0.001282
2942.000000	0.001262
2941.000000	0.001261
2940.000000	0.001284
2939.000000	0.001316
2938.000000	0.001338
2937.000000	0.001342
2936.000000	0.001341
2935.000000	0.001351
2934.000000	0.001375
2933.000000	0.001405
2932.000000	0.001432
2931.000000	0.001451
2930.000000	0.001466
2929.000000	0.001484
2928.000000	0.001507
2927.000000	0.001530
2926.000000	0.001545
2925.000000	0.001547
2924.000000	0.001540
2923.000000	0.001529
2922.000000	0.001521
2921.000000	0.001520
2920.000000	0.001526
2919.000000	0.001530
2918.000000	0.001524
2917.000000	0.001508
2916.000000	0.001489
2915.000000	0.001472
2914.000000	0.001456
2913.000000	0.001434
2912.000000	0.001405
2911.000000	0.001376
2910.000000	0.001360
2909.000000	0.001362
2908.000000	0.001377
2907.000000	0.001389
2906.000000	0.001389
2905.000000	0.001377
2904.000000	0.001363
2903.000000	0.001355
2902.000000	0.001355
2901.000000	0.001355
2900.000000	0.001349
2899.000000	0.001335
2898.000000	0.001319
2897.000000	0.001306
2896.000000	0.001300
2895.000000	0.001296
2894.000000	0.001288
2893.000000	0.001278
2892.000000	0.001267
2891.000000	0.001257
2890.000000	0.001247
2889.000000	0.001232
2888.000000	0.001212
2887.000000	0.001196
2886.000000	0.001189
2885.000000	0.001191
2884.000000	0.001197
2883.000000	0.001195
2882.000000	0.001187
2881.000000	0.001178
2880.000000	0.001177
2879.000000	0.001186
2878.000000	0.001198
2877.000000	0.001205
2876.000000	0.001205
2875.000000	0.001201
2874.000000	0.001200
2873.000000	0.001203
2872.000000	0.001208
2871.000000	0.001209
2870.000000	0.001212
2869.000000	0.001219
2868.000000	0.001230
2867.000000	0.001235
2866.000000	0.001231
2865.000000	0.001220
2864.000000	0.001210
2863.000000	0.001206
2862.000000	0.001210
2861.000000	0.001222
2860.000000	0.001240
2859.000000	0.001257
2858.000000	0.001268
2857.000000	0.001271
2856.000000	0.001266
2855.000000	0.001253
2854.000000	0.001237
2853.000000	0.001229
2852.000000	0.001233
2851.000000	0.001245
2850.000000	0.001252
2849.000000	0.001248
2848.000000	0.001236
2847.000000	0.001217
2846.000000	0.001189
2845.000000	0.001154
2844.000000	0.001124
2843.000000	0.001108
2842.000000	0.001111
2841.000000	0.001123
2840.000000	0.001132
2839.000000	0.001130
2838.000000	0.001119
2837.000000	0.001106
2836.000000	0.001091
2835.000000	0.001069
2834.000000	0.001040
2833.000000	0.001012
2832.000000	0.001002
2831.000000	0.001015
2830.000000	0.001044
2829.000000	0.001073
2828.000000	0.001092
2827.000000	0.001099
2826.000000	0.001098
2825.000000	0.001089
2824.000000	0.001076
2823.000000	0.001062
2822.000000	0.001050
2821.000000	0.001042
2820.000000	0.001034
2819.000000	0.001025
2818.000000	0.001015
2817.000000	0.001008
2816.000000	0.001005
2815.000000	0.001002
2814.000000	0.001003
2813.000000	0.001011
2812.000000	0.001027
2811.000000	0.001038
2810.000000	0.001031
2809.000000	0.001009
2808.000000	0.000986
2807.000000	0.000983
2806.000000	0.001004
2805.000000	0.001039
2804.000000	0.001067
2803.000000	0.001074
2802.000000	0.001058
2801.000000	0.001033
2800.000000	0.001016
2799.000000	0.001017
2798.000000	0.001034
2797.000000	0.001055
2796.000000	0.001066
2795.000000	0.001058
2794.000000	0.001035
2793.000000	0.001015
2792.000000	0.001009
2791.000000	0.001014
2790.000000	0.001016
2789.000000	0.001008
2788.000000	0.000993
2787.000000	0.000983
2786.000000	0.000980
2785.000000	0.000983
2784.000000	0.000988
2783.000000	0.000992
2782.000000	0.000990
2781.000000	0.000982
2780.000000	0.000971
2779.000000	0.000962
2778.000000	0.000957
2777.000000	0.000954
2776.000000	0.000950
2775.000000	0.000943
2774.000000	0.000932
2773.000000	0.000924
2772.000000	0.000921
2771.000000	0.000923
2770.000000	0.000925
2769.000000	0.000927
2768.000000	0.000939
2767.000000	0.000966
2766.000000	0.000997
2765.000000	0.001016
2764.000000	0.001012
2763.000000	0.000996
2762.000000	0.000985
2761.000000	0.000993
2760.000000	0.001016
2759.000000	0.001040
2758.000000	0.001049
2757.000000	0.001037
2756.000000	0.001011
2755.000000	0.000982
2754.000000	0.000961
2753.000000	0.000954
2752.000000	0.000969
2751.000000	0.001006
2750.000000	0.001052
2749.000000	0.001088
2748.000000	0.001099
2747.000000	0.001089
2746.000000	0.001070
2745.000000	0.001048
2744.000000	0.001026
2743.000000	0.001007
2742.000000	0.000997
2741.000000	0.000999
2740.000000	0.001004
2739.000000	0.001000
2738.000000	0.000983
2737.000000	0.000965
2736.000000	0.000957
2735.000000	0.000966
2734.000000	0.000987
2733.000000	0.001010
2732.000000	0.001028
2731.000000	0.001036
2730.000000	0.001037
2729.000000	0.001036
2728.000000	0.001035
2727.000000	0.001037
2726.000000	0.001039
2725.000000	0.001034
2724.000000	0.001020
2723.000000	0.001000
2722.000000	0.000983
2721.000000	0.000973
2720.000000	0.000968
2719.000000	0.000965
2718.000000	0.000959
2717.000000	0.000952
2716.000000	0.000944
2715.000000	0.000938
2714.000000	0.000939
2713.000000	0.000950
2712.000000	0.000963
2711.000000	0.000967
2710.000000	0.000964
2709.000000	0.000963
2708.000000	0.000974
2707.000000	0.000992
2706.000000	0.001005
2705.000000	0.001008
2704.000000	0.001000
2703.000000	0.000988
2702.000000	0.000971
2701.000000	0.000955
2700.000000	0.000943
2699.000000	0.000941
2698.000000	0.000950
2697.000000	0.000967
2696.000000	0.000985
2695.000000	0.000998
2694.000000	0.000997
2693.000000	0.000981
2692.000000	0.000959
2691.000000	0.000942
2690.000000	0.000939
2689.000000	0.000946
2688.000000	0.000953
2687.000000	0.000951
2686.000000	0.000940
2685.000000	0.000930
2684.000000	0.000926
2683.000000	0.000931
2682.000000	0.000939
2681.000000	0.000948
2680.000000	0.000961
2679.000000	0.000974
2678.000000	0.000982
2677.000000	0.000979
2676.000000	0.000967
2675.000000	0.000953
2674.000000	0.000942
2673.000000	0.000932
2672.000000	0.000923
2671.000000	0.000917
2670.000000	0.000919
2669.000000	0.000928
2668.000000	0.000939
2667.000000	0.000946
2666.000000	0.000946
2665.000000	0.000946
2664.000000	0.000952
2663.000000	0.000966
2662.000000	0.000983
2661.000000	0.000996
2660.000000	0.001003
2659.000000	0.001008
2658.000000	0.001013
2657.000000	0.001017
2656.000000	0.001013
2655.000000	0.000998
2654.000000	0.000980
2653.000000	0.000968
2652.000000	0.000966
2651.000000	0.000975
2650.000000	0.000995
2649.000000	0.001021
2648.000000	0.001042
2647.000000	0.001050
2646.000000	0.001046
2645.000000	0.001038
2644.000000	0.001031
2643.000000	0.001019
2642.000000	0.001002
2641.000000	0.000983
2640.000000	0.000974
2639.000000	0.000974
2638.000000	0.000978
2637.000000	0.000980
2636.000000	0.000978
2635.000000	0.000974
2634.000000	0.000971
2633.000000	0.000974
2632.000000	0.000981
2631.000000	0.000982
2630.000000	0.000972
2629.000000	0.000955
2628.000000	0.000942
2627.000000	0.000935
2626.000000	0.000930
2625.000000	0.000918
2624.000000	0.000901
2623.000000	0.000881
2622.000000	0.000862
2621.000000	0.000846
2620.000000	0.000827
2619.000000	0.000801
2618.000000	0.000770
2617.000000	0.000744
2616.000000	0.000736
2615.000000	0.000742
2614.000000	0.000750
2613.000000	0.000749
2612.000000	0.000742
2611.000000	0.000736
2610.000000	0.000735
2609.000000	0.000739
2608.000000	0.000747
2607.000000	0.000760
2606.000000	0.000779
2605.000000	0.000804
2604.000000	0.000831
2603.000000	0.000851
2602.000000	0.000855
2601.000000	0.000837
2600.000000	0.000803
2599.000000	0.000762
2598.000000	0.000723
2597.000000	0.000694
2596.000000	0.000679
2595.000000	0.000685
2594.000000	0.000710
2593.000000	0.000747
2592.000000	0.000780
2591.000000	0.000797
2590.000000	0.000796
2589.000000	0.000785
2588.000000	0.000772
2587.000000	0.000758
2586.000000	0.000753
2585.000000	0.000766
2584.000000	0.000794
2583.000000	0.000819
2582.000000	0.000817
2581.000000	0.000787
2580.000000	0.000746
2579.000000	0.000720
2578.000000	0.000720
2577.000000	0.000743
2576.000000	0.000769
2575.000000	0.000780
2574.000000	0.000768
2573.000000	0.000746
2572.000000	0.000731
2571.000000	0.000725
2570.000000	0.000717
2569.000000	0.000704
2568.000000	0.000692
2567.000000	0.000691
2566.000000	0.000698
2565.000000	0.000707
2564.000000	0.000711
2563.000000	0.000707
2562.000000	0.000693
2561.000000	0.000677
2560.000000	0.000670
2559.000000	0.000676
2558.000000	0.000684
2557.000000	0.000684
2556.000000	0.000674
2555.000000	0.000661
2554.000000	0.000650
2553.000000	0.000642
2552.000000	0.000631
2551.000000	0.000611
2550.000000	0.000589
2549.000000	0.000577
2548.000000	0.000585
2547.000000	0.000608
2546.000000	0.000634
2545.000000	0.000656
2544.000000	0.000675
2543.000000	0.000691
2542.000000	0.000708
2541.000000	0.000739
2540.000000	0.000788
2539.000000	0.000831
2538.000000	0.000835
2537.000000	0.000794
2536.000000	0.000741
2535.000000	0.000715
2534.000000	0.000718
2533.000000	0.000725
2532.000000	0.000720
2531.000000	0.000710
2530.000000	0.000712
2529.000000	0.000727
2528.000000	0.000736
2527.000000	0.000722
2526.000000	0.000684
2525.000000	0.000636
2524.000000	0.000601
2523.000000	0.000592
2522.000000	0.000600
2521.000000	0.000613
2520.000000	0.000621
2519.000000	0.000625
2518.000000	0.000629
2517.000000	0.000635
2516.000000	0.000643
2515.000000	0.000648
2514.000000	0.000644
2513.000000	0.000633
2512.000000	0.000624
2511.000000	0.000623
2510.000000	0.000626
2509.000000	0.000634
2508.000000	0.000655
2507.000000	0.000693
2506.000000	0.000737
2505.000000	0.000764
2504.000000	0.000761
2503.000000	0.000737
2502.000000	0.000710
2501.000000	0.000690
2500.000000	0.000675
2499.000000	0.000653
2498.000000	0.000624
2497.000000	0.000604
2496.000000	0.000616
2495.000000	0.000666
2494.000000	0.000727
2493.000000	0.000760
2492.000000	0.000749
2491.000000	0.000713
2490.000000	0.000681
2489.000000	0.000673
2488.000000	0.000683
2487.000000	0.000695
2486.000000	0.000692
2485.000000	0.000671
2484.000000	0.000639
2483.000000	0.000614
2482.000000	0.000606
2481.000000	0.000614
2480.000000	0.000628
2479.000000	0.000637
2478.000000	0.000638
2477.000000	0.000637
2476.000000	0.000640
2475.000000	0.000646
2474.000000	0.000656
2473.000000	0.000676
2472.000000	0.000713
2471.000000	0.000766
2470.000000	0.000815
2469.000000	0.000837
2468.000000	0.000820
2467.000000	0.000772
2466.000000	0.000718
2465.000000	0.000679
2464.000000	0.000658
2463.000000	0.000645
2462.000000	0.000629
2461.000000	0.000609
2460.000000	0.000599
2459.000000	0.000610
2458.000000	0.000637
2457.000000	0.000666
2456.000000	0.000687
2455.000000	0.000699
2454.000000	0.000705
2453.000000	0.000705
2452.000000	0.000690
2451.000000	0.000655
2450.000000	0.000609
2449.000000	0.000573
2448.000000	0.000567
2447.000000	0.000595
2446.000000	0.000639
2445.000000	0.000672
2444.000000	0.000679
2443.000000	0.000668
2442.000000	0.000656
2441.000000	0.000661
2440.000000	0.000685
2439.000000	0.000715
2438.000000	0.000731
2437.000000	0.000723
2436.000000	0.000696
2435.000000	0.000666
2434.000000	0.000643
2433.000000	0.000629
2432.000000	0.000620
2431.000000	0.000606
2430.000000	0.000585
2429.000000	0.000560
2428.000000	0.000544
2427.000000	0.000546
2426.000000	0.000566
2425.000000	0.000593
2424.000000	0.000615
2423.000000	0.000628
2422.000000	0.000636
2421.000000	0.000642
2420.000000	0.000646
2419.000000	0.000646
2418.000000	0.000639
2417.000000	0.000627
2416.000000	0.000612
2415.000000	0.000605
2414.000000	0.000616
2413.000000	0.000643
2412.000000	0.000668
2411.000000	0.000668
2410.000000	0.000639
2409.000000	0.000606
2408.000000	0.000601
2407.000000	0.000633
2406.000000	0.000682
2405.000000	0.000719
2404.000000	0.000724
2403.000000	0.000690
2402.000000	0.000623
2401.000000	0.000547
2400.000000	0.000494
2399.000000	0.000483
2398.000000	0.000501
2397.000000	0.000518
2396.000000	0.000520
2395.000000	0.000521
2394.000000	0.000538
2393.000000	0.000570
2392.000000	0.000601
2391.000000	0.000610
2390.000000	0.000591
2389.000000	0.000553
2388.000000	0.000515
2387.000000	0.000499
2386.000000	0.000508
2385.000000	0.000530
2384.000000	0.000552
2383.000000	0.000570
2382.000000	0.000587
2381.000000	0.000598
2380.000000	0.000598
2379.000000	0.000590
2378.000000	0.000578
2377.000000	0.000562
2376.000000	0.000536
2375.000000	0.000500
2374.000000	0.000462
2373.000000	0.000429
2372.000000	0.000405
2371.000000	0.000399
2370.000000	0.000430
2369.000000	0.000499
2368.000000	0.000571
2367.000000	0.000609
2366.000000	0.000608
2365.000000	0.000593
2364.000000	0.000575
2363.000000	0.000551
2362.000000	0.000527
2361.000000	0.000523
2360.000000	0.000559
2359.000000	0.000615
2358.000000	0.000665
2357.000000	0.000691
2356.000000	0.000685
2355.000000	0.000652
2354.000000	0.000617
2353.000000	0.000607
2352.000000	0.000621
2351.000000	0.000638
2350.000000	0.000650
2349.000000	0.000655
2348.000000	0.000662
2347.000000	0.000672
2346.000000	0.000681
2345.000000	0.000689
2344.000000	0.000712
2343.000000	0.000759
2342.000000	0.000802
2341.000000	0.000816
2340.000000	0.000798
2339.000000	0.000754
2338.000000	0.000701
2337.000000	0.000672
2336.000000	0.000694
2335.000000	0.000762
2334.000000	0.000824
2333.000000	0.000831
2332.000000	0.000777
2331.000000	0.000702
2330.000000	0.000656
2329.000000	0.000653
2328.000000	0.000684
2327.000000	0.000738
2326.000000	0.000806
2325.000000	0.000876
2324.000000	0.000929
2323.000000	0.000958
2322.000000	0.000965
2321.000000	0.000952
2320.000000	0.000922
2319.000000	0.000879
2318.000000	0.000831
2317.000000	0.000787
2316.000000	0.000751
2315.000000	0.000721
2314.000000	0.000699
2313.000000	0.000695
2312.000000	0.000713
2311.000000	0.000745
2310.000000	0.000765
2309.000000	0.000751
2308.000000	0.000703
2307.000000	0.000652
2306.000000	0.000638
2305.000000	0.000674
2304.000000	0.000741
2303.000000	0.000802
2302.000000	0.000823
2301.000000	0.000799
2300.000000	0.000750
2299.000000	0.000714
2298.000000	0.000711
2297.000000	0.000728
2296.000000	0.000727
2295.000000	0.000694
2294.000000	0.000658
2293.000000	0.000665
2292.000000	0.000727
2291.000000	0.000810
2290.000000	0.000863
2289.000000	0.000865
2288.000000	0.000832
2287.000000	0.000791
2286.000000	0.000756
2285.000000	0.000732
2284.000000	0.000723
2283.000000	0.000732
2282.000000	0.000758
2281.000000	0.000792
2280.000000	0.000821
2279.000000	0.000833
2278.000000	0.000821
2277.000000	0.000785
2276.000000	0.000739
2275.000000	0.000706
2274.000000	0.000708
2273.000000	0.000748
2272.000000	0.000809
2271.000000	0.000867
2270.000000	0.000906
2269.000000	0.000915
2268.000000	0.000886
2267.000000	0.000825
2266.000000	0.000769
2265.000000	0.000751
2264.000000	0.000770
2263.000000	0.000788
2262.000000	0.000775
2261.000000	0.000749
2260.000000	0.000746
2259.000000	0.000771
2258.000000	0.000790
2257.000000	0.000777
2256.000000	0.000741
2255.000000	0.000714
2254.000000	0.000706
2253.000000	0.000693
2252.000000	0.000650
2251.000000	0.000577
2250.000000	0.000509
2249.000000	0.000494
2248.000000	0.000551
2247.000000	0.000640
2246.000000	0.000689
2245.000000	0.000660
2244.000000	0.000589
2243.000000	0.000548
2242.000000	0.000565
2241.000000	0.000615
2240.000000	0.000660
2239.000000	0.000687
2238.000000	0.000700
2237.000000	0.000703
2236.000000	0.000718
2235.000000	0.000787
2234.000000	0.000917
2233.000000	0.001042
2232.000000	0.001075
2231.000000	0.000999
2230.000000	0.000878
2229.000000	0.000778
2228.000000	0.000704
2227.000000	0.000632
2226.000000	0.000562
2225.000000	0.000524
2224.000000	0.000534
2223.000000	0.000583
2222.000000	0.000650
2221.000000	0.000702
2220.000000	0.000696
2219.000000	0.000615
2218.000000	0.000502
2217.000000	0.000433
2216.000000	0.000458
2215.000000	0.000561
2214.000000	0.000692
2213.000000	0.000802
2212.000000	0.000851
2211.000000	0.000824
2210.000000	0.000747
2209.000000	0.000677
2208.000000	0.000659
2207.000000	0.000686
2206.000000	0.000711
2205.000000	0.000705
2204.000000	0.000678
2203.000000	0.000675
2202.000000	0.000719
2201.000000	0.000778
2200.000000	0.000786
2199.000000	0.000710
2198.000000	0.000592
2197.000000	0.000507
2196.000000	0.000473
2195.000000	0.000450
2194.000000	0.000404
2193.000000	0.000360
2192.000000	0.000368
2191.000000	0.000427
2190.000000	0.000481
2189.000000	0.000482
2188.000000	0.000455
2187.000000	0.000480
2186.000000	0.000625
2185.000000	0.000866
2184.000000	0.001100
2183.000000	0.001215
2182.000000	0.001169
2181.000000	0.000997
2180.000000	0.000778
2179.000000	0.000580
2178.000000	0.000443
2177.000000	0.000360
2176.000000	0.000307
2175.000000	0.000285
2174.000000	0.000330
2173.000000	0.000448
2172.000000	0.000550
2171.000000	0.000526
2170.000000	0.000369
2169.000000	0.000199
2168.000000	0.000142
2167.000000	0.000207
2166.000000	0.000320
2165.000000	0.000424
2164.000000	0.000530
2163.000000	0.000675
2162.000000	0.000870
2161.000000	0.001055
2160.000000	0.001083
2159.000000	0.000796
2158.000000	0.000214
2157.000000	-0.000404
2156.000000	-0.000776
2155.000000	-0.000828
2154.000000	-0.000669
2153.000000	-0.000431
2152.000000	-0.000177
2151.000000	0.000071
2150.000000	0.000280
2149.000000	0.000400
2148.000000	0.000412
2147.000000	0.000361
2146.000000	0.000321
2145.000000	0.000329
2144.000000	0.000358
2143.000000	0.000350
2142.000000	0.000274
2141.000000	0.000151
2140.000000	0.000038
2139.000000	-0.000022
2138.000000	-0.000010
2137.000000	0.000065
2136.000000	0.000176
2135.000000	0.000277
2134.000000	0.000330
2133.000000	0.000322
2132.000000	0.000275
2131.000000	0.000233
2130.000000	0.000227
2129.000000	0.000259
2128.000000	0.000307
2127.000000	0.000358
2126.000000	0.000416
2125.000000	0.000482
2124.000000	0.000536
2123.000000	0.000554
2122.000000	0.000546
2121.000000	0.000550
2120.000000	0.000580
2119.000000	0.000609
2118.000000	0.000601
2117.000000	0.000561
2116.000000	0.000540
2115.000000	0.000574
2114.000000	0.000657
2113.000000	0.000746
2112.000000	0.000802
2111.000000	0.000810
2110.000000	0.000783
2109.000000	0.000746
2108.000000	0.000707
2107.000000	0.000645
2106.000000	0.000549
2105.000000	0.000449
2104.000000	0.000401
2103.000000	0.000436
2102.000000	0.000518
2101.000000	0.000576
2100.000000	0.000567
2099.000000	0.000499
2098.000000	0.000412
2097.000000	0.000348
2096.000000	0.000351
2095.000000	0.000449
2094.000000	0.000627
2093.000000	0.000801
2092.000000	0.000881
2091.000000	0.000852
2090.000000	0.000787
2089.000000	0.000763
2088.000000	0.000785
2087.000000	0.000806
2086.000000	0.000798
2085.000000	0.000772
2084.000000	0.000733
2083.000000	0.000655
2082.000000	0.000538
2081.000000	0.000435
2080.000000	0.000411
2079.000000	0.000480
2078.000000	0.000598
2077.000000	0.000705
2076.000000	0.000757
2075.000000	0.000737
2074.000000	0.000667
2073.000000	0.000603
2072.000000	0.000583
2071.000000	0.000588
2070.000000	0.000571
2069.000000	0.000525
2068.000000	0.000502
2067.000000	0.000537
2066.000000	0.000610
2065.000000	0.000670
2064.000000	0.000691
2063.000000	0.000679
2062.000000	0.000644
2061.000000	0.000599
2060.000000	0.000571
2059.000000	0.000590
2058.000000	0.000651
2057.000000	0.000699
2056.000000	0.000677
2055.000000	0.000598
2054.000000	0.000550
2053.000000	0.000617
2052.000000	0.000788
2051.000000	0.000961
2050.000000	0.001024
2049.000000	0.000949
2048.000000	0.000790
2047.000000	0.000608
2046.000000	0.000418
2045.000000	0.000221
2044.000000	0.000068
2043.000000	0.000035
2042.000000	0.000163
2041.000000	0.000429
2040.000000	0.000772
2039.000000	0.001122
2038.000000	0.001379
2037.000000	0.001429
2036.000000	0.001225
2035.000000	0.000872
2034.000000	0.000557
2033.000000	0.000385
2032.000000	0.000325
2031.000000	0.000298
2030.000000	0.000269
2029.000000	0.000210
2028.000000	0.000070
2027.000000	-0.000132
2026.000000	-0.000247
2025.000000	-0.000148
2024.000000	0.000080
2023.000000	0.000210
2022.000000	0.000146
2021.000000	0.000021
2020.000000	0.000008
2019.000000	0.000121
2018.000000	0.000251
2017.000000	0.000323
2016.000000	0.000345
2015.000000	0.000338
2014.000000	0.000300
2013.000000	0.000231
2012.000000	0.000159
2011.000000	0.000128
2010.000000	0.000173
2009.000000	0.000279
2008.000000	0.000363
2007.000000	0.000348
2006.000000	0.000248
2005.000000	0.000144
2004.000000	0.000065
2003.000000	-0.000021
2002.000000	-0.000100
2001.000000	-0.000070
2000.000000	0.000130
1999.000000	0.000415
1998.000000	0.000644
1997.000000	0.000763
1996.000000	0.000810
1995.000000	0.000809
1994.000000	0.000740
1993.000000	0.000621
1992.000000	0.000532
1991.000000	0.000533
1990.000000	0.000596
1989.000000	0.000661
1988.000000	0.000702
1987.000000	0.000727
1986.000000	0.000729
1985.000000	0.000700
1984.000000	0.000640
1983.000000	0.000570
1982.000000	0.000520
1981.000000	0.000496
1980.000000	0.000457
1979.000000	0.000320
1978.000000	0.000069
1977.000000	-0.000164
1976.000000	-0.000205
1975.000000	-0.000050
1974.000000	0.000143
1973.000000	0.000253
1972.000000	0.000307
1971.000000	0.000367
1970.000000	0.000402
1969.000000	0.000337
1968.000000	0.000178
1967.000000	0.000031
1966.000000	-0.000014
1965.000000	0.000033
1964.000000	0.000109
1963.000000	0.000164
1962.000000	0.000180
1961.000000	0.000156
1960.000000	0.000101
1959.000000	0.000031
1958.000000	-0.000034
1957.000000	-0.000069
1956.000000	-0.000052
1955.000000	0.000025
1954.000000	0.000140
1953.000000	0.000254
1952.000000	0.000328
1951.000000	0.000336
1950.000000	0.000268
1949.000000	0.000154
1948.000000	0.000056
1947.000000	0.000032
1946.000000	0.000084
1945.000000	0.000161
1944.000000	0.000212
1943.000000	0.000238
1942.000000	0.000282
1941.000000	0.000360
1940.000000	0.000423
1939.000000	0.000398
1938.000000	0.000261
1937.000000	0.000075
1936.000000	-0.000050
1935.000000	-0.000038
1934.000000	0.000092
1933.000000	0.000252
1932.000000	0.000359
1931.000000	0.000388
1930.000000	0.000365
1929.000000	0.000332
1928.000000	0.000316
1927.000000	0.000322
1926.000000	0.000330
1925.000000	0.000323
1924.000000	0.000302
1923.000000	0.000289
1922.000000	0.000295
1921.000000	0.000303
1920.000000	0.000291
1919.000000	0.000261
1918.000000	0.000231
1917.000000	0.000213
1916.000000	0.000205
1915.000000	0.000214
1914.000000	0.000261
1913.000000	0.000339
1912.000000	0.000407
1911.000000	0.000429
1910.000000	0.000415
1909.000000	0.000395
1908.000000	0.000372
1907.000000	0.000325
1906.000000	0.000256
1905.000000	0.000200
1904.000000	0.000192
1903.000000	0.000229
1902.000000	0.000287
1901.000000	0.000338
1900.000000	0.000362
1899.000000	0.000352
1898.000000	0.000318
1897.000000	0.000279
1896.000000	0.000243
1895.000000	0.000210
1894.000000	0.000192
1893.000000	0.000215
1892.000000	0.000278
1891.000000	0.000336
1890.000000	0.000334
1889.000000	0.000269
1888.000000	0.000205
1887.000000	0.000201
1886.000000	0.000249
1885.000000	0.000297
1884.000000	0.000294
1883.000000	0.000236
1882.000000	0.000161
1881.000000	0.000110
1880.000000	0.000096
1879.000000	0.000111
1878.000000	0.000146
1877.000000	0.000196
1876.000000	0.000241
1875.000000	0.000252
1874.000000	0.000214
1873.000000	0.000151
1872.000000	0.000104
1871.000000	0.000106
1870.000000	0.000163
1869.000000	0.000238
1868.000000	0.000270
1867.000000	0.000230
1866.000000	0.000148
1865.000000	0.000083
1864.000000	0.000063
1863.000000	0.000077
1862.000000	0.000100
1861.000000	0.000119
1860.000000	0.000135
1859.000000	0.000148
1858.000000	0.000153
1857.000000	0.000154
1856.000000	0.000165
1855.000000	0.000194
1854.000000	0.000231
1853.000000	0.000255
1852.000000	0.000251
1851.000000	0.000225
1850.000000	0.000192
1849.000000	0.000170
1848.000000	0.000164
1847.000000	0.000169
1846.000000	0.000182
1845.000000	0.000208
1844.000000	0.000240
1843.000000	0.000253
1842.000000	0.000232
1841.000000	0.000195
1840.000000	0.000172
1839.000000	0.000172
1838.000000	0.000184
1837.000000	0.000192
1836.000000	0.000197
1835.000000	0.000205
1834.000000	0.000212
1833.000000	0.000207
1832.000000	0.000186
1831.000000	0.000160
1830.000000	0.000138
1829.000000	0.000125
1828.000000	0.000112
1827.000000	0.000097
1826.000000	0.000097
1825.000000	0.000126
1824.000000	0.000173
1823.000000	0.000205
1822.000000	0.000201
1821.000000	0.000170
1820.000000	0.000134
1819.000000	0.000103
1818.000000	0.000079
1817.000000	0.000065
1816.000000	0.000062
1815.000000	0.000061
1814.000000	0.000054
1813.000000	0.000042
1812.000000	0.000040
1811.000000	0.000060
1810.000000	0.000098
1809.000000	0.000134
1808.000000	0.000152
1807.000000	0.000146
1806.000000	0.000131
1805.000000	0.000123
1804.000000	0.000124
1803.000000	0.000124
1802.000000	0.000109
1801.000000	0.000083
1800.000000	0.000064
1799.000000	0.000064
1798.000000	0.000082
1797.000000	0.000108
1796.000000	0.000130
1795.000000	0.000138
1794.000000	0.000133
1793.000000	0.000129
1792.000000	0.000138
1791.000000	0.000149
1790.000000	0.000147
1789.000000	0.000133
1788.000000	0.000125
1787.000000	0.000135
1786.000000	0.000158
1785.000000	0.000181
1784.000000	0.000191
1783.000000	0.000183
1782.000000	0.000157
1781.000000	0.000118
1780.000000	0.000081
1779.000000	0.000063
1778.000000	0.000065
1777.000000	0.000073
1776.000000	0.000071
1775.000000	0.000056
1774.000000	0.000035
1773.000000	0.000020
1772.000000	0.000023
1771.000000	0.000039
1770.000000	0.000058
1769.000000	0.000081
1768.000000	0.000111
1767.000000	0.000131
1766.000000	0.000119
1765.000000	0.000075
1764.000000	0.000025
1763.000000	0.000001
1762.000000	0.000018
1761.000000	0.000055
1760.000000	0.000084
1759.000000	0.000098
1758.000000	0.000105
1757.000000	0.000107
1756.000000	0.000112
1755.000000	0.000136
1754.000000	0.000186
1753.000000	0.000248
1752.000000	0.000293
1751.000000	0.000309
1750.000000	0.000313
1749.000000	0.000325
1748.000000	0.000335
1747.000000	0.000331
1746.000000	0.000318
1745.000000	0.000315
1744.000000	0.000322
1743.000000	0.000329
1742.000000	0.000328
1741.000000	0.000325
1740.000000	0.000317
1739.000000	0.000297
1738.000000	0.000265
1737.000000	0.000243
1736.000000	0.000246
1735.000000	0.000273
1734.000000	0.000307
1733.000000	0.000316
1732.000000	0.000290
1731.000000	0.000250
1730.000000	0.000223
1729.000000	0.000225
1728.000000	0.000249
1727.000000	0.000277
1726.000000	0.000294
1725.000000	0.000298
1724.000000	0.000290
1723.000000	0.000271
1722.000000	0.000243
1721.000000	0.000217
1720.000000	0.000201
1719.000000	0.000190
1718.000000	0.000166
1717.000000	0.000138
1716.000000	0.000133
1715.000000	0.000156
1714.000000	0.000203
1713.000000	0.000262
1712.000000	0.000314
1711.000000	0.000355
1710.000000	0.000384
1709.000000	0.000402
1708.000000	0.000407
1707.000000	0.000399
1706.000000	0.000390
1705.000000	0.000397
1704.000000	0.000420
1703.000000	0.000446
1702.000000	0.000460
1701.000000	0.000464
1700.000000	0.000481
1699.000000	0.000526
1698.000000	0.000597
1697.000000	0.000688
1696.000000	0.000772
1695.000000	0.000817
1694.000000	0.000831
1693.000000	0.000851
1692.000000	0.000896
1691.000000	0.000953
1690.000000	0.001003
1689.000000	0.001045
1688.000000	0.001089
1687.000000	0.001142
1686.000000	0.001202
1685.000000	0.001270
1684.000000	0.001336
1683.000000	0.001378
1682.000000	0.001401
1681.000000	0.001421
1680.000000	0.001448
1679.000000	0.001482
1678.000000	0.001531
1677.000000	0.001605
1676.000000	0.001690
1675.000000	0.001749
1674.000000	0.001762
1673.000000	0.001762
1672.000000	0.001795
1671.000000	0.001874
1670.000000	0.001981
1669.000000	0.002076
1668.000000	0.002138
1667.000000	0.002177
1666.000000	0.002214
1665.000000	0.002270
1664.000000	0.002352
1663.000000	0.002441
1662.000000	0.002508
1661.000000	0.002546
1660.000000	0.002573
1659.000000	0.002606
1658.000000	0.002650
1657.000000	0.002708
1656.000000	0.002777
1655.000000	0.002841
1654.000000	0.002865
1653.000000	0.002868
1652.000000	0.002895
1651.000000	0.002913
1650.000000	0.002908
1649.000000	0.002911
1648.000000	0.002930
1647.000000	0.002967
1646.000000	0.003014
1645.000000	0.003053
1644.000000	0.003072
1643.000000	0.003081
1642.000000	0.003092
1641.000000	0.003105
1640.000000	0.003113
1639.000000	0.003116
1638.000000	0.003123
1637.000000	0.003142
1636.000000	0.003173
1635.000000	0.003201
1634.000000	0.003213
1633.000000	0.003213
1632.000000	0.003214
1631.000000	0.003219
1630.000000	0.003229
1629.000000	0.003244
1628.000000	0.003255
1627.000000	0.003245
1626.000000	0.003211
1625.000000	0.003168
1624.000000	0.003137
1623.000000	0.003120
1622.000000	0.003104
1621.000000	0.003076
1620.000000	0.003047
1619.000000	0.003027
1618.000000	0.003017
1617.000000	0.003009
1616.000000	0.002993
1615.000000	0.002965
1614.000000	0.002928
1613.000000	0.002886
1612.000000	0.002837
1611.000000	0.002775
1610.000000	0.002710
1609.000000	0.002651
1608.000000	0.002599
1607.000000	0.002553
1606.000000	0.002509
1605.000000	0.002465
1604.000000	0.002421
1603.000000	0.002376
1602.000000	0.002335
1601.000000	0.002306
1600.000000	0.002292
1599.000000	0.002286
1598.000000	0.002271
1597.000000	0.002244
1596.000000	0.002210
1595.000000	0.002184
1594.000000	0.002173
1593.000000	0.002174
1592.000000	0.002176
1591.000000	0.002165
1590.000000	0.002135
1589.000000	0.002096
1588.000000	0.002064
1587.000000	0.002047
1586.000000	0.002042
1585.000000	0.002035
1584.000000	0.002024
1583.000000	0.002015
1582.000000	0.002013
1581.000000	0.002017
1580.000000	0.002023
1579.000000	0.002027
1578.000000	0.002020
1577.000000	0.001992
1576.000000	0.001957
1575.000000	0.001943
1574.000000	0.001952
1573.000000	0.001972
1572.000000	0.002002
1571.000000	0.002037
1570.000000	0.002062
1569.000000	0.002065
1568.000000	0.002055
1567.000000	0.002053
1566.000000	0.002062
1565.000000	0.002074
1564.000000	0.002080
1563.000000	0.002085
1562.000000	0.002092
1561.000000	0.002093
1560.000000	0.002081
1559.000000	0.002071
1558.000000	0.002108
1557.000000	0.002177
1556.000000	0.002233
1555.000000	0.002276
1554.000000	0.002300
1553.000000	0.002319
1552.000000	0.002348
1551.000000	0.002391
1550.000000	0.002426
1549.000000	0.002433
1548.000000	0.002422
1547.000000	0.002413
1546.000000	0.002415
1545.000000	0.002422
1544.000000	0.002426
1543.000000	0.002426
1542.000000	0.002430
1541.000000	0.002437
1540.000000	0.002434
1539.000000	0.002418
1538.000000	0.002394
1537.000000	0.002368
1536.000000	0.002358
1535.000000	0.002364
1534.000000	0.002369
1533.000000	0.002359
1532.000000	0.002344
1531.000000	0.002334
1530.000000	0.002327
1529.000000	0.002318
1528.000000	0.002302
1527.000000	0.002275
1526.000000	0.002238
1525.000000	0.002202
1524.000000	0.002179
1523.000000	0.002170
1522.000000	0.002163
1521.000000	0.002144
1520.000000	0.002120
1519.000000	0.002106
1518.000000	0.002111
1517.000000	0.002125
1516.000000	0.002125
1515.000000	0.002106
1514.000000	0.002074
1513.000000	0.002037
1512.000000	0.001995
1511.000000	0.001950
1510.000000	0.001914
1509.000000	0.001892
1508.000000	0.001863
1507.000000	0.001788
1506.000000	0.001690
1505.000000	0.001617
1504.000000	0.001561
1503.000000	0.001519
1502.000000	0.001500
1501.000000	0.001510
1500.000000	0.001541
1499.000000	0.001559
1498.000000	0.001521
1497.000000	0.001429
1496.000000	0.001336
1495.000000	0.001277
1494.000000	0.001242
1493.000000	0.001220
1492.000000	0.001217
1491.000000	0.001236
1490.000000	0.001255
1489.000000	0.001250
1488.000000	0.001222
1487.000000	0.001188
1486.000000	0.001164
1485.000000	0.001155
1484.000000	0.001160
1483.000000	0.001174
1482.000000	0.001190
1481.000000	0.001204
1480.000000	0.001216
1479.000000	0.001230
1478.000000	0.001250
1477.000000	0.001281
1476.000000	0.001321
1475.000000	0.001368
1474.000000	0.001410
1473.000000	0.001439
1472.000000	0.001452
1471.000000	0.001455
1470.000000	0.001452
1469.000000	0.001450
1468.000000	0.001453
1467.000000	0.001463
1466.000000	0.001482
1465.000000	0.001511
1464.000000	0.001551
1463.000000	0.001594
1462.000000	0.001631
1461.000000	0.001659
1460.000000	0.001689
1459.000000	0.001727
1458.000000	0.001770
1457.000000	0.001803
1456.000000	0.001820
1455.000000	0.001825
1454.000000	0.001828
1453.000000	0.001837
1452.000000	0.001852
1451.000000	0.001870
1450.000000	0.001896
1449.000000	0.001928
1448.000000	0.001946
1447.000000	0.001940
1446.000000	0.001923
1445.000000	0.001915
1444.000000	0.001920
1443.000000	0.001924
1442.000000	0.001916
1441.000000	0.001899
1440.000000	0.001889
1439.000000	0.001896
1438.000000	0.001910
1437.000000	0.001918
1436.000000	0.001917
1435.000000	0.001917
1434.000000	0.001920
1433.000000	0.001922
1432.000000	0.001924
1431.000000	0.001929
1430.000000	0.001943
1429.000000	0.001960
1428.000000	0.001970
1427.000000	0.001976
1426.000000	0.001984
1425.000000	0.001995
1424.000000	0.002001
1423.000000	0.001999
1422.000000	0.001997
1421.000000	0.001995
1420.000000	0.001986
1419.000000	0.001968
1418.000000	0.001957
1417.000000	0.001966
1416.000000	0.001983
1415.000000	0.001991
1414.000000	0.001982
1413.000000	0.001970
1412.000000	0.001965
1411.000000	0.001968
1410.000000	0.001965
1409.000000	0.001955
1408.000000	0.001950
1407.000000	0.001958
1406.000000	0.001973
1405.000000	0.001977
1404.000000	0.001960
1403.000000	0.001938
1402.000000	0.001923
1401.000000	0.001915
1400.000000	0.001910
1399.000000	0.001907
1398.000000	0.001910
1397.000000	0.001912
1396.000000	0.001897
1395.000000	0.001862
1394.000000	0.001824
1393.000000	0.001800
1392.000000	0.001784
1391.000000	0.001766
1390.000000	0.001746
1389.000000	0.001729
1388.000000	0.001722
1387.000000	0.001720
1386.000000	0.001727
1385.000000	0.001741
1384.000000	0.001755
1383.000000	0.001756
1382.000000	0.001743
1381.000000	0.001731
1380.000000	0.001731
1379.000000	0.001739
1378.000000	0.001743
1377.000000	0.001738
1376.000000	0.001727
1375.000000	0.001708
1374.000000	0.001682
1373.000000	0.001661
1372.000000	0.001654
1371.000000	0.001653
1370.000000	0.001643
1369.000000	0.001616
1368.000000	0.001586
1367.000000	0.001574
1366.000000	0.001581
1365.000000	0.001593
1364.000000	0.001591
1363.000000	0.001571
1362.000000	0.001541
1361.000000	0.001512
1360.000000	0.001488
1359.000000	0.001465
1358.000000	0.001439
1357.000000	0.001414
1356.000000	0.001395
1355.000000	0.001385
1354.000000	0.001379
1353.000000	0.001367
1352.000000	0.001342
1351.000000	0.001309
1350.000000	0.001279
1349.000000	0.001267
1348.000000	0.001275
1347.000000	0.001297
1346.000000	0.001322
1345.000000	0.001344
1344.000000	0.001356
1343.000000	0.001360
1342.000000	0.001361
1341.000000	0.001365
1340.000000	0.001373
1339.000000	0.001385
1338.000000	0.001394
1337.000000	0.001398
1336.000000	0.001395
1335.000000	0.001390
1334.000000	0.001391
1333.000000	0.001404
1332.000000	0.001423
1331.000000	0.001441
1330.000000	0.001453
1329.000000	0.001462
1328.000000	0.001474
1327.000000	0.001489
1326.000000	0.001504
1325.000000	0.001517
1324.000000	0.001527
1323.000000	0.001538
1322.000000	0.001554
1321.000000	0.001572
1320.000000	0.001587
1319.000000	0.001589
1318.000000	0.001573
1317.000000	0.001544
1316.000000	0.001514
1315.000000	0.001484
1314.000000	0.001449
1313.000000	0.001403
1312.000000	0.001343
1311.000000	0.001279
1310.000000	0.001222
1309.000000	0.001185
1308.000000	0.001172
1307.000000	0.001173
1306.000000	0.001175
1305.000000	0.001167
1304.000000	0.001148
1303.000000	0.001120
1302.000000	0.001086
1301.000000	0.001051
1300.000000	0.001023
1299.000000	0.001008
1298.000000	0.001003
1297.000000	0.001002
1296.000000	0.000998
1295.000000	0.000987
1294.000000	0.000969
1293.000000	0.000940
1292.000000	0.000908
1291.000000	0.000884
1290.000000	0.000883
1289.000000	0.000907
1288.000000	0.000947
1287.000000	0.000985
1286.000000	0.001010
1285.000000	0.001015
1284.000000	0.001001
1283.000000	0.000974
1282.000000	0.000946
1281.000000	0.000929
1280.000000	0.000924
1279.000000	0.000920
1278.000000	0.000909
1277.000000	0.000902
1276.000000	0.000913
1275.000000	0.000942
1274.000000	0.000970
1273.000000	0.000982
1272.000000	0.000979
1271.000000	0.000971
1270.000000	0.000968
1269.000000	0.000972
1268.000000	0.000981
1267.000000	0.000993
1266.000000	0.001001
1265.000000	0.001002
1264.000000	0.000999
1263.000000	0.001000
1262.000000	0.001008
1261.000000	0.001024
1260.000000	0.001046
1259.000000	0.001071
1258.000000	0.001093
1257.000000	0.001103
1256.000000	0.001104
1255.000000	0.001100
1254.000000	0.001102
1253.000000	0.001117
1252.000000	0.001142
1251.000000	0.001164
1250.000000	0.001169
1249.000000	0.001161
1248.000000	0.001155
1247.000000	0.001168
1246.000000	0.001196
1245.000000	0.001230
1244.000000	0.001264
1243.000000	0.001296
1242.000000	0.001321
1241.000000	0.001330
1240.000000	0.001320
1239.000000	0.001303
1238.000000	0.001295
1237.000000	0.001307
1236.000000	0.001336
1235.000000	0.001365
1234.000000	0.001374
1233.000000	0.001357
1232.000000	0.001327
1231.000000	0.001299
1230.000000	0.001277
1229.000000	0.001259
1228.000000	0.001247
1227.000000	0.001244
1226.000000	0.001246
1225.000000	0.001242
1224.000000	0.001226
1223.000000	0.001199
1222.000000	0.001167
1221.000000	0.001130
1220.000000	0.001092
1219.000000	0.001058
1218.000000	0.001035
1217.000000	0.001033
1216.000000	0.001053
1215.000000	0.001081
1214.000000	0.001097
1213.000000	0.001091
1212.000000	0.001075
1211.000000	0.001064
1210.000000	0.001053
1209.000000	0.001028
1208.000000	0.000988
1207.000000	0.000956
1206.000000	0.000943
1205.000000	0.000943
1204.000000	0.000942
1203.000000	0.000938
1202.000000	0.000934
1201.000000	0.000930
1200.000000	0.000920
1199.000000	0.000903
1198.000000	0.000880
1197.000000	0.000856
1196.000000	0.000833
1195.000000	0.000816
1194.000000	0.000803
1193.000000	0.000792
1192.000000	0.000777
1191.000000	0.000753
1190.000000	0.000716
1189.000000	0.000666
1188.000000	0.000621
1187.000000	0.000601
1186.000000	0.000607
1185.000000	0.000619
1184.000000	0.000615
1183.000000	0.000598
1182.000000	0.000585
1181.000000	0.000587
1180.000000	0.000599
1179.000000	0.000611
1178.000000	0.000619
1177.000000	0.000623
1176.000000	0.000628
1175.000000	0.000643
1174.000000	0.000674
1173.000000	0.000716
1172.000000	0.000755
1171.000000	0.000774
1170.000000	0.000775
1169.000000	0.000775
1168.000000	0.000795
1167.000000	0.000841
1166.000000	0.000895
1165.000000	0.000938
1164.000000	0.000966
1163.000000	0.000993
1162.000000	0.001025
1161.000000	0.001059
1160.000000	0.001088
1159.000000	0.001115
1158.000000	0.001148
1157.000000	0.001189
1156.000000	0.001235
1155.000000	0.001282
1154.000000	0.001318
1153.000000	0.001328
1152.000000	0.001309
1151.000000	0.001283
1150.000000	0.001274
1149.000000	0.001278
1148.000000	0.001272
1147.000000	0.001244
1146.000000	0.001212
1145.000000	0.001200
1144.000000	0.001209
1143.000000	0.001223
1142.000000	0.001227
1141.000000	0.001216
1140.000000	0.001198
1139.000000	0.001183
1138.000000	0.001179
1137.000000	0.001184
1136.000000	0.001191
1135.000000	0.001193
1134.000000	0.001189
1133.000000	0.001182
1132.000000	0.001178
1131.000000	0.001185
1130.000000	0.001202
1129.000000	0.001220
1128.000000	0.001226
1127.000000	0.001223
1126.000000	0.001223
1125.000000	0.001237
1124.000000	0.001257
1123.000000	0.001274
1122.000000	0.001285
1121.000000	0.001299
1120.000000	0.001326
1119.000000	0.001361
1118.000000	0.001389
1117.000000	0.001396
1116.000000	0.001389
1115.000000	0.001384
1114.000000	0.001396
1113.000000	0.001429
1112.000000	0.001473
1111.000000	0.001519
1110.000000	0.001554
1109.000000	0.001573
1108.000000	0.001574
1107.000000	0.001562
1106.000000	0.001547
1105.000000	0.001536
1104.000000	0.001541
1103.000000	0.001566
1102.000000	0.001604
1101.000000	0.001636
1100.000000	0.001649
1099.000000	0.001656
1098.000000	0.001685
1097.000000	0.001742
1096.000000	0.001807
1095.000000	0.001859
1094.000000	0.001890
1093.000000	0.001907
1092.000000	0.001904
1091.000000	0.001879
1090.000000	0.001842
1089.000000	0.001815
1088.000000	0.001811
1087.000000	0.001827
1086.000000	0.001863
1085.000000	0.001928
1084.000000	0.002021
1083.000000	0.002113
1082.000000	0.002166
1081.000000	0.002165
1080.000000	0.002128
1079.000000	0.002094
1078.000000	0.002086
1077.000000	0.002109
1076.000000	0.002153
1075.000000	0.002203
1074.000000	0.002243
1073.000000	0.002261
1072.000000	0.002251
1071.000000	0.002222
1070.000000	0.002191
1069.000000	0.002174
1068.000000	0.002169
1067.000000	0.002163
1066.000000	0.002145
1065.000000	0.002120
1064.000000	0.002112
1063.000000	0.002135
1062.000000	0.002180
1061.000000	0.002219
1060.000000	0.002237
1059.000000	0.002238
1058.000000	0.002242
1057.000000	0.002257
1056.000000	0.002282
1055.000000	0.002312
1054.000000	0.002341
1053.000000	0.002365
1052.000000	0.002380
1051.000000	0.002395
1050.000000	0.002417
1049.000000	0.002443
1048.000000	0.002461
1047.000000	0.002461
1046.000000	0.002455
1045.000000	0.002462
1044.000000	0.002493
1043.000000	0.002535
1042.000000	0.002569
1041.000000	0.002586
1040.000000	0.002594
1039.000000	0.002603
1038.000000	0.002615
1037.000000	0.002622
1036.000000	0.002628
1035.000000	0.002648
1034.000000	0.002688
1033.000000	0.002730
1032.000000	0.002747
1031.000000	0.002736
1030.000000	0.002726
1029.000000	0.002740
1028.000000	0.002776
1027.000000	0.002809
1026.000000	0.002820
1025.000000	0.002812
1024.000000	0.002801
1023.000000	0.002801
1022.000000	0.002814
1021.000000	0.002825
1020.000000	0.002818
1019.000000	0.002789
1018.000000	0.002760
1017.000000	0.002748
1016.000000	0.002749
1015.000000	0.002740
1014.000000	0.002710
1013.000000	0.002669
1012.000000	0.002638
1011.000000	0.002623
1010.000000	0.002616
1009.000000	0.002609
1008.000000	0.002606
1007.000000	0.002611
1006.000000	0.002616
1005.000000	0.002609
1004.000000	0.002580
1003.000000	0.002539
1002.000000	0.002500
1001.000000	0.002470
1000.000000	0.002445
999.000000	0.002418
998.000000	0.002389
997.000000	0.002358
996.000000	0.002325
995.000000	0.002291
994.000000	0.002253
993.000000	0.002211
992.000000	0.002168
991.000000	0.002131
990.000000	0.002111
989.000000	0.002105
988.000000	0.002101
987.000000	0.002084
986.000000	0.002049
985.000000	0.002003
984.000000	0.001960
983.000000	0.001930
982.000000	0.001915
981.000000	0.001902
980.000000	0.001880
979.000000	0.001846
978.000000	0.001803
977.000000	0.001756
976.000000	0.001713
975.000000	0.001679
974.000000	0.001658
973.000000	0.001644
972.000000	0.001624
971.000000	0.001596
970.000000	0.001564
969.000000	0.001535
968.000000	0.001509
967.000000	0.001485
966.000000	0.001461
965.000000	0.001433
964.000000	0.001393
963.000000	0.001342
962.000000	0.001288
961.000000	0.001237
960.000000	0.001198
959.000000	0.001185
958.000000	0.001207
957.000000	0.001251
956.000000	0.001282
955.000000	0.001274
954.000000	0.001231
953.000000	0.001176
952.000000	0.001130
951.000000	0.001096
950.000000	0.001067
949.000000	0.001032
948.000000	0.000982
947.000000	0.000920
946.000000	0.000856
945.000000	0.000807
944.000000	0.000782
943.000000	0.000783
942.000000	0.000799
941.000000	0.000804
940.000000	0.000786
939.000000	0.000754
938.000000	0.000735
937.000000	0.000733
936.000000	0.000727
935.000000	0.000698
934.000000	0.000654
933.000000	0.000615
932.000000	0.000584
931.000000	0.000553
930.000000	0.000513
929.000000	0.000463
928.000000	0.000409
927.000000	0.000372
926.000000	0.000382
925.000000	0.000445
924.000000	0.000518
923.000000	0.000546
922.000000	0.000511
921.000000	0.000443
920.000000	0.000384
919.000000	0.000355
918.000000	0.000362
917.000000	0.000398
916.000000	0.000442
915.000000	0.000464
914.000000	0.000453
913.000000	0.000428
912.000000	0.000412
911.000000	0.000402
910.000000	0.000377
909.000000	0.000331
908.000000	0.000285
907.000000	0.000262
906.000000	0.000259
905.000000	0.000256
904.000000	0.000226
903.000000	0.000163
902.000000	0.000087
901.000000	0.000031
900.000000	0.000012
899.000000	0.000021
898.000000	0.000033
897.000000	0.000041
896.000000	0.000056
895.000000	0.000086
894.000000	0.000112
893.000000	0.000107
892.000000	0.000064
891.000000	0.000013
890.000000	-0.000002
889.000000	0.000031
888.000000	0.000079
887.000000	0.000094
886.000000	0.000066
885.000000	0.000028
884.000000	0.000018
883.000000	0.000039
882.000000	0.000064
881.000000	0.000080
880.000000	0.000106
879.000000	0.000173
878.000000	0.000289
877.000000	0.000426
876.000000	0.000542
875.000000	0.000597
874.000000	0.000570
873.000000	0.000476
872.000000	0.000359
871.000000	0.000267
870.000000	0.000216
869.000000	0.000194
868.000000	0.000189
867.000000	0.000194
866.000000	0.000197
865.000000	0.000179
864.000000	0.000140
863.000000	0.000104
862.000000	0.000101
861.000000	0.000125
860.000000	0.000146
859.000000	0.000145
858.000000	0.000126
857.000000	0.000107
856.000000	0.000099
855.000000	0.000107
854.000000	0.000123
853.000000	0.000126
852.000000	0.000087
851.000000	0.000019
850.000000	-0.000023
849.000000	0.000007
848.000000	0.000088
847.000000	0.000150
846.000000	0.000152
845.000000	0.000115
844.000000	0.000093
843.000000	0.000109
842.000000	0.000144
841.000000	0.000168
840.000000	0.000173
839.000000	0.000169
838.000000	0.000156
837.000000	0.000120
836.000000	0.000057
835.000000	-0.000010
834.000000	-0.000044
833.000000	-0.000028
832.000000	0.000015
831.000000	0.000057
830.000000	0.000089
829.000000	0.000120
828.000000	0.000152
827.000000	0.000177
826.000000	0.000191
825.000000	0.000197
824.000000	0.000190
823.000000	0.000161
822.000000	0.000113
821.000000	0.000066
820.000000	0.000036
819.000000	0.000024
818.000000	0.000027
817.000000	0.000043
816.000000	0.000071
815.000000	0.000101
814.000000	0.000130
813.000000	0.000150
812.000000	0.000156
811.000000	0.000149
810.000000	0.000148
809.000000	0.000165
808.000000	0.000186
807.000000	0.000172
806.000000	0.000114
805.000000	0.000055
804.000000	0.000045
803.000000	0.000084
802.000000	0.000126
801.000000	0.000137
800.000000	0.000124
799.000000	0.000115
798.000000	0.000114
797.000000	0.000104
796.000000	0.000077
795.000000	0.000050
794.000000	0.000045
793.000000	0.000071
792.000000	0.000121
791.000000	0.000178
790.000000	0.000224
789.000000	0.000231
788.000000	0.000185
787.000000	0.000099
786.000000	0.000025
785.000000	0.000010
784.000000	0.000058
783.000000	0.000130
782.000000	0.000172
781.000000	0.000161
780.000000	0.000106
779.000000	0.000037
778.000000	-0.000013
777.000000	-0.000022
776.000000	0.000010
775.000000	0.000061
774.000000	0.000104
773.000000	0.000117
772.000000	0.000092
771.000000	0.000040
770.000000	-0.000006
769.000000	-0.000007
768.000000	0.000043
767.000000	0.000113
766.000000	0.000164
765.000000	0.000188
764.000000	0.000196
763.000000	0.000191
762.000000	0.000160
761.000000	0.000101
760.000000	0.000048
759.000000	0.000045
758.000000	0.000106
757.000000	0.000185
756.000000	0.000213
755.000000	0.000157
754.000000	0.000051
753.000000	-0.000036
752.000000	-0.000057
751.000000	-0.000021
750.000000	0.000039
749.000000	0.000095
748.000000	0.000141
747.000000	0.000172
746.000000	0.000183
745.000000	0.000170
744.000000	0.000149
743.000000	0.000137
742.000000	0.000143
741.000000	0.000163
740.000000	0.000182
739.000000	0.000181
738.000000	0.000155
737.000000	0.000120
736.000000	0.000098
735.000000	0.000101
734.000000	0.000116
733.000000	0.000121
732.000000	0.000099
731.000000	0.000053
730.000000	0.000002
729.000000	-0.000029
728.000000	-0.000022
727.000000	0.000024
726.000000	0.000088
725.000000	0.000145
724.000000	0.000170
723.000000	0.000150
722.000000	0.000087
721.000000	0.000010
720.000000	-0.000039
719.000000	-0.000033
718.000000	0.000015
717.000000	0.000078
716.000000	0.000136
715.000000	0.000189
714.000000	0.000229
713.000000	0.000243
712.000000	0.000227
711.000000	0.000198
710.000000	0.000172
709.000000	0.000145
708.000000	0.000105
707.000000	0.000061
706.000000	0.000039
705.000000	0.000048
704.000000	0.000068
703.000000	0.000068
702.000000	0.000036
701.000000	-0.000006
700.000000	-0.000022
699.000000	0.000010
698.000000	0.000087
697.000000	0.000179
696.000000	0.000264
695.000000	0.000329
694.000000	0.000359
693.000000	0.000325
692.000000	0.000216
691.000000	0.000077
690.000000	-0.000012
689.000000	-0.000007
688.000000	0.000054
687.000000	0.000100
686.000000	0.000089
685.000000	0.000037
684.000000	-0.000011
683.000000	-0.000014
682.000000	0.000037
681.000000	0.000107
680.000000	0.000146
679.000000	0.000147
678.000000	0.000156
677.000000	0.000201
676.000000	0.000249
675.000000	0.000259
674.000000	0.000240
673.000000	0.000230
672.000000	0.000231
671.000000	0.000214
670.000000	0.000187
669.000000	0.000204
668.000000	0.000243
667.000000	0.000229
666.000000	0.000230
665.000000	0.000294
664.000000	0.000391
663.000000	0.000479
662.000000	0.000516
661.000000	0.000494
660.000000	0.000435
659.000000	0.000364
658.000000	0.000306
657.000000	0.000276
656.000000	0.000264
655.000000	0.000243
654.000000	0.000201
653.000000	0.000160
652.000000	0.000141
651.000000	0.000134
650.000000	0.000120
649.000000	0.000102
648.000000	0.000100
647.000000	0.000116
646.000000	0.000140
645.000000	0.000170
644.000000	0.000208
643.000000	0.000237
642.000000	0.000240
641.000000	0.000221
640.000000	0.000199
639.000000	0.000174
638.000000	0.000150
637.000000	0.000152
636.000000	0.000202
635.000000	0.000263
634.000000	0.000268
633.000000	0.000206
632.000000	0.000150
631.000000	0.000163
630.000000	0.000220
629.000000	0.000241
628.000000	0.000188
627.000000	0.000099
626.000000	0.000036
625.000000	0.000025
624.000000	0.000044
623.000000	0.000057
622.000000	0.000048
621.000000	0.000036
620.000000	0.000041
619.000000	0.000061
618.000000	0.000081
617.000000	0.000106
616.000000	0.000158
615.000000	0.000237
614.000000	0.000301
613.000000	0.000308
612.000000	0.000260
611.000000	0.000203
610.000000	0.000179
609.000000	0.000191
608.000000	0.000217
607.000000	0.000240
606.000000	0.000267
605.000000	0.000311
604.000000	0.000371
603.000000	0.000428
602.000000	0.000463
601.000000	0.000475
600.000000	0.000486
599.000000	0.000517
598.000000	0.000569
597.000000	0.000624
596.000000	0.000656
595.000000	0.000650
594.000000	0.000606
593.000000	0.000537
592.000000	0.000471
591.000000	0.000451
590.000000	0.000497
589.000000	0.000566
588.000000	0.000567
587.000000	0.000446
586.000000	0.000267
585.000000	0.000167
584.000000	0.000212
583.000000	0.000339
582.000000	0.000442
581.000000	0.000484
580.000000	0.000491
579.000000	0.000483
578.000000	0.000450
577.000000	0.000401
576.000000	0.000364
575.000000	0.000346
574.000000	0.000329
573.000000	0.000309
572.000000	0.000318
571.000000	0.000371
570.000000	0.000439
569.000000	0.000476
568.000000	0.000470
567.000000	0.000440
566.000000	0.000411
565.000000	0.000389
564.000000	0.000359
563.000000	0.000301
562.000000	0.000225
561.000000	0.000180
560.000000	0.000198
559.000000	0.000242
558.000000	0.000245
557.000000	0.000202
556.000000	0.000176
555.000000	0.000223
554.000000	0.000333
553.000000	0.000468
552.000000	0.000587
551.000000	0.000633
550.000000	0.000555
549.000000	0.000377
548.000000	0.000202
547.000000	0.000100
546.000000	0.000054
545.000000	0.000040
544.000000	0.000105
543.000000	0.000288
542.000000	0.000509
541.000000	0.000621
540.000000	0.000573
539.000000	0.000446
538.000000	0.000343
537.000000	0.000297
536.000000	0.000303
535.000000	0.000352
534.000000	0.000405
533.000000	0.000387
532.000000	0.000282
531.000000	0.000175
530.000000	0.000165
529.000000	0.000238
528.000000	0.000286
527.000000	0.000227
526.000000	0.000118
525.000000	0.000098
524.000000	0.000248
523.000000	0.000508
522.000000	0.000743
521.000000	0.000850
520.000000	0.000822
519.000000	0.000731
518.000000	0.000652
517.000000	0.000599
516.000000	0.000551
515.000000	0.000499
514.000000	0.000443
513.000000	0.000377
512.000000	0.000293
511.000000	0.000209
510.000000	0.000157
509.000000	0.000138
508.000000	0.000112
507.000000	0.000033
506.000000	-0.000109
505.000000	-0.000275
504.000000	-0.000392
503.000000	-0.000380
502.000000	-0.000220
501.000000	-0.000002
500.000000	0.000165
499.000000	0.000266
498.000000	0.000346
497.000000	0.000395
496.000000	0.000353
495.000000	0.000222
494.000000	0.000129
493.000000	0.000203
492.000000	0.000415
491.000000	0.000614
490.000000	0.000682
489.000000	0.000601
488.000000	0.000393
487.000000	0.000099
486.000000	-0.000179
485.000000	-0.000301
484.000000	-0.000205
483.000000	0.000030
482.000000	0.000269
481.000000	0.000411
480.000000	0.000394
479.000000	0.000199
478.000000	-0.000085
477.000000	-0.000290
476.000000	-0.000318
475.000000	-0.000228
474.000000	-0.000140
473.000000	-0.000099
472.000000	-0.000067
471.000000	-0.000000
470.000000	0.000125
469.000000	0.000329
468.000000	0.000587
467.000000	0.000784
466.000000	0.000804
465.000000	0.000674
464.000000	0.000513
463.000000	0.000366
462.000000	0.000167
461.000000	-0.000151
460.000000	-0.000547
459.000000	-0.000883
458.000000	-0.000988
457.000000	-0.000809
456.000000	-0.000491
455.000000	-0.000207
454.000000	-0.000019
453.000000	0.000094
452.000000	0.000160
451.000000	0.000207
450.000000	0.000275
