PE IR       SUBTECH     SPECTRUM    ASCII       PEDS        4.00        
   -1
P14-Noir043_1.ASC
23/06/09
16:31:45.00
23/06/09
16:36:39.00
uco
Sample 043 By uco Date Friday, June 09 2023
450.000000
#HDR
-1
-1
#GR
cm-1
A
1.0
0.0
4000.000000
-1.000000
3551
8
0.010707
0.000539
#DATA
4000.000000	0.001717
3999.000000	0.001710
3998.000000	0.001702
3997.000000	0.001698
3996.000000	0.001696
3995.000000	0.001698
3994.000000	0.001703
3993.000000	0.001716
3992.000000	0.001733
3991.000000	0.001749
3990.000000	0.001757
3989.000000	0.001758
3988.000000	0.001758
3987.000000	0.001765
3986.000000	0.001778
3985.000000	0.001788
3984.000000	0.001789
3983.000000	0.001782
3982.000000	0.001773
3981.000000	0.001765
3980.000000	0.001758
3979.000000	0.001753
3978.000000	0.001754
3977.000000	0.001768
3976.000000	0.001790
3975.000000	0.001809
3974.000000	0.001818
3973.000000	0.001816
3972.000000	0.001810
3971.000000	0.001805
3970.000000	0.001803
3969.000000	0.001805
3968.000000	0.001813
3967.000000	0.001826
3966.000000	0.001836
3965.000000	0.001841
3964.000000	0.001841
3963.000000	0.001841
3962.000000	0.001842
3961.000000	0.001840
3960.000000	0.001832
3959.000000	0.001823
3958.000000	0.001816
3957.000000	0.001812
3956.000000	0.001812
3955.000000	0.001817
3954.000000	0.001834
3953.000000	0.001865
3952.000000	0.001902
3951.000000	0.001934
3950.000000	0.001950
3949.000000	0.001948
3948.000000	0.001931
3947.000000	0.001904
3946.000000	0.001877
3945.000000	0.001866
3944.000000	0.001876
3943.000000	0.001899
3942.000000	0.001914
3941.000000	0.001904
3940.000000	0.001878
3939.000000	0.001851
3938.000000	0.001832
3937.000000	0.001821
3936.000000	0.001813
3935.000000	0.001811
3934.000000	0.001816
3933.000000	0.001826
3932.000000	0.001841
3931.000000	0.001864
3930.000000	0.001896
3929.000000	0.001924
3928.000000	0.001936
3927.000000	0.001934
3926.000000	0.001935
3925.000000	0.001947
3924.000000	0.001955
3923.000000	0.001943
3922.000000	0.001914
3921.000000	0.001888
3920.000000	0.001873
3919.000000	0.001865
3918.000000	0.001858
3917.000000	0.001848
3916.000000	0.001833
3915.000000	0.001814
3914.000000	0.001801
3913.000000	0.001804
3912.000000	0.001821
3911.000000	0.001845
3910.000000	0.001870
3909.000000	0.001896
3908.000000	0.001922
3907.000000	0.001946
3906.000000	0.001963
3905.000000	0.001965
3904.000000	0.001944
3903.000000	0.001897
3902.000000	0.001844
3901.000000	0.001814
3900.000000	0.001814
3899.000000	0.001821
3898.000000	0.001813
3897.000000	0.001801
3896.000000	0.001806
3895.000000	0.001832
3894.000000	0.001863
3893.000000	0.001888
3892.000000	0.001909
3891.000000	0.001924
3890.000000	0.001916
3889.000000	0.001895
3888.000000	0.001892
3887.000000	0.001919
3886.000000	0.001956
3885.000000	0.001967
3884.000000	0.001941
3883.000000	0.001911
3882.000000	0.001917
3881.000000	0.001958
3880.000000	0.001996
3879.000000	0.001988
3878.000000	0.001945
3877.000000	0.001912
3876.000000	0.001911
3875.000000	0.001928
3874.000000	0.001928
3873.000000	0.001887
3872.000000	0.001828
3871.000000	0.001805
3870.000000	0.001830
3869.000000	0.001847
3868.000000	0.001813
3867.000000	0.001769
3866.000000	0.001763
3865.000000	0.001788
3864.000000	0.001812
3863.000000	0.001823
3862.000000	0.001828
3861.000000	0.001832
3860.000000	0.001834
3859.000000	0.001833
3858.000000	0.001834
3857.000000	0.001835
3856.000000	0.001820
3855.000000	0.001771
3854.000000	0.001721
3853.000000	0.001722
3852.000000	0.001726
3851.000000	0.001708
3850.000000	0.001720
3849.000000	0.001760
3848.000000	0.001797
3847.000000	0.001816
3846.000000	0.001832
3845.000000	0.001858
3844.000000	0.001892
3843.000000	0.001914
3842.000000	0.001906
3841.000000	0.001878
3840.000000	0.001858
3839.000000	0.001860
3838.000000	0.001867
3837.000000	0.001857
3836.000000	0.001834
3835.000000	0.001820
3834.000000	0.001831
3833.000000	0.001858
3832.000000	0.001879
3831.000000	0.001876
3830.000000	0.001854
3829.000000	0.001838
3828.000000	0.001851
3827.000000	0.001890
3826.000000	0.001921
3825.000000	0.001911
3824.000000	0.001869
3823.000000	0.001836
3822.000000	0.001852
3821.000000	0.001913
3820.000000	0.001941
3819.000000	0.001901
3818.000000	0.001861
3817.000000	0.001868
3816.000000	0.001895
3815.000000	0.001879
3814.000000	0.001817
3813.000000	0.001770
3812.000000	0.001775
3811.000000	0.001801
3810.000000	0.001809
3809.000000	0.001794
3808.000000	0.001783
3807.000000	0.001788
3806.000000	0.001783
3805.000000	0.001753
3804.000000	0.001738
3803.000000	0.001780
3802.000000	0.001874
3801.000000	0.001956
3800.000000	0.001949
3799.000000	0.001881
3798.000000	0.001835
3797.000000	0.001839
3796.000000	0.001856
3795.000000	0.001849
3794.000000	0.001824
3793.000000	0.001808
3792.000000	0.001815
3791.000000	0.001834
3790.000000	0.001849
3789.000000	0.001855
3788.000000	0.001855
3787.000000	0.001862
3786.000000	0.001885
3785.000000	0.001917
3784.000000	0.001935
3783.000000	0.001924
3782.000000	0.001899
3781.000000	0.001887
3780.000000	0.001902
3779.000000	0.001926
3778.000000	0.001929
3777.000000	0.001907
3776.000000	0.001885
3775.000000	0.001878
3774.000000	0.001875
3773.000000	0.001869
3772.000000	0.001868
3771.000000	0.001881
3770.000000	0.001893
3769.000000	0.001874
3768.000000	0.001818
3767.000000	0.001767
3766.000000	0.001757
3765.000000	0.001782
3764.000000	0.001803
3763.000000	0.001802
3762.000000	0.001792
3761.000000	0.001786
3760.000000	0.001781
3759.000000	0.001781
3758.000000	0.001789
3757.000000	0.001807
3756.000000	0.001827
3755.000000	0.001847
3754.000000	0.001860
3753.000000	0.001853
3752.000000	0.001819
3751.000000	0.001775
3750.000000	0.001736
3749.000000	0.001688
3748.000000	0.001641
3747.000000	0.001636
3746.000000	0.001686
3745.000000	0.001754
3744.000000	0.001777
3743.000000	0.001724
3742.000000	0.001669
3741.000000	0.001688
3740.000000	0.001754
3739.000000	0.001797
3738.000000	0.001792
3737.000000	0.001770
3736.000000	0.001771
3735.000000	0.001800
3734.000000	0.001833
3733.000000	0.001855
3732.000000	0.001871
3731.000000	0.001871
3730.000000	0.001852
3729.000000	0.001832
3728.000000	0.001825
3727.000000	0.001828
3726.000000	0.001825
3725.000000	0.001814
3724.000000	0.001809
3723.000000	0.001821
3722.000000	0.001841
3721.000000	0.001848
3720.000000	0.001838
3719.000000	0.001825
3718.000000	0.001824
3717.000000	0.001832
3716.000000	0.001836
3715.000000	0.001828
3714.000000	0.001809
3713.000000	0.001787
3712.000000	0.001782
3711.000000	0.001795
3710.000000	0.001790
3709.000000	0.001749
3708.000000	0.001697
3707.000000	0.001671
3706.000000	0.001676
3705.000000	0.001705
3704.000000	0.001743
3703.000000	0.001782
3702.000000	0.001809
3701.000000	0.001811
3700.000000	0.001782
3699.000000	0.001749
3698.000000	0.001744
3697.000000	0.001762
3696.000000	0.001775
3695.000000	0.001760
3694.000000	0.001727
3693.000000	0.001696
3692.000000	0.001680
3691.000000	0.001692
3690.000000	0.001738
3689.000000	0.001802
3688.000000	0.001833
3687.000000	0.001809
3686.000000	0.001771
3685.000000	0.001761
3684.000000	0.001778
3683.000000	0.001791
3682.000000	0.001785
3681.000000	0.001773
3680.000000	0.001764
3679.000000	0.001741
3678.000000	0.001693
3677.000000	0.001646
3676.000000	0.001657
3675.000000	0.001721
3674.000000	0.001739
3673.000000	0.001706
3672.000000	0.001696
3671.000000	0.001721
3670.000000	0.001751
3669.000000	0.001761
3668.000000	0.001748
3667.000000	0.001747
3666.000000	0.001776
3665.000000	0.001807
3664.000000	0.001818
3663.000000	0.001811
3662.000000	0.001802
3661.000000	0.001796
3660.000000	0.001788
3659.000000	0.001777
3658.000000	0.001776
3657.000000	0.001799
3656.000000	0.001830
3655.000000	0.001831
3654.000000	0.001800
3653.000000	0.001765
3652.000000	0.001740
3651.000000	0.001723
3650.000000	0.001736
3649.000000	0.001806
3648.000000	0.001893
3647.000000	0.001932
3646.000000	0.001910
3645.000000	0.001868
3644.000000	0.001844
3643.000000	0.001854
3642.000000	0.001886
3641.000000	0.001921
3640.000000	0.001950
3639.000000	0.001976
3638.000000	0.001997
3637.000000	0.002006
3636.000000	0.002002
3635.000000	0.001999
3634.000000	0.001999
3633.000000	0.001985
3632.000000	0.001941
3631.000000	0.001879
3630.000000	0.001836
3629.000000	0.001868
3628.000000	0.001950
3627.000000	0.002005
3626.000000	0.002037
3625.000000	0.002076
3624.000000	0.002113
3623.000000	0.002133
3622.000000	0.002144
3621.000000	0.002162
3620.000000	0.002191
3619.000000	0.002219
3618.000000	0.002223
3617.000000	0.002196
3616.000000	0.002162
3615.000000	0.002142
3614.000000	0.002137
3613.000000	0.002141
3612.000000	0.002141
3611.000000	0.002137
3610.000000	0.002141
3609.000000	0.002155
3608.000000	0.002175
3607.000000	0.002192
3606.000000	0.002200
3605.000000	0.002207
3604.000000	0.002219
3603.000000	0.002239
3602.000000	0.002272
3601.000000	0.002323
3600.000000	0.002388
3599.000000	0.002447
3598.000000	0.002483
3597.000000	0.002495
3596.000000	0.002499
3595.000000	0.002512
3594.000000	0.002537
3593.000000	0.002555
3592.000000	0.002555
3591.000000	0.002540
3590.000000	0.002521
3589.000000	0.002509
3588.000000	0.002513
3587.000000	0.002527
3586.000000	0.002528
3585.000000	0.002518
3584.000000	0.002522
3583.000000	0.002549
3582.000000	0.002589
3581.000000	0.002624
3580.000000	0.002646
3579.000000	0.002651
3578.000000	0.002643
3577.000000	0.002634
3576.000000	0.002641
3575.000000	0.002674
3574.000000	0.002728
3573.000000	0.002781
3572.000000	0.002820
3571.000000	0.002843
3570.000000	0.002856
3569.000000	0.002866
3568.000000	0.002879
3567.000000	0.002900
3566.000000	0.002921
3565.000000	0.002934
3564.000000	0.002950
3563.000000	0.002980
3562.000000	0.003015
3561.000000	0.003041
3560.000000	0.003049
3559.000000	0.003045
3558.000000	0.003045
3557.000000	0.003056
3556.000000	0.003073
3555.000000	0.003084
3554.000000	0.003086
3553.000000	0.003087
3552.000000	0.003094
3551.000000	0.003112
3550.000000	0.003142
3549.000000	0.003182
3548.000000	0.003225
3547.000000	0.003261
3546.000000	0.003286
3545.000000	0.003301
3544.000000	0.003313
3543.000000	0.003325
3542.000000	0.003345
3541.000000	0.003371
3540.000000	0.003399
3539.000000	0.003426
3538.000000	0.003451
3537.000000	0.003475
3536.000000	0.003497
3535.000000	0.003511
3534.000000	0.003516
3533.000000	0.003513
3532.000000	0.003506
3531.000000	0.003505
3530.000000	0.003522
3529.000000	0.003562
3528.000000	0.003612
3527.000000	0.003652
3526.000000	0.003670
3525.000000	0.003673
3524.000000	0.003670
3523.000000	0.003663
3522.000000	0.003649
3521.000000	0.003631
3520.000000	0.003624
3519.000000	0.003640
3518.000000	0.003680
3517.000000	0.003730
3516.000000	0.003775
3515.000000	0.003804
3514.000000	0.003818
3513.000000	0.003825
3512.000000	0.003836
3511.000000	0.003858
3510.000000	0.003888
3509.000000	0.003910
3508.000000	0.003911
3507.000000	0.003895
3506.000000	0.003883
3505.000000	0.003890
3504.000000	0.003914
3503.000000	0.003938
3502.000000	0.003950
3501.000000	0.003956
3500.000000	0.003968
3499.000000	0.003990
3498.000000	0.004018
3497.000000	0.004047
3496.000000	0.004078
3495.000000	0.004111
3494.000000	0.004140
3493.000000	0.004154
3492.000000	0.004149
3491.000000	0.004131
3490.000000	0.004114
3489.000000	0.004108
3488.000000	0.004119
3487.000000	0.004145
3486.000000	0.004179
3485.000000	0.004210
3484.000000	0.004229
3483.000000	0.004235
3482.000000	0.004237
3481.000000	0.004243
3480.000000	0.004255
3479.000000	0.004272
3478.000000	0.004296
3477.000000	0.004325
3476.000000	0.004352
3475.000000	0.004367
3474.000000	0.004367
3473.000000	0.004359
3472.000000	0.004358
3471.000000	0.004373
3470.000000	0.004403
3469.000000	0.004439
3468.000000	0.004472
3467.000000	0.004499
3466.000000	0.004520
3465.000000	0.004540
3464.000000	0.004558
3463.000000	0.004573
3462.000000	0.004584
3461.000000	0.004595
3460.000000	0.004609
3459.000000	0.004624
3458.000000	0.004638
3457.000000	0.004650
3456.000000	0.004662
3455.000000	0.004676
3454.000000	0.004691
3453.000000	0.004705
3452.000000	0.004719
3451.000000	0.004731
3450.000000	0.004742
3449.000000	0.004754
3448.000000	0.004767
3447.000000	0.004779
3446.000000	0.004790
3445.000000	0.004805
3444.000000	0.004826
3443.000000	0.004849
3442.000000	0.004864
3441.000000	0.004871
3440.000000	0.004877
3439.000000	0.004894
3438.000000	0.004923
3437.000000	0.004960
3436.000000	0.004997
3435.000000	0.005025
3434.000000	0.005038
3433.000000	0.005040
3432.000000	0.005043
3431.000000	0.005055
3430.000000	0.005077
3429.000000	0.005105
3428.000000	0.005139
3427.000000	0.005177
3426.000000	0.005207
3425.000000	0.005220
3424.000000	0.005219
3423.000000	0.005219
3422.000000	0.005231
3421.000000	0.005253
3420.000000	0.005274
3419.000000	0.005288
3418.000000	0.005295
3417.000000	0.005301
3416.000000	0.005314
3415.000000	0.005337
3414.000000	0.005368
3413.000000	0.005398
3412.000000	0.005419
3411.000000	0.005433
3410.000000	0.005448
3409.000000	0.005469
3408.000000	0.005491
3407.000000	0.005508
3406.000000	0.005519
3405.000000	0.005532
3404.000000	0.005555
3403.000000	0.005590
3402.000000	0.005628
3401.000000	0.005655
3400.000000	0.005664
3399.000000	0.005660
3398.000000	0.005657
3397.000000	0.005661
3396.000000	0.005670
3395.000000	0.005679
3394.000000	0.005690
3393.000000	0.005703
3392.000000	0.005715
3391.000000	0.005721
3390.000000	0.005726
3389.000000	0.005737
3388.000000	0.005752
3387.000000	0.005766
3386.000000	0.005774
3385.000000	0.005778
3384.000000	0.005782
3383.000000	0.005788
3382.000000	0.005797
3381.000000	0.005804
3380.000000	0.005808
3379.000000	0.005808
3378.000000	0.005807
3377.000000	0.005806
3376.000000	0.005806
3375.000000	0.005805
3374.000000	0.005807
3373.000000	0.005817
3372.000000	0.005835
3371.000000	0.005856
3370.000000	0.005879
3369.000000	0.005909
3368.000000	0.005944
3367.000000	0.005978
3366.000000	0.006004
3365.000000	0.006018
3364.000000	0.006023
3363.000000	0.006025
3362.000000	0.006028
3361.000000	0.006030
3360.000000	0.006031
3359.000000	0.006028
3358.000000	0.006023
3357.000000	0.006019
3356.000000	0.006023
3355.000000	0.006034
3354.000000	0.006047
3353.000000	0.006057
3352.000000	0.006058
3351.000000	0.006052
3350.000000	0.006044
3349.000000	0.006048
3348.000000	0.006070
3347.000000	0.006105
3346.000000	0.006133
3345.000000	0.006138
3344.000000	0.006126
3343.000000	0.006117
3342.000000	0.006129
3341.000000	0.006163
3340.000000	0.006202
3339.000000	0.006228
3338.000000	0.006231
3337.000000	0.006220
3336.000000	0.006208
3335.000000	0.006209
3334.000000	0.006224
3333.000000	0.006243
3332.000000	0.006255
3331.000000	0.006252
3330.000000	0.006242
3329.000000	0.006238
3328.000000	0.006251
3327.000000	0.006281
3326.000000	0.006322
3325.000000	0.006359
3324.000000	0.006383
3323.000000	0.006394
3322.000000	0.006390
3321.000000	0.006376
3320.000000	0.006357
3319.000000	0.006336
3318.000000	0.006320
3317.000000	0.006319
3316.000000	0.006340
3315.000000	0.006382
3314.000000	0.006432
3313.000000	0.006467
3312.000000	0.006474
3311.000000	0.006459
3310.000000	0.006442
3309.000000	0.006435
3308.000000	0.006435
3307.000000	0.006434
3306.000000	0.006428
3305.000000	0.006419
3304.000000	0.006409
3303.000000	0.006404
3302.000000	0.006403
3301.000000	0.006406
3300.000000	0.006413
3299.000000	0.006421
3298.000000	0.006432
3297.000000	0.006445
3296.000000	0.006457
3295.000000	0.006465
3294.000000	0.006461
3293.000000	0.006441
3292.000000	0.006410
3291.000000	0.006379
3290.000000	0.006363
3289.000000	0.006368
3288.000000	0.006390
3287.000000	0.006419
3286.000000	0.006447
3285.000000	0.006464
3284.000000	0.006460
3283.000000	0.006432
3282.000000	0.006393
3281.000000	0.006363
3280.000000	0.006356
3279.000000	0.006365
3278.000000	0.006374
3277.000000	0.006372
3276.000000	0.006364
3275.000000	0.006355
3274.000000	0.006349
3273.000000	0.006344
3272.000000	0.006336
3271.000000	0.006326
3270.000000	0.006312
3269.000000	0.006299
3268.000000	0.006293
3267.000000	0.006298
3266.000000	0.006307
3265.000000	0.006309
3264.000000	0.006300
3263.000000	0.006286
3262.000000	0.006275
3261.000000	0.006268
3260.000000	0.006257
3259.000000	0.006239
3258.000000	0.006213
3257.000000	0.006185
3256.000000	0.006160
3255.000000	0.006145
3254.000000	0.006142
3253.000000	0.006143
3252.000000	0.006141
3251.000000	0.006136
3250.000000	0.006135
3249.000000	0.006140
3248.000000	0.006149
3247.000000	0.006155
3246.000000	0.006153
3245.000000	0.006141
3244.000000	0.006123
3243.000000	0.006110
3242.000000	0.006114
3241.000000	0.006135
3240.000000	0.006156
3239.000000	0.006158
3238.000000	0.006135
3237.000000	0.006097
3236.000000	0.006059
3235.000000	0.006036
3234.000000	0.006037
3233.000000	0.006061
3232.000000	0.006094
3231.000000	0.006114
3230.000000	0.006109
3229.000000	0.006081
3228.000000	0.006039
3227.000000	0.005991
3226.000000	0.005946
3225.000000	0.005912
3224.000000	0.005896
3223.000000	0.005899
3222.000000	0.005910
3221.000000	0.005920
3220.000000	0.005926
3219.000000	0.005925
3218.000000	0.005912
3217.000000	0.005885
3216.000000	0.005851
3215.000000	0.005828
3214.000000	0.005825
3213.000000	0.005835
3212.000000	0.005842
3211.000000	0.005835
3210.000000	0.005814
3209.000000	0.005791
3208.000000	0.005781
3207.000000	0.005793
3206.000000	0.005817
3205.000000	0.005838
3204.000000	0.005839
3203.000000	0.005815
3202.000000	0.005775
3201.000000	0.005732
3200.000000	0.005696
3199.000000	0.005673
3198.000000	0.005661
3197.000000	0.005658
3196.000000	0.005661
3195.000000	0.005668
3194.000000	0.005673
3193.000000	0.005672
3192.000000	0.005666
3191.000000	0.005661
3190.000000	0.005657
3189.000000	0.005648
3188.000000	0.005631
3187.000000	0.005606
3186.000000	0.005582
3185.000000	0.005571
3184.000000	0.005574
3183.000000	0.005588
3182.000000	0.005598
3181.000000	0.005592
3180.000000	0.005572
3179.000000	0.005551
3178.000000	0.005541
3177.000000	0.005544
3176.000000	0.005552
3175.000000	0.005559
3174.000000	0.005561
3173.000000	0.005550
3172.000000	0.005520
3171.000000	0.005471
3170.000000	0.005416
3169.000000	0.005372
3168.000000	0.005349
3167.000000	0.005347
3166.000000	0.005357
3165.000000	0.005365
3164.000000	0.005359
3163.000000	0.005339
3162.000000	0.005315
3161.000000	0.005295
3160.000000	0.005283
3159.000000	0.005273
3158.000000	0.005262
3157.000000	0.005250
3156.000000	0.005236
3155.000000	0.005215
3154.000000	0.005185
3153.000000	0.005151
3152.000000	0.005118
3151.000000	0.005094
3150.000000	0.005084
3149.000000	0.005085
3148.000000	0.005091
3147.000000	0.005093
3146.000000	0.005087
3145.000000	0.005080
3144.000000	0.005084
3143.000000	0.005104
3142.000000	0.005127
3141.000000	0.005134
3140.000000	0.005119
3139.000000	0.005092
3138.000000	0.005067
3137.000000	0.005054
3136.000000	0.005045
3135.000000	0.005032
3134.000000	0.005010
3133.000000	0.004983
3132.000000	0.004955
3131.000000	0.004929
3130.000000	0.004909
3129.000000	0.004896
3128.000000	0.004891
3127.000000	0.004894
3126.000000	0.004904
3125.000000	0.004918
3124.000000	0.004930
3123.000000	0.004932
3122.000000	0.004922
3121.000000	0.004907
3120.000000	0.004895
3119.000000	0.004889
3118.000000	0.004884
3117.000000	0.004872
3116.000000	0.004851
3115.000000	0.004823
3114.000000	0.004796
3113.000000	0.004778
3112.000000	0.004771
3111.000000	0.004770
3110.000000	0.004770
3109.000000	0.004770
3108.000000	0.004776
3107.000000	0.004789
3106.000000	0.004806
3105.000000	0.004810
3104.000000	0.004796
3103.000000	0.004773
3102.000000	0.004759
3101.000000	0.004764
3100.000000	0.004780
3099.000000	0.004794
3098.000000	0.004803
3097.000000	0.004807
3096.000000	0.004802
3095.000000	0.004784
3094.000000	0.004753
3093.000000	0.004721
3092.000000	0.004696
3091.000000	0.004681
3090.000000	0.004679
3089.000000	0.004690
3088.000000	0.004714
3087.000000	0.004739
3086.000000	0.004753
3085.000000	0.004747
3084.000000	0.004725
3083.000000	0.004700
3082.000000	0.004684
3081.000000	0.004683
3080.000000	0.004696
3079.000000	0.004715
3078.000000	0.004732
3077.000000	0.004742
3076.000000	0.004737
3075.000000	0.004715
3074.000000	0.004685
3073.000000	0.004664
3072.000000	0.004660
3071.000000	0.004668
3070.000000	0.004676
3069.000000	0.004672
3068.000000	0.004659
3067.000000	0.004648
3066.000000	0.004648
3065.000000	0.004660
3064.000000	0.004671
3063.000000	0.004671
3062.000000	0.004657
3061.000000	0.004630
3060.000000	0.004594
3059.000000	0.004558
3058.000000	0.004531
3057.000000	0.004521
3056.000000	0.004522
3055.000000	0.004522
3054.000000	0.004514
3053.000000	0.004502
3052.000000	0.004496
3051.000000	0.004504
3050.000000	0.004522
3049.000000	0.004535
3048.000000	0.004525
3047.000000	0.004488
3046.000000	0.004438
3045.000000	0.004399
3044.000000	0.004383
3043.000000	0.004386
3042.000000	0.004395
3041.000000	0.004403
3040.000000	0.004408
3039.000000	0.004409
3038.000000	0.004404
3037.000000	0.004397
3036.000000	0.004390
3035.000000	0.004385
3034.000000	0.004384
3033.000000	0.004386
3032.000000	0.004388
3031.000000	0.004380
3030.000000	0.004357
3029.000000	0.004324
3028.000000	0.004295
3027.000000	0.004278
3026.000000	0.004273
3025.000000	0.004272
3024.000000	0.004268
3023.000000	0.004256
3022.000000	0.004239
3021.000000	0.004225
3020.000000	0.004218
3019.000000	0.004220
3018.000000	0.004224
3017.000000	0.004225
3016.000000	0.004225
3015.000000	0.004223
3014.000000	0.004216
3013.000000	0.004203
3012.000000	0.004190
3011.000000	0.004188
3010.000000	0.004207
3009.000000	0.004242
3008.000000	0.004280
3007.000000	0.004308
3006.000000	0.004312
3005.000000	0.004290
3004.000000	0.004246
3003.000000	0.004197
3002.000000	0.004163
3001.000000	0.004155
3000.000000	0.004162
2999.000000	0.004172
2998.000000	0.004178
2997.000000	0.004185
2996.000000	0.004197
2995.000000	0.004207
2994.000000	0.004212
2993.000000	0.004214
2992.000000	0.004220
2991.000000	0.004229
2990.000000	0.004238
2989.000000	0.004246
2988.000000	0.004260
2987.000000	0.004280
2986.000000	0.004298
2985.000000	0.004309
2984.000000	0.004315
2983.000000	0.004324
2982.000000	0.004341
2981.000000	0.004365
2980.000000	0.004392
2979.000000	0.004419
2978.000000	0.004440
2977.000000	0.004450
2976.000000	0.004455
2975.000000	0.004464
2974.000000	0.004486
2973.000000	0.004524
2972.000000	0.004578
2971.000000	0.004643
2970.000000	0.004711
2969.000000	0.004771
2968.000000	0.004810
2967.000000	0.004833
2966.000000	0.004854
2965.000000	0.004888
2964.000000	0.004933
2963.000000	0.004976
2962.000000	0.005006
2961.000000	0.005026
2960.000000	0.005049
2959.000000	0.005078
2958.000000	0.005110
2957.000000	0.005135
2956.000000	0.005149
2955.000000	0.005157
2954.000000	0.005162
2953.000000	0.005171
2952.000000	0.005182
2951.000000	0.005194
2950.000000	0.005207
2949.000000	0.005222
2948.000000	0.005243
2947.000000	0.005270
2946.000000	0.005299
2945.000000	0.005321
2944.000000	0.005324
2943.000000	0.005306
2942.000000	0.005278
2941.000000	0.005260
2940.000000	0.005271
2939.000000	0.005312
2938.000000	0.005365
2937.000000	0.005414
2936.000000	0.005452
2935.000000	0.005484
2934.000000	0.005515
2933.000000	0.005542
2932.000000	0.005565
2931.000000	0.005587
2930.000000	0.005614
2929.000000	0.005654
2928.000000	0.005702
2927.000000	0.005745
2926.000000	0.005772
2925.000000	0.005785
2924.000000	0.005792
2923.000000	0.005801
2922.000000	0.005816
2921.000000	0.005838
2920.000000	0.005868
2919.000000	0.005905
2918.000000	0.005935
2917.000000	0.005942
2916.000000	0.005919
2915.000000	0.005873
2914.000000	0.005816
2913.000000	0.005752
2912.000000	0.005678
2911.000000	0.005600
2910.000000	0.005532
2909.000000	0.005489
2908.000000	0.005475
2907.000000	0.005475
2906.000000	0.005467
2905.000000	0.005440
2904.000000	0.005398
2903.000000	0.005355
2902.000000	0.005318
2901.000000	0.005286
2900.000000	0.005251
2899.000000	0.005213
2898.000000	0.005181
2897.000000	0.005160
2896.000000	0.005144
2895.000000	0.005121
2894.000000	0.005088
2893.000000	0.005051
2892.000000	0.005017
2891.000000	0.004988
2890.000000	0.004963
2889.000000	0.004943
2888.000000	0.004933
2887.000000	0.004935
2886.000000	0.004946
2885.000000	0.004958
2884.000000	0.004963
2883.000000	0.004955
2882.000000	0.004936
2881.000000	0.004919
2880.000000	0.004917
2879.000000	0.004939
2878.000000	0.004974
2877.000000	0.005005
2876.000000	0.005020
2875.000000	0.005022
2874.000000	0.005023
2873.000000	0.005025
2872.000000	0.005025
2871.000000	0.005015
2870.000000	0.004997
2869.000000	0.004981
2868.000000	0.004972
2867.000000	0.004967
2866.000000	0.004960
2865.000000	0.004950
2864.000000	0.004939
2863.000000	0.004931
2862.000000	0.004923
2861.000000	0.004913
2860.000000	0.004904
2859.000000	0.004904
2858.000000	0.004919
2857.000000	0.004944
2856.000000	0.004965
2855.000000	0.004968
2854.000000	0.004956
2853.000000	0.004944
2852.000000	0.004943
2851.000000	0.004950
2850.000000	0.004950
2849.000000	0.004931
2848.000000	0.004892
2847.000000	0.004842
2846.000000	0.004789
2845.000000	0.004740
2844.000000	0.004703
2843.000000	0.004683
2842.000000	0.004674
2841.000000	0.004665
2840.000000	0.004645
2839.000000	0.004619
2838.000000	0.004597
2837.000000	0.004586
2836.000000	0.004580
2835.000000	0.004565
2834.000000	0.004531
2833.000000	0.004486
2832.000000	0.004449
2831.000000	0.004429
2830.000000	0.004425
2829.000000	0.004424
2828.000000	0.004417
2827.000000	0.004402
2826.000000	0.004377
2825.000000	0.004347
2824.000000	0.004317
2823.000000	0.004293
2822.000000	0.004281
2821.000000	0.004278
2820.000000	0.004277
2819.000000	0.004271
2818.000000	0.004258
2817.000000	0.004242
2816.000000	0.004229
2815.000000	0.004220
2814.000000	0.004215
2813.000000	0.004212
2812.000000	0.004209
2811.000000	0.004204
2810.000000	0.004190
2809.000000	0.004169
2808.000000	0.004152
2807.000000	0.004147
2806.000000	0.004153
2805.000000	0.004159
2804.000000	0.004155
2803.000000	0.004146
2802.000000	0.004142
2801.000000	0.004150
2800.000000	0.004166
2799.000000	0.004179
2798.000000	0.004182
2797.000000	0.004172
2796.000000	0.004155
2795.000000	0.004138
2794.000000	0.004123
2793.000000	0.004112
2792.000000	0.004102
2791.000000	0.004092
2790.000000	0.004082
2789.000000	0.004071
2788.000000	0.004063
2787.000000	0.004063
2786.000000	0.004074
2785.000000	0.004089
2784.000000	0.004097
2783.000000	0.004088
2782.000000	0.004059
2781.000000	0.004019
2780.000000	0.003982
2779.000000	0.003963
2778.000000	0.003966
2777.000000	0.003985
2776.000000	0.004006
2775.000000	0.004016
2774.000000	0.004014
2773.000000	0.004003
2772.000000	0.003988
2771.000000	0.003975
2770.000000	0.003968
2769.000000	0.003971
2768.000000	0.003986
2767.000000	0.004004
2766.000000	0.004011
2765.000000	0.004000
2764.000000	0.003981
2763.000000	0.003967
2762.000000	0.003970
2761.000000	0.003991
2760.000000	0.004026
2759.000000	0.004062
2758.000000	0.004082
2757.000000	0.004077
2756.000000	0.004049
2755.000000	0.004014
2754.000000	0.003986
2753.000000	0.003972
2752.000000	0.003974
2751.000000	0.003993
2750.000000	0.004020
2749.000000	0.004045
2748.000000	0.004056
2747.000000	0.004054
2746.000000	0.004042
2745.000000	0.004029
2744.000000	0.004017
2743.000000	0.004013
2742.000000	0.004019
2741.000000	0.004030
2740.000000	0.004042
2739.000000	0.004045
2738.000000	0.004037
2737.000000	0.004018
2736.000000	0.003996
2735.000000	0.003982
2734.000000	0.003983
2733.000000	0.003997
2732.000000	0.004009
2731.000000	0.004010
2730.000000	0.003999
2729.000000	0.003983
2728.000000	0.003973
2727.000000	0.003973
2726.000000	0.003978
2725.000000	0.003981
2724.000000	0.003978
2723.000000	0.003968
2722.000000	0.003954
2721.000000	0.003941
2720.000000	0.003930
2719.000000	0.003925
2718.000000	0.003928
2717.000000	0.003935
2716.000000	0.003941
2715.000000	0.003938
2714.000000	0.003925
2713.000000	0.003909
2712.000000	0.003897
2711.000000	0.003895
2710.000000	0.003903
2709.000000	0.003916
2708.000000	0.003928
2707.000000	0.003935
2706.000000	0.003939
2705.000000	0.003940
2704.000000	0.003934
2703.000000	0.003918
2702.000000	0.003891
2701.000000	0.003861
2700.000000	0.003841
2699.000000	0.003840
2698.000000	0.003854
2697.000000	0.003874
2696.000000	0.003894
2695.000000	0.003910
2694.000000	0.003919
2693.000000	0.003918
2692.000000	0.003908
2691.000000	0.003897
2690.000000	0.003892
2689.000000	0.003891
2688.000000	0.003892
2687.000000	0.003893
2686.000000	0.003893
2685.000000	0.003889
2684.000000	0.003878
2683.000000	0.003864
2682.000000	0.003858
2681.000000	0.003864
2680.000000	0.003880
2679.000000	0.003897
2678.000000	0.003906
2677.000000	0.003901
2676.000000	0.003878
2675.000000	0.003842
2674.000000	0.003807
2673.000000	0.003787
2672.000000	0.003785
2671.000000	0.003792
2670.000000	0.003797
2669.000000	0.003798
2668.000000	0.003797
2667.000000	0.003796
2666.000000	0.003796
2665.000000	0.003797
2664.000000	0.003805
2663.000000	0.003819
2662.000000	0.003835
2661.000000	0.003850
2660.000000	0.003865
2659.000000	0.003882
2658.000000	0.003898
2657.000000	0.003904
2656.000000	0.003897
2655.000000	0.003883
2654.000000	0.003872
2653.000000	0.003863
2652.000000	0.003851
2651.000000	0.003836
2650.000000	0.003825
2649.000000	0.003818
2648.000000	0.003811
2647.000000	0.003800
2646.000000	0.003786
2645.000000	0.003775
2644.000000	0.003765
2643.000000	0.003750
2642.000000	0.003728
2641.000000	0.003703
2640.000000	0.003685
2639.000000	0.003681
2638.000000	0.003693
2637.000000	0.003710
2636.000000	0.003717
2635.000000	0.003707
2634.000000	0.003688
2633.000000	0.003675
2632.000000	0.003670
2631.000000	0.003670
2630.000000	0.003669
2629.000000	0.003667
2628.000000	0.003665
2627.000000	0.003657
2626.000000	0.003640
2625.000000	0.003613
2624.000000	0.003584
2623.000000	0.003560
2622.000000	0.003542
2621.000000	0.003529
2620.000000	0.003520
2619.000000	0.003514
2618.000000	0.003511
2617.000000	0.003510
2616.000000	0.003507
2615.000000	0.003504
2614.000000	0.003501
2613.000000	0.003494
2612.000000	0.003478
2611.000000	0.003449
2610.000000	0.003416
2609.000000	0.003393
2608.000000	0.003388
2607.000000	0.003400
2606.000000	0.003419
2605.000000	0.003440
2604.000000	0.003459
2603.000000	0.003469
2602.000000	0.003468
2601.000000	0.003453
2600.000000	0.003428
2599.000000	0.003398
2598.000000	0.003366
2597.000000	0.003338
2596.000000	0.003318
2595.000000	0.003311
2594.000000	0.003317
2593.000000	0.003333
2592.000000	0.003355
2591.000000	0.003383
2590.000000	0.003410
2589.000000	0.003426
2588.000000	0.003423
2587.000000	0.003408
2586.000000	0.003395
2585.000000	0.003391
2584.000000	0.003384
2583.000000	0.003363
2582.000000	0.003329
2581.000000	0.003302
2580.000000	0.003295
2579.000000	0.003305
2578.000000	0.003319
2577.000000	0.003328
2576.000000	0.003339
2575.000000	0.003357
2574.000000	0.003380
2573.000000	0.003399
2572.000000	0.003404
2571.000000	0.003390
2570.000000	0.003356
2569.000000	0.003308
2568.000000	0.003260
2567.000000	0.003229
2566.000000	0.003225
2565.000000	0.003244
2564.000000	0.003272
2563.000000	0.003293
2562.000000	0.003298
2561.000000	0.003286
2560.000000	0.003262
2559.000000	0.003238
2558.000000	0.003224
2557.000000	0.003222
2556.000000	0.003229
2555.000000	0.003240
2554.000000	0.003249
2553.000000	0.003246
2552.000000	0.003222
2551.000000	0.003183
2550.000000	0.003151
2549.000000	0.003142
2548.000000	0.003153
2547.000000	0.003168
2546.000000	0.003181
2545.000000	0.003197
2544.000000	0.003209
2543.000000	0.003203
2542.000000	0.003178
2541.000000	0.003155
2540.000000	0.003158
2539.000000	0.003186
2538.000000	0.003216
2537.000000	0.003225
2536.000000	0.003212
2535.000000	0.003187
2534.000000	0.003165
2533.000000	0.003157
2532.000000	0.003168
2531.000000	0.003186
2530.000000	0.003192
2529.000000	0.003179
2528.000000	0.003155
2527.000000	0.003131
2526.000000	0.003107
2525.000000	0.003088
2524.000000	0.003080
2523.000000	0.003093
2522.000000	0.003114
2521.000000	0.003124
2520.000000	0.003117
2519.000000	0.003105
2518.000000	0.003105
2517.000000	0.003120
2516.000000	0.003143
2515.000000	0.003164
2514.000000	0.003184
2513.000000	0.003203
2512.000000	0.003222
2511.000000	0.003231
2510.000000	0.003223
2509.000000	0.003196
2508.000000	0.003160
2507.000000	0.003136
2506.000000	0.003136
2505.000000	0.003156
2504.000000	0.003185
2503.000000	0.003212
2502.000000	0.003227
2501.000000	0.003227
2500.000000	0.003213
2499.000000	0.003191
2498.000000	0.003165
2497.000000	0.003137
2496.000000	0.003116
2495.000000	0.003114
2494.000000	0.003129
2493.000000	0.003143
2492.000000	0.003137
2491.000000	0.003118
2490.000000	0.003104
2489.000000	0.003109
2488.000000	0.003127
2487.000000	0.003150
2486.000000	0.003167
2485.000000	0.003170
2484.000000	0.003156
2483.000000	0.003133
2482.000000	0.003120
2481.000000	0.003124
2480.000000	0.003130
2479.000000	0.003116
2478.000000	0.003083
2477.000000	0.003054
2476.000000	0.003049
2475.000000	0.003071
2474.000000	0.003108
2473.000000	0.003146
2472.000000	0.003182
2471.000000	0.003215
2470.000000	0.003233
2469.000000	0.003216
2468.000000	0.003158
2467.000000	0.003076
2466.000000	0.003004
2465.000000	0.002963
2464.000000	0.002955
2463.000000	0.002975
2462.000000	0.003019
2461.000000	0.003073
2460.000000	0.003110
2459.000000	0.003112
2458.000000	0.003086
2457.000000	0.003061
2456.000000	0.003056
2455.000000	0.003069
2454.000000	0.003088
2453.000000	0.003103
2452.000000	0.003110
2451.000000	0.003108
2450.000000	0.003105
2449.000000	0.003108
2448.000000	0.003120
2447.000000	0.003136
2446.000000	0.003152
2445.000000	0.003170
2444.000000	0.003191
2443.000000	0.003211
2442.000000	0.003226
2441.000000	0.003239
2440.000000	0.003247
2439.000000	0.003241
2438.000000	0.003211
2437.000000	0.003164
2436.000000	0.003116
2435.000000	0.003080
2434.000000	0.003057
2433.000000	0.003039
2432.000000	0.003024
2431.000000	0.003016
2430.000000	0.003018
2429.000000	0.003022
2428.000000	0.003015
2427.000000	0.002994
2426.000000	0.002970
2425.000000	0.002960
2424.000000	0.002971
2423.000000	0.002996
2422.000000	0.003022
2421.000000	0.003042
2420.000000	0.003051
2419.000000	0.003050
2418.000000	0.003041
2417.000000	0.003028
2416.000000	0.003016
2415.000000	0.003006
2414.000000	0.002994
2413.000000	0.002980
2412.000000	0.002967
2411.000000	0.002967
2410.000000	0.002981
2409.000000	0.003005
2408.000000	0.003030
2407.000000	0.003055
2406.000000	0.003086
2405.000000	0.003124
2404.000000	0.003149
2403.000000	0.003133
2402.000000	0.003065
2401.000000	0.002972
2400.000000	0.002907
2399.000000	0.002903
2398.000000	0.002950
2397.000000	0.003006
2396.000000	0.003037
2395.000000	0.003039
2394.000000	0.003033
2393.000000	0.003041
2392.000000	0.003065
2391.000000	0.003089
2390.000000	0.003098
2389.000000	0.003085
2388.000000	0.003062
2387.000000	0.003046
2386.000000	0.003044
2385.000000	0.003048
2384.000000	0.003048
2383.000000	0.003042
2382.000000	0.003041
2381.000000	0.003049
2380.000000	0.003058
2379.000000	0.003058
2378.000000	0.003049
2377.000000	0.003040
2376.000000	0.003041
2375.000000	0.003054
2374.000000	0.003075
2373.000000	0.003091
2372.000000	0.003085
2371.000000	0.003053
2370.000000	0.003013
2369.000000	0.002998
2368.000000	0.003023
2367.000000	0.003070
2366.000000	0.003102
2365.000000	0.003100
2364.000000	0.003071
2363.000000	0.003040
2362.000000	0.003025
2361.000000	0.003033
2360.000000	0.003060
2359.000000	0.003097
2358.000000	0.003135
2357.000000	0.003167
2356.000000	0.003183
2355.000000	0.003172
2354.000000	0.003137
2353.000000	0.003103
2352.000000	0.003091
2351.000000	0.003105
2350.000000	0.003130
2349.000000	0.003148
2348.000000	0.003149
2347.000000	0.003143
2346.000000	0.003151
2345.000000	0.003171
2344.000000	0.003182
2343.000000	0.003182
2342.000000	0.003187
2341.000000	0.003200
2340.000000	0.003201
2339.000000	0.003170
2338.000000	0.003124
2337.000000	0.003100
2336.000000	0.003120
2335.000000	0.003166
2334.000000	0.003204
2333.000000	0.003217
2332.000000	0.003211
2331.000000	0.003202
2330.000000	0.003200
2329.000000	0.003202
2328.000000	0.003211
2327.000000	0.003233
2326.000000	0.003273
2325.000000	0.003318
2324.000000	0.003343
2323.000000	0.003336
2322.000000	0.003315
2321.000000	0.003306
2320.000000	0.003315
2319.000000	0.003329
2318.000000	0.003327
2317.000000	0.003298
2316.000000	0.003241
2315.000000	0.003168
2314.000000	0.003106
2313.000000	0.003083
2312.000000	0.003104
2311.000000	0.003149
2310.000000	0.003187
2309.000000	0.003193
2308.000000	0.003159
2307.000000	0.003099
2306.000000	0.003045
2305.000000	0.003024
2304.000000	0.003043
2303.000000	0.003091
2302.000000	0.003148
2301.000000	0.003197
2300.000000	0.003223
2299.000000	0.003227
2298.000000	0.003227
2297.000000	0.003239
2296.000000	0.003249
2295.000000	0.003231
2294.000000	0.003187
2293.000000	0.003154
2292.000000	0.003160
2291.000000	0.003198
2290.000000	0.003241
2289.000000	0.003276
2288.000000	0.003303
2287.000000	0.003318
2286.000000	0.003311
2285.000000	0.003289
2284.000000	0.003264
2283.000000	0.003235
2282.000000	0.003186
2281.000000	0.003115
2280.000000	0.003048
2279.000000	0.003017
2278.000000	0.003029
2277.000000	0.003062
2276.000000	0.003092
2275.000000	0.003112
2274.000000	0.003139
2273.000000	0.003187
2272.000000	0.003252
2271.000000	0.003307
2270.000000	0.003335
2269.000000	0.003332
2268.000000	0.003307
2267.000000	0.003267
2266.000000	0.003226
2265.000000	0.003197
2264.000000	0.003188
2263.000000	0.003190
2262.000000	0.003195
2261.000000	0.003195
2260.000000	0.003174
2259.000000	0.003111
2258.000000	0.003009
2257.000000	0.002917
2256.000000	0.002891
2255.000000	0.002947
2254.000000	0.003044
2253.000000	0.003124
2252.000000	0.003147
2251.000000	0.003111
2250.000000	0.003039
2249.000000	0.002968
2248.000000	0.002923
2247.000000	0.002896
2246.000000	0.002869
2245.000000	0.002849
2244.000000	0.002868
2243.000000	0.002947
2242.000000	0.003053
2241.000000	0.003125
2240.000000	0.003131
2239.000000	0.003097
2238.000000	0.003074
2237.000000	0.003080
2236.000000	0.003089
2235.000000	0.003080
2234.000000	0.003062
2233.000000	0.003059
2232.000000	0.003067
2231.000000	0.003054
2230.000000	0.003008
2229.000000	0.002957
2228.000000	0.002932
2227.000000	0.002922
2226.000000	0.002884
2225.000000	0.002809
2224.000000	0.002744
2223.000000	0.002746
2222.000000	0.002829
2221.000000	0.002947
2220.000000	0.003036
2219.000000	0.003055
2218.000000	0.003019
2217.000000	0.002973
2216.000000	0.002950
2215.000000	0.002945
2214.000000	0.002935
2213.000000	0.002914
2212.000000	0.002892
2211.000000	0.002878
2210.000000	0.002872
2209.000000	0.002888
2208.000000	0.002942
2207.000000	0.003009
2206.000000	0.003016
2205.000000	0.002918
2204.000000	0.002768
2203.000000	0.002689
2202.000000	0.002748
2201.000000	0.002882
2200.000000	0.002963
2199.000000	0.002931
2198.000000	0.002836
2197.000000	0.002769
2196.000000	0.002767
2195.000000	0.002801
2194.000000	0.002828
2193.000000	0.002828
2192.000000	0.002806
2191.000000	0.002765
2190.000000	0.002700
2189.000000	0.002613
2188.000000	0.002531
2187.000000	0.002493
2186.000000	0.002521
2185.000000	0.002589
2184.000000	0.002657
2183.000000	0.002720
2182.000000	0.002819
2181.000000	0.002972
2180.000000	0.003112
2179.000000	0.003135
2178.000000	0.002998
2177.000000	0.002755
2176.000000	0.002518
2175.000000	0.002390
2174.000000	0.002423
2173.000000	0.002585
2172.000000	0.002757
2171.000000	0.002811
2170.000000	0.002736
2169.000000	0.002663
2168.000000	0.002728
2167.000000	0.002907
2166.000000	0.003020
2165.000000	0.002918
2164.000000	0.002651
2163.000000	0.002428
2162.000000	0.002400
2161.000000	0.002512
2160.000000	0.002558
2159.000000	0.002379
2158.000000	0.002011
2157.000000	0.001629
2156.000000	0.001380
2155.000000	0.001309
2154.000000	0.001385
2153.000000	0.001540
2152.000000	0.001699
2151.000000	0.001816
2150.000000	0.001895
2149.000000	0.001966
2148.000000	0.002040
2147.000000	0.002115
2146.000000	0.002187
2145.000000	0.002259
2144.000000	0.002313
2143.000000	0.002326
2142.000000	0.002294
2141.000000	0.002234
2140.000000	0.002178
2139.000000	0.002159
2138.000000	0.002196
2137.000000	0.002270
2136.000000	0.002322
2135.000000	0.002302
2134.000000	0.002221
2133.000000	0.002156
2132.000000	0.002176
2131.000000	0.002281
2130.000000	0.002410
2129.000000	0.002505
2128.000000	0.002548
2127.000000	0.002573
2126.000000	0.002625
2125.000000	0.002711
2124.000000	0.002795
2123.000000	0.002833
2122.000000	0.002819
2121.000000	0.002787
2120.000000	0.002775
2119.000000	0.002789
2118.000000	0.002815
2117.000000	0.002838
2116.000000	0.002861
2115.000000	0.002888
2114.000000	0.002914
2113.000000	0.002927
2112.000000	0.002922
2111.000000	0.002914
2110.000000	0.002920
2109.000000	0.002943
2108.000000	0.002963
2107.000000	0.002963
2106.000000	0.002945
2105.000000	0.002932
2104.000000	0.002945
2103.000000	0.002981
2102.000000	0.003020
2101.000000	0.003033
2100.000000	0.002997
2099.000000	0.002912
2098.000000	0.002818
2097.000000	0.002769
2096.000000	0.002788
2095.000000	0.002854
2094.000000	0.002920
2093.000000	0.002959
2092.000000	0.002970
2091.000000	0.002966
2090.000000	0.002961
2089.000000	0.002959
2088.000000	0.002961
2087.000000	0.002970
2086.000000	0.002992
2085.000000	0.003019
2084.000000	0.003025
2083.000000	0.002987
2082.000000	0.002910
2081.000000	0.002826
2080.000000	0.002766
2079.000000	0.002740
2078.000000	0.002734
2077.000000	0.002726
2076.000000	0.002700
2075.000000	0.002654
2074.000000	0.002612
2073.000000	0.002612
2072.000000	0.002671
2071.000000	0.002762
2070.000000	0.002824
2069.000000	0.002813
2068.000000	0.002746
2067.000000	0.002693
2066.000000	0.002705
2065.000000	0.002756
2064.000000	0.002768
2063.000000	0.002710
2062.000000	0.002634
2061.000000	0.002608
2060.000000	0.002631
2059.000000	0.002654
2058.000000	0.002646
2057.000000	0.002604
2056.000000	0.002540
2055.000000	0.002478
2054.000000	0.002475
2053.000000	0.002576
2052.000000	0.002746
2051.000000	0.002893
2050.000000	0.002964
2049.000000	0.002977
2048.000000	0.002957
2047.000000	0.002870
2046.000000	0.002678
2045.000000	0.002445
2044.000000	0.002322
2043.000000	0.002413
2042.000000	0.002668
2041.000000	0.002920
2040.000000	0.003032
2039.000000	0.003006
2038.000000	0.002934
2037.000000	0.002868
2036.000000	0.002762
2035.000000	0.002574
2034.000000	0.002347
2033.000000	0.002171
2032.000000	0.002087
2031.000000	0.002072
2030.000000	0.002092
2029.000000	0.002086
2028.000000	0.001978
2027.000000	0.001792
2026.000000	0.001695
2025.000000	0.001807
2024.000000	0.001989
2023.000000	0.001971
2022.000000	0.001703
2021.000000	0.001442
2020.000000	0.001430
2019.000000	0.001629
2018.000000	0.001819
2017.000000	0.001879
2016.000000	0.001871
2015.000000	0.001905
2014.000000	0.002021
2013.000000	0.002187
2012.000000	0.002328
2011.000000	0.002370
2010.000000	0.002291
2009.000000	0.002129
2008.000000	0.001944
2007.000000	0.001783
2006.000000	0.001674
2005.000000	0.001616
2004.000000	0.001574
2003.000000	0.001530
2002.000000	0.001550
2001.000000	0.001729
2000.000000	0.002039
1999.000000	0.002310
1998.000000	0.002389
1997.000000	0.002290
1996.000000	0.002142
1995.000000	0.002060
1994.000000	0.002078
1993.000000	0.002168
1992.000000	0.002268
1991.000000	0.002324
1990.000000	0.002344
1989.000000	0.002377
1988.000000	0.002437
1987.000000	0.002471
1986.000000	0.002454
1985.000000	0.002433
1984.000000	0.002467
1983.000000	0.002533
1982.000000	0.002567
1981.000000	0.002529
1980.000000	0.002401
1979.000000	0.002158
1978.000000	0.001811
1977.000000	0.001479
1976.000000	0.001302
1975.000000	0.001312
1974.000000	0.001443
1973.000000	0.001640
1972.000000	0.001855
1971.000000	0.001997
1970.000000	0.001970
1969.000000	0.001781
1968.000000	0.001571
1967.000000	0.001497
1966.000000	0.001618
1965.000000	0.001887
1964.000000	0.002212
1963.000000	0.002498
1962.000000	0.002649
1961.000000	0.002617
1960.000000	0.002431
1959.000000	0.002183
1958.000000	0.001968
1957.000000	0.001844
1956.000000	0.001826
1955.000000	0.001896
1954.000000	0.002019
1953.000000	0.002155
1952.000000	0.002259
1951.000000	0.002300
1950.000000	0.002290
1949.000000	0.002272
1948.000000	0.002279
1947.000000	0.002294
1946.000000	0.002274
1945.000000	0.002213
1944.000000	0.002156
1943.000000	0.002159
1942.000000	0.002230
1941.000000	0.002313
1940.000000	0.002345
1939.000000	0.002302
1938.000000	0.002206
1937.000000	0.002098
1936.000000	0.002020
1935.000000	0.001997
1934.000000	0.002033
1933.000000	0.002116
1932.000000	0.002220
1931.000000	0.002322
1930.000000	0.002411
1929.000000	0.002475
1928.000000	0.002499
1927.000000	0.002466
1926.000000	0.002377
1925.000000	0.002259
1924.000000	0.002157
1923.000000	0.002115
1922.000000	0.002135
1921.000000	0.002176
1920.000000	0.002193
1919.000000	0.002175
1918.000000	0.002150
1917.000000	0.002152
1916.000000	0.002181
1915.000000	0.002223
1914.000000	0.002276
1913.000000	0.002338
1912.000000	0.002386
1911.000000	0.002390
1910.000000	0.002357
1909.000000	0.002323
1908.000000	0.002312
1907.000000	0.002317
1906.000000	0.002323
1905.000000	0.002327
1904.000000	0.002329
1903.000000	0.002322
1902.000000	0.002311
1901.000000	0.002305
1900.000000	0.002297
1899.000000	0.002265
1898.000000	0.002205
1897.000000	0.002139
1896.000000	0.002087
1895.000000	0.002053
1894.000000	0.002043
1893.000000	0.002063
1892.000000	0.002112
1891.000000	0.002168
1890.000000	0.002217
1889.000000	0.002256
1888.000000	0.002279
1887.000000	0.002273
1886.000000	0.002244
1885.000000	0.002206
1884.000000	0.002163
1883.000000	0.002105
1882.000000	0.002040
1881.000000	0.001994
1880.000000	0.001988
1879.000000	0.002020
1878.000000	0.002078
1877.000000	0.002147
1876.000000	0.002198
1875.000000	0.002198
1874.000000	0.002148
1873.000000	0.002078
1872.000000	0.002017
1871.000000	0.001979
1870.000000	0.001985
1869.000000	0.002054
1868.000000	0.002134
1867.000000	0.002129
1866.000000	0.002031
1865.000000	0.001934
1864.000000	0.001916
1863.000000	0.001976
1862.000000	0.002062
1861.000000	0.002135
1860.000000	0.002182
1859.000000	0.002193
1858.000000	0.002161
1857.000000	0.002105
1856.000000	0.002057
1855.000000	0.002032
1854.000000	0.002027
1853.000000	0.002042
1852.000000	0.002066
1851.000000	0.002075
1850.000000	0.002052
1849.000000	0.002008
1848.000000	0.001964
1847.000000	0.001927
1846.000000	0.001896
1845.000000	0.001885
1844.000000	0.001917
1843.000000	0.001963
1842.000000	0.001982
1841.000000	0.001975
1840.000000	0.001970
1839.000000	0.001978
1838.000000	0.002001
1837.000000	0.002030
1836.000000	0.002049
1835.000000	0.002042
1834.000000	0.002015
1833.000000	0.001991
1832.000000	0.001977
1831.000000	0.001966
1830.000000	0.001955
1829.000000	0.001948
1828.000000	0.001943
1827.000000	0.001944
1826.000000	0.001960
1825.000000	0.001989
1824.000000	0.002009
1823.000000	0.002000
1822.000000	0.001966
1821.000000	0.001933
1820.000000	0.001909
1819.000000	0.001881
1818.000000	0.001844
1817.000000	0.001817
1816.000000	0.001825
1815.000000	0.001855
1814.000000	0.001876
1813.000000	0.001878
1812.000000	0.001869
1811.000000	0.001859
1810.000000	0.001850
1809.000000	0.001855
1808.000000	0.001881
1807.000000	0.001907
1806.000000	0.001908
1805.000000	0.001889
1804.000000	0.001871
1803.000000	0.001859
1802.000000	0.001845
1801.000000	0.001837
1800.000000	0.001849
1799.000000	0.001872
1798.000000	0.001883
1797.000000	0.001883
1796.000000	0.001878
1795.000000	0.001858
1794.000000	0.001818
1793.000000	0.001791
1792.000000	0.001827
1791.000000	0.001899
1790.000000	0.001933
1789.000000	0.001921
1788.000000	0.001900
1787.000000	0.001887
1786.000000	0.001882
1785.000000	0.001886
1784.000000	0.001899
1783.000000	0.001904
1782.000000	0.001893
1781.000000	0.001877
1780.000000	0.001863
1779.000000	0.001837
1778.000000	0.001788
1777.000000	0.001730
1776.000000	0.001685
1775.000000	0.001653
1774.000000	0.001626
1773.000000	0.001622
1772.000000	0.001682
1771.000000	0.001771
1770.000000	0.001815
1769.000000	0.001817
1768.000000	0.001818
1767.000000	0.001824
1766.000000	0.001806
1765.000000	0.001752
1764.000000	0.001689
1763.000000	0.001664
1762.000000	0.001711
1761.000000	0.001797
1760.000000	0.001860
1759.000000	0.001884
1758.000000	0.001891
1757.000000	0.001910
1756.000000	0.001954
1755.000000	0.002014
1754.000000	0.002081
1753.000000	0.002143
1752.000000	0.002191
1751.000000	0.002240
1750.000000	0.002318
1749.000000	0.002421
1748.000000	0.002517
1747.000000	0.002577
1746.000000	0.002605
1745.000000	0.002623
1744.000000	0.002647
1743.000000	0.002672
1742.000000	0.002676
1741.000000	0.002654
1740.000000	0.002627
1739.000000	0.002612
1738.000000	0.002595
1737.000000	0.002568
1736.000000	0.002529
1735.000000	0.002461
1734.000000	0.002411
1733.000000	0.002402
1732.000000	0.002371
1731.000000	0.002330
1730.000000	0.002314
1729.000000	0.002316
1728.000000	0.002302
1727.000000	0.002255
1726.000000	0.002192
1725.000000	0.002141
1724.000000	0.002121
1723.000000	0.002121
1722.000000	0.002119
1721.000000	0.002107
1720.000000	0.002099
1719.000000	0.002091
1718.000000	0.002077
1717.000000	0.002073
1716.000000	0.002075
1715.000000	0.002067
1714.000000	0.002065
1713.000000	0.002086
1712.000000	0.002125
1711.000000	0.002164
1710.000000	0.002192
1709.000000	0.002215
1708.000000	0.002242
1707.000000	0.002277
1706.000000	0.002329
1705.000000	0.002412
1704.000000	0.002509
1703.000000	0.002589
1702.000000	0.002631
1701.000000	0.002650
1700.000000	0.002753
1699.000000	0.002924
1698.000000	0.003052
1697.000000	0.003172
1696.000000	0.003317
1695.000000	0.003417
1694.000000	0.003428
1693.000000	0.003428
1692.000000	0.003490
1691.000000	0.003607
1690.000000	0.003739
1689.000000	0.003867
1688.000000	0.003994
1687.000000	0.004118
1686.000000	0.004221
1685.000000	0.004311
1684.000000	0.004500
1683.000000	0.004712
1682.000000	0.004812
1681.000000	0.004885
1680.000000	0.004986
1679.000000	0.005097
1678.000000	0.005211
1677.000000	0.005338
1676.000000	0.005486
1675.000000	0.005646
1674.000000	0.005791
1673.000000	0.005903
1672.000000	0.006006
1671.000000	0.006130
1670.000000	0.006308
1669.000000	0.006543
1668.000000	0.006751
1667.000000	0.006882
1666.000000	0.006974
1665.000000	0.007078
1664.000000	0.007214
1663.000000	0.007371
1662.000000	0.007516
1661.000000	0.007623
1660.000000	0.007708
1659.000000	0.007798
1658.000000	0.007911
1657.000000	0.008060
1656.000000	0.008230
1655.000000	0.008368
1654.000000	0.008404
1653.000000	0.008494
1652.000000	0.008635
1651.000000	0.008663
1650.000000	0.008663
1649.000000	0.008696
1648.000000	0.008743
1647.000000	0.008808
1646.000000	0.008880
1645.000000	0.008927
1644.000000	0.008963
1643.000000	0.009013
1642.000000	0.009073
1641.000000	0.009133
1640.000000	0.009188
1639.000000	0.009237
1638.000000	0.009275
1637.000000	0.009285
1636.000000	0.009288
1635.000000	0.009307
1634.000000	0.009306
1633.000000	0.009287
1632.000000	0.009283
1631.000000	0.009290
1630.000000	0.009291
1629.000000	0.009287
1628.000000	0.009283
1627.000000	0.009266
1626.000000	0.009229
1625.000000	0.009175
1624.000000	0.009115
1623.000000	0.009063
1622.000000	0.009021
1621.000000	0.008978
1620.000000	0.008929
1619.000000	0.008867
1618.000000	0.008769
1617.000000	0.008651
1616.000000	0.008546
1615.000000	0.008435
1614.000000	0.008312
1613.000000	0.008196
1612.000000	0.008085
1611.000000	0.007973
1610.000000	0.007868
1609.000000	0.007771
1608.000000	0.007657
1607.000000	0.007519
1606.000000	0.007380
1605.000000	0.007262
1604.000000	0.007160
1603.000000	0.007064
1602.000000	0.006982
1601.000000	0.006916
1600.000000	0.006857
1599.000000	0.006793
1598.000000	0.006729
1597.000000	0.006670
1596.000000	0.006616
1595.000000	0.006569
1594.000000	0.006534
1593.000000	0.006505
1592.000000	0.006469
1591.000000	0.006423
1590.000000	0.006378
1589.000000	0.006342
1588.000000	0.006306
1587.000000	0.006267
1586.000000	0.006236
1585.000000	0.006223
1584.000000	0.006219
1583.000000	0.006220
1582.000000	0.006236
1581.000000	0.006267
1580.000000	0.006296
1579.000000	0.006315
1578.000000	0.006324
1577.000000	0.006318
1576.000000	0.006307
1575.000000	0.006293
1574.000000	0.006277
1573.000000	0.006275
1572.000000	0.006285
1571.000000	0.006283
1570.000000	0.006287
1569.000000	0.006324
1568.000000	0.006356
1567.000000	0.006363
1566.000000	0.006377
1565.000000	0.006420
1564.000000	0.006481
1563.000000	0.006571
1562.000000	0.006677
1561.000000	0.006778
1560.000000	0.006721
1559.000000	0.006682
1558.000000	0.006828
1557.000000	0.006907
1556.000000	0.006919
1555.000000	0.006953
1554.000000	0.007004
1553.000000	0.007062
1552.000000	0.007109
1551.000000	0.007157
1550.000000	0.007214
1549.000000	0.007276
1548.000000	0.007331
1547.000000	0.007379
1546.000000	0.007428
1545.000000	0.007496
1544.000000	0.007588
1543.000000	0.007677
1542.000000	0.007722
1541.000000	0.007720
1540.000000	0.007749
1539.000000	0.007776
1538.000000	0.007716
1537.000000	0.007629
1536.000000	0.007571
1535.000000	0.007521
1534.000000	0.007453
1533.000000	0.007388
1532.000000	0.007331
1531.000000	0.007265
1530.000000	0.007196
1529.000000	0.007142
1528.000000	0.007109
1527.000000	0.007077
1526.000000	0.007017
1525.000000	0.006934
1524.000000	0.006864
1523.000000	0.006811
1522.000000	0.006762
1521.000000	0.006735
1520.000000	0.006718
1519.000000	0.006686
1518.000000	0.006646
1517.000000	0.006608
1516.000000	0.006572
1515.000000	0.006521
1514.000000	0.006454
1513.000000	0.006379
1512.000000	0.006306
1511.000000	0.006258
1510.000000	0.006222
1509.000000	0.006169
1508.000000	0.006035
1507.000000	0.005878
1506.000000	0.005764
1505.000000	0.005640
1504.000000	0.005523
1503.000000	0.005438
1502.000000	0.005369
1501.000000	0.005309
1500.000000	0.005263
1499.000000	0.005234
1498.000000	0.005193
1497.000000	0.005112
1496.000000	0.005018
1495.000000	0.004933
1494.000000	0.004861
1493.000000	0.004806
1492.000000	0.004769
1491.000000	0.004735
1490.000000	0.004700
1489.000000	0.004672
1488.000000	0.004654
1487.000000	0.004639
1486.000000	0.004624
1485.000000	0.004622
1484.000000	0.004637
1483.000000	0.004658
1482.000000	0.004673
1481.000000	0.004686
1480.000000	0.004712
1479.000000	0.004752
1478.000000	0.004798
1477.000000	0.004854
1476.000000	0.004928
1475.000000	0.005013
1474.000000	0.005090
1473.000000	0.005181
1472.000000	0.005299
1471.000000	0.005396
1470.000000	0.005450
1469.000000	0.005495
1468.000000	0.005554
1467.000000	0.005622
1466.000000	0.005686
1465.000000	0.005757
1464.000000	0.005839
1463.000000	0.005916
1462.000000	0.005983
1461.000000	0.006056
1460.000000	0.006148
1459.000000	0.006254
1458.000000	0.006369
1457.000000	0.006508
1456.000000	0.006619
1455.000000	0.006650
1454.000000	0.006648
1453.000000	0.006653
1452.000000	0.006675
1451.000000	0.006711
1450.000000	0.006749
1449.000000	0.006778
1448.000000	0.006794
1447.000000	0.006807
1446.000000	0.006816
1445.000000	0.006815
1444.000000	0.006802
1443.000000	0.006788
1442.000000	0.006782
1441.000000	0.006789
1440.000000	0.006807
1439.000000	0.006835
1438.000000	0.006863
1437.000000	0.006881
1436.000000	0.006895
1435.000000	0.006903
1434.000000	0.006902
1433.000000	0.006898
1432.000000	0.006896
1431.000000	0.006905
1430.000000	0.006927
1429.000000	0.006945
1428.000000	0.006947
1427.000000	0.006950
1426.000000	0.006970
1425.000000	0.006998
1424.000000	0.007012
1423.000000	0.007015
1422.000000	0.007020
1421.000000	0.007023
1420.000000	0.007008
1419.000000	0.007002
1418.000000	0.007026
1417.000000	0.007042
1416.000000	0.007031
1415.000000	0.007008
1414.000000	0.006987
1413.000000	0.006978
1412.000000	0.006976
1411.000000	0.006976
1410.000000	0.006966
1409.000000	0.006936
1408.000000	0.006895
1407.000000	0.006859
1406.000000	0.006834
1405.000000	0.006808
1404.000000	0.006768
1403.000000	0.006726
1402.000000	0.006698
1401.000000	0.006680
1400.000000	0.006658
1399.000000	0.006643
1398.000000	0.006648
1397.000000	0.006660
1396.000000	0.006655
1395.000000	0.006624
1394.000000	0.006578
1393.000000	0.006525
1392.000000	0.006471
1391.000000	0.006427
1390.000000	0.006395
1389.000000	0.006368
1388.000000	0.006340
1387.000000	0.006316
1386.000000	0.006302
1385.000000	0.006291
1384.000000	0.006279
1383.000000	0.006271
1382.000000	0.006278
1381.000000	0.006307
1380.000000	0.006348
1379.000000	0.006382
1378.000000	0.006398
1377.000000	0.006393
1376.000000	0.006367
1375.000000	0.006326
1374.000000	0.006285
1373.000000	0.006251
1372.000000	0.006223
1371.000000	0.006196
1370.000000	0.006165
1369.000000	0.006121
1368.000000	0.006064
1367.000000	0.006014
1366.000000	0.005993
1365.000000	0.006002
1364.000000	0.006010
1363.000000	0.005988
1362.000000	0.005934
1361.000000	0.005869
1360.000000	0.005807
1359.000000	0.005748
1358.000000	0.005687
1357.000000	0.005625
1356.000000	0.005568
1355.000000	0.005521
1354.000000	0.005482
1353.000000	0.005442
1352.000000	0.005395
1351.000000	0.005347
1350.000000	0.005309
1349.000000	0.005289
1348.000000	0.005278
1347.000000	0.005276
1346.000000	0.005289
1345.000000	0.005319
1344.000000	0.005353
1343.000000	0.005379
1342.000000	0.005399
1341.000000	0.005418
1340.000000	0.005435
1339.000000	0.005442
1338.000000	0.005438
1337.000000	0.005425
1336.000000	0.005407
1335.000000	0.005387
1334.000000	0.005376
1333.000000	0.005377
1332.000000	0.005385
1331.000000	0.005389
1330.000000	0.005386
1329.000000	0.005382
1328.000000	0.005388
1327.000000	0.005412
1326.000000	0.005454
1325.000000	0.005508
1324.000000	0.005562
1323.000000	0.005612
1322.000000	0.005659
1321.000000	0.005700
1320.000000	0.005731
1319.000000	0.005742
1318.000000	0.005729
1317.000000	0.005682
1316.000000	0.005603
1315.000000	0.005510
1314.000000	0.005428
1313.000000	0.005362
1312.000000	0.005299
1311.000000	0.005222
1310.000000	0.005134
1309.000000	0.005044
1308.000000	0.004960
1307.000000	0.004884
1306.000000	0.004823
1305.000000	0.004776
1304.000000	0.004734
1303.000000	0.004689
1302.000000	0.004640
1301.000000	0.004587
1300.000000	0.004536
1299.000000	0.004490
1298.000000	0.004450
1297.000000	0.004410
1296.000000	0.004372
1295.000000	0.004344
1294.000000	0.004325
1293.000000	0.004305
1292.000000	0.004271
1291.000000	0.004234
1290.000000	0.004213
1289.000000	0.004212
1288.000000	0.004219
1287.000000	0.004226
1286.000000	0.004238
1285.000000	0.004251
1284.000000	0.004251
1283.000000	0.004232
1282.000000	0.004207
1281.000000	0.004192
1280.000000	0.004189
1279.000000	0.004194
1278.000000	0.004214
1277.000000	0.004249
1276.000000	0.004288
1275.000000	0.004315
1274.000000	0.004328
1273.000000	0.004335
1272.000000	0.004339
1271.000000	0.004343
1270.000000	0.004352
1269.000000	0.004371
1268.000000	0.004398
1267.000000	0.004425
1266.000000	0.004451
1265.000000	0.004479
1264.000000	0.004510
1263.000000	0.004542
1262.000000	0.004574
1261.000000	0.004606
1260.000000	0.004639
1259.000000	0.004670
1258.000000	0.004701
1257.000000	0.004734
1256.000000	0.004767
1255.000000	0.004799
1254.000000	0.004831
1253.000000	0.004868
1252.000000	0.004911
1251.000000	0.004956
1250.000000	0.004996
1249.000000	0.005029
1248.000000	0.005057
1247.000000	0.005089
1246.000000	0.005126
1245.000000	0.005163
1244.000000	0.005197
1243.000000	0.005231
1242.000000	0.005274
1241.000000	0.005320
1240.000000	0.005350
1239.000000	0.005358
1238.000000	0.005359
1237.000000	0.005369
1236.000000	0.005387
1235.000000	0.005392
1234.000000	0.005374
1233.000000	0.005343
1232.000000	0.005316
1231.000000	0.005295
1230.000000	0.005270
1229.000000	0.005233
1228.000000	0.005183
1227.000000	0.005127
1226.000000	0.005069
1225.000000	0.005012
1224.000000	0.004955
1223.000000	0.004896
1222.000000	0.004829
1221.000000	0.004754
1220.000000	0.004678
1219.000000	0.004619
1218.000000	0.004586
1217.000000	0.004572
1216.000000	0.004561
1215.000000	0.004541
1214.000000	0.004514
1213.000000	0.004487
1212.000000	0.004467
1211.000000	0.004455
1210.000000	0.004441
1209.000000	0.004410
1208.000000	0.004356
1207.000000	0.004298
1206.000000	0.004262
1205.000000	0.004256
1204.000000	0.004266
1203.000000	0.004272
1202.000000	0.004262
1201.000000	0.004234
1200.000000	0.004189
1199.000000	0.004133
1198.000000	0.004072
1197.000000	0.004008
1196.000000	0.003934
1195.000000	0.003852
1194.000000	0.003772
1193.000000	0.003703
1192.000000	0.003644
1191.000000	0.003588
1190.000000	0.003527
1189.000000	0.003460
1188.000000	0.003393
1187.000000	0.003342
1186.000000	0.003318
1185.000000	0.003311
1184.000000	0.003303
1183.000000	0.003282
1182.000000	0.003257
1181.000000	0.003248
1180.000000	0.003259
1179.000000	0.003286
1178.000000	0.003318
1177.000000	0.003348
1176.000000	0.003374
1175.000000	0.003403
1174.000000	0.003450
1173.000000	0.003522
1172.000000	0.003613
1171.000000	0.003702
1170.000000	0.003777
1169.000000	0.003843
1168.000000	0.003920
1167.000000	0.004029
1166.000000	0.004176
1165.000000	0.004344
1164.000000	0.004507
1163.000000	0.004642
1162.000000	0.004751
1161.000000	0.004849
1160.000000	0.004953
1159.000000	0.005076
1158.000000	0.005218
1157.000000	0.005373
1156.000000	0.005526
1155.000000	0.005658
1154.000000	0.005750
1153.000000	0.005791
1152.000000	0.005791
1151.000000	0.005771
1150.000000	0.005755
1149.000000	0.005749
1148.000000	0.005738
1147.000000	0.005704
1146.000000	0.005648
1145.000000	0.005588
1144.000000	0.005538
1143.000000	0.005495
1142.000000	0.005446
1141.000000	0.005382
1140.000000	0.005308
1139.000000	0.005235
1138.000000	0.005171
1137.000000	0.005116
1136.000000	0.005072
1135.000000	0.005046
1134.000000	0.005048
1133.000000	0.005076
1132.000000	0.005116
1131.000000	0.005151
1130.000000	0.005170
1129.000000	0.005168
1128.000000	0.005156
1127.000000	0.005154
1126.000000	0.005176
1125.000000	0.005223
1124.000000	0.005282
1123.000000	0.005343
1122.000000	0.005403
1121.000000	0.005461
1120.000000	0.005514
1119.000000	0.005564
1118.000000	0.005619
1117.000000	0.005680
1116.000000	0.005742
1115.000000	0.005801
1114.000000	0.005863
1113.000000	0.005933
1112.000000	0.006004
1111.000000	0.006072
1110.000000	0.006144
1109.000000	0.006228
1108.000000	0.006310
1107.000000	0.006359
1106.000000	0.006356
1105.000000	0.006326
1104.000000	0.006317
1103.000000	0.006354
1102.000000	0.006421
1101.000000	0.006477
1100.000000	0.006494
1099.000000	0.006479
1098.000000	0.006457
1097.000000	0.006450
1096.000000	0.006464
1095.000000	0.006495
1094.000000	0.006540
1093.000000	0.006596
1092.000000	0.006653
1091.000000	0.006702
1090.000000	0.006741
1089.000000	0.006778
1088.000000	0.006824
1087.000000	0.006895
1086.000000	0.007005
1085.000000	0.007150
1084.000000	0.007307
1083.000000	0.007447
1082.000000	0.007560
1081.000000	0.007653
1080.000000	0.007737
1079.000000	0.007815
1078.000000	0.007885
1077.000000	0.007942
1076.000000	0.007973
1075.000000	0.007960
1074.000000	0.007897
1073.000000	0.007804
1072.000000	0.007705
1071.000000	0.007612
1070.000000	0.007529
1069.000000	0.007466
1068.000000	0.007440
1067.000000	0.007462
1066.000000	0.007522
1065.000000	0.007597
1064.000000	0.007665
1063.000000	0.007725
1062.000000	0.007795
1061.000000	0.007892
1060.000000	0.008014
1059.000000	0.008136
1058.000000	0.008229
1057.000000	0.008282
1056.000000	0.008314
1055.000000	0.008353
1054.000000	0.008416
1053.000000	0.008499
1052.000000	0.008583
1051.000000	0.008654
1050.000000	0.008710
1049.000000	0.008759
1048.000000	0.008801
1047.000000	0.008829
1046.000000	0.008850
1045.000000	0.008889
1044.000000	0.008967
1043.000000	0.009072
1042.000000	0.009172
1041.000000	0.009241
1040.000000	0.009289
1039.000000	0.009346
1038.000000	0.009432
1037.000000	0.009548
1036.000000	0.009684
1035.000000	0.009824
1034.000000	0.009955
1033.000000	0.010070
1032.000000	0.010165
1031.000000	0.010249
1030.000000	0.010331
1029.000000	0.010424
1028.000000	0.010530
1027.000000	0.010634
1026.000000	0.010702
1025.000000	0.010707
1024.000000	0.010659
1023.000000	0.010602
1022.000000	0.010575
1021.000000	0.010579
1020.000000	0.010582
1019.000000	0.010562
1018.000000	0.010529
1017.000000	0.010500
1016.000000	0.010473
1015.000000	0.010434
1014.000000	0.010376
1013.000000	0.010310
1012.000000	0.010250
1011.000000	0.010204
1010.000000	0.010170
1009.000000	0.010147
1008.000000	0.010126
1007.000000	0.010096
1006.000000	0.010052
1005.000000	0.010004
1004.000000	0.009968
1003.000000	0.009944
1002.000000	0.009910
1001.000000	0.009843
1000.000000	0.009748
999.000000	0.009653
998.000000	0.009579
997.000000	0.009516
996.000000	0.009439
995.000000	0.009332
994.000000	0.009200
993.000000	0.009055
992.000000	0.008911
991.000000	0.008780
990.000000	0.008667
989.000000	0.008560
988.000000	0.008437
987.000000	0.008290
986.000000	0.008131
985.000000	0.007976
984.000000	0.007828
983.000000	0.007685
982.000000	0.007545
981.000000	0.007411
980.000000	0.007291
979.000000	0.007195
978.000000	0.007129
977.000000	0.007084
976.000000	0.007038
975.000000	0.006970
974.000000	0.006866
973.000000	0.006729
972.000000	0.006571
971.000000	0.006422
970.000000	0.006304
969.000000	0.006212
968.000000	0.006124
967.000000	0.006028
966.000000	0.005934
965.000000	0.005858
964.000000	0.005792
963.000000	0.005713
962.000000	0.005606
961.000000	0.005484
960.000000	0.005378
959.000000	0.005304
958.000000	0.005252
957.000000	0.005190
956.000000	0.005101
955.000000	0.004999
954.000000	0.004907
953.000000	0.004835
952.000000	0.004775
951.000000	0.004719
950.000000	0.004662
949.000000	0.004597
948.000000	0.004517
947.000000	0.004426
946.000000	0.004335
945.000000	0.004250
944.000000	0.004167
943.000000	0.004089
942.000000	0.004026
941.000000	0.003980
940.000000	0.003947
939.000000	0.003922
938.000000	0.003904
937.000000	0.003886
936.000000	0.003849
935.000000	0.003777
934.000000	0.003675
933.000000	0.003567
932.000000	0.003475
931.000000	0.003410
930.000000	0.003367
929.000000	0.003326
928.000000	0.003268
927.000000	0.003194
926.000000	0.003126
925.000000	0.003085
924.000000	0.003064
923.000000	0.003042
922.000000	0.003007
921.000000	0.002971
920.000000	0.002954
919.000000	0.002970
918.000000	0.003012
917.000000	0.003053
916.000000	0.003059
915.000000	0.003005
914.000000	0.002902
913.000000	0.002788
912.000000	0.002697
911.000000	0.002634
910.000000	0.002581
909.000000	0.002528
908.000000	0.002483
907.000000	0.002449
906.000000	0.002417
905.000000	0.002378
904.000000	0.002333
903.000000	0.002292
902.000000	0.002252
901.000000	0.002201
900.000000	0.002133
899.000000	0.002058
898.000000	0.001988
897.000000	0.001931
896.000000	0.001891
895.000000	0.001863
894.000000	0.001836
893.000000	0.001804
892.000000	0.001780
891.000000	0.001786
890.000000	0.001821
889.000000	0.001863
888.000000	0.001893
887.000000	0.001913
886.000000	0.001928
885.000000	0.001944
884.000000	0.001968
883.000000	0.002021
882.000000	0.002112
881.000000	0.002234
880.000000	0.002378
879.000000	0.002542
878.000000	0.002725
877.000000	0.002909
876.000000	0.003061
875.000000	0.003151
874.000000	0.003154
873.000000	0.003062
872.000000	0.002903
871.000000	0.002739
870.000000	0.002626
869.000000	0.002566
868.000000	0.002513
867.000000	0.002421
866.000000	0.002283
865.000000	0.002133
864.000000	0.002020
863.000000	0.001980
862.000000	0.002000
861.000000	0.002028
860.000000	0.002023
859.000000	0.001982
858.000000	0.001932
857.000000	0.001889
856.000000	0.001846
855.000000	0.001798
854.000000	0.001744
853.000000	0.001689
852.000000	0.001642
851.000000	0.001620
850.000000	0.001636
849.000000	0.001679
848.000000	0.001722
847.000000	0.001745
846.000000	0.001747
845.000000	0.001740
844.000000	0.001745
843.000000	0.001777
842.000000	0.001820
841.000000	0.001838
840.000000	0.001811
839.000000	0.001764
838.000000	0.001734
837.000000	0.001726
836.000000	0.001715
835.000000	0.001690
834.000000	0.001670
833.000000	0.001669
832.000000	0.001678
831.000000	0.001687
830.000000	0.001709
829.000000	0.001758
828.000000	0.001824
827.000000	0.001878
826.000000	0.001898
825.000000	0.001886
824.000000	0.001868
823.000000	0.001862
822.000000	0.001867
821.000000	0.001866
820.000000	0.001852
819.000000	0.001844
818.000000	0.001864
817.000000	0.001892
816.000000	0.001892
815.000000	0.001856
814.000000	0.001825
813.000000	0.001830
812.000000	0.001861
811.000000	0.001880
810.000000	0.001865
809.000000	0.001821
808.000000	0.001758
807.000000	0.001693
806.000000	0.001661
805.000000	0.001683
804.000000	0.001739
803.000000	0.001782
802.000000	0.001786
801.000000	0.001767
800.000000	0.001758
799.000000	0.001762
798.000000	0.001765
797.000000	0.001751
796.000000	0.001724
795.000000	0.001698
794.000000	0.001685
793.000000	0.001693
792.000000	0.001719
791.000000	0.001742
790.000000	0.001738
789.000000	0.001702
788.000000	0.001655
787.000000	0.001632
786.000000	0.001656
785.000000	0.001716
784.000000	0.001779
783.000000	0.001818
782.000000	0.001827
781.000000	0.001823
780.000000	0.001828
779.000000	0.001849
778.000000	0.001868
777.000000	0.001864
776.000000	0.001836
775.000000	0.001803
774.000000	0.001782
773.000000	0.001770
772.000000	0.001757
771.000000	0.001746
770.000000	0.001746
769.000000	0.001759
768.000000	0.001779
767.000000	0.001807
766.000000	0.001846
765.000000	0.001895
764.000000	0.001943
763.000000	0.001985
762.000000	0.002016
761.000000	0.002027
760.000000	0.002012
759.000000	0.001986
758.000000	0.001976
757.000000	0.001989
756.000000	0.002000
755.000000	0.001983
754.000000	0.001941
753.000000	0.001891
752.000000	0.001844
751.000000	0.001806
750.000000	0.001789
749.000000	0.001801
748.000000	0.001829
747.000000	0.001844
746.000000	0.001828
745.000000	0.001784
744.000000	0.001734
743.000000	0.001697
742.000000	0.001685
741.000000	0.001696
740.000000	0.001708
739.000000	0.001698
738.000000	0.001667
737.000000	0.001644
736.000000	0.001654
735.000000	0.001696
734.000000	0.001744
733.000000	0.001775
732.000000	0.001776
731.000000	0.001755
730.000000	0.001727
729.000000	0.001713
728.000000	0.001724
727.000000	0.001760
726.000000	0.001803
725.000000	0.001823
724.000000	0.001796
723.000000	0.001723
722.000000	0.001636
721.000000	0.001581
720.000000	0.001589
719.000000	0.001655
718.000000	0.001751
717.000000	0.001850
716.000000	0.001948
715.000000	0.002052
714.000000	0.002150
713.000000	0.002205
712.000000	0.002186
711.000000	0.002103
710.000000	0.002003
709.000000	0.001926
708.000000	0.001877
707.000000	0.001860
706.000000	0.001889
705.000000	0.001965
704.000000	0.002044
703.000000	0.002059
702.000000	0.001994
701.000000	0.001905
700.000000	0.001865
699.000000	0.001900
698.000000	0.001979
697.000000	0.002051
696.000000	0.002088
695.000000	0.002083
694.000000	0.002041
693.000000	0.001979
692.000000	0.001916
691.000000	0.001871
690.000000	0.001854
689.000000	0.001857
688.000000	0.001857
687.000000	0.001828
686.000000	0.001773
685.000000	0.001726
684.000000	0.001728
683.000000	0.001784
682.000000	0.001864
681.000000	0.001930
680.000000	0.001963
679.000000	0.001969
678.000000	0.001970
677.000000	0.001982
676.000000	0.002008
675.000000	0.002051
674.000000	0.002112
673.000000	0.002188
672.000000	0.002260
671.000000	0.002299
670.000000	0.002291
669.000000	0.002260
668.000000	0.002195
667.000000	0.002080
666.000000	0.002044
665.000000	0.002112
664.000000	0.002205
663.000000	0.002291
662.000000	0.002359
661.000000	0.002384
660.000000	0.002336
659.000000	0.002225
658.000000	0.002113
657.000000	0.002057
656.000000	0.002055
655.000000	0.002069
654.000000	0.002079
653.000000	0.002095
652.000000	0.002113
651.000000	0.002095
650.000000	0.002025
649.000000	0.001956
648.000000	0.001960
647.000000	0.002041
646.000000	0.002120
645.000000	0.002123
644.000000	0.002053
643.000000	0.001965
642.000000	0.001913
641.000000	0.001915
640.000000	0.001950
639.000000	0.001988
638.000000	0.002004
637.000000	0.002006
636.000000	0.002023
635.000000	0.002062
634.000000	0.002098
633.000000	0.002105
632.000000	0.002091
631.000000	0.002086
630.000000	0.002096
629.000000	0.002112
628.000000	0.002127
627.000000	0.002145
626.000000	0.002157
625.000000	0.002147
624.000000	0.002110
623.000000	0.002061
622.000000	0.002020
621.000000	0.002004
620.000000	0.002026
619.000000	0.002095
618.000000	0.002200
617.000000	0.002306
616.000000	0.002377
615.000000	0.002397
614.000000	0.002373
613.000000	0.002332
612.000000	0.002323
611.000000	0.002387
610.000000	0.002520
609.000000	0.002679
608.000000	0.002808
607.000000	0.002880
606.000000	0.002887
605.000000	0.002842
604.000000	0.002787
603.000000	0.002786
602.000000	0.002882
601.000000	0.003043
600.000000	0.003182
599.000000	0.003232
598.000000	0.003191
597.000000	0.003091
596.000000	0.002963
595.000000	0.002848
594.000000	0.002799
593.000000	0.002835
592.000000	0.002905
591.000000	0.002933
590.000000	0.002896
589.000000	0.002830
588.000000	0.002773
587.000000	0.002738
586.000000	0.002750
585.000000	0.002837
584.000000	0.002987
583.000000	0.003138
582.000000	0.003249
581.000000	0.003342
580.000000	0.003449
579.000000	0.003540
578.000000	0.003557
577.000000	0.003495
576.000000	0.003419
575.000000	0.003394
574.000000	0.003417
573.000000	0.003426
572.000000	0.003381
571.000000	0.003295
570.000000	0.003222
569.000000	0.003190
568.000000	0.003169
567.000000	0.003116
566.000000	0.003035
565.000000	0.002971
564.000000	0.002937
563.000000	0.002891
562.000000	0.002789
561.000000	0.002642
560.000000	0.002507
559.000000	0.002437
558.000000	0.002471
557.000000	0.002620
556.000000	0.002831
555.000000	0.002981
554.000000	0.002968
553.000000	0.002802
552.000000	0.002584
551.000000	0.002392
550.000000	0.002245
549.000000	0.002141
548.000000	0.002074
547.000000	0.002029
546.000000	0.001989
545.000000	0.001974
544.000000	0.002023
543.000000	0.002130
542.000000	0.002240
541.000000	0.002314
540.000000	0.002359
539.000000	0.002387
538.000000	0.002389
537.000000	0.002383
536.000000	0.002408
535.000000	0.002471
534.000000	0.002524
533.000000	0.002548
532.000000	0.002609
531.000000	0.002778
530.000000	0.003030
529.000000	0.003257
528.000000	0.003365
527.000000	0.003328
526.000000	0.003194
525.000000	0.003060
524.000000	0.003011
523.000000	0.003046
522.000000	0.003093
521.000000	0.003077
520.000000	0.002977
519.000000	0.002839
518.000000	0.002731
517.000000	0.002695
516.000000	0.002706
515.000000	0.002696
514.000000	0.002624
513.000000	0.002517
512.000000	0.002415
511.000000	0.002304
510.000000	0.002153
509.000000	0.002004
508.000000	0.001947
507.000000	0.002003
506.000000	0.002072
505.000000	0.002071
504.000000	0.002033
503.000000	0.002047
502.000000	0.002144
501.000000	0.002296
500.000000	0.002480
499.000000	0.002673
498.000000	0.002807
497.000000	0.002809
496.000000	0.002680
495.000000	0.002487
494.000000	0.002306
493.000000	0.002206
492.000000	0.002259
491.000000	0.002476
490.000000	0.002729
489.000000	0.002820
488.000000	0.002651
487.000000	0.002310
486.000000	0.001987
485.000000	0.001834
484.000000	0.001889
483.000000	0.002078
482.000000	0.002248
481.000000	0.002227
480.000000	0.001944
479.000000	0.001522
478.000000	0.001220
477.000000	0.001210
476.000000	0.001433
475.000000	0.001680
474.000000	0.001803
473.000000	0.001822
472.000000	0.001833
471.000000	0.001894
470.000000	0.002007
469.000000	0.002152
468.000000	0.002283
467.000000	0.002305
466.000000	0.002152
465.000000	0.001885
464.000000	0.001615
463.000000	0.001374
462.000000	0.001111
461.000000	0.000817
460.000000	0.000581
459.000000	0.000539
458.000000	0.000764
457.000000	0.001190
456.000000	0.001651
455.000000	0.002011
454.000000	0.002199
453.000000	0.002191
452.000000	0.002016
451.000000	0.001771
450.000000	0.001611
