PE IR       SUBTECH     SPECTRUM    ASCII       PEDS        4.00        
   -1
P14-Noir007_1.ASC
23/06/09
16:00:08.00
23/06/09
16:36:39.00
uco
Sample 007 By uco Date Friday, June 09 2023
450.000000
#HDR
-1
-1
#GR
cm-1
A
1.0
0.0
4000.000000
-1.000000
3551
8
0.012568
0.001194
#DATA
4000.000000	0.001769
3999.000000	0.001753
3998.000000	0.001745
3997.000000	0.001744
3996.000000	0.001749
3995.000000	0.001756
3994.000000	0.001764
3993.000000	0.001775
3992.000000	0.001789
3991.000000	0.001805
3990.000000	0.001816
3989.000000	0.001817
3988.000000	0.001810
3987.000000	0.001800
3986.000000	0.001794
3985.000000	0.001793
3984.000000	0.001795
3983.000000	0.001800
3982.000000	0.001805
3981.000000	0.001808
3980.000000	0.001809
3979.000000	0.001808
3978.000000	0.001808
3977.000000	0.001812
3976.000000	0.001816
3975.000000	0.001820
3974.000000	0.001824
3973.000000	0.001830
3972.000000	0.001837
3971.000000	0.001841
3970.000000	0.001841
3969.000000	0.001842
3968.000000	0.001849
3967.000000	0.001861
3966.000000	0.001869
3965.000000	0.001863
3964.000000	0.001842
3963.000000	0.001815
3962.000000	0.001793
3961.000000	0.001784
3960.000000	0.001786
3959.000000	0.001797
3958.000000	0.001810
3957.000000	0.001823
3956.000000	0.001833
3955.000000	0.001839
3954.000000	0.001845
3953.000000	0.001851
3952.000000	0.001853
3951.000000	0.001851
3950.000000	0.001846
3949.000000	0.001845
3948.000000	0.001853
3947.000000	0.001870
3946.000000	0.001891
3945.000000	0.001911
3944.000000	0.001927
3943.000000	0.001934
3942.000000	0.001932
3941.000000	0.001920
3940.000000	0.001903
3939.000000	0.001886
3938.000000	0.001871
3937.000000	0.001857
3936.000000	0.001842
3935.000000	0.001822
3934.000000	0.001799
3933.000000	0.001780
3932.000000	0.001773
3931.000000	0.001783
3930.000000	0.001802
3929.000000	0.001819
3928.000000	0.001823
3927.000000	0.001819
3926.000000	0.001817
3925.000000	0.001825
3924.000000	0.001835
3923.000000	0.001835
3922.000000	0.001823
3921.000000	0.001811
3920.000000	0.001808
3919.000000	0.001816
3918.000000	0.001826
3917.000000	0.001831
3916.000000	0.001830
3915.000000	0.001826
3914.000000	0.001825
3913.000000	0.001830
3912.000000	0.001846
3911.000000	0.001867
3910.000000	0.001886
3909.000000	0.001894
3908.000000	0.001896
3907.000000	0.001896
3906.000000	0.001897
3905.000000	0.001894
3904.000000	0.001876
3903.000000	0.001843
3902.000000	0.001805
3901.000000	0.001777
3900.000000	0.001768
3899.000000	0.001781
3898.000000	0.001811
3897.000000	0.001845
3896.000000	0.001869
3895.000000	0.001874
3894.000000	0.001863
3893.000000	0.001851
3892.000000	0.001856
3891.000000	0.001876
3890.000000	0.001900
3889.000000	0.001918
3888.000000	0.001924
3887.000000	0.001917
3886.000000	0.001899
3885.000000	0.001881
3884.000000	0.001870
3883.000000	0.001869
3882.000000	0.001876
3881.000000	0.001883
3880.000000	0.001885
3879.000000	0.001882
3878.000000	0.001880
3877.000000	0.001881
3876.000000	0.001882
3875.000000	0.001886
3874.000000	0.001893
3873.000000	0.001896
3872.000000	0.001882
3871.000000	0.001853
3870.000000	0.001826
3869.000000	0.001818
3868.000000	0.001831
3867.000000	0.001854
3866.000000	0.001875
3865.000000	0.001895
3864.000000	0.001916
3863.000000	0.001935
3862.000000	0.001948
3861.000000	0.001951
3860.000000	0.001949
3859.000000	0.001949
3858.000000	0.001954
3857.000000	0.001955
3856.000000	0.001938
3855.000000	0.001898
3854.000000	0.001856
3853.000000	0.001835
3852.000000	0.001829
3851.000000	0.001835
3850.000000	0.001846
3849.000000	0.001857
3848.000000	0.001865
3847.000000	0.001875
3846.000000	0.001893
3845.000000	0.001918
3844.000000	0.001938
3843.000000	0.001943
3842.000000	0.001935
3841.000000	0.001931
3840.000000	0.001944
3839.000000	0.001971
3838.000000	0.001991
3837.000000	0.001994
3836.000000	0.001986
3835.000000	0.001982
3834.000000	0.001980
3833.000000	0.001972
3832.000000	0.001952
3831.000000	0.001921
3830.000000	0.001889
3829.000000	0.001862
3828.000000	0.001843
3827.000000	0.001838
3826.000000	0.001855
3825.000000	0.001893
3824.000000	0.001941
3823.000000	0.001984
3822.000000	0.002014
3821.000000	0.002029
3820.000000	0.002028
3819.000000	0.002019
3818.000000	0.002006
3817.000000	0.001984
3816.000000	0.001952
3815.000000	0.001923
3814.000000	0.001910
3813.000000	0.001913
3812.000000	0.001924
3811.000000	0.001931
3810.000000	0.001926
3809.000000	0.001907
3808.000000	0.001887
3807.000000	0.001880
3806.000000	0.001894
3805.000000	0.001925
3804.000000	0.001963
3803.000000	0.002004
3802.000000	0.002040
3801.000000	0.002055
3800.000000	0.002034
3799.000000	0.001984
3798.000000	0.001922
3797.000000	0.001857
3796.000000	0.001797
3795.000000	0.001748
3794.000000	0.001717
3793.000000	0.001706
3792.000000	0.001711
3791.000000	0.001728
3790.000000	0.001752
3789.000000	0.001784
3788.000000	0.001827
3787.000000	0.001879
3786.000000	0.001925
3785.000000	0.001948
3784.000000	0.001944
3783.000000	0.001924
3782.000000	0.001907
3781.000000	0.001899
3780.000000	0.001900
3779.000000	0.001901
3778.000000	0.001895
3777.000000	0.001884
3776.000000	0.001871
3775.000000	0.001857
3774.000000	0.001842
3773.000000	0.001826
3772.000000	0.001809
3771.000000	0.001800
3770.000000	0.001804
3769.000000	0.001814
3768.000000	0.001817
3767.000000	0.001812
3766.000000	0.001808
3765.000000	0.001810
3764.000000	0.001816
3763.000000	0.001818
3762.000000	0.001807
3761.000000	0.001787
3760.000000	0.001772
3759.000000	0.001772
3758.000000	0.001792
3757.000000	0.001824
3756.000000	0.001858
3755.000000	0.001885
3754.000000	0.001902
3753.000000	0.001917
3752.000000	0.001930
3751.000000	0.001922
3750.000000	0.001872
3749.000000	0.001802
3748.000000	0.001757
3747.000000	0.001754
3746.000000	0.001784
3745.000000	0.001825
3744.000000	0.001857
3743.000000	0.001878
3742.000000	0.001904
3741.000000	0.001933
3740.000000	0.001953
3739.000000	0.001952
3738.000000	0.001926
3737.000000	0.001883
3736.000000	0.001846
3735.000000	0.001830
3734.000000	0.001830
3733.000000	0.001833
3732.000000	0.001831
3731.000000	0.001826
3730.000000	0.001826
3729.000000	0.001836
3728.000000	0.001857
3727.000000	0.001881
3726.000000	0.001897
3725.000000	0.001896
3724.000000	0.001881
3723.000000	0.001861
3722.000000	0.001845
3721.000000	0.001836
3720.000000	0.001833
3719.000000	0.001833
3718.000000	0.001836
3717.000000	0.001841
3716.000000	0.001845
3715.000000	0.001846
3714.000000	0.001846
3713.000000	0.001858
3712.000000	0.001883
3711.000000	0.001897
3710.000000	0.001872
3709.000000	0.001809
3708.000000	0.001741
3707.000000	0.001698
3706.000000	0.001691
3705.000000	0.001713
3704.000000	0.001749
3703.000000	0.001786
3702.000000	0.001815
3701.000000	0.001831
3700.000000	0.001837
3699.000000	0.001839
3698.000000	0.001838
3697.000000	0.001830
3696.000000	0.001811
3695.000000	0.001781
3694.000000	0.001751
3693.000000	0.001729
3692.000000	0.001722
3691.000000	0.001724
3690.000000	0.001735
3689.000000	0.001758
3688.000000	0.001796
3687.000000	0.001838
3686.000000	0.001871
3685.000000	0.001887
3684.000000	0.001887
3683.000000	0.001881
3682.000000	0.001874
3681.000000	0.001866
3680.000000	0.001852
3679.000000	0.001824
3678.000000	0.001779
3677.000000	0.001736
3676.000000	0.001731
3675.000000	0.001767
3674.000000	0.001808
3673.000000	0.001830
3672.000000	0.001827
3671.000000	0.001800
3670.000000	0.001768
3669.000000	0.001746
3668.000000	0.001745
3667.000000	0.001762
3666.000000	0.001791
3665.000000	0.001823
3664.000000	0.001852
3663.000000	0.001876
3662.000000	0.001887
3661.000000	0.001880
3660.000000	0.001863
3659.000000	0.001851
3658.000000	0.001856
3657.000000	0.001884
3656.000000	0.001921
3655.000000	0.001946
3654.000000	0.001949
3653.000000	0.001927
3652.000000	0.001892
3651.000000	0.001868
3650.000000	0.001881
3649.000000	0.001921
3648.000000	0.001948
3647.000000	0.001948
3646.000000	0.001938
3645.000000	0.001936
3644.000000	0.001953
3643.000000	0.001989
3642.000000	0.002043
3641.000000	0.002104
3640.000000	0.002152
3639.000000	0.002173
3638.000000	0.002161
3637.000000	0.002130
3636.000000	0.002101
3635.000000	0.002091
3634.000000	0.002105
3633.000000	0.002131
3632.000000	0.002149
3631.000000	0.002159
3630.000000	0.002177
3629.000000	0.002222
3628.000000	0.002276
3627.000000	0.002313
3626.000000	0.002337
3625.000000	0.002358
3624.000000	0.002379
3623.000000	0.002398
3622.000000	0.002409
3621.000000	0.002405
3620.000000	0.002387
3619.000000	0.002360
3618.000000	0.002330
3617.000000	0.002301
3616.000000	0.002274
3615.000000	0.002248
3614.000000	0.002228
3613.000000	0.002221
3612.000000	0.002232
3611.000000	0.002261
3610.000000	0.002303
3609.000000	0.002349
3608.000000	0.002391
3607.000000	0.002419
3606.000000	0.002437
3605.000000	0.002453
3604.000000	0.002481
3603.000000	0.002531
3602.000000	0.002602
3601.000000	0.002678
3600.000000	0.002735
3599.000000	0.002758
3598.000000	0.002752
3597.000000	0.002733
3596.000000	0.002723
3595.000000	0.002731
3594.000000	0.002753
3593.000000	0.002774
3592.000000	0.002782
3591.000000	0.002781
3590.000000	0.002786
3589.000000	0.002815
3588.000000	0.002869
3587.000000	0.002918
3586.000000	0.002934
3585.000000	0.002924
3584.000000	0.002917
3583.000000	0.002933
3582.000000	0.002974
3581.000000	0.003024
3580.000000	0.003057
3579.000000	0.003058
3578.000000	0.003032
3577.000000	0.003002
3576.000000	0.002994
3575.000000	0.003018
3574.000000	0.003067
3573.000000	0.003124
3572.000000	0.003174
3571.000000	0.003211
3570.000000	0.003236
3569.000000	0.003256
3568.000000	0.003281
3567.000000	0.003318
3566.000000	0.003361
3565.000000	0.003408
3564.000000	0.003457
3563.000000	0.003509
3562.000000	0.003559
3561.000000	0.003601
3560.000000	0.003632
3559.000000	0.003657
3558.000000	0.003687
3557.000000	0.003726
3556.000000	0.003766
3555.000000	0.003795
3554.000000	0.003807
3553.000000	0.003807
3552.000000	0.003804
3551.000000	0.003804
3550.000000	0.003811
3549.000000	0.003827
3548.000000	0.003854
3547.000000	0.003895
3546.000000	0.003950
3545.000000	0.004009
3544.000000	0.004063
3543.000000	0.004103
3542.000000	0.004129
3541.000000	0.004145
3540.000000	0.004156
3539.000000	0.004164
3538.000000	0.004170
3537.000000	0.004176
3536.000000	0.004187
3535.000000	0.004205
3534.000000	0.004226
3533.000000	0.004244
3532.000000	0.004258
3531.000000	0.004273
3530.000000	0.004297
3529.000000	0.004324
3528.000000	0.004342
3527.000000	0.004344
3526.000000	0.004343
3525.000000	0.004353
3524.000000	0.004373
3523.000000	0.004389
3522.000000	0.004391
3521.000000	0.004386
3520.000000	0.004386
3519.000000	0.004398
3518.000000	0.004419
3517.000000	0.004440
3516.000000	0.004450
3515.000000	0.004449
3514.000000	0.004440
3513.000000	0.004435
3512.000000	0.004441
3511.000000	0.004455
3510.000000	0.004471
3509.000000	0.004481
3508.000000	0.004482
3507.000000	0.004478
3506.000000	0.004478
3505.000000	0.004487
3504.000000	0.004503
3503.000000	0.004520
3502.000000	0.004533
3501.000000	0.004546
3500.000000	0.004562
3499.000000	0.004579
3498.000000	0.004593
3497.000000	0.004602
3496.000000	0.004611
3495.000000	0.004619
3494.000000	0.004624
3493.000000	0.004618
3492.000000	0.004604
3491.000000	0.004594
3490.000000	0.004597
3489.000000	0.004613
3488.000000	0.004636
3487.000000	0.004662
3486.000000	0.004686
3485.000000	0.004706
3484.000000	0.004718
3483.000000	0.004722
3482.000000	0.004725
3481.000000	0.004731
3480.000000	0.004742
3479.000000	0.004750
3478.000000	0.004753
3477.000000	0.004752
3476.000000	0.004756
3475.000000	0.004770
3474.000000	0.004794
3473.000000	0.004821
3472.000000	0.004846
3471.000000	0.004863
3470.000000	0.004872
3469.000000	0.004874
3468.000000	0.004869
3467.000000	0.004863
3466.000000	0.004860
3465.000000	0.004861
3464.000000	0.004861
3463.000000	0.004855
3462.000000	0.004850
3461.000000	0.004858
3460.000000	0.004884
3459.000000	0.004920
3458.000000	0.004952
3457.000000	0.004972
3456.000000	0.004977
3455.000000	0.004974
3454.000000	0.004969
3453.000000	0.004968
3452.000000	0.004976
3451.000000	0.004995
3450.000000	0.005019
3449.000000	0.005044
3448.000000	0.005064
3447.000000	0.005078
3446.000000	0.005090
3445.000000	0.005104
3444.000000	0.005125
3443.000000	0.005147
3442.000000	0.005165
3441.000000	0.005177
3440.000000	0.005185
3439.000000	0.005196
3438.000000	0.005218
3437.000000	0.005257
3436.000000	0.005308
3435.000000	0.005357
3434.000000	0.005390
3433.000000	0.005401
3432.000000	0.005400
3431.000000	0.005401
3430.000000	0.005415
3429.000000	0.005444
3428.000000	0.005483
3427.000000	0.005521
3426.000000	0.005549
3425.000000	0.005563
3424.000000	0.005570
3423.000000	0.005583
3422.000000	0.005606
3421.000000	0.005638
3420.000000	0.005671
3419.000000	0.005704
3418.000000	0.005736
3417.000000	0.005769
3416.000000	0.005802
3415.000000	0.005834
3414.000000	0.005866
3413.000000	0.005894
3412.000000	0.005916
3411.000000	0.005931
3410.000000	0.005945
3409.000000	0.005965
3408.000000	0.005996
3407.000000	0.006038
3406.000000	0.006086
3405.000000	0.006134
3404.000000	0.006175
3403.000000	0.006210
3402.000000	0.006238
3401.000000	0.006256
3400.000000	0.006259
3399.000000	0.006250
3398.000000	0.006234
3397.000000	0.006216
3396.000000	0.006200
3395.000000	0.006188
3394.000000	0.006187
3393.000000	0.006203
3392.000000	0.006230
3391.000000	0.006254
3390.000000	0.006265
3389.000000	0.006260
3388.000000	0.006242
3387.000000	0.006223
3386.000000	0.006214
3385.000000	0.006218
3384.000000	0.006229
3383.000000	0.006237
3382.000000	0.006239
3381.000000	0.006233
3380.000000	0.006214
3379.000000	0.006179
3378.000000	0.006139
3377.000000	0.006113
3376.000000	0.006113
3375.000000	0.006130
3374.000000	0.006150
3373.000000	0.006161
3372.000000	0.006166
3371.000000	0.006171
3370.000000	0.006183
3369.000000	0.006207
3368.000000	0.006243
3367.000000	0.006280
3366.000000	0.006306
3365.000000	0.006310
3364.000000	0.006297
3363.000000	0.006279
3362.000000	0.006270
3361.000000	0.006276
3360.000000	0.006288
3359.000000	0.006296
3358.000000	0.006295
3357.000000	0.006285
3356.000000	0.006267
3355.000000	0.006246
3354.000000	0.006228
3353.000000	0.006226
3352.000000	0.006241
3351.000000	0.006263
3350.000000	0.006278
3349.000000	0.006288
3348.000000	0.006301
3347.000000	0.006318
3346.000000	0.006327
3345.000000	0.006320
3344.000000	0.006308
3343.000000	0.006308
3342.000000	0.006330
3341.000000	0.006367
3340.000000	0.006398
3339.000000	0.006412
3338.000000	0.006410
3337.000000	0.006404
3336.000000	0.006400
3335.000000	0.006400
3334.000000	0.006402
3333.000000	0.006403
3332.000000	0.006406
3331.000000	0.006406
3330.000000	0.006399
3329.000000	0.006389
3328.000000	0.006385
3327.000000	0.006397
3326.000000	0.006425
3325.000000	0.006463
3324.000000	0.006500
3323.000000	0.006526
3322.000000	0.006536
3321.000000	0.006531
3320.000000	0.006522
3319.000000	0.006518
3318.000000	0.006526
3317.000000	0.006541
3316.000000	0.006560
3315.000000	0.006577
3314.000000	0.006592
3313.000000	0.006604
3312.000000	0.006613
3311.000000	0.006618
3310.000000	0.006614
3309.000000	0.006596
3308.000000	0.006565
3307.000000	0.006531
3306.000000	0.006510
3305.000000	0.006509
3304.000000	0.006523
3303.000000	0.006539
3302.000000	0.006547
3301.000000	0.006550
3300.000000	0.006554
3299.000000	0.006559
3298.000000	0.006566
3297.000000	0.006573
3296.000000	0.006581
3295.000000	0.006592
3294.000000	0.006605
3293.000000	0.006612
3292.000000	0.006609
3291.000000	0.006594
3290.000000	0.006577
3289.000000	0.006572
3288.000000	0.006582
3287.000000	0.006601
3286.000000	0.006622
3285.000000	0.006641
3284.000000	0.006656
3283.000000	0.006658
3282.000000	0.006639
3281.000000	0.006604
3280.000000	0.006573
3279.000000	0.006558
3278.000000	0.006556
3277.000000	0.006555
3276.000000	0.006550
3275.000000	0.006539
3274.000000	0.006522
3273.000000	0.006502
3272.000000	0.006481
3271.000000	0.006465
3270.000000	0.006453
3269.000000	0.006441
3268.000000	0.006426
3267.000000	0.006414
3266.000000	0.006412
3265.000000	0.006425
3264.000000	0.006448
3263.000000	0.006473
3262.000000	0.006493
3261.000000	0.006505
3260.000000	0.006505
3259.000000	0.006488
3258.000000	0.006456
3257.000000	0.006417
3256.000000	0.006383
3255.000000	0.006364
3254.000000	0.006361
3253.000000	0.006371
3252.000000	0.006383
3251.000000	0.006391
3250.000000	0.006392
3249.000000	0.006386
3248.000000	0.006378
3247.000000	0.006371
3246.000000	0.006367
3245.000000	0.006370
3244.000000	0.006384
3243.000000	0.006403
3242.000000	0.006421
3241.000000	0.006428
3240.000000	0.006419
3239.000000	0.006395
3238.000000	0.006361
3237.000000	0.006329
3236.000000	0.006312
3235.000000	0.006314
3234.000000	0.006330
3233.000000	0.006351
3232.000000	0.006364
3231.000000	0.006363
3230.000000	0.006348
3229.000000	0.006323
3228.000000	0.006296
3227.000000	0.006269
3226.000000	0.006238
3225.000000	0.006202
3224.000000	0.006169
3223.000000	0.006146
3222.000000	0.006137
3221.000000	0.006139
3220.000000	0.006144
3219.000000	0.006144
3218.000000	0.006136
3217.000000	0.006122
3216.000000	0.006109
3215.000000	0.006103
3214.000000	0.006105
3213.000000	0.006106
3212.000000	0.006099
3211.000000	0.006082
3210.000000	0.006061
3209.000000	0.006045
3208.000000	0.006041
3207.000000	0.006049
3206.000000	0.006058
3205.000000	0.006060
3204.000000	0.006056
3203.000000	0.006046
3202.000000	0.006031
3201.000000	0.006011
3200.000000	0.005986
3199.000000	0.005959
3198.000000	0.005932
3197.000000	0.005910
3196.000000	0.005898
3195.000000	0.005898
3194.000000	0.005899
3193.000000	0.005892
3192.000000	0.005873
3191.000000	0.005848
3190.000000	0.005825
3189.000000	0.005804
3188.000000	0.005784
3187.000000	0.005769
3186.000000	0.005768
3185.000000	0.005786
3184.000000	0.005815
3183.000000	0.005842
3182.000000	0.005851
3181.000000	0.005836
3180.000000	0.005810
3179.000000	0.005788
3178.000000	0.005779
3177.000000	0.005776
3176.000000	0.005771
3175.000000	0.005766
3174.000000	0.005763
3173.000000	0.005759
3172.000000	0.005747
3171.000000	0.005721
3170.000000	0.005683
3169.000000	0.005642
3168.000000	0.005611
3167.000000	0.005604
3166.000000	0.005615
3165.000000	0.005621
3164.000000	0.005601
3163.000000	0.005559
3162.000000	0.005522
3161.000000	0.005510
3160.000000	0.005518
3159.000000	0.005527
3158.000000	0.005521
3157.000000	0.005501
3156.000000	0.005474
3155.000000	0.005444
3154.000000	0.005413
3153.000000	0.005382
3152.000000	0.005355
3151.000000	0.005337
3150.000000	0.005331
3149.000000	0.005334
3148.000000	0.005338
3147.000000	0.005332
3146.000000	0.005316
3145.000000	0.005298
3144.000000	0.005292
3143.000000	0.005300
3142.000000	0.005309
3141.000000	0.005309
3140.000000	0.005300
3139.000000	0.005288
3138.000000	0.005277
3137.000000	0.005264
3136.000000	0.005250
3135.000000	0.005238
3134.000000	0.005225
3133.000000	0.005202
3132.000000	0.005162
3131.000000	0.005115
3130.000000	0.005077
3129.000000	0.005060
3128.000000	0.005066
3127.000000	0.005088
3126.000000	0.005115
3125.000000	0.005137
3124.000000	0.005142
3123.000000	0.005133
3122.000000	0.005118
3121.000000	0.005104
3120.000000	0.005099
3119.000000	0.005104
3118.000000	0.005112
3117.000000	0.005114
3116.000000	0.005101
3115.000000	0.005076
3114.000000	0.005054
3113.000000	0.005041
3112.000000	0.005038
3111.000000	0.005039
3110.000000	0.005037
3109.000000	0.005031
3108.000000	0.005025
3107.000000	0.005027
3106.000000	0.005042
3105.000000	0.005057
3104.000000	0.005057
3103.000000	0.005038
3102.000000	0.005017
3101.000000	0.005008
3100.000000	0.005012
3099.000000	0.005022
3098.000000	0.005030
3097.000000	0.005034
3096.000000	0.005028
3095.000000	0.005012
3094.000000	0.004992
3093.000000	0.004979
3092.000000	0.004977
3091.000000	0.004984
3090.000000	0.004998
3089.000000	0.005021
3088.000000	0.005051
3087.000000	0.005079
3086.000000	0.005099
3085.000000	0.005110
3084.000000	0.005110
3083.000000	0.005097
3082.000000	0.005069
3081.000000	0.005034
3080.000000	0.005002
3079.000000	0.004981
3078.000000	0.004977
3077.000000	0.004988
3076.000000	0.005006
3075.000000	0.005021
3074.000000	0.005029
3073.000000	0.005029
3072.000000	0.005024
3071.000000	0.005015
3070.000000	0.005005
3069.000000	0.004995
3068.000000	0.004989
3067.000000	0.004988
3066.000000	0.004987
3065.000000	0.004980
3064.000000	0.004970
3063.000000	0.004964
3062.000000	0.004962
3061.000000	0.004961
3060.000000	0.004950
3059.000000	0.004928
3058.000000	0.004904
3057.000000	0.004893
3056.000000	0.004893
3055.000000	0.004892
3054.000000	0.004882
3053.000000	0.004868
3052.000000	0.004860
3051.000000	0.004862
3050.000000	0.004862
3049.000000	0.004848
3048.000000	0.004814
3047.000000	0.004770
3046.000000	0.004736
3045.000000	0.004725
3044.000000	0.004737
3043.000000	0.004757
3042.000000	0.004769
3041.000000	0.004766
3040.000000	0.004756
3039.000000	0.004750
3038.000000	0.004751
3037.000000	0.004756
3036.000000	0.004759
3035.000000	0.004758
3034.000000	0.004754
3033.000000	0.004748
3032.000000	0.004736
3031.000000	0.004709
3030.000000	0.004672
3029.000000	0.004638
3028.000000	0.004618
3027.000000	0.004610
3026.000000	0.004604
3025.000000	0.004594
3024.000000	0.004581
3023.000000	0.004573
3022.000000	0.004577
3021.000000	0.004593
3020.000000	0.004614
3019.000000	0.004625
3018.000000	0.004616
3017.000000	0.004584
3016.000000	0.004539
3015.000000	0.004500
3014.000000	0.004479
3013.000000	0.004479
3012.000000	0.004498
3011.000000	0.004531
3010.000000	0.004574
3009.000000	0.004616
3008.000000	0.004643
3007.000000	0.004654
3006.000000	0.004651
3005.000000	0.004642
3004.000000	0.004629
3003.000000	0.004613
3002.000000	0.004603
3001.000000	0.004607
3000.000000	0.004623
2999.000000	0.004639
2998.000000	0.004646
2997.000000	0.004646
2996.000000	0.004650
2995.000000	0.004663
2994.000000	0.004683
2993.000000	0.004704
2992.000000	0.004727
2991.000000	0.004758
2990.000000	0.004796
2989.000000	0.004840
2988.000000	0.004883
2987.000000	0.004921
2986.000000	0.004954
2985.000000	0.004983
2984.000000	0.005014
2983.000000	0.005052
2982.000000	0.005101
2981.000000	0.005161
2980.000000	0.005231
2979.000000	0.005304
2978.000000	0.005369
2977.000000	0.005418
2976.000000	0.005457
2975.000000	0.005505
2974.000000	0.005577
2973.000000	0.005674
2972.000000	0.005781
2971.000000	0.005885
2970.000000	0.005982
2969.000000	0.006081
2968.000000	0.006187
2967.000000	0.006298
2966.000000	0.006408
2965.000000	0.006513
2964.000000	0.006608
2963.000000	0.006689
2962.000000	0.006753
2961.000000	0.006800
2960.000000	0.006834
2959.000000	0.006860
2958.000000	0.006877
2957.000000	0.006882
2956.000000	0.006874
2955.000000	0.006858
2954.000000	0.006841
2953.000000	0.006823
2952.000000	0.006797
2951.000000	0.006761
2950.000000	0.006723
2949.000000	0.006697
2948.000000	0.006699
2947.000000	0.006731
2946.000000	0.006779
2945.000000	0.006820
2944.000000	0.006837
2943.000000	0.006837
2942.000000	0.006844
2941.000000	0.006886
2940.000000	0.006969
2939.000000	0.007085
2938.000000	0.007212
2937.000000	0.007332
2936.000000	0.007437
2935.000000	0.007529
2934.000000	0.007615
2933.000000	0.007703
2932.000000	0.007788
2931.000000	0.007863
2930.000000	0.007924
2929.000000	0.007974
2928.000000	0.008020
2927.000000	0.008058
2926.000000	0.008077
2925.000000	0.008071
2924.000000	0.008045
2923.000000	0.008008
2922.000000	0.007967
2921.000000	0.007924
2920.000000	0.007879
2919.000000	0.007831
2918.000000	0.007772
2917.000000	0.007691
2916.000000	0.007589
2915.000000	0.007475
2914.000000	0.007360
2913.000000	0.007244
2912.000000	0.007124
2911.000000	0.007008
2910.000000	0.006907
2909.000000	0.006827
2908.000000	0.006759
2907.000000	0.006692
2906.000000	0.006625
2905.000000	0.006562
2904.000000	0.006509
2903.000000	0.006464
2902.000000	0.006422
2901.000000	0.006370
2900.000000	0.006298
2899.000000	0.006204
2898.000000	0.006105
2897.000000	0.006016
2896.000000	0.005947
2895.000000	0.005895
2894.000000	0.005848
2893.000000	0.005800
2892.000000	0.005748
2891.000000	0.005699
2890.000000	0.005655
2889.000000	0.005618
2888.000000	0.005590
2887.000000	0.005575
2886.000000	0.005579
2885.000000	0.005594
2884.000000	0.005604
2883.000000	0.005602
2882.000000	0.005602
2881.000000	0.005624
2880.000000	0.005676
2879.000000	0.005745
2878.000000	0.005812
2877.000000	0.005858
2876.000000	0.005883
2875.000000	0.005899
2874.000000	0.005921
2873.000000	0.005951
2872.000000	0.005974
2871.000000	0.005978
2870.000000	0.005966
2869.000000	0.005952
2868.000000	0.005949
2867.000000	0.005956
2866.000000	0.005974
2865.000000	0.006001
2864.000000	0.006040
2863.000000	0.006083
2862.000000	0.006125
2861.000000	0.006161
2860.000000	0.006189
2859.000000	0.006210
2858.000000	0.006230
2857.000000	0.006249
2856.000000	0.006257
2855.000000	0.006246
2854.000000	0.006216
2853.000000	0.006177
2852.000000	0.006133
2851.000000	0.006080
2850.000000	0.006015
2849.000000	0.005937
2848.000000	0.005845
2847.000000	0.005733
2846.000000	0.005599
2845.000000	0.005463
2844.000000	0.005350
2843.000000	0.005268
2842.000000	0.005207
2841.000000	0.005147
2840.000000	0.005077
2839.000000	0.005006
2838.000000	0.004949
2837.000000	0.004913
2836.000000	0.004887
2835.000000	0.004851
2834.000000	0.004794
2833.000000	0.004727
2832.000000	0.004671
2831.000000	0.004639
2830.000000	0.004630
2829.000000	0.004633
2828.000000	0.004639
2827.000000	0.004638
2826.000000	0.004625
2825.000000	0.004604
2824.000000	0.004585
2823.000000	0.004574
2822.000000	0.004567
2821.000000	0.004558
2820.000000	0.004541
2819.000000	0.004518
2818.000000	0.004495
2817.000000	0.004477
2816.000000	0.004464
2815.000000	0.004452
2814.000000	0.004437
2813.000000	0.004423
2812.000000	0.004414
2811.000000	0.004408
2810.000000	0.004395
2809.000000	0.004370
2808.000000	0.004341
2807.000000	0.004322
2806.000000	0.004320
2805.000000	0.004328
2804.000000	0.004332
2803.000000	0.004323
2802.000000	0.004307
2801.000000	0.004294
2800.000000	0.004287
2799.000000	0.004283
2798.000000	0.004279
2797.000000	0.004275
2796.000000	0.004273
2795.000000	0.004269
2794.000000	0.004258
2793.000000	0.004246
2792.000000	0.004240
2791.000000	0.004240
2790.000000	0.004242
2789.000000	0.004241
2788.000000	0.004236
2787.000000	0.004231
2786.000000	0.004231
2785.000000	0.004236
2784.000000	0.004239
2783.000000	0.004228
2782.000000	0.004194
2781.000000	0.004145
2780.000000	0.004100
2779.000000	0.004073
2778.000000	0.004070
2777.000000	0.004082
2776.000000	0.004099
2775.000000	0.004112
2774.000000	0.004116
2773.000000	0.004114
2772.000000	0.004111
2771.000000	0.004103
2770.000000	0.004088
2769.000000	0.004074
2768.000000	0.004077
2767.000000	0.004100
2766.000000	0.004131
2765.000000	0.004151
2764.000000	0.004152
2763.000000	0.004143
2762.000000	0.004136
2761.000000	0.004138
2760.000000	0.004149
2759.000000	0.004158
2758.000000	0.004149
2757.000000	0.004118
2756.000000	0.004078
2755.000000	0.004046
2754.000000	0.004029
2753.000000	0.004027
2752.000000	0.004037
2751.000000	0.004058
2750.000000	0.004083
2749.000000	0.004105
2748.000000	0.004120
2747.000000	0.004132
2746.000000	0.004140
2745.000000	0.004140
2744.000000	0.004128
2743.000000	0.004113
2742.000000	0.004100
2741.000000	0.004088
2740.000000	0.004075
2739.000000	0.004062
2738.000000	0.004052
2737.000000	0.004041
2736.000000	0.004026
2735.000000	0.004013
2734.000000	0.004017
2733.000000	0.004037
2732.000000	0.004058
2731.000000	0.004062
2730.000000	0.004044
2729.000000	0.004014
2728.000000	0.003987
2727.000000	0.003976
2726.000000	0.003990
2725.000000	0.004024
2724.000000	0.004059
2723.000000	0.004076
2722.000000	0.004070
2721.000000	0.004048
2720.000000	0.004020
2719.000000	0.003992
2718.000000	0.003973
2717.000000	0.003966
2716.000000	0.003970
2715.000000	0.003977
2714.000000	0.003981
2713.000000	0.003980
2712.000000	0.003976
2711.000000	0.003967
2710.000000	0.003952
2709.000000	0.003935
2708.000000	0.003928
2707.000000	0.003938
2706.000000	0.003964
2705.000000	0.003994
2704.000000	0.004010
2703.000000	0.004001
2702.000000	0.003971
2701.000000	0.003937
2700.000000	0.003915
2699.000000	0.003908
2698.000000	0.003909
2697.000000	0.003913
2696.000000	0.003920
2695.000000	0.003929
2694.000000	0.003934
2693.000000	0.003929
2692.000000	0.003919
2691.000000	0.003915
2690.000000	0.003923
2689.000000	0.003933
2688.000000	0.003932
2687.000000	0.003918
2686.000000	0.003904
2685.000000	0.003903
2684.000000	0.003915
2683.000000	0.003929
2682.000000	0.003933
2681.000000	0.003928
2680.000000	0.003925
2679.000000	0.003934
2678.000000	0.003948
2677.000000	0.003954
2676.000000	0.003944
2675.000000	0.003921
2674.000000	0.003893
2673.000000	0.003867
2672.000000	0.003845
2671.000000	0.003833
2670.000000	0.003836
2669.000000	0.003854
2668.000000	0.003877
2667.000000	0.003894
2666.000000	0.003900
2665.000000	0.003900
2664.000000	0.003901
2663.000000	0.003909
2662.000000	0.003921
2661.000000	0.003930
2660.000000	0.003929
2659.000000	0.003925
2658.000000	0.003927
2657.000000	0.003938
2656.000000	0.003949
2655.000000	0.003952
2654.000000	0.003942
2653.000000	0.003924
2652.000000	0.003900
2651.000000	0.003876
2650.000000	0.003856
2649.000000	0.003844
2648.000000	0.003838
2647.000000	0.003833
2646.000000	0.003829
2645.000000	0.003826
2644.000000	0.003822
2643.000000	0.003810
2642.000000	0.003794
2641.000000	0.003785
2640.000000	0.003795
2639.000000	0.003824
2638.000000	0.003858
2637.000000	0.003879
2636.000000	0.003876
2635.000000	0.003855
2634.000000	0.003835
2633.000000	0.003829
2632.000000	0.003832
2631.000000	0.003824
2630.000000	0.003799
2629.000000	0.003771
2628.000000	0.003762
2627.000000	0.003772
2626.000000	0.003783
2625.000000	0.003778
2624.000000	0.003754
2623.000000	0.003723
2622.000000	0.003696
2621.000000	0.003671
2620.000000	0.003639
2619.000000	0.003598
2618.000000	0.003560
2617.000000	0.003549
2616.000000	0.003571
2615.000000	0.003605
2614.000000	0.003621
2613.000000	0.003603
2612.000000	0.003564
2611.000000	0.003532
2610.000000	0.003528
2609.000000	0.003552
2608.000000	0.003584
2607.000000	0.003607
2606.000000	0.003616
2605.000000	0.003621
2604.000000	0.003628
2603.000000	0.003629
2602.000000	0.003618
2601.000000	0.003595
2600.000000	0.003566
2599.000000	0.003534
2598.000000	0.003498
2597.000000	0.003462
2596.000000	0.003435
2595.000000	0.003422
2594.000000	0.003424
2593.000000	0.003443
2592.000000	0.003479
2591.000000	0.003524
2590.000000	0.003562
2589.000000	0.003580
2588.000000	0.003578
2587.000000	0.003567
2586.000000	0.003557
2585.000000	0.003554
2584.000000	0.003553
2583.000000	0.003542
2582.000000	0.003510
2581.000000	0.003462
2580.000000	0.003412
2579.000000	0.003370
2578.000000	0.003342
2577.000000	0.003329
2576.000000	0.003335
2575.000000	0.003362
2574.000000	0.003405
2573.000000	0.003448
2572.000000	0.003469
2571.000000	0.003453
2570.000000	0.003406
2569.000000	0.003355
2568.000000	0.003331
2567.000000	0.003343
2566.000000	0.003372
2565.000000	0.003391
2564.000000	0.003388
2563.000000	0.003370
2562.000000	0.003352
2561.000000	0.003341
2560.000000	0.003335
2559.000000	0.003326
2558.000000	0.003309
2557.000000	0.003290
2556.000000	0.003281
2555.000000	0.003292
2554.000000	0.003325
2553.000000	0.003365
2552.000000	0.003396
2551.000000	0.003409
2550.000000	0.003402
2549.000000	0.003379
2548.000000	0.003343
2547.000000	0.003306
2546.000000	0.003285
2545.000000	0.003290
2544.000000	0.003310
2543.000000	0.003324
2542.000000	0.003329
2541.000000	0.003345
2540.000000	0.003387
2539.000000	0.003442
2538.000000	0.003481
2537.000000	0.003484
2536.000000	0.003458
2535.000000	0.003420
2534.000000	0.003386
2533.000000	0.003363
2532.000000	0.003351
2531.000000	0.003346
2530.000000	0.003339
2529.000000	0.003328
2528.000000	0.003318
2527.000000	0.003311
2526.000000	0.003307
2525.000000	0.003306
2524.000000	0.003308
2523.000000	0.003312
2522.000000	0.003319
2521.000000	0.003327
2520.000000	0.003340
2519.000000	0.003360
2518.000000	0.003380
2517.000000	0.003387
2516.000000	0.003372
2515.000000	0.003336
2514.000000	0.003294
2513.000000	0.003275
2512.000000	0.003288
2511.000000	0.003317
2510.000000	0.003334
2509.000000	0.003335
2508.000000	0.003341
2507.000000	0.003364
2506.000000	0.003401
2505.000000	0.003442
2504.000000	0.003482
2503.000000	0.003514
2502.000000	0.003518
2501.000000	0.003481
2500.000000	0.003413
2499.000000	0.003343
2498.000000	0.003293
2497.000000	0.003269
2496.000000	0.003271
2495.000000	0.003297
2494.000000	0.003331
2493.000000	0.003346
2492.000000	0.003329
2491.000000	0.003282
2490.000000	0.003219
2489.000000	0.003152
2488.000000	0.003102
2487.000000	0.003089
2486.000000	0.003119
2485.000000	0.003172
2484.000000	0.003221
2483.000000	0.003251
2482.000000	0.003263
2481.000000	0.003266
2480.000000	0.003268
2479.000000	0.003275
2478.000000	0.003290
2477.000000	0.003301
2476.000000	0.003294
2475.000000	0.003263
2474.000000	0.003225
2473.000000	0.003210
2472.000000	0.003237
2471.000000	0.003306
2470.000000	0.003389
2469.000000	0.003451
2468.000000	0.003471
2467.000000	0.003450
2466.000000	0.003408
2465.000000	0.003364
2464.000000	0.003323
2463.000000	0.003282
2462.000000	0.003237
2461.000000	0.003195
2460.000000	0.003170
2459.000000	0.003170
2458.000000	0.003189
2457.000000	0.003210
2456.000000	0.003226
2455.000000	0.003241
2454.000000	0.003258
2453.000000	0.003273
2452.000000	0.003277
2451.000000	0.003265
2450.000000	0.003241
2449.000000	0.003212
2448.000000	0.003192
2447.000000	0.003188
2446.000000	0.003194
2445.000000	0.003194
2444.000000	0.003183
2443.000000	0.003173
2442.000000	0.003183
2441.000000	0.003218
2440.000000	0.003265
2439.000000	0.003301
2438.000000	0.003309
2437.000000	0.003283
2436.000000	0.003231
2435.000000	0.003178
2434.000000	0.003149
2433.000000	0.003150
2432.000000	0.003167
2431.000000	0.003185
2430.000000	0.003197
2429.000000	0.003206
2428.000000	0.003212
2427.000000	0.003213
2426.000000	0.003209
2425.000000	0.003196
2424.000000	0.003176
2423.000000	0.003160
2422.000000	0.003162
2421.000000	0.003177
2420.000000	0.003182
2419.000000	0.003160
2418.000000	0.003118
2417.000000	0.003078
2416.000000	0.003054
2415.000000	0.003050
2414.000000	0.003071
2413.000000	0.003114
2412.000000	0.003165
2411.000000	0.003201
2410.000000	0.003212
2409.000000	0.003206
2408.000000	0.003196
2407.000000	0.003191
2406.000000	0.003193
2405.000000	0.003202
2404.000000	0.003205
2403.000000	0.003182
2402.000000	0.003128
2401.000000	0.003062
2400.000000	0.003020
2399.000000	0.003023
2398.000000	0.003062
2397.000000	0.003105
2396.000000	0.003126
2395.000000	0.003118
2394.000000	0.003101
2393.000000	0.003100
2392.000000	0.003118
2391.000000	0.003135
2390.000000	0.003133
2389.000000	0.003117
2388.000000	0.003112
2387.000000	0.003128
2386.000000	0.003151
2385.000000	0.003158
2384.000000	0.003146
2383.000000	0.003128
2382.000000	0.003116
2381.000000	0.003111
2380.000000	0.003102
2379.000000	0.003082
2378.000000	0.003053
2377.000000	0.003027
2376.000000	0.003014
2375.000000	0.003016
2374.000000	0.003023
2373.000000	0.003027
2372.000000	0.003031
2371.000000	0.003050
2370.000000	0.003088
2369.000000	0.003136
2368.000000	0.003175
2367.000000	0.003200
2366.000000	0.003219
2365.000000	0.003234
2364.000000	0.003235
2363.000000	0.003218
2362.000000	0.003195
2361.000000	0.003184
2360.000000	0.003191
2359.000000	0.003203
2358.000000	0.003216
2357.000000	0.003230
2356.000000	0.003235
2355.000000	0.003229
2354.000000	0.003230
2353.000000	0.003256
2352.000000	0.003291
2351.000000	0.003306
2350.000000	0.003296
2349.000000	0.003271
2348.000000	0.003260
2347.000000	0.003283
2346.000000	0.003329
2345.000000	0.003361
2344.000000	0.003363
2343.000000	0.003360
2342.000000	0.003360
2341.000000	0.003352
2340.000000	0.003325
2339.000000	0.003283
2338.000000	0.003244
2337.000000	0.003231
2336.000000	0.003252
2335.000000	0.003299
2334.000000	0.003353
2333.000000	0.003393
2332.000000	0.003406
2331.000000	0.003385
2330.000000	0.003350
2329.000000	0.003320
2328.000000	0.003318
2327.000000	0.003356
2326.000000	0.003435
2325.000000	0.003530
2324.000000	0.003598
2323.000000	0.003612
2322.000000	0.003571
2321.000000	0.003501
2320.000000	0.003433
2319.000000	0.003381
2318.000000	0.003348
2317.000000	0.003316
2316.000000	0.003269
2315.000000	0.003200
2314.000000	0.003132
2313.000000	0.003095
2312.000000	0.003115
2311.000000	0.003185
2310.000000	0.003276
2309.000000	0.003337
2308.000000	0.003339
2307.000000	0.003289
2306.000000	0.003233
2305.000000	0.003216
2304.000000	0.003247
2303.000000	0.003301
2302.000000	0.003347
2301.000000	0.003367
2300.000000	0.003362
2299.000000	0.003335
2298.000000	0.003297
2297.000000	0.003257
2296.000000	0.003218
2295.000000	0.003188
2294.000000	0.003183
2293.000000	0.003215
2292.000000	0.003274
2291.000000	0.003323
2290.000000	0.003333
2289.000000	0.003304
2288.000000	0.003264
2287.000000	0.003246
2286.000000	0.003265
2285.000000	0.003314
2284.000000	0.003374
2283.000000	0.003428
2282.000000	0.003467
2281.000000	0.003488
2280.000000	0.003482
2279.000000	0.003432
2278.000000	0.003339
2277.000000	0.003226
2276.000000	0.003141
2275.000000	0.003117
2274.000000	0.003162
2273.000000	0.003254
2272.000000	0.003362
2271.000000	0.003448
2270.000000	0.003470
2269.000000	0.003405
2268.000000	0.003283
2267.000000	0.003174
2266.000000	0.003138
2265.000000	0.003161
2264.000000	0.003177
2263.000000	0.003143
2262.000000	0.003080
2261.000000	0.003031
2260.000000	0.003002
2259.000000	0.002970
2258.000000	0.002922
2257.000000	0.002875
2256.000000	0.002852
2255.000000	0.002859
2254.000000	0.002885
2253.000000	0.002914
2252.000000	0.002923
2251.000000	0.002898
2250.000000	0.002856
2249.000000	0.002828
2248.000000	0.002836
2247.000000	0.002863
2246.000000	0.002882
2245.000000	0.002886
2244.000000	0.002903
2243.000000	0.002963
2242.000000	0.003055
2241.000000	0.003113
2240.000000	0.003070
2239.000000	0.002935
2238.000000	0.002791
2237.000000	0.002725
2236.000000	0.002749
2235.000000	0.002830
2234.000000	0.002954
2233.000000	0.003121
2232.000000	0.003278
2231.000000	0.003323
2230.000000	0.003206
2229.000000	0.003002
2228.000000	0.002832
2227.000000	0.002744
2226.000000	0.002693
2225.000000	0.002638
2224.000000	0.002599
2223.000000	0.002620
2222.000000	0.002701
2221.000000	0.002794
2220.000000	0.002859
2219.000000	0.002892
2218.000000	0.002913
2217.000000	0.002943
2216.000000	0.002989
2215.000000	0.003043
2214.000000	0.003085
2213.000000	0.003084
2212.000000	0.003021
2211.000000	0.002910
2210.000000	0.002806
2209.000000	0.002767
2208.000000	0.002810
2207.000000	0.002889
2206.000000	0.002929
2205.000000	0.002885
2204.000000	0.002792
2203.000000	0.002727
2202.000000	0.002741
2201.000000	0.002814
2200.000000	0.002891
2199.000000	0.002934
2198.000000	0.002938
2197.000000	0.002895
2196.000000	0.002789
2195.000000	0.002645
2194.000000	0.002543
2193.000000	0.002556
2192.000000	0.002661
2191.000000	0.002756
2190.000000	0.002759
2189.000000	0.002682
2188.000000	0.002606
2187.000000	0.002588
2186.000000	0.002624
2185.000000	0.002689
2184.000000	0.002781
2183.000000	0.002913
2182.000000	0.003060
2181.000000	0.003141
2180.000000	0.003078
2179.000000	0.002872
2178.000000	0.002605
2177.000000	0.002375
2176.000000	0.002245
2175.000000	0.002241
2174.000000	0.002359
2173.000000	0.002566
2172.000000	0.002813
2171.000000	0.003044
2170.000000	0.003224
2169.000000	0.003332
2168.000000	0.003359
2167.000000	0.003305
2166.000000	0.003176
2165.000000	0.002998
2164.000000	0.002848
2163.000000	0.002827
2162.000000	0.002955
2161.000000	0.003085
2160.000000	0.002987
2159.000000	0.002571
2158.000000	0.001995
2157.000000	0.001508
2156.000000	0.001239
2155.000000	0.001194
2154.000000	0.001349
2153.000000	0.001656
2152.000000	0.002012
2151.000000	0.002295
2150.000000	0.002422
2149.000000	0.002370
2148.000000	0.002191
2147.000000	0.002012
2146.000000	0.001963
2145.000000	0.002072
2144.000000	0.002238
2143.000000	0.002336
2142.000000	0.002323
2141.000000	0.002234
2140.000000	0.002127
2139.000000	0.002066
2138.000000	0.002108
2137.000000	0.002250
2136.000000	0.002397
2135.000000	0.002441
2134.000000	0.002377
2133.000000	0.002290
2132.000000	0.002265
2131.000000	0.002309
2130.000000	0.002378
2129.000000	0.002429
2128.000000	0.002448
2127.000000	0.002466
2126.000000	0.002524
2125.000000	0.002624
2124.000000	0.002710
2123.000000	0.002731
2122.000000	0.002710
2121.000000	0.002726
2120.000000	0.002809
2119.000000	0.002901
2118.000000	0.002925
2117.000000	0.002867
2116.000000	0.002784
2115.000000	0.002737
2114.000000	0.002742
2113.000000	0.002783
2112.000000	0.002840
2111.000000	0.002906
2110.000000	0.002971
2109.000000	0.003003
2108.000000	0.002965
2107.000000	0.002859
2106.000000	0.002747
2105.000000	0.002712
2104.000000	0.002779
2103.000000	0.002886
2102.000000	0.002953
2101.000000	0.002948
2100.000000	0.002902
2099.000000	0.002861
2098.000000	0.002839
2097.000000	0.002824
2096.000000	0.002810
2095.000000	0.002806
2094.000000	0.002820
2093.000000	0.002838
2092.000000	0.002842
2091.000000	0.002834
2090.000000	0.002835
2089.000000	0.002853
2088.000000	0.002871
2087.000000	0.002882
2086.000000	0.002902
2085.000000	0.002940
2084.000000	0.002967
2083.000000	0.002954
2082.000000	0.002907
2081.000000	0.002854
2080.000000	0.002804
2079.000000	0.002750
2078.000000	0.002707
2077.000000	0.002705
2076.000000	0.002734
2075.000000	0.002741
2074.000000	0.002710
2073.000000	0.002695
2072.000000	0.002749
2071.000000	0.002851
2070.000000	0.002928
2069.000000	0.002950
2068.000000	0.002949
2067.000000	0.002955
2066.000000	0.002946
2065.000000	0.002886
2064.000000	0.002788
2063.000000	0.002704
2062.000000	0.002665
2061.000000	0.002649
2060.000000	0.002630
2059.000000	0.002611
2058.000000	0.002606
2057.000000	0.002606
2056.000000	0.002598
2055.000000	0.002609
2054.000000	0.002689
2053.000000	0.002837
2052.000000	0.002974
2051.000000	0.003025
2050.000000	0.002989
2049.000000	0.002911
2048.000000	0.002804
2047.000000	0.002640
2046.000000	0.002424
2045.000000	0.002234
2044.000000	0.002163
2043.000000	0.002232
2042.000000	0.002373
2041.000000	0.002499
2040.000000	0.002580
2039.000000	0.002659
2038.000000	0.002762
2037.000000	0.002815
2036.000000	0.002700
2035.000000	0.002400
2034.000000	0.002041
2033.000000	0.001782
2032.000000	0.001699
2031.000000	0.001805
2030.000000	0.002068
2029.000000	0.002353
2028.000000	0.002454
2027.000000	0.002306
2026.000000	0.002069
2025.000000	0.001912
2024.000000	0.001803
2023.000000	0.001634
2022.000000	0.001476
2021.000000	0.001541
2020.000000	0.001866
2019.000000	0.002222
2018.000000	0.002357
2017.000000	0.002233
2016.000000	0.001983
2015.000000	0.001739
2014.000000	0.001565
2013.000000	0.001491
2012.000000	0.001527
2011.000000	0.001656
2010.000000	0.001839
2009.000000	0.002016
2008.000000	0.002100
2007.000000	0.002060
2006.000000	0.001981
2005.000000	0.001970
2004.000000	0.002009
2003.000000	0.001986
2002.000000	0.001871
2001.000000	0.001768
2000.000000	0.001774
1999.000000	0.001852
1998.000000	0.001892
1997.000000	0.001832
1996.000000	0.001706
1995.000000	0.001593
1994.000000	0.001567
1993.000000	0.001657
1992.000000	0.001814
1991.000000	0.001961
1990.000000	0.002093
1989.000000	0.002287
1988.000000	0.002577
1987.000000	0.002866
1986.000000	0.002988
1985.000000	0.002860
1984.000000	0.002550
1983.000000	0.002215
1982.000000	0.001996
1981.000000	0.001936
1980.000000	0.001965
1979.000000	0.001969
1978.000000	0.001896
1977.000000	0.001796
1976.000000	0.001757
1975.000000	0.001807
1974.000000	0.001918
1973.000000	0.002048
1972.000000	0.002165
1971.000000	0.002261
1970.000000	0.002343
1969.000000	0.002404
1968.000000	0.002396
1967.000000	0.002289
1966.000000	0.002143
1965.000000	0.002079
1964.000000	0.002156
1963.000000	0.002299
1962.000000	0.002364
1961.000000	0.002269
1960.000000	0.002066
1959.000000	0.001891
1958.000000	0.001835
1957.000000	0.001876
1956.000000	0.001931
1955.000000	0.001967
1954.000000	0.002022
1953.000000	0.002118
1952.000000	0.002204
1951.000000	0.002213
1950.000000	0.002146
1949.000000	0.002057
1948.000000	0.001978
1947.000000	0.001896
1946.000000	0.001812
1945.000000	0.001758
1944.000000	0.001767
1943.000000	0.001839
1942.000000	0.001942
1941.000000	0.002035
1940.000000	0.002074
1939.000000	0.002037
1938.000000	0.001939
1937.000000	0.001823
1936.000000	0.001737
1935.000000	0.001710
1934.000000	0.001754
1933.000000	0.001862
1932.000000	0.002011
1931.000000	0.002174
1930.000000	0.002323
1929.000000	0.002417
1928.000000	0.002420
1927.000000	0.002356
1926.000000	0.002303
1925.000000	0.002311
1924.000000	0.002336
1923.000000	0.002303
1922.000000	0.002214
1921.000000	0.002144
1920.000000	0.002134
1919.000000	0.002143
1918.000000	0.002113
1917.000000	0.002047
1916.000000	0.001992
1915.000000	0.001985
1914.000000	0.002036
1913.000000	0.002134
1912.000000	0.002247
1911.000000	0.002338
1910.000000	0.002384
1909.000000	0.002375
1908.000000	0.002312
1907.000000	0.002219
1906.000000	0.002145
1905.000000	0.002133
1904.000000	0.002178
1903.000000	0.002226
1902.000000	0.002235
1901.000000	0.002201
1900.000000	0.002143
1899.000000	0.002083
1898.000000	0.002051
1897.000000	0.002063
1896.000000	0.002097
1895.000000	0.002100
1894.000000	0.002058
1893.000000	0.002020
1892.000000	0.002044
1891.000000	0.002139
1890.000000	0.002256
1889.000000	0.002328
1888.000000	0.002330
1887.000000	0.002297
1886.000000	0.002273
1885.000000	0.002253
1884.000000	0.002198
1883.000000	0.002095
1882.000000	0.001988
1881.000000	0.001929
1880.000000	0.001919
1879.000000	0.001927
1878.000000	0.001943
1877.000000	0.001979
1876.000000	0.002025
1875.000000	0.002053
1874.000000	0.002049
1873.000000	0.002026
1872.000000	0.001995
1871.000000	0.001953
1870.000000	0.001915
1869.000000	0.001903
1868.000000	0.001901
1867.000000	0.001869
1866.000000	0.001823
1865.000000	0.001822
1864.000000	0.001882
1863.000000	0.001960
1862.000000	0.002009
1861.000000	0.002026
1860.000000	0.002018
1859.000000	0.001986
1858.000000	0.001943
1857.000000	0.001925
1856.000000	0.001953
1855.000000	0.002001
1854.000000	0.002033
1853.000000	0.002037
1852.000000	0.002017
1851.000000	0.001988
1850.000000	0.001965
1849.000000	0.001960
1848.000000	0.001966
1847.000000	0.001960
1846.000000	0.001936
1845.000000	0.001909
1844.000000	0.001900
1843.000000	0.001896
1842.000000	0.001881
1841.000000	0.001868
1840.000000	0.001866
1839.000000	0.001864
1838.000000	0.001859
1837.000000	0.001874
1836.000000	0.001919
1835.000000	0.001968
1834.000000	0.001992
1833.000000	0.001998
1832.000000	0.001999
1831.000000	0.001987
1830.000000	0.001943
1829.000000	0.001887
1828.000000	0.001861
1827.000000	0.001879
1826.000000	0.001918
1825.000000	0.001953
1824.000000	0.001973
1823.000000	0.001972
1822.000000	0.001943
1821.000000	0.001887
1820.000000	0.001822
1819.000000	0.001765
1818.000000	0.001724
1817.000000	0.001708
1816.000000	0.001718
1815.000000	0.001742
1814.000000	0.001764
1813.000000	0.001775
1812.000000	0.001779
1811.000000	0.001779
1810.000000	0.001791
1809.000000	0.001831
1808.000000	0.001891
1807.000000	0.001938
1806.000000	0.001949
1805.000000	0.001933
1804.000000	0.001905
1803.000000	0.001873
1802.000000	0.001840
1801.000000	0.001818
1800.000000	0.001822
1799.000000	0.001840
1798.000000	0.001849
1797.000000	0.001851
1796.000000	0.001854
1795.000000	0.001864
1794.000000	0.001871
1793.000000	0.001862
1792.000000	0.001850
1791.000000	0.001842
1790.000000	0.001832
1789.000000	0.001823
1788.000000	0.001821
1787.000000	0.001825
1786.000000	0.001829
1785.000000	0.001825
1784.000000	0.001811
1783.000000	0.001789
1782.000000	0.001770
1781.000000	0.001758
1780.000000	0.001758
1779.000000	0.001764
1778.000000	0.001771
1777.000000	0.001772
1776.000000	0.001765
1775.000000	0.001759
1774.000000	0.001754
1773.000000	0.001729
1772.000000	0.001694
1771.000000	0.001691
1770.000000	0.001742
1769.000000	0.001843
1768.000000	0.001951
1767.000000	0.002004
1766.000000	0.001996
1765.000000	0.001980
1764.000000	0.002008
1763.000000	0.002094
1762.000000	0.002221
1761.000000	0.002359
1760.000000	0.002497
1759.000000	0.002652
1758.000000	0.002854
1757.000000	0.003105
1756.000000	0.003365
1755.000000	0.003607
1754.000000	0.003858
1753.000000	0.004163
1752.000000	0.004516
1751.000000	0.004865
1750.000000	0.005173
1749.000000	0.005474
1748.000000	0.005786
1747.000000	0.006074
1746.000000	0.006307
1745.000000	0.006492
1744.000000	0.006642
1743.000000	0.006739
1742.000000	0.006777
1741.000000	0.006778
1740.000000	0.006748
1739.000000	0.006650
1738.000000	0.006491
1737.000000	0.006333
1736.000000	0.006202
1735.000000	0.006026
1734.000000	0.005739
1733.000000	0.005402
1732.000000	0.005105
1731.000000	0.004869
1730.000000	0.004669
1729.000000	0.004471
1728.000000	0.004259
1727.000000	0.004039
1726.000000	0.003824
1725.000000	0.003622
1724.000000	0.003436
1723.000000	0.003252
1722.000000	0.003071
1721.000000	0.002916
1720.000000	0.002791
1719.000000	0.002657
1718.000000	0.002484
1717.000000	0.002328
1716.000000	0.002253
1715.000000	0.002261
1714.000000	0.002334
1713.000000	0.002443
1712.000000	0.002546
1711.000000	0.002615
1710.000000	0.002647
1709.000000	0.002654
1708.000000	0.002652
1707.000000	0.002661
1706.000000	0.002691
1705.000000	0.002747
1704.000000	0.002812
1703.000000	0.002903
1702.000000	0.003041
1701.000000	0.003183
1700.000000	0.003251
1699.000000	0.003250
1698.000000	0.003317
1697.000000	0.003554
1696.000000	0.003875
1695.000000	0.004073
1694.000000	0.004113
1693.000000	0.004143
1692.000000	0.004246
1691.000000	0.004400
1690.000000	0.004558
1689.000000	0.004702
1688.000000	0.004831
1687.000000	0.004962
1686.000000	0.005110
1685.000000	0.005283
1684.000000	0.005478
1683.000000	0.005650
1682.000000	0.005800
1681.000000	0.005992
1680.000000	0.006216
1679.000000	0.006421
1678.000000	0.006608
1677.000000	0.006820
1676.000000	0.007061
1675.000000	0.007261
1674.000000	0.007377
1673.000000	0.007463
1672.000000	0.007602
1671.000000	0.007811
1670.000000	0.008079
1669.000000	0.008380
1668.000000	0.008654
1667.000000	0.008863
1666.000000	0.009031
1665.000000	0.009205
1664.000000	0.009405
1663.000000	0.009605
1662.000000	0.009784
1661.000000	0.009943
1660.000000	0.010100
1659.000000	0.010256
1658.000000	0.010385
1657.000000	0.010481
1656.000000	0.010574
1655.000000	0.010684
1654.000000	0.010809
1653.000000	0.011006
1652.000000	0.011161
1651.000000	0.011166
1650.000000	0.011154
1649.000000	0.011201
1648.000000	0.011313
1647.000000	0.011481
1646.000000	0.011660
1645.000000	0.011790
1644.000000	0.011877
1643.000000	0.011957
1642.000000	0.012041
1641.000000	0.012112
1640.000000	0.012146
1639.000000	0.012150
1638.000000	0.012156
1637.000000	0.012200
1636.000000	0.012297
1635.000000	0.012413
1634.000000	0.012471
1633.000000	0.012490
1632.000000	0.012508
1631.000000	0.012522
1630.000000	0.012528
1629.000000	0.012538
1628.000000	0.012559
1627.000000	0.012568
1626.000000	0.012549
1625.000000	0.012517
1624.000000	0.012498
1623.000000	0.012492
1622.000000	0.012480
1621.000000	0.012439
1620.000000	0.012384
1619.000000	0.012325
1618.000000	0.012246
1617.000000	0.012125
1616.000000	0.011962
1615.000000	0.011786
1614.000000	0.011627
1613.000000	0.011494
1612.000000	0.011360
1611.000000	0.011197
1610.000000	0.011010
1609.000000	0.010821
1608.000000	0.010645
1607.000000	0.010485
1606.000000	0.010342
1605.000000	0.010203
1604.000000	0.010062
1603.000000	0.009919
1602.000000	0.009783
1601.000000	0.009659
1600.000000	0.009545
1599.000000	0.009436
1598.000000	0.009324
1597.000000	0.009201
1596.000000	0.009075
1595.000000	0.008962
1594.000000	0.008879
1593.000000	0.008816
1592.000000	0.008755
1591.000000	0.008688
1590.000000	0.008620
1589.000000	0.008554
1588.000000	0.008487
1587.000000	0.008422
1586.000000	0.008370
1585.000000	0.008337
1584.000000	0.008318
1583.000000	0.008313
1582.000000	0.008317
1581.000000	0.008303
1580.000000	0.008258
1579.000000	0.008205
1578.000000	0.008165
1577.000000	0.008140
1576.000000	0.008128
1575.000000	0.008119
1574.000000	0.008112
1573.000000	0.008120
1572.000000	0.008144
1571.000000	0.008165
1570.000000	0.008185
1569.000000	0.008218
1568.000000	0.008252
1567.000000	0.008289
1566.000000	0.008334
1565.000000	0.008379
1564.000000	0.008405
1563.000000	0.008427
1562.000000	0.008474
1561.000000	0.008535
1560.000000	0.008536
1559.000000	0.008552
1558.000000	0.008709
1557.000000	0.008853
1556.000000	0.008980
1555.000000	0.009124
1554.000000	0.009244
1553.000000	0.009308
1552.000000	0.009357
1551.000000	0.009435
1550.000000	0.009530
1549.000000	0.009609
1548.000000	0.009659
1547.000000	0.009703
1546.000000	0.009746
1545.000000	0.009772
1544.000000	0.009779
1543.000000	0.009780
1542.000000	0.009773
1541.000000	0.009777
1540.000000	0.009853
1539.000000	0.009977
1538.000000	0.010033
1537.000000	0.010034
1536.000000	0.010037
1535.000000	0.010041
1534.000000	0.010008
1533.000000	0.009932
1532.000000	0.009851
1531.000000	0.009791
1530.000000	0.009753
1529.000000	0.009725
1528.000000	0.009685
1527.000000	0.009610
1526.000000	0.009496
1525.000000	0.009359
1524.000000	0.009239
1523.000000	0.009167
1522.000000	0.009140
1521.000000	0.009132
1520.000000	0.009095
1519.000000	0.009037
1518.000000	0.009002
1517.000000	0.009002
1516.000000	0.009014
1515.000000	0.009010
1514.000000	0.008990
1513.000000	0.008944
1512.000000	0.008846
1511.000000	0.008686
1510.000000	0.008504
1509.000000	0.008332
1508.000000	0.008162
1507.000000	0.008017
1506.000000	0.007962
1505.000000	0.007927
1504.000000	0.007885
1503.000000	0.007867
1502.000000	0.007865
1501.000000	0.007850
1500.000000	0.007797
1499.000000	0.007703
1498.000000	0.007594
1497.000000	0.007513
1496.000000	0.007460
1495.000000	0.007390
1494.000000	0.007296
1493.000000	0.007211
1492.000000	0.007149
1491.000000	0.007086
1490.000000	0.007020
1489.000000	0.006983
1488.000000	0.006984
1487.000000	0.007000
1486.000000	0.007028
1485.000000	0.007077
1484.000000	0.007139
1483.000000	0.007206
1482.000000	0.007272
1481.000000	0.007337
1480.000000	0.007401
1479.000000	0.007472
1478.000000	0.007567
1477.000000	0.007690
1476.000000	0.007819
1475.000000	0.007937
1474.000000	0.008077
1473.000000	0.008285
1472.000000	0.008540
1471.000000	0.008748
1470.000000	0.008890
1469.000000	0.009008
1468.000000	0.009122
1467.000000	0.009223
1466.000000	0.009316
1465.000000	0.009422
1464.000000	0.009531
1463.000000	0.009613
1462.000000	0.009659
1461.000000	0.009689
1460.000000	0.009718
1459.000000	0.009779
1458.000000	0.009950
1457.000000	0.010274
1456.000000	0.010557
1455.000000	0.010645
1454.000000	0.010642
1453.000000	0.010654
1452.000000	0.010689
1451.000000	0.010724
1450.000000	0.010762
1449.000000	0.010822
1448.000000	0.010889
1447.000000	0.010930
1446.000000	0.010949
1445.000000	0.010970
1444.000000	0.011007
1443.000000	0.011042
1442.000000	0.011050
1441.000000	0.011027
1440.000000	0.010998
1439.000000	0.011001
1438.000000	0.011067
1437.000000	0.011198
1436.000000	0.011315
1435.000000	0.011325
1434.000000	0.011252
1433.000000	0.011179
1432.000000	0.011140
1431.000000	0.011127
1430.000000	0.011134
1429.000000	0.011168
1428.000000	0.011215
1427.000000	0.011253
1426.000000	0.011288
1425.000000	0.011327
1424.000000	0.011359
1423.000000	0.011360
1422.000000	0.011334
1421.000000	0.011320
1420.000000	0.011344
1419.000000	0.011408
1418.000000	0.011475
1417.000000	0.011517
1416.000000	0.011532
1415.000000	0.011518
1414.000000	0.011465
1413.000000	0.011387
1412.000000	0.011311
1411.000000	0.011240
1410.000000	0.011159
1409.000000	0.011064
1408.000000	0.010965
1407.000000	0.010875
1406.000000	0.010802
1405.000000	0.010745
1404.000000	0.010687
1403.000000	0.010615
1402.000000	0.010543
1401.000000	0.010502
1400.000000	0.010504
1399.000000	0.010523
1398.000000	0.010522
1397.000000	0.010500
1396.000000	0.010482
1395.000000	0.010489
1394.000000	0.010503
1393.000000	0.010490
1392.000000	0.010443
1391.000000	0.010372
1390.000000	0.010289
1389.000000	0.010210
1388.000000	0.010150
1387.000000	0.010122
1386.000000	0.010115
1385.000000	0.010109
1384.000000	0.010089
1383.000000	0.010051
1382.000000	0.009998
1381.000000	0.009954
1380.000000	0.009933
1379.000000	0.009916
1378.000000	0.009874
1377.000000	0.009796
1376.000000	0.009697
1375.000000	0.009599
1374.000000	0.009514
1373.000000	0.009432
1372.000000	0.009340
1371.000000	0.009243
1370.000000	0.009152
1369.000000	0.009070
1368.000000	0.008994
1367.000000	0.008919
1366.000000	0.008843
1365.000000	0.008772
1364.000000	0.008712
1363.000000	0.008676
1362.000000	0.008664
1361.000000	0.008652
1360.000000	0.008613
1359.000000	0.008540
1358.000000	0.008447
1357.000000	0.008351
1356.000000	0.008271
1355.000000	0.008220
1354.000000	0.008193
1353.000000	0.008170
1352.000000	0.008131
1351.000000	0.008075
1350.000000	0.008021
1349.000000	0.007984
1348.000000	0.007968
1347.000000	0.007974
1346.000000	0.008004
1345.000000	0.008051
1344.000000	0.008098
1343.000000	0.008132
1342.000000	0.008161
1341.000000	0.008201
1340.000000	0.008256
1339.000000	0.008310
1338.000000	0.008347
1337.000000	0.008371
1336.000000	0.008394
1335.000000	0.008419
1334.000000	0.008439
1333.000000	0.008454
1332.000000	0.008476
1331.000000	0.008515
1330.000000	0.008565
1329.000000	0.008616
1328.000000	0.008663
1327.000000	0.008710
1326.000000	0.008767
1325.000000	0.008832
1324.000000	0.008889
1323.000000	0.008921
1322.000000	0.008923
1321.000000	0.008901
1320.000000	0.008868
1319.000000	0.008823
1318.000000	0.008753
1317.000000	0.008642
1316.000000	0.008497
1315.000000	0.008340
1314.000000	0.008187
1313.000000	0.008034
1312.000000	0.007869
1311.000000	0.007692
1310.000000	0.007526
1309.000000	0.007393
1308.000000	0.007303
1307.000000	0.007241
1306.000000	0.007184
1305.000000	0.007110
1304.000000	0.007016
1303.000000	0.006917
1302.000000	0.006825
1301.000000	0.006746
1300.000000	0.006674
1299.000000	0.006610
1298.000000	0.006558
1297.000000	0.006512
1296.000000	0.006460
1295.000000	0.006394
1294.000000	0.006322
1293.000000	0.006261
1292.000000	0.006218
1291.000000	0.006192
1290.000000	0.006174
1289.000000	0.006165
1288.000000	0.006170
1287.000000	0.006189
1286.000000	0.006210
1285.000000	0.006220
1284.000000	0.006217
1283.000000	0.006207
1282.000000	0.006202
1281.000000	0.006201
1280.000000	0.006196
1279.000000	0.006180
1278.000000	0.006162
1277.000000	0.006159
1276.000000	0.006177
1275.000000	0.006206
1274.000000	0.006227
1273.000000	0.006234
1272.000000	0.006238
1271.000000	0.006254
1270.000000	0.006291
1269.000000	0.006342
1268.000000	0.006399
1267.000000	0.006459
1266.000000	0.006517
1265.000000	0.006576
1264.000000	0.006642
1263.000000	0.006717
1262.000000	0.006794
1261.000000	0.006861
1260.000000	0.006917
1259.000000	0.006969
1258.000000	0.007024
1257.000000	0.007078
1256.000000	0.007128
1255.000000	0.007179
1254.000000	0.007234
1253.000000	0.007289
1252.000000	0.007333
1251.000000	0.007359
1250.000000	0.007377
1249.000000	0.007407
1248.000000	0.007457
1247.000000	0.007523
1246.000000	0.007592
1245.000000	0.007659
1244.000000	0.007724
1243.000000	0.007788
1242.000000	0.007851
1241.000000	0.007908
1240.000000	0.007954
1239.000000	0.007986
1238.000000	0.008001
1237.000000	0.007999
1236.000000	0.007980
1235.000000	0.007942
1234.000000	0.007884
1233.000000	0.007813
1232.000000	0.007740
1231.000000	0.007677
1230.000000	0.007620
1229.000000	0.007554
1228.000000	0.007463
1227.000000	0.007342
1226.000000	0.007199
1225.000000	0.007047
1224.000000	0.006896
1223.000000	0.006753
1222.000000	0.006616
1221.000000	0.006483
1220.000000	0.006352
1219.000000	0.006234
1218.000000	0.006143
1217.000000	0.006079
1216.000000	0.006027
1215.000000	0.005968
1214.000000	0.005893
1213.000000	0.005810
1212.000000	0.005741
1211.000000	0.005699
1210.000000	0.005680
1209.000000	0.005668
1208.000000	0.005654
1207.000000	0.005646
1206.000000	0.005659
1205.000000	0.005691
1204.000000	0.005728
1203.000000	0.005755
1202.000000	0.005774
1201.000000	0.005789
1200.000000	0.005804
1199.000000	0.005821
1198.000000	0.005844
1197.000000	0.005875
1196.000000	0.005904
1195.000000	0.005912
1194.000000	0.005901
1193.000000	0.005892
1192.000000	0.005913
1191.000000	0.005963
1190.000000	0.006017
1189.000000	0.006062
1188.000000	0.006110
1187.000000	0.006185
1186.000000	0.006293
1185.000000	0.006421
1184.000000	0.006554
1183.000000	0.006689
1182.000000	0.006833
1181.000000	0.006991
1180.000000	0.007169
1179.000000	0.007372
1178.000000	0.007594
1177.000000	0.007817
1176.000000	0.008023
1175.000000	0.008210
1174.000000	0.008390
1173.000000	0.008581
1172.000000	0.008786
1171.000000	0.008993
1170.000000	0.009190
1169.000000	0.009378
1168.000000	0.009564
1167.000000	0.009755
1166.000000	0.009955
1165.000000	0.010164
1164.000000	0.010371
1163.000000	0.010564
1162.000000	0.010734
1161.000000	0.010877
1160.000000	0.010991
1159.000000	0.011083
1158.000000	0.011169
1157.000000	0.011260
1156.000000	0.011352
1155.000000	0.011424
1154.000000	0.011462
1153.000000	0.011469
1152.000000	0.011456
1151.000000	0.011434
1150.000000	0.011409
1149.000000	0.011382
1148.000000	0.011340
1147.000000	0.011272
1146.000000	0.011185
1145.000000	0.011097
1144.000000	0.011021
1143.000000	0.010951
1142.000000	0.010878
1141.000000	0.010799
1140.000000	0.010716
1139.000000	0.010630
1138.000000	0.010543
1137.000000	0.010454
1136.000000	0.010361
1135.000000	0.010263
1134.000000	0.010170
1133.000000	0.010100
1132.000000	0.010067
1131.000000	0.010068
1130.000000	0.010085
1129.000000	0.010100
1128.000000	0.010101
1127.000000	0.010093
1126.000000	0.010089
1125.000000	0.010107
1124.000000	0.010151
1123.000000	0.010219
1122.000000	0.010309
1121.000000	0.010421
1120.000000	0.010552
1119.000000	0.010692
1118.000000	0.010829
1117.000000	0.010958
1116.000000	0.011077
1115.000000	0.011192
1114.000000	0.011305
1113.000000	0.011415
1112.000000	0.011510
1111.000000	0.011576
1110.000000	0.011608
1109.000000	0.011602
1108.000000	0.011548
1107.000000	0.011438
1106.000000	0.011290
1105.000000	0.011143
1104.000000	0.011027
1103.000000	0.010943
1102.000000	0.010871
1101.000000	0.010800
1100.000000	0.010736
1099.000000	0.010686
1098.000000	0.010648
1097.000000	0.010607
1096.000000	0.010556
1095.000000	0.010503
1094.000000	0.010465
1093.000000	0.010445
1092.000000	0.010423
1091.000000	0.010371
1090.000000	0.010279
1089.000000	0.010156
1088.000000	0.010014
1087.000000	0.009865
1086.000000	0.009732
1085.000000	0.009639
1084.000000	0.009586
1083.000000	0.009543
1082.000000	0.009481
1081.000000	0.009392
1080.000000	0.009283
1079.000000	0.009170
1078.000000	0.009068
1077.000000	0.008992
1076.000000	0.008933
1075.000000	0.008860
1074.000000	0.008748
1073.000000	0.008603
1072.000000	0.008454
1071.000000	0.008320
1070.000000	0.008208
1069.000000	0.008124
1068.000000	0.008076
1067.000000	0.008060
1066.000000	0.008053
1065.000000	0.008038
1064.000000	0.008020
1063.000000	0.008015
1062.000000	0.008029
1061.000000	0.008046
1060.000000	0.008050
1059.000000	0.008041
1058.000000	0.008028
1057.000000	0.008011
1056.000000	0.007983
1055.000000	0.007940
1054.000000	0.007893
1053.000000	0.007853
1052.000000	0.007815
1051.000000	0.007773
1050.000000	0.007738
1049.000000	0.007732
1048.000000	0.007753
1047.000000	0.007769
1046.000000	0.007742
1045.000000	0.007674
1044.000000	0.007603
1043.000000	0.007574
1042.000000	0.007600
1041.000000	0.007658
1040.000000	0.007727
1039.000000	0.007809
1038.000000	0.007916
1037.000000	0.008048
1036.000000	0.008181
1035.000000	0.008288
1034.000000	0.008362
1033.000000	0.008413
1032.000000	0.008442
1031.000000	0.008448
1030.000000	0.008444
1029.000000	0.008453
1028.000000	0.008489
1027.000000	0.008529
1026.000000	0.008534
1025.000000	0.008486
1024.000000	0.008401
1023.000000	0.008311
1022.000000	0.008240
1021.000000	0.008193
1020.000000	0.008168
1019.000000	0.008162
1018.000000	0.008163
1017.000000	0.008150
1016.000000	0.008095
1015.000000	0.007998
1014.000000	0.007889
1013.000000	0.007796
1012.000000	0.007723
1011.000000	0.007651
1010.000000	0.007574
1009.000000	0.007500
1008.000000	0.007438
1007.000000	0.007382
1006.000000	0.007319
1005.000000	0.007243
1004.000000	0.007157
1003.000000	0.007065
1002.000000	0.006971
1001.000000	0.006873
1000.000000	0.006760
999.000000	0.006625
998.000000	0.006476
997.000000	0.006339
996.000000	0.006237
995.000000	0.006163
994.000000	0.006097
993.000000	0.006022
992.000000	0.005940
991.000000	0.005864
990.000000	0.005804
989.000000	0.005758
988.000000	0.005711
987.000000	0.005649
986.000000	0.005567
985.000000	0.005478
984.000000	0.005390
983.000000	0.005306
982.000000	0.005233
981.000000	0.005182
980.000000	0.005158
979.000000	0.005138
978.000000	0.005095
977.000000	0.005024
976.000000	0.004948
975.000000	0.004891
974.000000	0.004850
973.000000	0.004812
972.000000	0.004776
971.000000	0.004750
970.000000	0.004732
969.000000	0.004703
968.000000	0.004651
967.000000	0.004584
966.000000	0.004521
965.000000	0.004474
964.000000	0.004436
963.000000	0.004389
962.000000	0.004326
961.000000	0.004253
960.000000	0.004187
959.000000	0.004137
958.000000	0.004099
957.000000	0.004065
956.000000	0.004033
955.000000	0.004008
954.000000	0.003980
953.000000	0.003933
952.000000	0.003863
951.000000	0.003783
950.000000	0.003712
949.000000	0.003650
948.000000	0.003586
947.000000	0.003515
946.000000	0.003451
945.000000	0.003415
944.000000	0.003415
943.000000	0.003435
942.000000	0.003445
941.000000	0.003419
940.000000	0.003357
939.000000	0.003282
938.000000	0.003226
937.000000	0.003206
936.000000	0.003209
935.000000	0.003215
934.000000	0.003205
933.000000	0.003174
932.000000	0.003119
931.000000	0.003040
930.000000	0.002945
929.000000	0.002851
928.000000	0.002780
927.000000	0.002743
926.000000	0.002736
925.000000	0.002744
924.000000	0.002753
923.000000	0.002754
922.000000	0.002737
921.000000	0.002701
920.000000	0.002658
919.000000	0.002628
918.000000	0.002622
917.000000	0.002627
916.000000	0.002607
915.000000	0.002544
914.000000	0.002451
913.000000	0.002365
912.000000	0.002311
911.000000	0.002290
910.000000	0.002289
909.000000	0.002297
908.000000	0.002302
907.000000	0.002290
906.000000	0.002251
905.000000	0.002190
904.000000	0.002120
903.000000	0.002041
902.000000	0.001954
901.000000	0.001872
900.000000	0.001819
899.000000	0.001804
898.000000	0.001804
897.000000	0.001793
896.000000	0.001772
895.000000	0.001756
894.000000	0.001749
893.000000	0.001738
892.000000	0.001714
891.000000	0.001692
890.000000	0.001696
889.000000	0.001743
888.000000	0.001838
887.000000	0.001984
886.000000	0.002174
885.000000	0.002384
884.000000	0.002591
883.000000	0.002788
882.000000	0.002996
881.000000	0.003244
880.000000	0.003549
879.000000	0.003902
878.000000	0.004274
877.000000	0.004626
876.000000	0.004921
875.000000	0.005127
874.000000	0.005214
873.000000	0.005160
872.000000	0.004962
871.000000	0.004647
870.000000	0.004277
869.000000	0.003921
868.000000	0.003623
867.000000	0.003378
866.000000	0.003145
865.000000	0.002896
864.000000	0.002654
863.000000	0.002469
862.000000	0.002363
861.000000	0.002303
860.000000	0.002243
859.000000	0.002171
858.000000	0.002105
857.000000	0.002055
856.000000	0.002009
855.000000	0.001953
854.000000	0.001889
853.000000	0.001830
852.000000	0.001800
851.000000	0.001828
850.000000	0.001925
849.000000	0.002062
848.000000	0.002170
847.000000	0.002189
846.000000	0.002122
845.000000	0.002032
844.000000	0.001979
843.000000	0.001971
842.000000	0.001970
841.000000	0.001951
840.000000	0.001923
839.000000	0.001913
838.000000	0.001925
837.000000	0.001927
836.000000	0.001896
835.000000	0.001837
834.000000	0.001781
833.000000	0.001755
832.000000	0.001765
831.000000	0.001798
830.000000	0.001840
829.000000	0.001876
828.000000	0.001894
827.000000	0.001890
826.000000	0.001866
825.000000	0.001833
824.000000	0.001808
823.000000	0.001799
822.000000	0.001790
821.000000	0.001763
820.000000	0.001726
819.000000	0.001713
818.000000	0.001741
817.000000	0.001780
816.000000	0.001783
815.000000	0.001743
814.000000	0.001698
813.000000	0.001683
812.000000	0.001696
811.000000	0.001722
810.000000	0.001754
809.000000	0.001790
808.000000	0.001820
807.000000	0.001839
806.000000	0.001855
805.000000	0.001878
804.000000	0.001901
803.000000	0.001903
802.000000	0.001872
801.000000	0.001819
800.000000	0.001764
799.000000	0.001724
798.000000	0.001707
797.000000	0.001711
796.000000	0.001731
795.000000	0.001756
794.000000	0.001775
793.000000	0.001785
792.000000	0.001797
791.000000	0.001828
790.000000	0.001873
789.000000	0.001897
788.000000	0.001872
787.000000	0.001816
786.000000	0.001781
785.000000	0.001795
784.000000	0.001840
783.000000	0.001880
782.000000	0.001904
781.000000	0.001915
780.000000	0.001909
779.000000	0.001882
778.000000	0.001845
777.000000	0.001819
776.000000	0.001813
775.000000	0.001818
774.000000	0.001828
773.000000	0.001836
772.000000	0.001832
771.000000	0.001817
770.000000	0.001805
769.000000	0.001809
768.000000	0.001824
767.000000	0.001836
766.000000	0.001843
765.000000	0.001854
764.000000	0.001863
763.000000	0.001861
762.000000	0.001846
761.000000	0.001830
760.000000	0.001819
759.000000	0.001818
758.000000	0.001837
757.000000	0.001871
756.000000	0.001885
755.000000	0.001847
754.000000	0.001766
753.000000	0.001691
752.000000	0.001658
751.000000	0.001672
750.000000	0.001724
749.000000	0.001804
748.000000	0.001880
747.000000	0.001905
746.000000	0.001859
745.000000	0.001776
744.000000	0.001707
743.000000	0.001684
742.000000	0.001706
741.000000	0.001752
740.000000	0.001790
739.000000	0.001795
738.000000	0.001780
737.000000	0.001784
736.000000	0.001829
735.000000	0.001896
734.000000	0.001950
733.000000	0.001973
732.000000	0.001969
731.000000	0.001943
730.000000	0.001906
729.000000	0.001885
728.000000	0.001899
727.000000	0.001937
726.000000	0.001966
725.000000	0.001958
724.000000	0.001917
723.000000	0.001874
722.000000	0.001864
721.000000	0.001905
720.000000	0.001978
719.000000	0.002046
718.000000	0.002092
717.000000	0.002155
716.000000	0.002298
715.000000	0.002556
714.000000	0.002883
713.000000	0.003158
712.000000	0.003259
711.000000	0.003149
710.000000	0.002915
709.000000	0.002689
708.000000	0.002550
707.000000	0.002494
706.000000	0.002483
705.000000	0.002496
704.000000	0.002513
703.000000	0.002511
702.000000	0.002480
701.000000	0.002446
700.000000	0.002435
699.000000	0.002444
698.000000	0.002467
697.000000	0.002517
696.000000	0.002605
695.000000	0.002701
694.000000	0.002749
693.000000	0.002715
692.000000	0.002620
691.000000	0.002519
690.000000	0.002471
689.000000	0.002502
688.000000	0.002593
687.000000	0.002694
686.000000	0.002774
685.000000	0.002831
684.000000	0.002864
683.000000	0.002862
682.000000	0.002833
681.000000	0.002817
680.000000	0.002845
679.000000	0.002911
678.000000	0.003003
677.000000	0.003135
676.000000	0.003336
675.000000	0.003597
674.000000	0.003889
673.000000	0.004181
672.000000	0.004427
671.000000	0.004581
670.000000	0.004642
669.000000	0.004655
668.000000	0.004573
667.000000	0.004421
666.000000	0.004390
665.000000	0.004414
664.000000	0.004368
663.000000	0.004231
662.000000	0.004045
661.000000	0.003851
660.000000	0.003659
659.000000	0.003465
658.000000	0.003274
657.000000	0.003116
656.000000	0.003045
655.000000	0.003090
654.000000	0.003216
653.000000	0.003341
652.000000	0.003399
651.000000	0.003384
650.000000	0.003347
649.000000	0.003330
648.000000	0.003336
647.000000	0.003343
646.000000	0.003349
645.000000	0.003371
644.000000	0.003406
643.000000	0.003421
642.000000	0.003413
641.000000	0.003425
640.000000	0.003490
639.000000	0.003580
638.000000	0.003640
637.000000	0.003664
636.000000	0.003684
635.000000	0.003717
634.000000	0.003751
633.000000	0.003779
632.000000	0.003816
631.000000	0.003865
630.000000	0.003903
629.000000	0.003913
628.000000	0.003898
627.000000	0.003871
626.000000	0.003830
625.000000	0.003778
624.000000	0.003721
623.000000	0.003683
622.000000	0.003699
621.000000	0.003799
620.000000	0.003966
619.000000	0.004131
618.000000	0.004230
617.000000	0.004279
616.000000	0.004348
615.000000	0.004471
614.000000	0.004618
613.000000	0.004751
612.000000	0.004861
611.000000	0.004962
610.000000	0.005070
609.000000	0.005213
608.000000	0.005415
607.000000	0.005656
606.000000	0.005867
605.000000	0.005991
604.000000	0.006038
603.000000	0.006062
602.000000	0.006098
601.000000	0.006133
600.000000	0.006134
599.000000	0.006095
598.000000	0.006036
597.000000	0.005960
596.000000	0.005835
595.000000	0.005642
594.000000	0.005416
593.000000	0.005224
592.000000	0.005097
591.000000	0.005026
590.000000	0.005005
589.000000	0.005038
588.000000	0.005092
587.000000	0.005098
586.000000	0.005027
585.000000	0.004922
584.000000	0.004832
583.000000	0.004758
582.000000	0.004703
581.000000	0.004717
580.000000	0.004815
579.000000	0.004924
578.000000	0.004954
577.000000	0.004909
576.000000	0.004852
575.000000	0.004786
574.000000	0.004656
573.000000	0.004462
572.000000	0.004292
571.000000	0.004237
570.000000	0.004312
569.000000	0.004447
568.000000	0.004530
567.000000	0.004465
566.000000	0.004253
565.000000	0.004017
564.000000	0.003881
563.000000	0.003856
562.000000	0.003863
561.000000	0.003863
560.000000	0.003890
559.000000	0.003943
558.000000	0.003961
557.000000	0.003911
556.000000	0.003841
555.000000	0.003811
554.000000	0.003811
553.000000	0.003805
552.000000	0.003781
551.000000	0.003732
550.000000	0.003637
549.000000	0.003498
548.000000	0.003368
547.000000	0.003299
546.000000	0.003298
545.000000	0.003355
544.000000	0.003463
543.000000	0.003592
542.000000	0.003670
541.000000	0.003642
540.000000	0.003533
539.000000	0.003413
538.000000	0.003344
537.000000	0.003360
536.000000	0.003465
535.000000	0.003610
534.000000	0.003714
533.000000	0.003760
532.000000	0.003818
531.000000	0.003936
530.000000	0.004039
529.000000	0.004004
528.000000	0.003795
527.000000	0.003516
526.000000	0.003323
525.000000	0.003316
524.000000	0.003485
523.000000	0.003731
522.000000	0.003923
521.000000	0.003965
520.000000	0.003864
519.000000	0.003731
518.000000	0.003683
517.000000	0.003729
516.000000	0.003776
515.000000	0.003733
514.000000	0.003588
513.000000	0.003404
512.000000	0.003262
511.000000	0.003202
510.000000	0.003197
509.000000	0.003181
508.000000	0.003092
507.000000	0.002907
506.000000	0.002656
505.000000	0.002400
504.000000	0.002220
503.000000	0.002213
502.000000	0.002441
501.000000	0.002832
500.000000	0.003206
499.000000	0.003427
498.000000	0.003486
497.000000	0.003455
496.000000	0.003402
495.000000	0.003368
494.000000	0.003393
493.000000	0.003520
492.000000	0.003727
491.000000	0.003918
490.000000	0.004007
489.000000	0.003973
488.000000	0.003810
487.000000	0.003510
486.000000	0.003135
485.000000	0.002865
484.000000	0.002853
483.000000	0.003028
482.000000	0.003134
481.000000	0.002985
480.000000	0.002639
479.000000	0.002332
478.000000	0.002260
477.000000	0.002413
476.000000	0.002605
475.000000	0.002673
474.000000	0.002624
473.000000	0.002594
472.000000	0.002664
471.000000	0.002771
470.000000	0.002843
469.000000	0.002911
468.000000	0.003025
467.000000	0.003151
466.000000	0.003201
465.000000	0.003124
464.000000	0.002914
463.000000	0.002583
462.000000	0.002205
461.000000	0.001900
460.000000	0.001716
459.000000	0.001625
458.000000	0.001661
457.000000	0.001933
456.000000	0.002386
455.000000	0.002769
454.000000	0.002873
453.000000	0.002670
452.000000	0.002265
451.000000	0.001801
450.000000	0.001432
