PE IR       SUBTECH     SPECTRUM    ASCII       PEDS        4.00        
   -1
P14-Noir004_1.ASC
23/06/09
15:56:34.00
23/06/09
16:36:39.00
uco
Sample 004 By uco Date Friday, June 09 2023
450.000000
#HDR
-1
-1
#GR
cm-1
A
1.0
0.0
4000.000000
-1.000000
3551
8
0.003818
-0.001050
#DATA
4000.000000	0.000174
3999.000000	0.000170
3998.000000	0.000165
3997.000000	0.000160
3996.000000	0.000151
3995.000000	0.000137
3994.000000	0.000126
3993.000000	0.000128
3992.000000	0.000147
3991.000000	0.000173
3990.000000	0.000191
3989.000000	0.000192
3988.000000	0.000179
3987.000000	0.000165
3986.000000	0.000160
3985.000000	0.000166
3984.000000	0.000176
3983.000000	0.000186
3982.000000	0.000192
3981.000000	0.000193
3980.000000	0.000192
3979.000000	0.000190
3978.000000	0.000190
3977.000000	0.000193
3976.000000	0.000196
3975.000000	0.000199
3974.000000	0.000200
3973.000000	0.000200
3972.000000	0.000198
3971.000000	0.000196
3970.000000	0.000195
3969.000000	0.000200
3968.000000	0.000212
3967.000000	0.000230
3966.000000	0.000250
3965.000000	0.000261
3964.000000	0.000260
3963.000000	0.000248
3962.000000	0.000229
3961.000000	0.000209
3960.000000	0.000192
3959.000000	0.000182
3958.000000	0.000181
3957.000000	0.000187
3956.000000	0.000197
3955.000000	0.000208
3954.000000	0.000220
3953.000000	0.000234
3952.000000	0.000248
3951.000000	0.000264
3950.000000	0.000280
3949.000000	0.000291
3948.000000	0.000293
3947.000000	0.000284
3946.000000	0.000268
3945.000000	0.000254
3944.000000	0.000251
3943.000000	0.000261
3942.000000	0.000276
3941.000000	0.000287
3940.000000	0.000290
3939.000000	0.000285
3938.000000	0.000275
3937.000000	0.000260
3936.000000	0.000243
3935.000000	0.000226
3934.000000	0.000212
3933.000000	0.000206
3932.000000	0.000208
3931.000000	0.000212
3930.000000	0.000216
3929.000000	0.000215
3928.000000	0.000213
3927.000000	0.000213
3926.000000	0.000216
3925.000000	0.000222
3924.000000	0.000223
3923.000000	0.000219
3922.000000	0.000215
3921.000000	0.000218
3920.000000	0.000228
3919.000000	0.000243
3918.000000	0.000255
3917.000000	0.000261
3916.000000	0.000258
3915.000000	0.000250
3914.000000	0.000245
3913.000000	0.000248
3912.000000	0.000255
3911.000000	0.000262
3910.000000	0.000266
3909.000000	0.000267
3908.000000	0.000267
3907.000000	0.000270
3906.000000	0.000272
3905.000000	0.000263
3904.000000	0.000232
3903.000000	0.000179
3902.000000	0.000123
3901.000000	0.000089
3900.000000	0.000088
3899.000000	0.000114
3898.000000	0.000156
3897.000000	0.000208
3896.000000	0.000263
3895.000000	0.000313
3894.000000	0.000347
3893.000000	0.000356
3892.000000	0.000340
3891.000000	0.000305
3890.000000	0.000273
3889.000000	0.000262
3888.000000	0.000279
3887.000000	0.000310
3886.000000	0.000329
3885.000000	0.000321
3884.000000	0.000296
3883.000000	0.000274
3882.000000	0.000263
3881.000000	0.000254
3880.000000	0.000238
3879.000000	0.000220
3878.000000	0.000216
3877.000000	0.000226
3876.000000	0.000239
3875.000000	0.000243
3874.000000	0.000237
3873.000000	0.000224
3872.000000	0.000213
3871.000000	0.000210
3870.000000	0.000214
3869.000000	0.000219
3868.000000	0.000225
3867.000000	0.000240
3866.000000	0.000261
3865.000000	0.000278
3864.000000	0.000286
3863.000000	0.000289
3862.000000	0.000292
3861.000000	0.000294
3860.000000	0.000289
3859.000000	0.000275
3858.000000	0.000257
3857.000000	0.000238
3856.000000	0.000219
3855.000000	0.000200
3854.000000	0.000198
3853.000000	0.000213
3852.000000	0.000220
3851.000000	0.000217
3850.000000	0.000219
3849.000000	0.000225
3848.000000	0.000233
3847.000000	0.000242
3846.000000	0.000256
3845.000000	0.000278
3844.000000	0.000300
3843.000000	0.000306
3842.000000	0.000291
3841.000000	0.000264
3840.000000	0.000244
3839.000000	0.000234
3838.000000	0.000224
3837.000000	0.000206
3836.000000	0.000188
3835.000000	0.000188
3834.000000	0.000208
3833.000000	0.000235
3832.000000	0.000252
3831.000000	0.000253
3830.000000	0.000248
3829.000000	0.000246
3828.000000	0.000250
3827.000000	0.000257
3826.000000	0.000260
3825.000000	0.000255
3824.000000	0.000244
3823.000000	0.000234
3822.000000	0.000234
3821.000000	0.000243
3820.000000	0.000250
3819.000000	0.000254
3818.000000	0.000264
3817.000000	0.000275
3816.000000	0.000269
3815.000000	0.000243
3814.000000	0.000220
3813.000000	0.000219
3812.000000	0.000240
3811.000000	0.000262
3810.000000	0.000269
3809.000000	0.000257
3808.000000	0.000237
3807.000000	0.000222
3806.000000	0.000217
3805.000000	0.000224
3804.000000	0.000249
3803.000000	0.000293
3802.000000	0.000339
3801.000000	0.000366
3800.000000	0.000361
3799.000000	0.000342
3798.000000	0.000322
3797.000000	0.000301
3796.000000	0.000274
3795.000000	0.000245
3794.000000	0.000227
3793.000000	0.000224
3792.000000	0.000233
3791.000000	0.000249
3790.000000	0.000271
3789.000000	0.000301
3788.000000	0.000338
3787.000000	0.000379
3786.000000	0.000408
3785.000000	0.000410
3784.000000	0.000378
3783.000000	0.000328
3782.000000	0.000287
3781.000000	0.000275
3780.000000	0.000295
3779.000000	0.000327
3778.000000	0.000349
3777.000000	0.000353
3776.000000	0.000347
3775.000000	0.000340
3774.000000	0.000334
3773.000000	0.000329
3772.000000	0.000323
3771.000000	0.000317
3770.000000	0.000311
3769.000000	0.000306
3768.000000	0.000305
3767.000000	0.000309
3766.000000	0.000312
3765.000000	0.000308
3764.000000	0.000298
3763.000000	0.000283
3762.000000	0.000266
3761.000000	0.000246
3760.000000	0.000230
3759.000000	0.000231
3758.000000	0.000253
3757.000000	0.000286
3756.000000	0.000315
3755.000000	0.000326
3754.000000	0.000315
3753.000000	0.000283
3752.000000	0.000240
3751.000000	0.000194
3750.000000	0.000145
3749.000000	0.000100
3748.000000	0.000081
3747.000000	0.000103
3746.000000	0.000158
3745.000000	0.000214
3744.000000	0.000233
3743.000000	0.000223
3742.000000	0.000222
3741.000000	0.000243
3740.000000	0.000263
3739.000000	0.000259
3738.000000	0.000225
3737.000000	0.000180
3736.000000	0.000154
3735.000000	0.000158
3734.000000	0.000182
3733.000000	0.000209
3732.000000	0.000230
3731.000000	0.000241
3730.000000	0.000245
3729.000000	0.000246
3728.000000	0.000248
3727.000000	0.000252
3726.000000	0.000260
3725.000000	0.000270
3724.000000	0.000284
3723.000000	0.000300
3722.000000	0.000312
3721.000000	0.000315
3720.000000	0.000309
3719.000000	0.000299
3718.000000	0.000292
3717.000000	0.000293
3716.000000	0.000297
3715.000000	0.000300
3714.000000	0.000298
3713.000000	0.000293
3712.000000	0.000286
3711.000000	0.000271
3710.000000	0.000241
3709.000000	0.000203
3708.000000	0.000181
3707.000000	0.000188
3706.000000	0.000219
3705.000000	0.000255
3704.000000	0.000280
3703.000000	0.000288
3702.000000	0.000282
3701.000000	0.000267
3700.000000	0.000250
3699.000000	0.000238
3698.000000	0.000233
3697.000000	0.000234
3696.000000	0.000235
3695.000000	0.000233
3694.000000	0.000230
3693.000000	0.000223
3692.000000	0.000212
3691.000000	0.000206
3690.000000	0.000217
3689.000000	0.000245
3688.000000	0.000270
3687.000000	0.000284
3686.000000	0.000294
3685.000000	0.000309
3684.000000	0.000325
3683.000000	0.000329
3682.000000	0.000314
3681.000000	0.000285
3680.000000	0.000252
3679.000000	0.000217
3678.000000	0.000177
3677.000000	0.000134
3676.000000	0.000102
3675.000000	0.000093
3674.000000	0.000108
3673.000000	0.000151
3672.000000	0.000211
3671.000000	0.000261
3670.000000	0.000282
3669.000000	0.000280
3668.000000	0.000277
3667.000000	0.000288
3666.000000	0.000308
3665.000000	0.000322
3664.000000	0.000329
3663.000000	0.000331
3662.000000	0.000332
3661.000000	0.000332
3660.000000	0.000327
3659.000000	0.000318
3658.000000	0.000302
3657.000000	0.000276
3656.000000	0.000241
3655.000000	0.000202
3654.000000	0.000171
3653.000000	0.000152
3652.000000	0.000142
3651.000000	0.000143
3650.000000	0.000161
3649.000000	0.000195
3648.000000	0.000231
3647.000000	0.000256
3646.000000	0.000271
3645.000000	0.000287
3644.000000	0.000313
3643.000000	0.000351
3642.000000	0.000397
3641.000000	0.000441
3640.000000	0.000472
3639.000000	0.000482
3638.000000	0.000468
3637.000000	0.000438
3636.000000	0.000409
3635.000000	0.000395
3634.000000	0.000398
3633.000000	0.000407
3632.000000	0.000411
3631.000000	0.000411
3630.000000	0.000420
3629.000000	0.000447
3628.000000	0.000476
3627.000000	0.000491
3626.000000	0.000501
3625.000000	0.000505
3624.000000	0.000503
3623.000000	0.000495
3622.000000	0.000488
3621.000000	0.000483
3620.000000	0.000472
3619.000000	0.000451
3618.000000	0.000421
3617.000000	0.000398
3616.000000	0.000389
3615.000000	0.000389
3614.000000	0.000391
3613.000000	0.000394
3612.000000	0.000398
3611.000000	0.000409
3610.000000	0.000427
3609.000000	0.000454
3608.000000	0.000484
3607.000000	0.000508
3606.000000	0.000519
3605.000000	0.000521
3604.000000	0.000521
3603.000000	0.000529
3602.000000	0.000552
3601.000000	0.000593
3600.000000	0.000643
3599.000000	0.000684
3598.000000	0.000704
3597.000000	0.000698
3596.000000	0.000676
3595.000000	0.000656
3594.000000	0.000650
3593.000000	0.000654
3592.000000	0.000658
3591.000000	0.000650
3590.000000	0.000635
3589.000000	0.000625
3588.000000	0.000634
3587.000000	0.000653
3586.000000	0.000659
3585.000000	0.000651
3584.000000	0.000645
3583.000000	0.000655
3582.000000	0.000680
3581.000000	0.000705
3580.000000	0.000712
3579.000000	0.000697
3578.000000	0.000674
3577.000000	0.000663
3576.000000	0.000678
3575.000000	0.000717
3574.000000	0.000766
3573.000000	0.000807
3572.000000	0.000832
3571.000000	0.000843
3570.000000	0.000845
3569.000000	0.000843
3568.000000	0.000839
3567.000000	0.000838
3566.000000	0.000841
3565.000000	0.000846
3564.000000	0.000854
3563.000000	0.000861
3562.000000	0.000863
3561.000000	0.000862
3560.000000	0.000861
3559.000000	0.000863
3558.000000	0.000868
3557.000000	0.000877
3556.000000	0.000890
3555.000000	0.000901
3554.000000	0.000905
3553.000000	0.000896
3552.000000	0.000878
3551.000000	0.000864
3550.000000	0.000869
3549.000000	0.000898
3548.000000	0.000940
3547.000000	0.000977
3546.000000	0.000995
3545.000000	0.000990
3544.000000	0.000972
3543.000000	0.000959
3542.000000	0.000960
3541.000000	0.000972
3540.000000	0.000983
3539.000000	0.000985
3538.000000	0.000982
3537.000000	0.000985
3536.000000	0.000998
3535.000000	0.001018
3534.000000	0.001037
3533.000000	0.001050
3532.000000	0.001057
3531.000000	0.001058
3530.000000	0.001055
3529.000000	0.001048
3528.000000	0.001039
3527.000000	0.001034
3526.000000	0.001042
3525.000000	0.001069
3524.000000	0.001108
3523.000000	0.001140
3522.000000	0.001153
3521.000000	0.001145
3520.000000	0.001130
3519.000000	0.001122
3518.000000	0.001131
3517.000000	0.001153
3516.000000	0.001177
3515.000000	0.001190
3514.000000	0.001184
3513.000000	0.001168
3512.000000	0.001160
3511.000000	0.001172
3510.000000	0.001199
3509.000000	0.001227
3508.000000	0.001243
3507.000000	0.001247
3506.000000	0.001248
3505.000000	0.001252
3504.000000	0.001262
3503.000000	0.001272
3502.000000	0.001279
3501.000000	0.001279
3500.000000	0.001270
3499.000000	0.001252
3498.000000	0.001231
3497.000000	0.001220
3496.000000	0.001230
3495.000000	0.001259
3494.000000	0.001295
3493.000000	0.001319
3492.000000	0.001322
3491.000000	0.001303
3490.000000	0.001274
3489.000000	0.001251
3488.000000	0.001244
3487.000000	0.001258
3486.000000	0.001288
3485.000000	0.001327
3484.000000	0.001365
3483.000000	0.001393
3482.000000	0.001409
3481.000000	0.001415
3480.000000	0.001416
3479.000000	0.001411
3478.000000	0.001401
3477.000000	0.001392
3476.000000	0.001394
3475.000000	0.001414
3474.000000	0.001443
3473.000000	0.001463
3472.000000	0.001463
3471.000000	0.001444
3470.000000	0.001417
3469.000000	0.001390
3468.000000	0.001370
3467.000000	0.001361
3466.000000	0.001366
3465.000000	0.001386
3464.000000	0.001408
3463.000000	0.001421
3462.000000	0.001428
3461.000000	0.001442
3460.000000	0.001472
3459.000000	0.001507
3458.000000	0.001535
3457.000000	0.001550
3456.000000	0.001556
3455.000000	0.001556
3454.000000	0.001551
3453.000000	0.001539
3452.000000	0.001528
3451.000000	0.001526
3450.000000	0.001538
3449.000000	0.001557
3448.000000	0.001572
3447.000000	0.001573
3446.000000	0.001570
3445.000000	0.001577
3444.000000	0.001601
3443.000000	0.001634
3442.000000	0.001655
3441.000000	0.001658
3440.000000	0.001650
3439.000000	0.001643
3438.000000	0.001648
3437.000000	0.001665
3436.000000	0.001689
3435.000000	0.001710
3434.000000	0.001716
3433.000000	0.001703
3432.000000	0.001680
3431.000000	0.001660
3430.000000	0.001656
3429.000000	0.001670
3428.000000	0.001694
3427.000000	0.001718
3426.000000	0.001731
3425.000000	0.001730
3424.000000	0.001720
3423.000000	0.001709
3422.000000	0.001702
3421.000000	0.001699
3420.000000	0.001699
3419.000000	0.001701
3418.000000	0.001708
3417.000000	0.001718
3416.000000	0.001731
3415.000000	0.001744
3414.000000	0.001757
3413.000000	0.001767
3412.000000	0.001771
3411.000000	0.001771
3410.000000	0.001772
3409.000000	0.001778
3408.000000	0.001789
3407.000000	0.001806
3406.000000	0.001824
3405.000000	0.001839
3404.000000	0.001850
3403.000000	0.001859
3402.000000	0.001873
3401.000000	0.001890
3400.000000	0.001904
3399.000000	0.001908
3398.000000	0.001901
3397.000000	0.001884
3396.000000	0.001862
3395.000000	0.001849
3394.000000	0.001859
3393.000000	0.001889
3392.000000	0.001924
3391.000000	0.001944
3390.000000	0.001945
3389.000000	0.001933
3388.000000	0.001918
3387.000000	0.001903
3386.000000	0.001895
3385.000000	0.001902
3384.000000	0.001924
3383.000000	0.001952
3382.000000	0.001968
3381.000000	0.001963
3380.000000	0.001935
3379.000000	0.001899
3378.000000	0.001871
3377.000000	0.001861
3376.000000	0.001867
3375.000000	0.001881
3374.000000	0.001898
3373.000000	0.001915
3372.000000	0.001932
3371.000000	0.001951
3370.000000	0.001978
3369.000000	0.002011
3368.000000	0.002043
3367.000000	0.002061
3366.000000	0.002061
3365.000000	0.002048
3364.000000	0.002030
3363.000000	0.002009
3362.000000	0.001987
3361.000000	0.001968
3360.000000	0.001955
3359.000000	0.001950
3358.000000	0.001949
3357.000000	0.001948
3356.000000	0.001949
3355.000000	0.001956
3354.000000	0.001971
3353.000000	0.001991
3352.000000	0.002008
3351.000000	0.002016
3350.000000	0.002019
3349.000000	0.002027
3348.000000	0.002045
3347.000000	0.002064
3346.000000	0.002069
3345.000000	0.002053
3344.000000	0.002024
3343.000000	0.002000
3342.000000	0.001997
3341.000000	0.002016
3340.000000	0.002046
3339.000000	0.002069
3338.000000	0.002074
3337.000000	0.002063
3336.000000	0.002047
3335.000000	0.002035
3334.000000	0.002028
3333.000000	0.002026
3332.000000	0.002026
3331.000000	0.002027
3330.000000	0.002030
3329.000000	0.002035
3328.000000	0.002047
3327.000000	0.002074
3326.000000	0.002117
3325.000000	0.002166
3324.000000	0.002202
3323.000000	0.002211
3322.000000	0.002195
3321.000000	0.002169
3320.000000	0.002145
3319.000000	0.002131
3318.000000	0.002128
3317.000000	0.002137
3316.000000	0.002158
3315.000000	0.002184
3314.000000	0.002207
3313.000000	0.002214
3312.000000	0.002201
3311.000000	0.002175
3310.000000	0.002149
3309.000000	0.002134
3308.000000	0.002135
3307.000000	0.002146
3306.000000	0.002159
3305.000000	0.002171
3304.000000	0.002178
3303.000000	0.002178
3302.000000	0.002174
3301.000000	0.002170
3300.000000	0.002172
3299.000000	0.002181
3298.000000	0.002198
3297.000000	0.002219
3296.000000	0.002239
3295.000000	0.002250
3294.000000	0.002246
3293.000000	0.002231
3292.000000	0.002210
3291.000000	0.002189
3290.000000	0.002177
3289.000000	0.002182
3288.000000	0.002203
3287.000000	0.002230
3286.000000	0.002251
3285.000000	0.002262
3284.000000	0.002263
3283.000000	0.002250
3282.000000	0.002222
3281.000000	0.002186
3280.000000	0.002159
3279.000000	0.002149
3278.000000	0.002150
3277.000000	0.002152
3276.000000	0.002149
3275.000000	0.002144
3274.000000	0.002142
3273.000000	0.002142
3272.000000	0.002142
3271.000000	0.002140
3270.000000	0.002134
3269.000000	0.002128
3268.000000	0.002132
3267.000000	0.002150
3266.000000	0.002179
3265.000000	0.002205
3264.000000	0.002217
3263.000000	0.002214
3262.000000	0.002209
3261.000000	0.002205
3260.000000	0.002197
3259.000000	0.002179
3258.000000	0.002153
3257.000000	0.002131
3256.000000	0.002118
3255.000000	0.002111
3254.000000	0.002101
3253.000000	0.002085
3252.000000	0.002064
3251.000000	0.002045
3250.000000	0.002035
3249.000000	0.002043
3248.000000	0.002067
3247.000000	0.002096
3246.000000	0.002116
3245.000000	0.002123
3244.000000	0.002123
3243.000000	0.002126
3242.000000	0.002133
3241.000000	0.002138
3240.000000	0.002136
3239.000000	0.002122
3238.000000	0.002098
3237.000000	0.002071
3236.000000	0.002050
3235.000000	0.002047
3234.000000	0.002062
3233.000000	0.002089
3232.000000	0.002112
3231.000000	0.002116
3230.000000	0.002101
3229.000000	0.002079
3228.000000	0.002062
3227.000000	0.002049
3226.000000	0.002033
3225.000000	0.002015
3224.000000	0.002005
3223.000000	0.002008
3222.000000	0.002019
3221.000000	0.002028
3220.000000	0.002034
3219.000000	0.002038
3218.000000	0.002040
3217.000000	0.002036
3216.000000	0.002028
3215.000000	0.002023
3214.000000	0.002025
3213.000000	0.002030
3212.000000	0.002034
3211.000000	0.002034
3210.000000	0.002029
3209.000000	0.002024
3208.000000	0.002020
3207.000000	0.002021
3206.000000	0.002018
3205.000000	0.002005
3204.000000	0.001983
3203.000000	0.001960
3202.000000	0.001944
3201.000000	0.001935
3200.000000	0.001929
3199.000000	0.001922
3198.000000	0.001916
3197.000000	0.001917
3196.000000	0.001929
3195.000000	0.001947
3194.000000	0.001959
3193.000000	0.001953
3192.000000	0.001933
3191.000000	0.001916
3190.000000	0.001914
3189.000000	0.001922
3188.000000	0.001923
3187.000000	0.001913
3186.000000	0.001897
3185.000000	0.001885
3184.000000	0.001882
3183.000000	0.001882
3182.000000	0.001882
3181.000000	0.001880
3180.000000	0.001881
3179.000000	0.001887
3178.000000	0.001900
3177.000000	0.001914
3176.000000	0.001924
3175.000000	0.001931
3174.000000	0.001937
3173.000000	0.001939
3172.000000	0.001929
3171.000000	0.001902
3170.000000	0.001861
3169.000000	0.001821
3168.000000	0.001800
3167.000000	0.001805
3166.000000	0.001825
3165.000000	0.001837
3164.000000	0.001824
3163.000000	0.001794
3162.000000	0.001769
3161.000000	0.001769
3160.000000	0.001789
3159.000000	0.001811
3158.000000	0.001819
3157.000000	0.001816
3156.000000	0.001808
3155.000000	0.001795
3154.000000	0.001771
3153.000000	0.001736
3152.000000	0.001699
3151.000000	0.001673
3150.000000	0.001666
3149.000000	0.001676
3148.000000	0.001694
3147.000000	0.001707
3146.000000	0.001706
3145.000000	0.001698
3144.000000	0.001694
3143.000000	0.001698
3142.000000	0.001703
3141.000000	0.001703
3140.000000	0.001698
3139.000000	0.001695
3138.000000	0.001695
3137.000000	0.001694
3136.000000	0.001686
3135.000000	0.001673
3134.000000	0.001662
3133.000000	0.001656
3132.000000	0.001652
3131.000000	0.001645
3130.000000	0.001638
3129.000000	0.001636
3128.000000	0.001642
3127.000000	0.001655
3126.000000	0.001666
3125.000000	0.001670
3124.000000	0.001662
3123.000000	0.001646
3122.000000	0.001633
3121.000000	0.001628
3120.000000	0.001633
3119.000000	0.001636
3118.000000	0.001630
3117.000000	0.001615
3116.000000	0.001599
3115.000000	0.001591
3114.000000	0.001595
3113.000000	0.001612
3112.000000	0.001637
3111.000000	0.001655
3110.000000	0.001654
3109.000000	0.001631
3108.000000	0.001600
3107.000000	0.001578
3106.000000	0.001570
3105.000000	0.001572
3104.000000	0.001573
3103.000000	0.001566
3102.000000	0.001554
3101.000000	0.001544
3100.000000	0.001542
3099.000000	0.001551
3098.000000	0.001567
3097.000000	0.001586
3096.000000	0.001602
3095.000000	0.001614
3094.000000	0.001623
3093.000000	0.001625
3092.000000	0.001622
3091.000000	0.001617
3090.000000	0.001617
3089.000000	0.001626
3088.000000	0.001642
3087.000000	0.001661
3086.000000	0.001675
3085.000000	0.001680
3084.000000	0.001676
3083.000000	0.001666
3082.000000	0.001656
3081.000000	0.001649
3080.000000	0.001646
3079.000000	0.001647
3078.000000	0.001648
3077.000000	0.001647
3076.000000	0.001639
3075.000000	0.001627
3074.000000	0.001618
3073.000000	0.001618
3072.000000	0.001623
3071.000000	0.001625
3070.000000	0.001618
3069.000000	0.001608
3068.000000	0.001597
3067.000000	0.001586
3066.000000	0.001574
3065.000000	0.001566
3064.000000	0.001570
3063.000000	0.001589
3062.000000	0.001609
3061.000000	0.001615
3060.000000	0.001600
3059.000000	0.001574
3058.000000	0.001551
3057.000000	0.001538
3056.000000	0.001533
3055.000000	0.001528
3054.000000	0.001520
3053.000000	0.001508
3052.000000	0.001498
3051.000000	0.001494
3050.000000	0.001495
3049.000000	0.001502
3048.000000	0.001509
3047.000000	0.001508
3046.000000	0.001497
3045.000000	0.001477
3044.000000	0.001452
3043.000000	0.001429
3042.000000	0.001416
3041.000000	0.001422
3040.000000	0.001446
3039.000000	0.001475
3038.000000	0.001491
3037.000000	0.001488
3036.000000	0.001475
3035.000000	0.001467
3034.000000	0.001475
3033.000000	0.001495
3032.000000	0.001517
3031.000000	0.001529
3030.000000	0.001527
3029.000000	0.001513
3028.000000	0.001498
3027.000000	0.001485
3026.000000	0.001471
3025.000000	0.001452
3024.000000	0.001429
3023.000000	0.001408
3022.000000	0.001395
3021.000000	0.001392
3020.000000	0.001399
3019.000000	0.001412
3018.000000	0.001426
3017.000000	0.001436
3016.000000	0.001437
3015.000000	0.001430
3014.000000	0.001412
3013.000000	0.001387
3012.000000	0.001365
3011.000000	0.001360
3010.000000	0.001382
3009.000000	0.001420
3008.000000	0.001458
3007.000000	0.001483
3006.000000	0.001488
3005.000000	0.001472
3004.000000	0.001441
3003.000000	0.001408
3002.000000	0.001391
3001.000000	0.001396
3000.000000	0.001410
2999.000000	0.001418
2998.000000	0.001416
2997.000000	0.001409
2996.000000	0.001405
2995.000000	0.001400
2994.000000	0.001396
2993.000000	0.001397
2992.000000	0.001406
2991.000000	0.001418
2990.000000	0.001419
2989.000000	0.001405
2988.000000	0.001386
2987.000000	0.001376
2986.000000	0.001378
2985.000000	0.001386
2984.000000	0.001389
2983.000000	0.001386
2982.000000	0.001382
2981.000000	0.001385
2980.000000	0.001401
2979.000000	0.001433
2978.000000	0.001470
2977.000000	0.001499
2976.000000	0.001508
2975.000000	0.001500
2974.000000	0.001489
2973.000000	0.001488
2972.000000	0.001498
2971.000000	0.001514
2970.000000	0.001532
2969.000000	0.001548
2968.000000	0.001561
2967.000000	0.001569
2966.000000	0.001578
2965.000000	0.001594
2964.000000	0.001617
2963.000000	0.001637
2962.000000	0.001645
2961.000000	0.001641
2960.000000	0.001631
2959.000000	0.001624
2958.000000	0.001623
2957.000000	0.001630
2956.000000	0.001645
2955.000000	0.001663
2954.000000	0.001678
2953.000000	0.001684
2952.000000	0.001677
2951.000000	0.001661
2950.000000	0.001650
2949.000000	0.001653
2948.000000	0.001672
2947.000000	0.001698
2946.000000	0.001719
2945.000000	0.001728
2944.000000	0.001722
2943.000000	0.001709
2942.000000	0.001699
2941.000000	0.001703
2940.000000	0.001725
2939.000000	0.001757
2938.000000	0.001782
2937.000000	0.001791
2936.000000	0.001793
2935.000000	0.001800
2934.000000	0.001818
2933.000000	0.001842
2932.000000	0.001863
2931.000000	0.001876
2930.000000	0.001881
2929.000000	0.001881
2928.000000	0.001881
2927.000000	0.001882
2926.000000	0.001885
2925.000000	0.001891
2924.000000	0.001903
2923.000000	0.001920
2922.000000	0.001936
2921.000000	0.001948
2920.000000	0.001956
2919.000000	0.001964
2918.000000	0.001966
2917.000000	0.001954
2916.000000	0.001929
2915.000000	0.001901
2914.000000	0.001877
2913.000000	0.001852
2912.000000	0.001824
2911.000000	0.001802
2910.000000	0.001796
2909.000000	0.001805
2908.000000	0.001816
2907.000000	0.001817
2906.000000	0.001806
2905.000000	0.001786
2904.000000	0.001765
2903.000000	0.001748
2902.000000	0.001738
2901.000000	0.001733
2900.000000	0.001723
2899.000000	0.001707
2898.000000	0.001689
2897.000000	0.001678
2896.000000	0.001679
2895.000000	0.001689
2894.000000	0.001701
2893.000000	0.001705
2892.000000	0.001692
2891.000000	0.001660
2890.000000	0.001621
2889.000000	0.001589
2888.000000	0.001571
2887.000000	0.001566
2886.000000	0.001567
2885.000000	0.001568
2884.000000	0.001565
2883.000000	0.001558
2882.000000	0.001554
2881.000000	0.001562
2880.000000	0.001580
2879.000000	0.001599
2878.000000	0.001608
2877.000000	0.001602
2876.000000	0.001590
2875.000000	0.001581
2874.000000	0.001584
2873.000000	0.001596
2872.000000	0.001605
2871.000000	0.001602
2870.000000	0.001587
2869.000000	0.001571
2868.000000	0.001563
2867.000000	0.001563
2866.000000	0.001565
2865.000000	0.001568
2864.000000	0.001577
2863.000000	0.001596
2862.000000	0.001620
2861.000000	0.001640
2860.000000	0.001654
2859.000000	0.001666
2858.000000	0.001682
2857.000000	0.001695
2856.000000	0.001695
2855.000000	0.001678
2854.000000	0.001656
2853.000000	0.001641
2852.000000	0.001634
2851.000000	0.001622
2850.000000	0.001603
2849.000000	0.001583
2848.000000	0.001571
2847.000000	0.001564
2846.000000	0.001553
2845.000000	0.001537
2844.000000	0.001525
2843.000000	0.001523
2842.000000	0.001524
2841.000000	0.001517
2840.000000	0.001499
2839.000000	0.001477
2838.000000	0.001461
2837.000000	0.001457
2836.000000	0.001457
2835.000000	0.001452
2834.000000	0.001435
2833.000000	0.001409
2832.000000	0.001390
2831.000000	0.001389
2830.000000	0.001409
2829.000000	0.001443
2828.000000	0.001478
2827.000000	0.001501
2826.000000	0.001501
2825.000000	0.001478
2824.000000	0.001443
2823.000000	0.001411
2822.000000	0.001397
2821.000000	0.001397
2820.000000	0.001404
2819.000000	0.001410
2818.000000	0.001415
2817.000000	0.001423
2816.000000	0.001432
2815.000000	0.001435
2814.000000	0.001427
2813.000000	0.001413
2812.000000	0.001402
2811.000000	0.001397
2810.000000	0.001391
2809.000000	0.001381
2808.000000	0.001368
2807.000000	0.001361
2806.000000	0.001363
2805.000000	0.001369
2804.000000	0.001368
2803.000000	0.001354
2802.000000	0.001333
2801.000000	0.001319
2800.000000	0.001322
2799.000000	0.001339
2798.000000	0.001359
2797.000000	0.001371
2796.000000	0.001369
2795.000000	0.001354
2794.000000	0.001334
2793.000000	0.001323
2792.000000	0.001331
2791.000000	0.001351
2790.000000	0.001369
2789.000000	0.001370
2788.000000	0.001358
2787.000000	0.001345
2786.000000	0.001341
2785.000000	0.001347
2784.000000	0.001353
2783.000000	0.001347
2782.000000	0.001326
2781.000000	0.001293
2780.000000	0.001262
2779.000000	0.001244
2778.000000	0.001247
2777.000000	0.001266
2776.000000	0.001291
2775.000000	0.001309
2774.000000	0.001316
2773.000000	0.001316
2772.000000	0.001314
2771.000000	0.001307
2770.000000	0.001294
2769.000000	0.001282
2768.000000	0.001281
2767.000000	0.001294
2766.000000	0.001308
2765.000000	0.001311
2764.000000	0.001303
2763.000000	0.001293
2762.000000	0.001294
2761.000000	0.001310
2760.000000	0.001338
2759.000000	0.001367
2758.000000	0.001385
2757.000000	0.001386
2756.000000	0.001374
2755.000000	0.001355
2754.000000	0.001337
2753.000000	0.001325
2752.000000	0.001321
2751.000000	0.001324
2750.000000	0.001331
2749.000000	0.001339
2748.000000	0.001347
2747.000000	0.001358
2746.000000	0.001370
2745.000000	0.001380
2744.000000	0.001384
2743.000000	0.001384
2742.000000	0.001383
2741.000000	0.001377
2740.000000	0.001361
2739.000000	0.001334
2738.000000	0.001303
2737.000000	0.001278
2736.000000	0.001264
2735.000000	0.001266
2734.000000	0.001281
2733.000000	0.001302
2732.000000	0.001321
2731.000000	0.001333
2730.000000	0.001336
2729.000000	0.001334
2728.000000	0.001333
2727.000000	0.001332
2726.000000	0.001330
2725.000000	0.001323
2724.000000	0.001312
2723.000000	0.001303
2722.000000	0.001300
2721.000000	0.001303
2720.000000	0.001308
2719.000000	0.001307
2718.000000	0.001299
2717.000000	0.001287
2716.000000	0.001280
2715.000000	0.001282
2714.000000	0.001289
2713.000000	0.001299
2712.000000	0.001308
2711.000000	0.001312
2710.000000	0.001311
2709.000000	0.001306
2708.000000	0.001300
2707.000000	0.001297
2706.000000	0.001295
2705.000000	0.001290
2704.000000	0.001280
2703.000000	0.001263
2702.000000	0.001244
2701.000000	0.001230
2700.000000	0.001227
2699.000000	0.001234
2698.000000	0.001246
2697.000000	0.001263
2696.000000	0.001286
2695.000000	0.001309
2694.000000	0.001320
2693.000000	0.001310
2692.000000	0.001283
2691.000000	0.001259
2690.000000	0.001253
2689.000000	0.001263
2688.000000	0.001282
2687.000000	0.001298
2686.000000	0.001303
2685.000000	0.001299
2684.000000	0.001288
2683.000000	0.001279
2682.000000	0.001277
2681.000000	0.001287
2680.000000	0.001307
2679.000000	0.001331
2678.000000	0.001352
2677.000000	0.001358
2676.000000	0.001343
2675.000000	0.001313
2674.000000	0.001280
2673.000000	0.001259
2672.000000	0.001256
2671.000000	0.001266
2670.000000	0.001279
2669.000000	0.001285
2668.000000	0.001284
2667.000000	0.001280
2666.000000	0.001281
2665.000000	0.001292
2664.000000	0.001306
2663.000000	0.001315
2662.000000	0.001316
2661.000000	0.001312
2660.000000	0.001310
2659.000000	0.001310
2658.000000	0.001306
2657.000000	0.001298
2656.000000	0.001295
2655.000000	0.001304
2654.000000	0.001322
2653.000000	0.001333
2652.000000	0.001330
2651.000000	0.001320
2650.000000	0.001316
2649.000000	0.001317
2648.000000	0.001316
2647.000000	0.001305
2646.000000	0.001288
2645.000000	0.001276
2644.000000	0.001276
2643.000000	0.001284
2642.000000	0.001286
2641.000000	0.001276
2640.000000	0.001257
2639.000000	0.001240
2638.000000	0.001233
2637.000000	0.001239
2636.000000	0.001252
2635.000000	0.001269
2634.000000	0.001289
2633.000000	0.001308
2632.000000	0.001319
2631.000000	0.001315
2630.000000	0.001298
2629.000000	0.001279
2628.000000	0.001271
2627.000000	0.001273
2626.000000	0.001271
2625.000000	0.001251
2624.000000	0.001212
2623.000000	0.001166
2622.000000	0.001124
2621.000000	0.001091
2620.000000	0.001066
2619.000000	0.001056
2618.000000	0.001065
2617.000000	0.001090
2616.000000	0.001119
2615.000000	0.001137
2614.000000	0.001136
2613.000000	0.001122
2612.000000	0.001108
2611.000000	0.001107
2610.000000	0.001121
2609.000000	0.001140
2608.000000	0.001147
2607.000000	0.001138
2606.000000	0.001126
2605.000000	0.001127
2604.000000	0.001140
2603.000000	0.001153
2602.000000	0.001153
2601.000000	0.001143
2600.000000	0.001136
2599.000000	0.001137
2598.000000	0.001137
2597.000000	0.001130
2596.000000	0.001116
2595.000000	0.001101
2594.000000	0.001088
2593.000000	0.001079
2592.000000	0.001076
2591.000000	0.001082
2590.000000	0.001093
2589.000000	0.001104
2588.000000	0.001115
2587.000000	0.001129
2586.000000	0.001143
2585.000000	0.001149
2584.000000	0.001140
2583.000000	0.001115
2582.000000	0.001079
2581.000000	0.001047
2580.000000	0.001030
2579.000000	0.001030
2578.000000	0.001039
2577.000000	0.001041
2576.000000	0.001033
2575.000000	0.001020
2574.000000	0.001013
2573.000000	0.001019
2572.000000	0.001032
2571.000000	0.001042
2570.000000	0.001037
2569.000000	0.001022
2568.000000	0.001013
2567.000000	0.001022
2566.000000	0.001042
2565.000000	0.001054
2564.000000	0.001052
2563.000000	0.001047
2562.000000	0.001047
2561.000000	0.001051
2560.000000	0.001045
2559.000000	0.001020
2558.000000	0.000978
2557.000000	0.000928
2556.000000	0.000888
2555.000000	0.000876
2554.000000	0.000896
2553.000000	0.000931
2552.000000	0.000956
2551.000000	0.000961
2550.000000	0.000951
2549.000000	0.000936
2548.000000	0.000922
2547.000000	0.000912
2546.000000	0.000915
2545.000000	0.000930
2544.000000	0.000944
2543.000000	0.000942
2542.000000	0.000930
2541.000000	0.000933
2540.000000	0.000967
2539.000000	0.001017
2538.000000	0.001048
2537.000000	0.001043
2536.000000	0.001015
2535.000000	0.000993
2534.000000	0.000989
2533.000000	0.000997
2532.000000	0.001003
2531.000000	0.001003
2530.000000	0.001000
2529.000000	0.000997
2528.000000	0.000995
2527.000000	0.000996
2526.000000	0.000997
2525.000000	0.000990
2524.000000	0.000971
2523.000000	0.000942
2522.000000	0.000914
2521.000000	0.000894
2520.000000	0.000887
2519.000000	0.000890
2518.000000	0.000896
2517.000000	0.000903
2516.000000	0.000912
2515.000000	0.000919
2514.000000	0.000910
2513.000000	0.000873
2512.000000	0.000824
2511.000000	0.000797
2510.000000	0.000812
2509.000000	0.000859
2508.000000	0.000912
2507.000000	0.000953
2506.000000	0.000977
2505.000000	0.000983
2504.000000	0.000978
2503.000000	0.000979
2502.000000	0.000998
2501.000000	0.001029
2500.000000	0.001049
2499.000000	0.001044
2498.000000	0.001018
2497.000000	0.000989
2496.000000	0.000974
2495.000000	0.000984
2494.000000	0.001011
2493.000000	0.001036
2492.000000	0.001038
2491.000000	0.001018
2490.000000	0.000992
2489.000000	0.000976
2488.000000	0.000977
2487.000000	0.000989
2486.000000	0.001001
2485.000000	0.000997
2484.000000	0.000968
2483.000000	0.000919
2482.000000	0.000878
2481.000000	0.000869
2480.000000	0.000884
2479.000000	0.000901
2478.000000	0.000910
2477.000000	0.000921
2476.000000	0.000941
2475.000000	0.000961
2474.000000	0.000973
2473.000000	0.000982
2472.000000	0.001000
2471.000000	0.001024
2470.000000	0.001033
2469.000000	0.001012
2468.000000	0.000971
2467.000000	0.000930
2466.000000	0.000901
2465.000000	0.000885
2464.000000	0.000883
2463.000000	0.000900
2462.000000	0.000931
2461.000000	0.000962
2460.000000	0.000973
2459.000000	0.000960
2458.000000	0.000934
2457.000000	0.000914
2456.000000	0.000912
2455.000000	0.000932
2454.000000	0.000963
2453.000000	0.000994
2452.000000	0.001011
2451.000000	0.001007
2450.000000	0.000987
2449.000000	0.000963
2448.000000	0.000952
2447.000000	0.000959
2446.000000	0.000971
2445.000000	0.000972
2444.000000	0.000955
2443.000000	0.000936
2442.000000	0.000933
2441.000000	0.000953
2440.000000	0.000989
2439.000000	0.001025
2438.000000	0.001045
2437.000000	0.001036
2436.000000	0.000998
2435.000000	0.000951
2434.000000	0.000917
2433.000000	0.000908
2432.000000	0.000920
2431.000000	0.000943
2430.000000	0.000966
2429.000000	0.000980
2428.000000	0.000980
2427.000000	0.000968
2426.000000	0.000956
2425.000000	0.000951
2424.000000	0.000949
2423.000000	0.000946
2422.000000	0.000943
2421.000000	0.000943
2420.000000	0.000944
2419.000000	0.000937
2418.000000	0.000923
2417.000000	0.000910
2416.000000	0.000900
2415.000000	0.000895
2414.000000	0.000895
2413.000000	0.000909
2412.000000	0.000932
2411.000000	0.000943
2410.000000	0.000926
2409.000000	0.000889
2408.000000	0.000858
2407.000000	0.000853
2406.000000	0.000870
2405.000000	0.000892
2404.000000	0.000903
2403.000000	0.000891
2402.000000	0.000851
2401.000000	0.000795
2400.000000	0.000752
2399.000000	0.000746
2398.000000	0.000771
2397.000000	0.000799
2396.000000	0.000815
2395.000000	0.000827
2394.000000	0.000848
2393.000000	0.000876
2392.000000	0.000895
2391.000000	0.000890
2390.000000	0.000861
2389.000000	0.000821
2388.000000	0.000793
2387.000000	0.000798
2386.000000	0.000833
2385.000000	0.000874
2384.000000	0.000896
2383.000000	0.000894
2382.000000	0.000881
2381.000000	0.000867
2380.000000	0.000851
2379.000000	0.000830
2378.000000	0.000806
2377.000000	0.000786
2376.000000	0.000777
2375.000000	0.000786
2374.000000	0.000809
2373.000000	0.000829
2372.000000	0.000824
2371.000000	0.000793
2370.000000	0.000760
2369.000000	0.000757
2368.000000	0.000788
2367.000000	0.000837
2366.000000	0.000882
2365.000000	0.000902
2364.000000	0.000884
2363.000000	0.000831
2362.000000	0.000772
2361.000000	0.000745
2360.000000	0.000768
2359.000000	0.000823
2358.000000	0.000874
2357.000000	0.000901
2356.000000	0.000891
2355.000000	0.000862
2354.000000	0.000840
2353.000000	0.000844
2352.000000	0.000862
2351.000000	0.000877
2350.000000	0.000882
2349.000000	0.000880
2348.000000	0.000877
2347.000000	0.000884
2346.000000	0.000905
2345.000000	0.000930
2344.000000	0.000951
2343.000000	0.000974
2342.000000	0.000988
2341.000000	0.000980
2340.000000	0.000949
2339.000000	0.000909
2338.000000	0.000882
2337.000000	0.000883
2336.000000	0.000914
2335.000000	0.000958
2334.000000	0.000994
2333.000000	0.001007
2332.000000	0.000995
2331.000000	0.000968
2330.000000	0.000945
2329.000000	0.000935
2328.000000	0.000945
2327.000000	0.000979
2326.000000	0.001042
2325.000000	0.001121
2324.000000	0.001192
2323.000000	0.001231
2322.000000	0.001237
2321.000000	0.001229
2320.000000	0.001226
2319.000000	0.001227
2318.000000	0.001218
2317.000000	0.001182
2316.000000	0.001124
2315.000000	0.001066
2314.000000	0.001036
2313.000000	0.001041
2312.000000	0.001064
2311.000000	0.001078
2310.000000	0.001076
2309.000000	0.001062
2308.000000	0.001048
2307.000000	0.001040
2306.000000	0.001039
2305.000000	0.001041
2304.000000	0.001046
2303.000000	0.001057
2302.000000	0.001083
2301.000000	0.001120
2300.000000	0.001148
2299.000000	0.001153
2298.000000	0.001146
2297.000000	0.001151
2296.000000	0.001169
2295.000000	0.001174
2294.000000	0.001150
2293.000000	0.001115
2292.000000	0.001102
2291.000000	0.001123
2290.000000	0.001159
2289.000000	0.001184
2288.000000	0.001190
2287.000000	0.001182
2286.000000	0.001164
2285.000000	0.001139
2284.000000	0.001119
2283.000000	0.001113
2282.000000	0.001120
2281.000000	0.001133
2280.000000	0.001144
2279.000000	0.001147
2278.000000	0.001134
2277.000000	0.001099
2276.000000	0.001056
2275.000000	0.001027
2274.000000	0.001025
2273.000000	0.001036
2272.000000	0.001048
2271.000000	0.001068
2270.000000	0.001107
2269.000000	0.001156
2268.000000	0.001195
2267.000000	0.001215
2266.000000	0.001226
2265.000000	0.001224
2264.000000	0.001195
2263.000000	0.001136
2262.000000	0.001078
2261.000000	0.001056
2260.000000	0.001071
2259.000000	0.001092
2258.000000	0.001095
2257.000000	0.001084
2256.000000	0.001081
2255.000000	0.001092
2254.000000	0.001100
2253.000000	0.001074
2252.000000	0.001005
2251.000000	0.000926
2250.000000	0.000885
2249.000000	0.000911
2248.000000	0.000983
2247.000000	0.001048
2246.000000	0.001066
2245.000000	0.001040
2244.000000	0.001009
2243.000000	0.001005
2242.000000	0.001026
2241.000000	0.001038
2240.000000	0.001010
2239.000000	0.000948
2238.000000	0.000885
2237.000000	0.000848
2236.000000	0.000857
2235.000000	0.000926
2234.000000	0.001058
2233.000000	0.001225
2232.000000	0.001365
2231.000000	0.001415
2230.000000	0.001360
2229.000000	0.001232
2228.000000	0.001088
2227.000000	0.000979
2226.000000	0.000923
2225.000000	0.000899
2224.000000	0.000877
2223.000000	0.000855
2222.000000	0.000872
2221.000000	0.000954
2220.000000	0.001066
2219.000000	0.001121
2218.000000	0.001061
2217.000000	0.000909
2216.000000	0.000757
2215.000000	0.000696
2214.000000	0.000753
2213.000000	0.000877
2212.000000	0.000981
2211.000000	0.001003
2210.000000	0.000961
2209.000000	0.000936
2208.000000	0.000996
2207.000000	0.001121
2206.000000	0.001218
2205.000000	0.001221
2204.000000	0.001167
2203.000000	0.001159
2202.000000	0.001243
2201.000000	0.001347
2200.000000	0.001359
2199.000000	0.001258
2198.000000	0.001126
2197.000000	0.001057
2196.000000	0.001059
2195.000000	0.001065
2194.000000	0.001022
2193.000000	0.000937
2192.000000	0.000864
2191.000000	0.000843
2190.000000	0.000875
2189.000000	0.000928
2188.000000	0.000973
2187.000000	0.001001
2186.000000	0.001015
2185.000000	0.001008
2184.000000	0.000976
2183.000000	0.000934
2182.000000	0.000917
2181.000000	0.000941
2180.000000	0.000990
2179.000000	0.001033
2178.000000	0.001042
2177.000000	0.000992
2176.000000	0.000880
2175.000000	0.000760
2174.000000	0.000720
2173.000000	0.000813
2172.000000	0.000996
2171.000000	0.001164
2170.000000	0.001234
2169.000000	0.001198
2168.000000	0.001108
2167.000000	0.001028
2166.000000	0.000983
2165.000000	0.000967
2164.000000	0.000977
2163.000000	0.001027
2162.000000	0.001113
2161.000000	0.001169
2160.000000	0.001097
2159.000000	0.000863
2158.000000	0.000545
2157.000000	0.000267
2156.000000	0.000098
2155.000000	0.000035
2154.000000	0.000049
2153.000000	0.000105
2152.000000	0.000171
2151.000000	0.000225
2150.000000	0.000256
2149.000000	0.000245
2148.000000	0.000179
2147.000000	0.000084
2146.000000	0.000027
2145.000000	0.000062
2144.000000	0.000171
2143.000000	0.000286
2142.000000	0.000336
2141.000000	0.000295
2140.000000	0.000201
2139.000000	0.000130
2138.000000	0.000147
2137.000000	0.000245
2136.000000	0.000344
2135.000000	0.000372
2134.000000	0.000334
2133.000000	0.000289
2132.000000	0.000288
2131.000000	0.000329
2130.000000	0.000384
2129.000000	0.000439
2128.000000	0.000505
2127.000000	0.000595
2126.000000	0.000693
2125.000000	0.000756
2124.000000	0.000744
2123.000000	0.000666
2122.000000	0.000577
2121.000000	0.000534
2120.000000	0.000555
2119.000000	0.000613
2118.000000	0.000672
2117.000000	0.000713
2116.000000	0.000746
2115.000000	0.000787
2114.000000	0.000837
2113.000000	0.000873
2112.000000	0.000877
2111.000000	0.000868
2110.000000	0.000878
2109.000000	0.000900
2108.000000	0.000894
2107.000000	0.000840
2106.000000	0.000777
2105.000000	0.000762
2104.000000	0.000811
2103.000000	0.000889
2102.000000	0.000948
2101.000000	0.000957
2100.000000	0.000913
2099.000000	0.000839
2098.000000	0.000777
2097.000000	0.000767
2096.000000	0.000823
2095.000000	0.000920
2094.000000	0.001008
2093.000000	0.001036
2092.000000	0.001001
2091.000000	0.000956
2090.000000	0.000973
2089.000000	0.001064
2088.000000	0.001165
2087.000000	0.001204
2086.000000	0.001170
2085.000000	0.001093
2084.000000	0.000994
2083.000000	0.000886
2082.000000	0.000791
2081.000000	0.000739
2080.000000	0.000729
2079.000000	0.000734
2078.000000	0.000745
2077.000000	0.000778
2076.000000	0.000831
2075.000000	0.000872
2074.000000	0.000877
2073.000000	0.000874
2072.000000	0.000898
2071.000000	0.000938
2070.000000	0.000942
2069.000000	0.000883
2068.000000	0.000800
2067.000000	0.000759
2066.000000	0.000775
2065.000000	0.000808
2064.000000	0.000816
2063.000000	0.000813
2062.000000	0.000827
2061.000000	0.000841
2060.000000	0.000802
2059.000000	0.000697
2058.000000	0.000584
2057.000000	0.000528
2056.000000	0.000542
2055.000000	0.000606
2054.000000	0.000716
2053.000000	0.000866
2052.000000	0.001009
2051.000000	0.001081
2050.000000	0.001063
2049.000000	0.000989
2048.000000	0.000892
2047.000000	0.000772
2046.000000	0.000639
2045.000000	0.000543
2044.000000	0.000547
2043.000000	0.000672
2042.000000	0.000882
2041.000000	0.001106
2040.000000	0.001281
2039.000000	0.001375
2038.000000	0.001374
2037.000000	0.001243
2036.000000	0.000963
2035.000000	0.000608
2034.000000	0.000327
2033.000000	0.000223
2032.000000	0.000260
2031.000000	0.000345
2030.000000	0.000432
2029.000000	0.000498
2028.000000	0.000492
2027.000000	0.000403
2026.000000	0.000340
2025.000000	0.000413
2024.000000	0.000556
2023.000000	0.000586
2022.000000	0.000439
2021.000000	0.000251
2020.000000	0.000182
2019.000000	0.000245
2018.000000	0.000341
2017.000000	0.000395
2016.000000	0.000405
2015.000000	0.000411
2014.000000	0.000457
2013.000000	0.000546
2012.000000	0.000614
2011.000000	0.000597
2010.000000	0.000528
2009.000000	0.000513
2008.000000	0.000587
2007.000000	0.000654
2006.000000	0.000611
2005.000000	0.000467
2004.000000	0.000307
2003.000000	0.000196
2002.000000	0.000179
2001.000000	0.000296
2000.000000	0.000530
1999.000000	0.000771
1998.000000	0.000896
1997.000000	0.000877
1996.000000	0.000793
1995.000000	0.000740
1994.000000	0.000743
1993.000000	0.000752
1992.000000	0.000688
1991.000000	0.000532
1990.000000	0.000362
1989.000000	0.000297
1988.000000	0.000393
1987.000000	0.000576
1986.000000	0.000712
1985.000000	0.000727
1984.000000	0.000654
1983.000000	0.000576
1982.000000	0.000549
1981.000000	0.000550
1980.000000	0.000499
1979.000000	0.000331
1978.000000	0.000089
1977.000000	-0.000087
1976.000000	-0.000107
1975.000000	-0.000031
1974.000000	0.000041
1973.000000	0.000104
1972.000000	0.000219
1971.000000	0.000379
1970.000000	0.000481
1969.000000	0.000432
1968.000000	0.000256
1967.000000	0.000078
1966.000000	0.000018
1965.000000	0.000109
1964.000000	0.000287
1963.000000	0.000438
1962.000000	0.000470
1961.000000	0.000375
1960.000000	0.000243
1959.000000	0.000179
1958.000000	0.000226
1957.000000	0.000351
1956.000000	0.000488
1955.000000	0.000593
1954.000000	0.000648
1953.000000	0.000652
1952.000000	0.000610
1951.000000	0.000532
1950.000000	0.000438
1949.000000	0.000349
1948.000000	0.000271
1947.000000	0.000205
1946.000000	0.000157
1945.000000	0.000151
1944.000000	0.000214
1943.000000	0.000348
1942.000000	0.000505
1941.000000	0.000604
1940.000000	0.000596
1939.000000	0.000487
1938.000000	0.000331
1937.000000	0.000192
1936.000000	0.000113
1935.000000	0.000100
1934.000000	0.000142
1933.000000	0.000225
1932.000000	0.000331
1931.000000	0.000428
1930.000000	0.000477
1929.000000	0.000455
1928.000000	0.000380
1927.000000	0.000307
1926.000000	0.000284
1925.000000	0.000308
1924.000000	0.000335
1923.000000	0.000326
1922.000000	0.000287
1921.000000	0.000250
1920.000000	0.000232
1919.000000	0.000232
1918.000000	0.000248
1917.000000	0.000280
1916.000000	0.000325
1915.000000	0.000369
1914.000000	0.000407
1913.000000	0.000438
1912.000000	0.000457
1911.000000	0.000466
1910.000000	0.000471
1909.000000	0.000481
1908.000000	0.000492
1907.000000	0.000496
1906.000000	0.000487
1905.000000	0.000470
1904.000000	0.000452
1903.000000	0.000432
1902.000000	0.000414
1901.000000	0.000397
1900.000000	0.000377
1899.000000	0.000348
1898.000000	0.000316
1897.000000	0.000286
1896.000000	0.000263
1895.000000	0.000249
1894.000000	0.000255
1893.000000	0.000291
1892.000000	0.000352
1891.000000	0.000411
1890.000000	0.000441
1889.000000	0.000437
1888.000000	0.000418
1887.000000	0.000405
1886.000000	0.000397
1885.000000	0.000374
1884.000000	0.000315
1883.000000	0.000229
1882.000000	0.000150
1881.000000	0.000106
1880.000000	0.000098
1879.000000	0.000112
1878.000000	0.000149
1877.000000	0.000220
1876.000000	0.000309
1875.000000	0.000376
1874.000000	0.000381
1873.000000	0.000327
1872.000000	0.000246
1871.000000	0.000185
1870.000000	0.000178
1869.000000	0.000226
1868.000000	0.000280
1867.000000	0.000284
1866.000000	0.000235
1865.000000	0.000183
1864.000000	0.000173
1863.000000	0.000214
1862.000000	0.000280
1861.000000	0.000337
1860.000000	0.000369
1859.000000	0.000376
1858.000000	0.000364
1857.000000	0.000339
1856.000000	0.000303
1855.000000	0.000262
1854.000000	0.000236
1853.000000	0.000238
1852.000000	0.000264
1851.000000	0.000296
1850.000000	0.000314
1849.000000	0.000312
1848.000000	0.000298
1847.000000	0.000292
1846.000000	0.000309
1845.000000	0.000345
1844.000000	0.000369
1843.000000	0.000357
1842.000000	0.000321
1841.000000	0.000288
1840.000000	0.000268
1839.000000	0.000256
1838.000000	0.000255
1837.000000	0.000269
1836.000000	0.000290
1835.000000	0.000303
1834.000000	0.000302
1833.000000	0.000294
1832.000000	0.000286
1831.000000	0.000280
1830.000000	0.000269
1829.000000	0.000252
1828.000000	0.000229
1827.000000	0.000206
1826.000000	0.000195
1825.000000	0.000204
1824.000000	0.000226
1823.000000	0.000242
1822.000000	0.000247
1821.000000	0.000248
1820.000000	0.000246
1819.000000	0.000238
1818.000000	0.000222
1817.000000	0.000209
1816.000000	0.000206
1815.000000	0.000211
1814.000000	0.000221
1813.000000	0.000237
1812.000000	0.000257
1811.000000	0.000269
1810.000000	0.000264
1809.000000	0.000249
1808.000000	0.000238
1807.000000	0.000233
1806.000000	0.000230
1805.000000	0.000230
1804.000000	0.000238
1803.000000	0.000255
1802.000000	0.000279
1801.000000	0.000303
1800.000000	0.000316
1799.000000	0.000308
1798.000000	0.000282
1797.000000	0.000249
1796.000000	0.000221
1795.000000	0.000199
1794.000000	0.000192
1793.000000	0.000214
1792.000000	0.000269
1791.000000	0.000320
1790.000000	0.000332
1789.000000	0.000311
1788.000000	0.000286
1787.000000	0.000279
1786.000000	0.000290
1785.000000	0.000302
1784.000000	0.000298
1783.000000	0.000273
1782.000000	0.000242
1781.000000	0.000217
1780.000000	0.000205
1779.000000	0.000200
1778.000000	0.000192
1777.000000	0.000173
1776.000000	0.000145
1775.000000	0.000118
1774.000000	0.000111
1773.000000	0.000130
1772.000000	0.000164
1771.000000	0.000189
1770.000000	0.000206
1769.000000	0.000229
1768.000000	0.000257
1767.000000	0.000262
1766.000000	0.000229
1765.000000	0.000174
1764.000000	0.000128
1763.000000	0.000112
1762.000000	0.000125
1761.000000	0.000144
1760.000000	0.000157
1759.000000	0.000168
1758.000000	0.000190
1757.000000	0.000222
1756.000000	0.000248
1755.000000	0.000262
1754.000000	0.000273
1753.000000	0.000292
1752.000000	0.000319
1751.000000	0.000347
1750.000000	0.000373
1749.000000	0.000399
1748.000000	0.000418
1747.000000	0.000423
1746.000000	0.000421
1745.000000	0.000423
1744.000000	0.000435
1743.000000	0.000449
1742.000000	0.000458
1741.000000	0.000461
1740.000000	0.000459
1739.000000	0.000447
1738.000000	0.000424
1737.000000	0.000404
1736.000000	0.000400
1735.000000	0.000405
1734.000000	0.000404
1733.000000	0.000390
1732.000000	0.000373
1731.000000	0.000367
1730.000000	0.000375
1729.000000	0.000384
1728.000000	0.000383
1727.000000	0.000372
1726.000000	0.000357
1725.000000	0.000344
1724.000000	0.000339
1723.000000	0.000339
1722.000000	0.000340
1721.000000	0.000338
1720.000000	0.000335
1719.000000	0.000319
1718.000000	0.000281
1717.000000	0.000235
1716.000000	0.000213
1715.000000	0.000230
1714.000000	0.000281
1713.000000	0.000348
1712.000000	0.000413
1711.000000	0.000466
1710.000000	0.000512
1709.000000	0.000549
1708.000000	0.000571
1707.000000	0.000576
1706.000000	0.000570
1705.000000	0.000565
1704.000000	0.000567
1703.000000	0.000579
1702.000000	0.000611
1701.000000	0.000665
1700.000000	0.000712
1699.000000	0.000720
1698.000000	0.000720
1697.000000	0.000766
1696.000000	0.000859
1695.000000	0.000938
1694.000000	0.000973
1693.000000	0.000997
1692.000000	0.001037
1691.000000	0.001082
1690.000000	0.001117
1689.000000	0.001139
1688.000000	0.001149
1687.000000	0.001154
1686.000000	0.001170
1685.000000	0.001241
1684.000000	0.001391
1683.000000	0.001541
1682.000000	0.001623
1681.000000	0.001672
1680.000000	0.001721
1679.000000	0.001773
1678.000000	0.001835
1677.000000	0.001915
1676.000000	0.002009
1675.000000	0.002081
1674.000000	0.002106
1673.000000	0.002107
1672.000000	0.002130
1671.000000	0.002205
1670.000000	0.002340
1669.000000	0.002498
1668.000000	0.002614
1667.000000	0.002672
1666.000000	0.002707
1665.000000	0.002750
1664.000000	0.002812
1663.000000	0.002875
1662.000000	0.002923
1661.000000	0.002961
1660.000000	0.003001
1659.000000	0.003047
1658.000000	0.003096
1657.000000	0.003145
1656.000000	0.003200
1655.000000	0.003263
1654.000000	0.003338
1653.000000	0.003430
1652.000000	0.003493
1651.000000	0.003498
1650.000000	0.003496
1649.000000	0.003508
1648.000000	0.003531
1647.000000	0.003563
1646.000000	0.003595
1645.000000	0.003614
1644.000000	0.003623
1643.000000	0.003636
1642.000000	0.003665
1641.000000	0.003705
1640.000000	0.003740
1639.000000	0.003754
1638.000000	0.003752
1637.000000	0.003756
1636.000000	0.003781
1635.000000	0.003812
1634.000000	0.003817
1633.000000	0.003801
1632.000000	0.003785
1631.000000	0.003778
1630.000000	0.003784
1629.000000	0.003804
1628.000000	0.003818
1627.000000	0.003801
1626.000000	0.003752
1625.000000	0.003700
1624.000000	0.003668
1623.000000	0.003654
1622.000000	0.003636
1621.000000	0.003604
1620.000000	0.003569
1619.000000	0.003545
1618.000000	0.003541
1617.000000	0.003552
1616.000000	0.003549
1615.000000	0.003513
1614.000000	0.003463
1613.000000	0.003419
1612.000000	0.003382
1611.000000	0.003337
1610.000000	0.003281
1609.000000	0.003219
1608.000000	0.003153
1607.000000	0.003080
1606.000000	0.003009
1605.000000	0.002949
1604.000000	0.002904
1603.000000	0.002871
1602.000000	0.002842
1601.000000	0.002811
1600.000000	0.002778
1599.000000	0.002742
1598.000000	0.002707
1597.000000	0.002677
1596.000000	0.002653
1595.000000	0.002636
1594.000000	0.002620
1593.000000	0.002604
1592.000000	0.002582
1591.000000	0.002554
1590.000000	0.002529
1589.000000	0.002516
1588.000000	0.002511
1587.000000	0.002504
1586.000000	0.002487
1585.000000	0.002462
1584.000000	0.002438
1583.000000	0.002425
1582.000000	0.002427
1581.000000	0.002436
1580.000000	0.002444
1579.000000	0.002447
1578.000000	0.002447
1577.000000	0.002445
1576.000000	0.002435
1575.000000	0.002414
1574.000000	0.002389
1573.000000	0.002374
1572.000000	0.002373
1571.000000	0.002386
1570.000000	0.002410
1569.000000	0.002433
1568.000000	0.002444
1567.000000	0.002450
1566.000000	0.002465
1565.000000	0.002486
1564.000000	0.002500
1563.000000	0.002504
1562.000000	0.002509
1561.000000	0.002523
1560.000000	0.002535
1559.000000	0.002551
1558.000000	0.002595
1557.000000	0.002620
1556.000000	0.002631
1555.000000	0.002645
1554.000000	0.002662
1553.000000	0.002680
1552.000000	0.002704
1551.000000	0.002742
1550.000000	0.002789
1549.000000	0.002833
1548.000000	0.002860
1547.000000	0.002873
1546.000000	0.002880
1545.000000	0.002889
1544.000000	0.002906
1543.000000	0.002923
1542.000000	0.002929
1541.000000	0.002932
1540.000000	0.002954
1539.000000	0.002970
1538.000000	0.002945
1537.000000	0.002905
1536.000000	0.002884
1535.000000	0.002887
1534.000000	0.002896
1533.000000	0.002885
1532.000000	0.002848
1531.000000	0.002796
1530.000000	0.002744
1529.000000	0.002700
1528.000000	0.002666
1527.000000	0.002637
1526.000000	0.002606
1525.000000	0.002578
1524.000000	0.002563
1523.000000	0.002563
1522.000000	0.002561
1521.000000	0.002539
1520.000000	0.002493
1519.000000	0.002440
1518.000000	0.002397
1517.000000	0.002370
1516.000000	0.002365
1515.000000	0.002371
1514.000000	0.002378
1513.000000	0.002373
1512.000000	0.002347
1511.000000	0.002296
1510.000000	0.002232
1509.000000	0.002169
1508.000000	0.002110
1507.000000	0.002057
1506.000000	0.002013
1505.000000	0.001961
1504.000000	0.001908
1503.000000	0.001868
1502.000000	0.001844
1501.000000	0.001838
1500.000000	0.001843
1499.000000	0.001840
1498.000000	0.001805
1497.000000	0.001739
1496.000000	0.001673
1495.000000	0.001617
1494.000000	0.001566
1493.000000	0.001518
1492.000000	0.001485
1491.000000	0.001473
1490.000000	0.001473
1489.000000	0.001470
1488.000000	0.001455
1487.000000	0.001430
1486.000000	0.001411
1485.000000	0.001411
1484.000000	0.001433
1483.000000	0.001466
1482.000000	0.001498
1481.000000	0.001515
1480.000000	0.001517
1479.000000	0.001509
1478.000000	0.001505
1477.000000	0.001514
1476.000000	0.001540
1475.000000	0.001574
1474.000000	0.001610
1473.000000	0.001657
1472.000000	0.001715
1471.000000	0.001765
1470.000000	0.001793
1469.000000	0.001809
1468.000000	0.001819
1467.000000	0.001823
1466.000000	0.001831
1465.000000	0.001859
1464.000000	0.001909
1463.000000	0.001960
1462.000000	0.001991
1461.000000	0.002007
1460.000000	0.002017
1459.000000	0.002031
1458.000000	0.002060
1457.000000	0.002103
1456.000000	0.002138
1455.000000	0.002148
1454.000000	0.002155
1453.000000	0.002179
1452.000000	0.002221
1451.000000	0.002269
1450.000000	0.002302
1449.000000	0.002314
1448.000000	0.002310
1447.000000	0.002306
1446.000000	0.002315
1445.000000	0.002334
1444.000000	0.002349
1443.000000	0.002348
1442.000000	0.002324
1441.000000	0.002289
1440.000000	0.002262
1439.000000	0.002261
1438.000000	0.002286
1437.000000	0.002324
1436.000000	0.002353
1435.000000	0.002364
1434.000000	0.002362
1433.000000	0.002359
1432.000000	0.002359
1431.000000	0.002367
1430.000000	0.002381
1429.000000	0.002389
1428.000000	0.002382
1427.000000	0.002364
1426.000000	0.002351
1425.000000	0.002345
1424.000000	0.002339
1423.000000	0.002330
1422.000000	0.002322
1421.000000	0.002317
1420.000000	0.002308
1419.000000	0.002296
1418.000000	0.002304
1417.000000	0.002344
1416.000000	0.002398
1415.000000	0.002437
1414.000000	0.002442
1413.000000	0.002421
1412.000000	0.002396
1411.000000	0.002379
1410.000000	0.002366
1409.000000	0.002345
1408.000000	0.002317
1407.000000	0.002290
1406.000000	0.002270
1405.000000	0.002258
1404.000000	0.002252
1403.000000	0.002253
1402.000000	0.002262
1401.000000	0.002279
1400.000000	0.002292
1399.000000	0.002289
1398.000000	0.002273
1397.000000	0.002254
1396.000000	0.002233
1395.000000	0.002208
1394.000000	0.002185
1393.000000	0.002174
1392.000000	0.002176
1391.000000	0.002179
1390.000000	0.002171
1389.000000	0.002153
1388.000000	0.002134
1387.000000	0.002121
1386.000000	0.002110
1385.000000	0.002092
1384.000000	0.002064
1383.000000	0.002030
1382.000000	0.002005
1381.000000	0.002005
1380.000000	0.002025
1379.000000	0.002045
1378.000000	0.002047
1377.000000	0.002037
1376.000000	0.002028
1375.000000	0.002024
1374.000000	0.002020
1373.000000	0.002011
1372.000000	0.002002
1371.000000	0.001992
1370.000000	0.001977
1369.000000	0.001952
1368.000000	0.001923
1367.000000	0.001902
1366.000000	0.001899
1365.000000	0.001908
1364.000000	0.001911
1363.000000	0.001897
1362.000000	0.001868
1361.000000	0.001836
1360.000000	0.001809
1359.000000	0.001780
1358.000000	0.001748
1357.000000	0.001718
1356.000000	0.001705
1355.000000	0.001708
1354.000000	0.001716
1353.000000	0.001710
1352.000000	0.001686
1351.000000	0.001654
1350.000000	0.001635
1349.000000	0.001636
1348.000000	0.001651
1347.000000	0.001667
1346.000000	0.001679
1345.000000	0.001691
1344.000000	0.001700
1343.000000	0.001696
1342.000000	0.001678
1341.000000	0.001658
1340.000000	0.001651
1339.000000	0.001665
1338.000000	0.001689
1337.000000	0.001713
1336.000000	0.001730
1335.000000	0.001741
1334.000000	0.001746
1333.000000	0.001748
1332.000000	0.001752
1331.000000	0.001757
1330.000000	0.001762
1329.000000	0.001772
1328.000000	0.001790
1327.000000	0.001818
1326.000000	0.001847
1325.000000	0.001869
1324.000000	0.001878
1323.000000	0.001870
1322.000000	0.001855
1321.000000	0.001849
1320.000000	0.001863
1319.000000	0.001890
1318.000000	0.001901
1317.000000	0.001878
1316.000000	0.001829
1315.000000	0.001782
1314.000000	0.001752
1313.000000	0.001734
1312.000000	0.001709
1311.000000	0.001668
1310.000000	0.001618
1309.000000	0.001577
1308.000000	0.001550
1307.000000	0.001534
1306.000000	0.001516
1305.000000	0.001490
1304.000000	0.001456
1303.000000	0.001417
1302.000000	0.001373
1301.000000	0.001329
1300.000000	0.001297
1299.000000	0.001283
1298.000000	0.001289
1297.000000	0.001306
1296.000000	0.001322
1295.000000	0.001322
1294.000000	0.001294
1293.000000	0.001242
1292.000000	0.001185
1291.000000	0.001151
1290.000000	0.001150
1289.000000	0.001171
1288.000000	0.001196
1287.000000	0.001214
1286.000000	0.001227
1285.000000	0.001234
1284.000000	0.001231
1283.000000	0.001217
1282.000000	0.001198
1281.000000	0.001185
1280.000000	0.001179
1279.000000	0.001178
1278.000000	0.001181
1277.000000	0.001191
1276.000000	0.001211
1275.000000	0.001234
1274.000000	0.001246
1273.000000	0.001243
1272.000000	0.001229
1271.000000	0.001216
1270.000000	0.001218
1269.000000	0.001241
1268.000000	0.001280
1267.000000	0.001314
1266.000000	0.001325
1265.000000	0.001311
1264.000000	0.001291
1263.000000	0.001286
1262.000000	0.001301
1261.000000	0.001325
1260.000000	0.001346
1259.000000	0.001359
1258.000000	0.001368
1257.000000	0.001377
1256.000000	0.001389
1255.000000	0.001409
1254.000000	0.001433
1253.000000	0.001455
1252.000000	0.001467
1251.000000	0.001463
1250.000000	0.001447
1249.000000	0.001432
1248.000000	0.001435
1247.000000	0.001460
1246.000000	0.001498
1245.000000	0.001533
1244.000000	0.001562
1243.000000	0.001590
1242.000000	0.001621
1241.000000	0.001648
1240.000000	0.001659
1239.000000	0.001655
1238.000000	0.001647
1237.000000	0.001646
1236.000000	0.001648
1235.000000	0.001645
1234.000000	0.001635
1233.000000	0.001627
1232.000000	0.001622
1231.000000	0.001615
1230.000000	0.001596
1229.000000	0.001568
1228.000000	0.001539
1227.000000	0.001514
1226.000000	0.001494
1225.000000	0.001484
1224.000000	0.001486
1223.000000	0.001491
1222.000000	0.001481
1221.000000	0.001447
1220.000000	0.001400
1219.000000	0.001362
1218.000000	0.001347
1217.000000	0.001352
1216.000000	0.001365
1215.000000	0.001369
1214.000000	0.001352
1213.000000	0.001314
1212.000000	0.001272
1211.000000	0.001245
1210.000000	0.001231
1209.000000	0.001213
1208.000000	0.001186
1207.000000	0.001167
1206.000000	0.001175
1205.000000	0.001203
1204.000000	0.001227
1203.000000	0.001229
1202.000000	0.001216
1201.000000	0.001203
1200.000000	0.001192
1199.000000	0.001177
1198.000000	0.001156
1197.000000	0.001137
1196.000000	0.001125
1195.000000	0.001116
1194.000000	0.001104
1193.000000	0.001089
1192.000000	0.001070
1191.000000	0.001040
1190.000000	0.000990
1189.000000	0.000921
1188.000000	0.000854
1187.000000	0.000813
1186.000000	0.000806
1185.000000	0.000819
1184.000000	0.000832
1183.000000	0.000834
1182.000000	0.000824
1181.000000	0.000809
1180.000000	0.000801
1179.000000	0.000803
1178.000000	0.000814
1177.000000	0.000827
1176.000000	0.000844
1175.000000	0.000864
1174.000000	0.000889
1173.000000	0.000915
1172.000000	0.000936
1171.000000	0.000944
1170.000000	0.000945
1169.000000	0.000953
1168.000000	0.000980
1167.000000	0.001026
1166.000000	0.001080
1165.000000	0.001139
1164.000000	0.001200
1163.000000	0.001256
1162.000000	0.001297
1161.000000	0.001320
1160.000000	0.001336
1159.000000	0.001360
1158.000000	0.001396
1157.000000	0.001439
1156.000000	0.001486
1155.000000	0.001534
1154.000000	0.001573
1153.000000	0.001593
1152.000000	0.001590
1151.000000	0.001575
1150.000000	0.001558
1149.000000	0.001545
1148.000000	0.001534
1147.000000	0.001524
1146.000000	0.001512
1145.000000	0.001499
1144.000000	0.001485
1143.000000	0.001466
1142.000000	0.001442
1141.000000	0.001421
1140.000000	0.001412
1139.000000	0.001422
1138.000000	0.001441
1137.000000	0.001456
1136.000000	0.001463
1135.000000	0.001467
1134.000000	0.001467
1133.000000	0.001462
1132.000000	0.001459
1131.000000	0.001468
1130.000000	0.001493
1129.000000	0.001522
1128.000000	0.001537
1127.000000	0.001535
1126.000000	0.001524
1125.000000	0.001518
1124.000000	0.001518
1123.000000	0.001528
1122.000000	0.001551
1121.000000	0.001587
1120.000000	0.001632
1119.000000	0.001676
1118.000000	0.001712
1117.000000	0.001744
1116.000000	0.001770
1115.000000	0.001786
1114.000000	0.001790
1113.000000	0.001792
1112.000000	0.001807
1111.000000	0.001839
1110.000000	0.001884
1109.000000	0.001928
1108.000000	0.001959
1107.000000	0.001965
1106.000000	0.001944
1105.000000	0.001917
1104.000000	0.001915
1103.000000	0.001958
1102.000000	0.002028
1101.000000	0.002090
1100.000000	0.002124
1099.000000	0.002136
1098.000000	0.002140
1097.000000	0.002141
1096.000000	0.002139
1095.000000	0.002143
1094.000000	0.002170
1093.000000	0.002222
1092.000000	0.002277
1091.000000	0.002306
1090.000000	0.002300
1089.000000	0.002278
1088.000000	0.002261
1087.000000	0.002266
1086.000000	0.002299
1085.000000	0.002366
1084.000000	0.002457
1083.000000	0.002540
1082.000000	0.002583
1081.000000	0.002584
1080.000000	0.002572
1079.000000	0.002572
1078.000000	0.002587
1077.000000	0.002612
1076.000000	0.002647
1075.000000	0.002688
1074.000000	0.002716
1073.000000	0.002705
1072.000000	0.002653
1071.000000	0.002581
1070.000000	0.002523
1069.000000	0.002498
1068.000000	0.002510
1067.000000	0.002537
1066.000000	0.002554
1065.000000	0.002549
1064.000000	0.002543
1063.000000	0.002565
1062.000000	0.002619
1061.000000	0.002681
1060.000000	0.002724
1059.000000	0.002749
1058.000000	0.002768
1057.000000	0.002787
1056.000000	0.002799
1055.000000	0.002800
1054.000000	0.002790
1053.000000	0.002775
1052.000000	0.002766
1051.000000	0.002775
1050.000000	0.002811
1049.000000	0.002862
1048.000000	0.002897
1047.000000	0.002890
1046.000000	0.002852
1045.000000	0.002824
1044.000000	0.002847
1043.000000	0.002916
1042.000000	0.002981
1041.000000	0.003002
1040.000000	0.002991
1039.000000	0.002995
1038.000000	0.003041
1037.000000	0.003113
1036.000000	0.003184
1035.000000	0.003248
1034.000000	0.003311
1033.000000	0.003359
1032.000000	0.003372
1031.000000	0.003348
1030.000000	0.003317
1029.000000	0.003308
1028.000000	0.003326
1027.000000	0.003344
1026.000000	0.003340
1025.000000	0.003314
1024.000000	0.003285
1023.000000	0.003269
1022.000000	0.003266
1021.000000	0.003269
1020.000000	0.003270
1019.000000	0.003273
1018.000000	0.003283
1017.000000	0.003295
1016.000000	0.003300
1015.000000	0.003295
1014.000000	0.003281
1013.000000	0.003262
1012.000000	0.003237
1011.000000	0.003208
1010.000000	0.003180
1009.000000	0.003161
1008.000000	0.003154
1007.000000	0.003152
1006.000000	0.003146
1005.000000	0.003133
1004.000000	0.003118
1003.000000	0.003097
1002.000000	0.003060
1001.000000	0.002997
1000.000000	0.002915
999.000000	0.002831
998.000000	0.002760
997.000000	0.002710
996.000000	0.002688
995.000000	0.002693
994.000000	0.002708
993.000000	0.002703
992.000000	0.002667
991.000000	0.002612
990.000000	0.002560
989.000000	0.002515
988.000000	0.002464
987.000000	0.002407
986.000000	0.002361
985.000000	0.002335
984.000000	0.002322
983.000000	0.002307
982.000000	0.002282
981.000000	0.002250
980.000000	0.002222
979.000000	0.002202
978.000000	0.002186
977.000000	0.002163
976.000000	0.002127
975.000000	0.002089
974.000000	0.002056
973.000000	0.002023
972.000000	0.001980
971.000000	0.001932
970.000000	0.001898
969.000000	0.001882
968.000000	0.001868
967.000000	0.001841
966.000000	0.001807
965.000000	0.001783
964.000000	0.001775
963.000000	0.001769
962.000000	0.001749
961.000000	0.001710
960.000000	0.001661
959.000000	0.001614
958.000000	0.001581
957.000000	0.001561
956.000000	0.001547
955.000000	0.001528
954.000000	0.001494
953.000000	0.001446
952.000000	0.001395
951.000000	0.001359
950.000000	0.001341
949.000000	0.001325
948.000000	0.001294
947.000000	0.001249
946.000000	0.001211
945.000000	0.001193
944.000000	0.001189
943.000000	0.001180
942.000000	0.001153
941.000000	0.001103
940.000000	0.001038
939.000000	0.000980
938.000000	0.000950
937.000000	0.000952
936.000000	0.000959
935.000000	0.000936
934.000000	0.000879
933.000000	0.000815
932.000000	0.000773
931.000000	0.000757
930.000000	0.000748
929.000000	0.000730
928.000000	0.000704
927.000000	0.000686
926.000000	0.000686
925.000000	0.000704
924.000000	0.000722
923.000000	0.000723
922.000000	0.000707
921.000000	0.000689
920.000000	0.000684
919.000000	0.000697
918.000000	0.000719
917.000000	0.000735
916.000000	0.000731
915.000000	0.000702
914.000000	0.000655
913.000000	0.000609
912.000000	0.000578
911.000000	0.000562
910.000000	0.000549
909.000000	0.000530
908.000000	0.000511
907.000000	0.000501
906.000000	0.000496
905.000000	0.000483
904.000000	0.000455
903.000000	0.000423
902.000000	0.000397
901.000000	0.000380
900.000000	0.000361
899.000000	0.000334
898.000000	0.000307
897.000000	0.000301
896.000000	0.000326
895.000000	0.000371
894.000000	0.000405
893.000000	0.000401
892.000000	0.000356
891.000000	0.000296
890.000000	0.000254
889.000000	0.000245
888.000000	0.000256
887.000000	0.000263
886.000000	0.000253
885.000000	0.000235
884.000000	0.000226
883.000000	0.000236
882.000000	0.000258
881.000000	0.000290
880.000000	0.000341
879.000000	0.000421
878.000000	0.000520
877.000000	0.000612
876.000000	0.000676
875.000000	0.000706
874.000000	0.000703
873.000000	0.000669
872.000000	0.000604
871.000000	0.000524
870.000000	0.000454
869.000000	0.000421
868.000000	0.000427
867.000000	0.000443
866.000000	0.000424
865.000000	0.000351
864.000000	0.000256
863.000000	0.000190
862.000000	0.000174
861.000000	0.000186
860.000000	0.000201
859.000000	0.000214
858.000000	0.000227
857.000000	0.000229
856.000000	0.000204
855.000000	0.000158
854.000000	0.000113
853.000000	0.000086
852.000000	0.000083
851.000000	0.000114
850.000000	0.000183
849.000000	0.000271
848.000000	0.000338
847.000000	0.000353
846.000000	0.000316
845.000000	0.000255
844.000000	0.000209
843.000000	0.000199
842.000000	0.000218
841.000000	0.000240
840.000000	0.000246
839.000000	0.000246
838.000000	0.000253
837.000000	0.000258
836.000000	0.000232
835.000000	0.000171
834.000000	0.000104
833.000000	0.000070
832.000000	0.000077
831.000000	0.000110
830.000000	0.000156
829.000000	0.000205
828.000000	0.000251
827.000000	0.000285
826.000000	0.000306
825.000000	0.000322
824.000000	0.000340
823.000000	0.000359
822.000000	0.000372
821.000000	0.000379
820.000000	0.000393
819.000000	0.000431
818.000000	0.000487
817.000000	0.000521
816.000000	0.000485
815.000000	0.000382
814.000000	0.000272
813.000000	0.000219
812.000000	0.000228
811.000000	0.000257
810.000000	0.000259
809.000000	0.000223
808.000000	0.000161
807.000000	0.000098
806.000000	0.000073
805.000000	0.000113
804.000000	0.000206
803.000000	0.000302
802.000000	0.000355
801.000000	0.000361
800.000000	0.000338
799.000000	0.000306
798.000000	0.000271
797.000000	0.000247
796.000000	0.000249
795.000000	0.000270
794.000000	0.000285
793.000000	0.000283
792.000000	0.000278
791.000000	0.000287
790.000000	0.000300
789.000000	0.000291
788.000000	0.000253
787.000000	0.000206
786.000000	0.000173
785.000000	0.000162
784.000000	0.000168
783.000000	0.000183
782.000000	0.000186
781.000000	0.000160
780.000000	0.000112
779.000000	0.000082
778.000000	0.000109
777.000000	0.000185
776.000000	0.000262
775.000000	0.000293
774.000000	0.000272
773.000000	0.000228
772.000000	0.000186
771.000000	0.000156
770.000000	0.000130
769.000000	0.000107
768.000000	0.000099
767.000000	0.000117
766.000000	0.000165
765.000000	0.000235
764.000000	0.000306
763.000000	0.000356
762.000000	0.000368
761.000000	0.000338
760.000000	0.000288
759.000000	0.000253
758.000000	0.000256
757.000000	0.000279
756.000000	0.000278
755.000000	0.000225
754.000000	0.000140
753.000000	0.000077
752.000000	0.000074
751.000000	0.000131
750.000000	0.000209
749.000000	0.000272
748.000000	0.000305
747.000000	0.000307
746.000000	0.000272
745.000000	0.000203
744.000000	0.000124
743.000000	0.000078
742.000000	0.000084
741.000000	0.000124
740.000000	0.000169
739.000000	0.000207
738.000000	0.000236
737.000000	0.000247
736.000000	0.000229
735.000000	0.000190
734.000000	0.000164
733.000000	0.000178
732.000000	0.000226
731.000000	0.000279
730.000000	0.000309
729.000000	0.000302
728.000000	0.000268
727.000000	0.000235
726.000000	0.000214
725.000000	0.000195
724.000000	0.000160
723.000000	0.000120
722.000000	0.000105
721.000000	0.000124
720.000000	0.000150
719.000000	0.000152
718.000000	0.000135
717.000000	0.000134
716.000000	0.000178
715.000000	0.000265
714.000000	0.000364
713.000000	0.000433
712.000000	0.000443
711.000000	0.000397
710.000000	0.000324
709.000000	0.000244
708.000000	0.000166
707.000000	0.000109
706.000000	0.000107
705.000000	0.000175
704.000000	0.000277
703.000000	0.000349
702.000000	0.000353
701.000000	0.000302
700.000000	0.000243
699.000000	0.000211
698.000000	0.000219
697.000000	0.000253
696.000000	0.000299
695.000000	0.000345
694.000000	0.000381
693.000000	0.000388
692.000000	0.000350
691.000000	0.000280
690.000000	0.000215
689.000000	0.000183
688.000000	0.000178
687.000000	0.000179
686.000000	0.000169
685.000000	0.000146
684.000000	0.000116
683.000000	0.000096
682.000000	0.000110
681.000000	0.000163
680.000000	0.000233
679.000000	0.000296
678.000000	0.000340
677.000000	0.000356
676.000000	0.000341
675.000000	0.000314
674.000000	0.000316
673.000000	0.000359
672.000000	0.000389
671.000000	0.000341
670.000000	0.000221
669.000000	0.000115
668.000000	0.000075
667.000000	0.000119
666.000000	0.000255
665.000000	0.000388
664.000000	0.000468
663.000000	0.000515
662.000000	0.000552
661.000000	0.000567
660.000000	0.000532
659.000000	0.000451
658.000000	0.000370
657.000000	0.000326
656.000000	0.000316
655.000000	0.000311
654.000000	0.000301
653.000000	0.000296
652.000000	0.000297
651.000000	0.000294
650.000000	0.000293
649.000000	0.000310
648.000000	0.000348
647.000000	0.000387
646.000000	0.000401
645.000000	0.000380
644.000000	0.000323
643.000000	0.000247
642.000000	0.000198
641.000000	0.000215
640.000000	0.000284
639.000000	0.000344
638.000000	0.000359
637.000000	0.000360
636.000000	0.000387
635.000000	0.000418
634.000000	0.000392
633.000000	0.000299
632.000000	0.000207
631.000000	0.000191
630.000000	0.000255
629.000000	0.000341
628.000000	0.000393
627.000000	0.000404
626.000000	0.000400
625.000000	0.000389
624.000000	0.000366
623.000000	0.000330
622.000000	0.000309
621.000000	0.000322
620.000000	0.000358
619.000000	0.000391
618.000000	0.000417
617.000000	0.000444
616.000000	0.000467
615.000000	0.000463
614.000000	0.000429
613.000000	0.000395
612.000000	0.000385
611.000000	0.000403
610.000000	0.000438
609.000000	0.000478
608.000000	0.000504
607.000000	0.000496
606.000000	0.000459
605.000000	0.000426
604.000000	0.000423
603.000000	0.000447
602.000000	0.000492
601.000000	0.000564
600.000000	0.000663
599.000000	0.000774
598.000000	0.000871
597.000000	0.000933
596.000000	0.000942
595.000000	0.000881
594.000000	0.000766
593.000000	0.000650
592.000000	0.000582
591.000000	0.000579
590.000000	0.000626
589.000000	0.000679
588.000000	0.000672
587.000000	0.000568
586.000000	0.000425
585.000000	0.000362
584.000000	0.000435
583.000000	0.000568
582.000000	0.000649
581.000000	0.000663
580.000000	0.000681
579.000000	0.000758
578.000000	0.000877
577.000000	0.000992
576.000000	0.001055
575.000000	0.001023
574.000000	0.000891
573.000000	0.000729
572.000000	0.000646
571.000000	0.000690
570.000000	0.000808
569.000000	0.000895
568.000000	0.000897
567.000000	0.000837
566.000000	0.000772
565.000000	0.000734
564.000000	0.000712
563.000000	0.000681
562.000000	0.000639
561.000000	0.000603
560.000000	0.000578
559.000000	0.000553
558.000000	0.000532
557.000000	0.000531
556.000000	0.000550
555.000000	0.000550
554.000000	0.000502
553.000000	0.000419
552.000000	0.000339
551.000000	0.000278
550.000000	0.000240
549.000000	0.000236
548.000000	0.000269
547.000000	0.000306
546.000000	0.000308
545.000000	0.000289
544.000000	0.000308
543.000000	0.000396
542.000000	0.000515
541.000000	0.000592
540.000000	0.000585
539.000000	0.000517
538.000000	0.000457
537.000000	0.000461
536.000000	0.000521
535.000000	0.000568
534.000000	0.000560
533.000000	0.000534
532.000000	0.000567
531.000000	0.000680
530.000000	0.000804
529.000000	0.000845
528.000000	0.000761
527.000000	0.000589
526.000000	0.000431
525.000000	0.000386
524.000000	0.000461
523.000000	0.000576
522.000000	0.000651
521.000000	0.000668
520.000000	0.000661
519.000000	0.000675
518.000000	0.000731
517.000000	0.000825
516.000000	0.000915
515.000000	0.000949
514.000000	0.000902
513.000000	0.000804
512.000000	0.000697
511.000000	0.000583
510.000000	0.000428
509.000000	0.000218
508.000000	-0.000005
507.000000	-0.000142
506.000000	-0.000117
505.000000	0.000049
504.000000	0.000235
503.000000	0.000315
502.000000	0.000264
501.000000	0.000179
500.000000	0.000149
499.000000	0.000174
498.000000	0.000203
497.000000	0.000203
496.000000	0.000174
495.000000	0.000139
494.000000	0.000154
493.000000	0.000278
492.000000	0.000495
491.000000	0.000685
490.000000	0.000724
489.000000	0.000594
488.000000	0.000379
487.000000	0.000183
486.000000	0.000092
485.000000	0.000142
484.000000	0.000283
483.000000	0.000391
482.000000	0.000387
481.000000	0.000299
480.000000	0.000196
479.000000	0.000106
478.000000	0.000014
477.000000	-0.000087
476.000000	-0.000177
475.000000	-0.000213
474.000000	-0.000113
473.000000	0.000173
472.000000	0.000519
471.000000	0.000675
470.000000	0.000568
469.000000	0.000372
468.000000	0.000266
467.000000	0.000228
466.000000	0.000141
465.000000	0.000023
464.000000	-0.000002
463.000000	0.000057
462.000000	0.000007
461.000000	-0.000293
460.000000	-0.000740
459.000000	-0.001050
458.000000	-0.000967
457.000000	-0.000518
456.000000	-0.000047
455.000000	0.000167
454.000000	0.000139
453.000000	0.000044
452.000000	-0.000009
451.000000	-0.000080
450.000000	-0.000219
