PE IR       SUBTECH     SPECTRUM    ASCII       PEDS        4.00        
   -1
P14-Noir050_1.ASC
23/06/09
16:36:21.00
23/06/09
16:36:39.00
uco
Sample 050 By uco Date Friday, June 09 2023
450.000000
#HDR
-1
-1
#GR
cm-1
A
1.0
0.0
4000.000000
-1.000000
3551
8
0.011541
0.000793
#DATA
4000.000000	0.002034
3999.000000	0.002033
3998.000000	0.002032
3997.000000	0.002027
3996.000000	0.002020
3995.000000	0.002016
3994.000000	0.002015
3993.000000	0.002020
3992.000000	0.002031
3991.000000	0.002047
3990.000000	0.002062
3989.000000	0.002071
3988.000000	0.002074
3987.000000	0.002078
3986.000000	0.002088
3985.000000	0.002104
3984.000000	0.002116
3983.000000	0.002116
3982.000000	0.002101
3981.000000	0.002076
3980.000000	0.002056
3979.000000	0.002050
3978.000000	0.002062
3977.000000	0.002084
3976.000000	0.002101
3975.000000	0.002107
3974.000000	0.002102
3973.000000	0.002094
3972.000000	0.002090
3971.000000	0.002089
3970.000000	0.002092
3969.000000	0.002099
3968.000000	0.002109
3967.000000	0.002115
3966.000000	0.002114
3965.000000	0.002107
3964.000000	0.002106
3963.000000	0.002117
3962.000000	0.002135
3961.000000	0.002144
3960.000000	0.002135
3959.000000	0.002115
3958.000000	0.002098
3957.000000	0.002093
3956.000000	0.002097
3955.000000	0.002107
3954.000000	0.002120
3953.000000	0.002139
3952.000000	0.002160
3951.000000	0.002178
3950.000000	0.002188
3949.000000	0.002189
3948.000000	0.002185
3947.000000	0.002176
3946.000000	0.002167
3945.000000	0.002163
3944.000000	0.002167
3943.000000	0.002179
3942.000000	0.002191
3941.000000	0.002197
3940.000000	0.002192
3939.000000	0.002177
3938.000000	0.002158
3937.000000	0.002137
3936.000000	0.002119
3935.000000	0.002105
3934.000000	0.002095
3933.000000	0.002086
3932.000000	0.002086
3931.000000	0.002103
3930.000000	0.002138
3929.000000	0.002175
3928.000000	0.002204
3927.000000	0.002223
3926.000000	0.002239
3925.000000	0.002257
3924.000000	0.002269
3923.000000	0.002267
3922.000000	0.002252
3921.000000	0.002239
3920.000000	0.002235
3919.000000	0.002239
3918.000000	0.002245
3917.000000	0.002243
3916.000000	0.002227
3915.000000	0.002202
3914.000000	0.002178
3913.000000	0.002168
3912.000000	0.002172
3911.000000	0.002186
3910.000000	0.002204
3909.000000	0.002221
3908.000000	0.002239
3907.000000	0.002263
3906.000000	0.002290
3905.000000	0.002312
3904.000000	0.002312
3903.000000	0.002281
3902.000000	0.002238
3901.000000	0.002211
3900.000000	0.002211
3899.000000	0.002216
3898.000000	0.002208
3897.000000	0.002192
3896.000000	0.002187
3895.000000	0.002202
3894.000000	0.002228
3893.000000	0.002252
3892.000000	0.002269
3891.000000	0.002274
3890.000000	0.002262
3889.000000	0.002247
3888.000000	0.002250
3887.000000	0.002274
3886.000000	0.002296
3885.000000	0.002290
3884.000000	0.002256
3883.000000	0.002220
3882.000000	0.002210
3881.000000	0.002225
3880.000000	0.002239
3879.000000	0.002227
3878.000000	0.002195
3877.000000	0.002179
3876.000000	0.002194
3875.000000	0.002225
3874.000000	0.002241
3873.000000	0.002221
3872.000000	0.002178
3871.000000	0.002149
3870.000000	0.002153
3869.000000	0.002168
3868.000000	0.002166
3867.000000	0.002161
3866.000000	0.002171
3865.000000	0.002194
3864.000000	0.002222
3863.000000	0.002245
3862.000000	0.002257
3861.000000	0.002251
3860.000000	0.002230
3859.000000	0.002205
3858.000000	0.002190
3857.000000	0.002184
3856.000000	0.002170
3855.000000	0.002128
3854.000000	0.002072
3853.000000	0.002040
3852.000000	0.002025
3851.000000	0.002021
3850.000000	0.002051
3849.000000	0.002098
3848.000000	0.002140
3847.000000	0.002173
3846.000000	0.002209
3845.000000	0.002251
3844.000000	0.002285
3843.000000	0.002286
3842.000000	0.002249
3841.000000	0.002194
3840.000000	0.002153
3839.000000	0.002143
3838.000000	0.002152
3837.000000	0.002158
3836.000000	0.002154
3835.000000	0.002151
3834.000000	0.002156
3833.000000	0.002162
3832.000000	0.002161
3831.000000	0.002149
3830.000000	0.002137
3829.000000	0.002145
3828.000000	0.002185
3827.000000	0.002245
3826.000000	0.002295
3825.000000	0.002309
3824.000000	0.002292
3823.000000	0.002267
3822.000000	0.002258
3821.000000	0.002272
3820.000000	0.002268
3819.000000	0.002223
3818.000000	0.002171
3817.000000	0.002146
3816.000000	0.002147
3815.000000	0.002146
3814.000000	0.002137
3813.000000	0.002138
3812.000000	0.002158
3811.000000	0.002175
3810.000000	0.002168
3809.000000	0.002138
3808.000000	0.002104
3807.000000	0.002083
3806.000000	0.002065
3805.000000	0.002041
3804.000000	0.002030
3803.000000	0.002051
3802.000000	0.002102
3801.000000	0.002155
3800.000000	0.002165
3799.000000	0.002146
3798.000000	0.002149
3797.000000	0.002184
3796.000000	0.002223
3795.000000	0.002237
3794.000000	0.002224
3793.000000	0.002201
3792.000000	0.002180
3791.000000	0.002161
3790.000000	0.002145
3789.000000	0.002137
3788.000000	0.002143
3787.000000	0.002165
3786.000000	0.002196
3785.000000	0.002222
3784.000000	0.002229
3783.000000	0.002217
3782.000000	0.002209
3781.000000	0.002224
3780.000000	0.002266
3779.000000	0.002308
3778.000000	0.002318
3777.000000	0.002293
3776.000000	0.002259
3775.000000	0.002239
3774.000000	0.002233
3773.000000	0.002232
3772.000000	0.002233
3771.000000	0.002236
3770.000000	0.002235
3769.000000	0.002217
3768.000000	0.002183
3767.000000	0.002153
3766.000000	0.002145
3765.000000	0.002156
3764.000000	0.002169
3763.000000	0.002175
3762.000000	0.002179
3761.000000	0.002179
3760.000000	0.002167
3759.000000	0.002148
3758.000000	0.002132
3757.000000	0.002126
3756.000000	0.002127
3755.000000	0.002126
3754.000000	0.002109
3753.000000	0.002070
3752.000000	0.002019
3751.000000	0.001988
3750.000000	0.001984
3749.000000	0.001982
3748.000000	0.001985
3747.000000	0.002018
3746.000000	0.002080
3745.000000	0.002137
3744.000000	0.002149
3743.000000	0.002106
3742.000000	0.002065
3741.000000	0.002068
3740.000000	0.002084
3739.000000	0.002072
3738.000000	0.002027
3737.000000	0.001984
3736.000000	0.001978
3735.000000	0.002015
3734.000000	0.002062
3733.000000	0.002089
3732.000000	0.002091
3731.000000	0.002083
3730.000000	0.002086
3729.000000	0.002116
3728.000000	0.002164
3727.000000	0.002203
3726.000000	0.002209
3725.000000	0.002184
3724.000000	0.002154
3723.000000	0.002144
3722.000000	0.002158
3721.000000	0.002175
3720.000000	0.002178
3719.000000	0.002166
3718.000000	0.002149
3717.000000	0.002134
3716.000000	0.002121
3715.000000	0.002109
3714.000000	0.002097
3713.000000	0.002088
3712.000000	0.002097
3711.000000	0.002126
3710.000000	0.002147
3709.000000	0.002135
3708.000000	0.002103
3707.000000	0.002077
3706.000000	0.002075
3705.000000	0.002097
3704.000000	0.002133
3703.000000	0.002169
3702.000000	0.002196
3701.000000	0.002203
3700.000000	0.002185
3699.000000	0.002153
3698.000000	0.002126
3697.000000	0.002111
3696.000000	0.002099
3695.000000	0.002086
3694.000000	0.002070
3693.000000	0.002054
3692.000000	0.002038
3691.000000	0.002030
3690.000000	0.002049
3689.000000	0.002098
3688.000000	0.002141
3687.000000	0.002155
3686.000000	0.002160
3685.000000	0.002178
3684.000000	0.002198
3683.000000	0.002200
3682.000000	0.002182
3681.000000	0.002155
3680.000000	0.002118
3679.000000	0.002057
3678.000000	0.001974
3677.000000	0.001907
3676.000000	0.001925
3675.000000	0.002024
3674.000000	0.002096
3673.000000	0.002101
3672.000000	0.002083
3671.000000	0.002074
3670.000000	0.002088
3669.000000	0.002114
3668.000000	0.002126
3667.000000	0.002129
3666.000000	0.002136
3665.000000	0.002149
3664.000000	0.002161
3663.000000	0.002167
3662.000000	0.002164
3661.000000	0.002153
3660.000000	0.002139
3659.000000	0.002131
3658.000000	0.002142
3657.000000	0.002173
3656.000000	0.002207
3655.000000	0.002217
3654.000000	0.002209
3653.000000	0.002203
3652.000000	0.002192
3651.000000	0.002155
3650.000000	0.002108
3649.000000	0.002106
3648.000000	0.002161
3647.000000	0.002226
3646.000000	0.002261
3645.000000	0.002272
3644.000000	0.002282
3643.000000	0.002304
3642.000000	0.002335
3641.000000	0.002356
3640.000000	0.002359
3639.000000	0.002344
3638.000000	0.002322
3637.000000	0.002302
3636.000000	0.002294
3635.000000	0.002309
3634.000000	0.002343
3633.000000	0.002382
3632.000000	0.002412
3631.000000	0.002427
3630.000000	0.002435
3629.000000	0.002463
3628.000000	0.002503
3627.000000	0.002516
3626.000000	0.002511
3625.000000	0.002511
3624.000000	0.002512
3623.000000	0.002509
3622.000000	0.002505
3621.000000	0.002508
3620.000000	0.002521
3619.000000	0.002540
3618.000000	0.002546
3617.000000	0.002533
3616.000000	0.002514
3615.000000	0.002503
3614.000000	0.002508
3613.000000	0.002527
3612.000000	0.002550
3611.000000	0.002567
3610.000000	0.002580
3609.000000	0.002598
3608.000000	0.002628
3607.000000	0.002666
3606.000000	0.002699
3605.000000	0.002720
3604.000000	0.002729
3603.000000	0.002731
3602.000000	0.002734
3601.000000	0.002750
3600.000000	0.002782
3599.000000	0.002817
3598.000000	0.002839
3597.000000	0.002843
3596.000000	0.002847
3595.000000	0.002871
3594.000000	0.002917
3593.000000	0.002963
3592.000000	0.002988
3591.000000	0.002991
3590.000000	0.002984
3589.000000	0.002979
3588.000000	0.002984
3587.000000	0.002988
3586.000000	0.002973
3585.000000	0.002943
3584.000000	0.002925
3583.000000	0.002936
3582.000000	0.002968
3581.000000	0.002999
3580.000000	0.003016
3579.000000	0.003022
3578.000000	0.003032
3577.000000	0.003057
3576.000000	0.003103
3575.000000	0.003165
3574.000000	0.003230
3573.000000	0.003280
3572.000000	0.003309
3571.000000	0.003318
3570.000000	0.003319
3569.000000	0.003316
3568.000000	0.003313
3567.000000	0.003320
3566.000000	0.003334
3565.000000	0.003347
3564.000000	0.003362
3563.000000	0.003381
3562.000000	0.003404
3561.000000	0.003424
3560.000000	0.003439
3559.000000	0.003453
3558.000000	0.003471
3557.000000	0.003494
3556.000000	0.003518
3555.000000	0.003534
3554.000000	0.003532
3553.000000	0.003517
3552.000000	0.003507
3551.000000	0.003520
3550.000000	0.003561
3549.000000	0.003622
3548.000000	0.003692
3547.000000	0.003761
3546.000000	0.003815
3545.000000	0.003841
3544.000000	0.003833
3543.000000	0.003805
3542.000000	0.003783
3541.000000	0.003781
3540.000000	0.003795
3539.000000	0.003813
3538.000000	0.003829
3537.000000	0.003848
3536.000000	0.003876
3535.000000	0.003910
3534.000000	0.003943
3533.000000	0.003965
3532.000000	0.003971
3531.000000	0.003970
3530.000000	0.003974
3529.000000	0.003994
3528.000000	0.004034
3527.000000	0.004090
3526.000000	0.004152
3525.000000	0.004209
3524.000000	0.004247
3523.000000	0.004260
3522.000000	0.004248
3521.000000	0.004229
3520.000000	0.004215
3519.000000	0.004213
3518.000000	0.004219
3517.000000	0.004225
3516.000000	0.004232
3515.000000	0.004243
3514.000000	0.004258
3513.000000	0.004275
3512.000000	0.004296
3511.000000	0.004325
3510.000000	0.004361
3509.000000	0.004392
3508.000000	0.004402
3507.000000	0.004388
3506.000000	0.004363
3505.000000	0.004344
3504.000000	0.004340
3503.000000	0.004354
3502.000000	0.004382
3501.000000	0.004418
3500.000000	0.004456
3499.000000	0.004496
3498.000000	0.004536
3497.000000	0.004575
3496.000000	0.004606
3495.000000	0.004624
3494.000000	0.004630
3493.000000	0.004630
3492.000000	0.004627
3491.000000	0.004623
3490.000000	0.004620
3489.000000	0.004624
3488.000000	0.004641
3487.000000	0.004673
3486.000000	0.004715
3485.000000	0.004752
3484.000000	0.004776
3483.000000	0.004783
3482.000000	0.004781
3481.000000	0.004779
3480.000000	0.004785
3479.000000	0.004802
3478.000000	0.004828
3477.000000	0.004859
3476.000000	0.004891
3475.000000	0.004918
3474.000000	0.004937
3473.000000	0.004944
3472.000000	0.004943
3471.000000	0.004940
3470.000000	0.004939
3469.000000	0.004944
3468.000000	0.004954
3467.000000	0.004971
3466.000000	0.004996
3465.000000	0.005028
3464.000000	0.005060
3463.000000	0.005085
3462.000000	0.005105
3461.000000	0.005127
3460.000000	0.005154
3459.000000	0.005185
3458.000000	0.005210
3457.000000	0.005223
3456.000000	0.005221
3455.000000	0.005210
3454.000000	0.005201
3453.000000	0.005204
3452.000000	0.005220
3451.000000	0.005246
3450.000000	0.005275
3449.000000	0.005303
3448.000000	0.005325
3447.000000	0.005335
3446.000000	0.005339
3445.000000	0.005352
3444.000000	0.005383
3443.000000	0.005428
3442.000000	0.005474
3441.000000	0.005509
3440.000000	0.005533
3439.000000	0.005554
3438.000000	0.005577
3437.000000	0.005600
3436.000000	0.005620
3435.000000	0.005634
3434.000000	0.005640
3433.000000	0.005637
3432.000000	0.005625
3431.000000	0.005612
3430.000000	0.005606
3429.000000	0.005615
3428.000000	0.005637
3427.000000	0.005663
3426.000000	0.005686
3425.000000	0.005704
3424.000000	0.005721
3423.000000	0.005740
3422.000000	0.005760
3421.000000	0.005777
3420.000000	0.005789
3419.000000	0.005800
3418.000000	0.005817
3417.000000	0.005845
3416.000000	0.005881
3415.000000	0.005916
3414.000000	0.005945
3413.000000	0.005967
3412.000000	0.005983
3411.000000	0.006002
3410.000000	0.006026
3409.000000	0.006054
3408.000000	0.006080
3407.000000	0.006099
3406.000000	0.006113
3405.000000	0.006128
3404.000000	0.006150
3403.000000	0.006179
3402.000000	0.006212
3401.000000	0.006238
3400.000000	0.006253
3399.000000	0.006260
3398.000000	0.006268
3397.000000	0.006280
3396.000000	0.006288
3395.000000	0.006290
3394.000000	0.006288
3393.000000	0.006292
3392.000000	0.006304
3391.000000	0.006318
3390.000000	0.006328
3389.000000	0.006336
3388.000000	0.006350
3387.000000	0.006368
3386.000000	0.006382
3385.000000	0.006382
3384.000000	0.006373
3383.000000	0.006370
3382.000000	0.006383
3381.000000	0.006405
3380.000000	0.006416
3379.000000	0.006407
3378.000000	0.006385
3377.000000	0.006365
3376.000000	0.006355
3375.000000	0.006356
3374.000000	0.006372
3373.000000	0.006403
3372.000000	0.006448
3371.000000	0.006500
3370.000000	0.006549
3369.000000	0.006587
3368.000000	0.006610
3367.000000	0.006625
3366.000000	0.006639
3365.000000	0.006654
3364.000000	0.006661
3363.000000	0.006656
3362.000000	0.006640
3361.000000	0.006623
3360.000000	0.006607
3359.000000	0.006594
3358.000000	0.006586
3357.000000	0.006587
3356.000000	0.006599
3355.000000	0.006618
3354.000000	0.006640
3353.000000	0.006663
3352.000000	0.006683
3351.000000	0.006698
3350.000000	0.006708
3349.000000	0.006720
3348.000000	0.006742
3347.000000	0.006772
3346.000000	0.006802
3345.000000	0.006822
3344.000000	0.006827
3343.000000	0.006819
3342.000000	0.006810
3341.000000	0.006811
3340.000000	0.006832
3339.000000	0.006863
3338.000000	0.006889
3337.000000	0.006895
3336.000000	0.006882
3335.000000	0.006865
3334.000000	0.006857
3333.000000	0.006859
3332.000000	0.006862
3331.000000	0.006859
3330.000000	0.006847
3329.000000	0.006837
3328.000000	0.006842
3327.000000	0.006867
3326.000000	0.006907
3325.000000	0.006951
3324.000000	0.006986
3323.000000	0.007007
3322.000000	0.007012
3321.000000	0.007004
3320.000000	0.006994
3319.000000	0.006991
3318.000000	0.006997
3317.000000	0.007000
3316.000000	0.006994
3315.000000	0.006983
3314.000000	0.006975
3313.000000	0.006973
3312.000000	0.006974
3311.000000	0.006975
3310.000000	0.006979
3309.000000	0.006986
3308.000000	0.006995
3307.000000	0.007003
3306.000000	0.007009
3305.000000	0.007014
3304.000000	0.007020
3303.000000	0.007027
3302.000000	0.007035
3301.000000	0.007042
3300.000000	0.007045
3299.000000	0.007048
3298.000000	0.007056
3297.000000	0.007075
3296.000000	0.007100
3295.000000	0.007121
3294.000000	0.007128
3293.000000	0.007116
3292.000000	0.007089
3291.000000	0.007061
3290.000000	0.007048
3289.000000	0.007054
3288.000000	0.007074
3287.000000	0.007099
3286.000000	0.007127
3285.000000	0.007151
3284.000000	0.007157
3283.000000	0.007132
3282.000000	0.007079
3281.000000	0.007021
3280.000000	0.006986
3279.000000	0.006983
3278.000000	0.007008
3277.000000	0.007040
3276.000000	0.007057
3275.000000	0.007048
3274.000000	0.007021
3273.000000	0.006993
3272.000000	0.006976
3271.000000	0.006967
3270.000000	0.006955
3269.000000	0.006932
3268.000000	0.006904
3267.000000	0.006884
3266.000000	0.006881
3265.000000	0.006893
3264.000000	0.006905
3263.000000	0.006910
3262.000000	0.006908
3261.000000	0.006903
3260.000000	0.006900
3259.000000	0.006894
3258.000000	0.006883
3257.000000	0.006865
3256.000000	0.006843
3255.000000	0.006821
3254.000000	0.006808
3253.000000	0.006806
3252.000000	0.006810
3251.000000	0.006814
3250.000000	0.006817
3249.000000	0.006820
3248.000000	0.006819
3247.000000	0.006808
3246.000000	0.006785
3245.000000	0.006757
3244.000000	0.006740
3243.000000	0.006740
3242.000000	0.006754
3241.000000	0.006767
3240.000000	0.006765
3239.000000	0.006742
3238.000000	0.006705
3237.000000	0.006672
3236.000000	0.006656
3235.000000	0.006658
3234.000000	0.006669
3233.000000	0.006680
3232.000000	0.006683
3231.000000	0.006678
3230.000000	0.006662
3229.000000	0.006636
3228.000000	0.006601
3227.000000	0.006565
3226.000000	0.006532
3225.000000	0.006509
3224.000000	0.006496
3223.000000	0.006495
3222.000000	0.006501
3221.000000	0.006507
3220.000000	0.006508
3219.000000	0.006503
3218.000000	0.006493
3217.000000	0.006480
3216.000000	0.006464
3215.000000	0.006448
3214.000000	0.006435
3213.000000	0.006427
3212.000000	0.006425
3211.000000	0.006423
3210.000000	0.006418
3209.000000	0.006408
3208.000000	0.006400
3207.000000	0.006398
3206.000000	0.006400
3205.000000	0.006398
3204.000000	0.006385
3203.000000	0.006362
3202.000000	0.006336
3201.000000	0.006311
3200.000000	0.006290
3199.000000	0.006272
3198.000000	0.006255
3197.000000	0.006245
3196.000000	0.006245
3195.000000	0.006255
3194.000000	0.006266
3193.000000	0.006266
3192.000000	0.006249
3191.000000	0.006223
3190.000000	0.006197
3189.000000	0.006177
3188.000000	0.006162
3187.000000	0.006150
3186.000000	0.006141
3185.000000	0.006132
3184.000000	0.006122
3183.000000	0.006109
3182.000000	0.006091
3181.000000	0.006074
3180.000000	0.006064
3179.000000	0.006066
3178.000000	0.006078
3177.000000	0.006089
3176.000000	0.006091
3175.000000	0.006086
3174.000000	0.006077
3173.000000	0.006065
3172.000000	0.006043
3171.000000	0.006006
3170.000000	0.005954
3169.000000	0.005901
3168.000000	0.005869
3167.000000	0.005872
3166.000000	0.005899
3165.000000	0.005922
3164.000000	0.005916
3163.000000	0.005881
3162.000000	0.005838
3161.000000	0.005805
3160.000000	0.005785
3159.000000	0.005776
3158.000000	0.005775
3157.000000	0.005781
3156.000000	0.005789
3155.000000	0.005788
3154.000000	0.005776
3153.000000	0.005755
3152.000000	0.005732
3151.000000	0.005711
3150.000000	0.005694
3149.000000	0.005683
3148.000000	0.005673
3147.000000	0.005658
3146.000000	0.005635
3145.000000	0.005611
3144.000000	0.005595
3143.000000	0.005591
3142.000000	0.005593
3141.000000	0.005592
3140.000000	0.005584
3139.000000	0.005574
3138.000000	0.005568
3137.000000	0.005568
3136.000000	0.005569
3135.000000	0.005567
3134.000000	0.005558
3133.000000	0.005539
3132.000000	0.005505
3131.000000	0.005464
3130.000000	0.005433
3129.000000	0.005426
3128.000000	0.005443
3127.000000	0.005467
3126.000000	0.005480
3125.000000	0.005471
3124.000000	0.005445
3123.000000	0.005412
3122.000000	0.005387
3121.000000	0.005380
3120.000000	0.005394
3119.000000	0.005417
3118.000000	0.005429
3117.000000	0.005416
3116.000000	0.005377
3115.000000	0.005320
3114.000000	0.005265
3113.000000	0.005231
3112.000000	0.005230
3111.000000	0.005259
3110.000000	0.005300
3109.000000	0.005328
3108.000000	0.005332
3107.000000	0.005314
3106.000000	0.005289
3105.000000	0.005269
3104.000000	0.005258
3103.000000	0.005253
3102.000000	0.005247
3101.000000	0.005237
3100.000000	0.005223
3099.000000	0.005211
3098.000000	0.005205
3097.000000	0.005203
3096.000000	0.005201
3095.000000	0.005195
3094.000000	0.005188
3093.000000	0.005182
3092.000000	0.005178
3091.000000	0.005175
3090.000000	0.005176
3089.000000	0.005184
3088.000000	0.005203
3087.000000	0.005227
3086.000000	0.005244
3085.000000	0.005243
3084.000000	0.005220
3083.000000	0.005185
3082.000000	0.005154
3081.000000	0.005140
3080.000000	0.005141
3079.000000	0.005151
3078.000000	0.005165
3077.000000	0.005180
3076.000000	0.005184
3075.000000	0.005169
3074.000000	0.005140
3073.000000	0.005113
3072.000000	0.005103
3071.000000	0.005109
3070.000000	0.005120
3069.000000	0.005132
3068.000000	0.005142
3067.000000	0.005148
3066.000000	0.005147
3065.000000	0.005134
3064.000000	0.005114
3063.000000	0.005096
3062.000000	0.005087
3061.000000	0.005086
3060.000000	0.005083
3059.000000	0.005069
3058.000000	0.005044
3057.000000	0.005017
3056.000000	0.004999
3055.000000	0.004990
3054.000000	0.004983
3053.000000	0.004971
3052.000000	0.004959
3051.000000	0.004953
3050.000000	0.004957
3049.000000	0.004962
3048.000000	0.004953
3047.000000	0.004929
3046.000000	0.004898
3045.000000	0.004872
3044.000000	0.004856
3043.000000	0.004849
3042.000000	0.004848
3041.000000	0.004852
3040.000000	0.004858
3039.000000	0.004862
3038.000000	0.004861
3037.000000	0.004853
3036.000000	0.004841
3035.000000	0.004830
3034.000000	0.004824
3033.000000	0.004823
3032.000000	0.004819
3031.000000	0.004806
3030.000000	0.004781
3029.000000	0.004758
3028.000000	0.004751
3027.000000	0.004763
3026.000000	0.004782
3025.000000	0.004790
3024.000000	0.004775
3023.000000	0.004743
3022.000000	0.004710
3021.000000	0.004695
3020.000000	0.004701
3019.000000	0.004716
3018.000000	0.004719
3017.000000	0.004702
3016.000000	0.004667
3015.000000	0.004629
3014.000000	0.004599
3013.000000	0.004582
3012.000000	0.004577
3011.000000	0.004581
3010.000000	0.004594
3009.000000	0.004616
3008.000000	0.004647
3007.000000	0.004685
3006.000000	0.004722
3005.000000	0.004740
3004.000000	0.004729
3003.000000	0.004694
3002.000000	0.004656
3001.000000	0.004626
3000.000000	0.004602
2999.000000	0.004580
2998.000000	0.004564
2997.000000	0.004563
2996.000000	0.004576
2995.000000	0.004594
2994.000000	0.004611
2993.000000	0.004626
2992.000000	0.004644
2991.000000	0.004661
2990.000000	0.004671
2989.000000	0.004671
2988.000000	0.004665
2987.000000	0.004659
2986.000000	0.004661
2985.000000	0.004673
2984.000000	0.004696
2983.000000	0.004726
2982.000000	0.004754
2981.000000	0.004773
2980.000000	0.004782
2979.000000	0.004787
2978.000000	0.004794
2977.000000	0.004813
2976.000000	0.004848
2975.000000	0.004899
2974.000000	0.004955
2973.000000	0.005005
2972.000000	0.005046
2971.000000	0.005079
2970.000000	0.005110
2969.000000	0.005141
2968.000000	0.005177
2967.000000	0.005222
2966.000000	0.005279
2965.000000	0.005339
2964.000000	0.005389
2963.000000	0.005426
2962.000000	0.005453
2961.000000	0.005478
2960.000000	0.005499
2959.000000	0.005517
2958.000000	0.005537
2957.000000	0.005568
2956.000000	0.005611
2955.000000	0.005654
2954.000000	0.005686
2953.000000	0.005702
2952.000000	0.005704
2951.000000	0.005701
2950.000000	0.005706
2949.000000	0.005719
2948.000000	0.005735
2947.000000	0.005746
2946.000000	0.005746
2945.000000	0.005735
2944.000000	0.005710
2943.000000	0.005675
2942.000000	0.005642
2941.000000	0.005631
2940.000000	0.005650
2939.000000	0.005689
2938.000000	0.005728
2937.000000	0.005760
2936.000000	0.005790
2935.000000	0.005828
2934.000000	0.005878
2933.000000	0.005933
2932.000000	0.005990
2931.000000	0.006046
2930.000000	0.006104
2929.000000	0.006164
2928.000000	0.006214
2927.000000	0.006250
2926.000000	0.006272
2925.000000	0.006291
2924.000000	0.006313
2923.000000	0.006336
2922.000000	0.006358
2921.000000	0.006380
2920.000000	0.006402
2919.000000	0.006422
2918.000000	0.006430
2917.000000	0.006417
2916.000000	0.006385
2915.000000	0.006339
2914.000000	0.006284
2913.000000	0.006221
2912.000000	0.006150
2911.000000	0.006077
2910.000000	0.006012
2909.000000	0.005964
2908.000000	0.005932
2907.000000	0.005908
2906.000000	0.005883
2905.000000	0.005856
2904.000000	0.005831
2903.000000	0.005811
2902.000000	0.005792
2901.000000	0.005764
2900.000000	0.005721
2899.000000	0.005667
2898.000000	0.005615
2897.000000	0.005575
2896.000000	0.005552
2895.000000	0.005543
2894.000000	0.005534
2893.000000	0.005515
2892.000000	0.005478
2891.000000	0.005430
2890.000000	0.005392
2889.000000	0.005381
2888.000000	0.005393
2887.000000	0.005414
2886.000000	0.005427
2885.000000	0.005427
2884.000000	0.005416
2883.000000	0.005401
2882.000000	0.005386
2881.000000	0.005378
2880.000000	0.005379
2879.000000	0.005389
2878.000000	0.005404
2877.000000	0.005418
2876.000000	0.005429
2875.000000	0.005439
2874.000000	0.005450
2873.000000	0.005460
2872.000000	0.005464
2871.000000	0.005459
2870.000000	0.005450
2869.000000	0.005440
2868.000000	0.005431
2867.000000	0.005419
2866.000000	0.005403
2865.000000	0.005388
2864.000000	0.005380
2863.000000	0.005380
2862.000000	0.005384
2861.000000	0.005388
2860.000000	0.005389
2859.000000	0.005384
2858.000000	0.005376
2857.000000	0.005364
2856.000000	0.005350
2855.000000	0.005336
2854.000000	0.005330
2853.000000	0.005340
2852.000000	0.005363
2851.000000	0.005386
2850.000000	0.005392
2849.000000	0.005377
2848.000000	0.005343
2847.000000	0.005299
2846.000000	0.005248
2845.000000	0.005195
2844.000000	0.005148
2843.000000	0.005113
2842.000000	0.005091
2841.000000	0.005072
2840.000000	0.005046
2839.000000	0.005012
2838.000000	0.004982
2837.000000	0.004965
2836.000000	0.004955
2835.000000	0.004939
2834.000000	0.004908
2833.000000	0.004868
2832.000000	0.004835
2831.000000	0.004817
2830.000000	0.004812
2829.000000	0.004811
2828.000000	0.004804
2827.000000	0.004791
2826.000000	0.004775
2825.000000	0.004758
2824.000000	0.004740
2823.000000	0.004722
2822.000000	0.004709
2821.000000	0.004700
2820.000000	0.004693
2819.000000	0.004684
2818.000000	0.004675
2817.000000	0.004665
2816.000000	0.004650
2815.000000	0.004623
2814.000000	0.004592
2813.000000	0.004571
2812.000000	0.004570
2811.000000	0.004578
2810.000000	0.004581
2809.000000	0.004572
2808.000000	0.004556
2807.000000	0.004540
2806.000000	0.004528
2805.000000	0.004522
2804.000000	0.004519
2803.000000	0.004517
2802.000000	0.004510
2801.000000	0.004501
2800.000000	0.004494
2799.000000	0.004493
2798.000000	0.004495
2797.000000	0.004495
2796.000000	0.004493
2795.000000	0.004490
2794.000000	0.004491
2793.000000	0.004496
2792.000000	0.004500
2791.000000	0.004500
2790.000000	0.004492
2789.000000	0.004477
2788.000000	0.004457
2787.000000	0.004438
2786.000000	0.004429
2785.000000	0.004434
2784.000000	0.004442
2783.000000	0.004437
2782.000000	0.004411
2781.000000	0.004374
2780.000000	0.004343
2779.000000	0.004327
2778.000000	0.004324
2777.000000	0.004327
2776.000000	0.004334
2775.000000	0.004342
2774.000000	0.004350
2773.000000	0.004357
2772.000000	0.004361
2771.000000	0.004355
2770.000000	0.004340
2769.000000	0.004325
2768.000000	0.004325
2767.000000	0.004340
2766.000000	0.004355
2765.000000	0.004356
2764.000000	0.004345
2763.000000	0.004330
2762.000000	0.004322
2761.000000	0.004324
2760.000000	0.004337
2759.000000	0.004357
2758.000000	0.004376
2757.000000	0.004385
2756.000000	0.004377
2755.000000	0.004356
2754.000000	0.004329
2753.000000	0.004311
2752.000000	0.004311
2751.000000	0.004330
2750.000000	0.004360
2749.000000	0.004388
2748.000000	0.004405
2747.000000	0.004407
2746.000000	0.004399
2745.000000	0.004384
2744.000000	0.004370
2743.000000	0.004360
2742.000000	0.004353
2741.000000	0.004346
2740.000000	0.004336
2739.000000	0.004324
2738.000000	0.004314
2737.000000	0.004311
2736.000000	0.004320
2735.000000	0.004341
2734.000000	0.004369
2733.000000	0.004397
2732.000000	0.004412
2731.000000	0.004407
2730.000000	0.004387
2729.000000	0.004365
2728.000000	0.004353
2727.000000	0.004351
2726.000000	0.004355
2725.000000	0.004355
2724.000000	0.004350
2723.000000	0.004341
2722.000000	0.004328
2721.000000	0.004311
2720.000000	0.004291
2719.000000	0.004270
2718.000000	0.004256
2717.000000	0.004251
2716.000000	0.004256
2715.000000	0.004266
2714.000000	0.004271
2713.000000	0.004269
2712.000000	0.004259
2711.000000	0.004245
2710.000000	0.004233
2709.000000	0.004228
2708.000000	0.004233
2707.000000	0.004248
2706.000000	0.004265
2705.000000	0.004280
2704.000000	0.004287
2703.000000	0.004281
2702.000000	0.004260
2701.000000	0.004229
2700.000000	0.004201
2699.000000	0.004185
2698.000000	0.004187
2697.000000	0.004204
2696.000000	0.004230
2695.000000	0.004255
2694.000000	0.004269
2693.000000	0.004265
2692.000000	0.004244
2691.000000	0.004219
2690.000000	0.004199
2689.000000	0.004189
2688.000000	0.004187
2687.000000	0.004194
2686.000000	0.004202
2685.000000	0.004207
2684.000000	0.004207
2683.000000	0.004205
2682.000000	0.004204
2681.000000	0.004206
2680.000000	0.004209
2679.000000	0.004210
2678.000000	0.004204
2677.000000	0.004191
2676.000000	0.004175
2675.000000	0.004163
2674.000000	0.004159
2673.000000	0.004159
2672.000000	0.004157
2671.000000	0.004156
2670.000000	0.004160
2669.000000	0.004171
2668.000000	0.004180
2667.000000	0.004181
2666.000000	0.004175
2665.000000	0.004172
2664.000000	0.004181
2663.000000	0.004201
2662.000000	0.004221
2661.000000	0.004229
2660.000000	0.004221
2659.000000	0.004204
2658.000000	0.004185
2657.000000	0.004172
2656.000000	0.004167
2655.000000	0.004168
2654.000000	0.004169
2653.000000	0.004160
2652.000000	0.004139
2651.000000	0.004116
2650.000000	0.004105
2649.000000	0.004112
2648.000000	0.004125
2647.000000	0.004129
2646.000000	0.004117
2645.000000	0.004093
2644.000000	0.004066
2643.000000	0.004041
2642.000000	0.004019
2641.000000	0.004001
2640.000000	0.003992
2639.000000	0.003992
2638.000000	0.003999
2637.000000	0.004004
2636.000000	0.004002
2635.000000	0.003994
2634.000000	0.003990
2633.000000	0.003995
2632.000000	0.004007
2631.000000	0.004009
2630.000000	0.003994
2629.000000	0.003964
2628.000000	0.003931
2627.000000	0.003905
2626.000000	0.003887
2625.000000	0.003871
2624.000000	0.003854
2623.000000	0.003830
2622.000000	0.003798
2621.000000	0.003765
2620.000000	0.003741
2619.000000	0.003734
2618.000000	0.003739
2617.000000	0.003751
2616.000000	0.003767
2615.000000	0.003786
2614.000000	0.003797
2613.000000	0.003791
2612.000000	0.003770
2611.000000	0.003748
2610.000000	0.003734
2609.000000	0.003731
2608.000000	0.003734
2607.000000	0.003739
2606.000000	0.003742
2605.000000	0.003739
2604.000000	0.003726
2603.000000	0.003703
2602.000000	0.003680
2601.000000	0.003668
2600.000000	0.003671
2599.000000	0.003681
2598.000000	0.003685
2597.000000	0.003677
2596.000000	0.003664
2595.000000	0.003660
2594.000000	0.003669
2593.000000	0.003684
2592.000000	0.003694
2591.000000	0.003698
2590.000000	0.003697
2589.000000	0.003693
2588.000000	0.003687
2587.000000	0.003674
2586.000000	0.003653
2585.000000	0.003627
2584.000000	0.003601
2583.000000	0.003578
2582.000000	0.003557
2581.000000	0.003542
2580.000000	0.003541
2579.000000	0.003559
2578.000000	0.003589
2577.000000	0.003610
2576.000000	0.003607
2575.000000	0.003583
2574.000000	0.003553
2573.000000	0.003535
2572.000000	0.003533
2571.000000	0.003542
2570.000000	0.003553
2569.000000	0.003560
2568.000000	0.003564
2567.000000	0.003565
2566.000000	0.003560
2565.000000	0.003547
2564.000000	0.003530
2563.000000	0.003515
2562.000000	0.003503
2561.000000	0.003495
2560.000000	0.003491
2559.000000	0.003492
2558.000000	0.003494
2557.000000	0.003491
2556.000000	0.003481
2555.000000	0.003468
2554.000000	0.003454
2553.000000	0.003440
2552.000000	0.003432
2551.000000	0.003434
2550.000000	0.003444
2549.000000	0.003453
2548.000000	0.003452
2547.000000	0.003435
2546.000000	0.003408
2545.000000	0.003380
2544.000000	0.003360
2543.000000	0.003356
2542.000000	0.003375
2541.000000	0.003424
2540.000000	0.003499
2539.000000	0.003576
2538.000000	0.003619
2537.000000	0.003614
2536.000000	0.003577
2535.000000	0.003538
2534.000000	0.003514
2533.000000	0.003501
2532.000000	0.003495
2531.000000	0.003495
2530.000000	0.003499
2529.000000	0.003496
2528.000000	0.003476
2527.000000	0.003444
2526.000000	0.003411
2525.000000	0.003383
2524.000000	0.003364
2523.000000	0.003357
2522.000000	0.003360
2521.000000	0.003369
2520.000000	0.003380
2519.000000	0.003398
2518.000000	0.003429
2517.000000	0.003463
2516.000000	0.003487
2515.000000	0.003488
2514.000000	0.003466
2513.000000	0.003430
2512.000000	0.003393
2511.000000	0.003375
2510.000000	0.003386
2509.000000	0.003418
2508.000000	0.003452
2507.000000	0.003469
2506.000000	0.003464
2505.000000	0.003443
2504.000000	0.003424
2503.000000	0.003417
2502.000000	0.003422
2501.000000	0.003426
2500.000000	0.003420
2499.000000	0.003404
2498.000000	0.003382
2497.000000	0.003354
2496.000000	0.003327
2495.000000	0.003314
2494.000000	0.003322
2493.000000	0.003336
2492.000000	0.003339
2491.000000	0.003325
2490.000000	0.003304
2489.000000	0.003288
2488.000000	0.003287
2487.000000	0.003304
2486.000000	0.003335
2485.000000	0.003356
2484.000000	0.003350
2483.000000	0.003323
2482.000000	0.003304
2481.000000	0.003312
2480.000000	0.003340
2479.000000	0.003366
2478.000000	0.003379
2477.000000	0.003387
2476.000000	0.003395
2475.000000	0.003401
2474.000000	0.003399
2473.000000	0.003387
2472.000000	0.003374
2471.000000	0.003370
2470.000000	0.003385
2469.000000	0.003415
2468.000000	0.003447
2467.000000	0.003460
2466.000000	0.003445
2465.000000	0.003410
2464.000000	0.003373
2463.000000	0.003348
2462.000000	0.003340
2461.000000	0.003342
2460.000000	0.003346
2459.000000	0.003348
2458.000000	0.003347
2457.000000	0.003345
2456.000000	0.003342
2455.000000	0.003342
2454.000000	0.003350
2453.000000	0.003364
2452.000000	0.003381
2451.000000	0.003394
2450.000000	0.003398
2449.000000	0.003391
2448.000000	0.003378
2447.000000	0.003371
2446.000000	0.003378
2445.000000	0.003391
2444.000000	0.003398
2443.000000	0.003395
2442.000000	0.003395
2441.000000	0.003413
2440.000000	0.003443
2439.000000	0.003462
2438.000000	0.003453
2437.000000	0.003411
2436.000000	0.003352
2435.000000	0.003300
2434.000000	0.003270
2433.000000	0.003259
2432.000000	0.003259
2431.000000	0.003265
2430.000000	0.003280
2429.000000	0.003300
2428.000000	0.003311
2427.000000	0.003300
2426.000000	0.003276
2425.000000	0.003257
2424.000000	0.003253
2423.000000	0.003267
2422.000000	0.003297
2421.000000	0.003335
2420.000000	0.003369
2419.000000	0.003386
2418.000000	0.003381
2417.000000	0.003359
2416.000000	0.003330
2415.000000	0.003302
2414.000000	0.003279
2413.000000	0.003262
2412.000000	0.003247
2411.000000	0.003231
2410.000000	0.003220
2409.000000	0.003225
2408.000000	0.003249
2407.000000	0.003289
2406.000000	0.003334
2405.000000	0.003375
2404.000000	0.003395
2403.000000	0.003377
2402.000000	0.003315
2401.000000	0.003231
2400.000000	0.003163
2399.000000	0.003143
2398.000000	0.003175
2397.000000	0.003233
2396.000000	0.003284
2395.000000	0.003307
2394.000000	0.003305
2393.000000	0.003291
2392.000000	0.003276
2391.000000	0.003261
2390.000000	0.003243
2389.000000	0.003231
2388.000000	0.003235
2387.000000	0.003262
2386.000000	0.003298
2385.000000	0.003322
2384.000000	0.003321
2383.000000	0.003301
2382.000000	0.003276
2381.000000	0.003259
2380.000000	0.003256
2379.000000	0.003264
2378.000000	0.003283
2377.000000	0.003304
2376.000000	0.003315
2375.000000	0.003308
2374.000000	0.003283
2373.000000	0.003252
2372.000000	0.003226
2371.000000	0.003218
2370.000000	0.003239
2369.000000	0.003287
2368.000000	0.003344
2367.000000	0.003384
2366.000000	0.003396
2365.000000	0.003382
2364.000000	0.003349
2363.000000	0.003309
2362.000000	0.003282
2361.000000	0.003287
2360.000000	0.003321
2359.000000	0.003351
2358.000000	0.003346
2357.000000	0.003308
2356.000000	0.003257
2355.000000	0.003220
2354.000000	0.003220
2353.000000	0.003255
2352.000000	0.003301
2351.000000	0.003329
2350.000000	0.003343
2349.000000	0.003346
2348.000000	0.003345
2347.000000	0.003344
2346.000000	0.003352
2345.000000	0.003365
2344.000000	0.003374
2343.000000	0.003391
2342.000000	0.003412
2341.000000	0.003421
2340.000000	0.003409
2339.000000	0.003380
2338.000000	0.003346
2337.000000	0.003326
2336.000000	0.003335
2335.000000	0.003371
2334.000000	0.003417
2333.000000	0.003445
2332.000000	0.003437
2331.000000	0.003396
2330.000000	0.003354
2329.000000	0.003341
2328.000000	0.003370
2327.000000	0.003437
2326.000000	0.003529
2325.000000	0.003620
2324.000000	0.003682
2323.000000	0.003703
2322.000000	0.003691
2321.000000	0.003663
2320.000000	0.003626
2319.000000	0.003584
2318.000000	0.003541
2317.000000	0.003503
2316.000000	0.003472
2315.000000	0.003447
2314.000000	0.003435
2313.000000	0.003441
2312.000000	0.003455
2311.000000	0.003459
2310.000000	0.003442
2309.000000	0.003408
2308.000000	0.003366
2307.000000	0.003328
2306.000000	0.003314
2305.000000	0.003337
2304.000000	0.003397
2303.000000	0.003472
2302.000000	0.003529
2301.000000	0.003548
2300.000000	0.003529
2299.000000	0.003491
2298.000000	0.003457
2297.000000	0.003439
2296.000000	0.003433
2295.000000	0.003419
2294.000000	0.003395
2293.000000	0.003378
2292.000000	0.003392
2291.000000	0.003440
2290.000000	0.003496
2289.000000	0.003535
2288.000000	0.003550
2287.000000	0.003548
2286.000000	0.003534
2285.000000	0.003501
2284.000000	0.003444
2283.000000	0.003380
2282.000000	0.003344
2281.000000	0.003358
2280.000000	0.003404
2279.000000	0.003434
2278.000000	0.003415
2277.000000	0.003358
2276.000000	0.003305
2275.000000	0.003291
2274.000000	0.003320
2273.000000	0.003368
2272.000000	0.003406
2271.000000	0.003414
2270.000000	0.003395
2269.000000	0.003370
2268.000000	0.003361
2267.000000	0.003380
2266.000000	0.003418
2265.000000	0.003457
2264.000000	0.003470
2263.000000	0.003442
2262.000000	0.003374
2261.000000	0.003283
2260.000000	0.003190
2259.000000	0.003113
2258.000000	0.003062
2257.000000	0.003046
2256.000000	0.003075
2255.000000	0.003149
2254.000000	0.003235
2253.000000	0.003276
2252.000000	0.003228
2251.000000	0.003115
2250.000000	0.003019
2249.000000	0.003017
2248.000000	0.003100
2247.000000	0.003193
2246.000000	0.003231
2245.000000	0.003235
2244.000000	0.003269
2243.000000	0.003369
2242.000000	0.003500
2241.000000	0.003604
2240.000000	0.003647
2239.000000	0.003635
2238.000000	0.003588
2237.000000	0.003530
2236.000000	0.003493
2235.000000	0.003501
2234.000000	0.003540
2233.000000	0.003566
2232.000000	0.003546
2231.000000	0.003485
2230.000000	0.003407
2229.000000	0.003321
2228.000000	0.003216
2227.000000	0.003095
2226.000000	0.002977
2225.000000	0.002885
2224.000000	0.002838
2223.000000	0.002855
2222.000000	0.002944
2221.000000	0.003071
2220.000000	0.003160
2219.000000	0.003163
2218.000000	0.003110
2217.000000	0.003079
2216.000000	0.003113
2215.000000	0.003188
2214.000000	0.003249
2213.000000	0.003264
2212.000000	0.003228
2211.000000	0.003154
2210.000000	0.003074
2209.000000	0.003037
2208.000000	0.003070
2207.000000	0.003143
2206.000000	0.003181
2205.000000	0.003141
2204.000000	0.003061
2203.000000	0.003031
2202.000000	0.003095
2201.000000	0.003186
2200.000000	0.003194
2199.000000	0.003078
2198.000000	0.002914
2197.000000	0.002805
2196.000000	0.002781
2195.000000	0.002796
2194.000000	0.002810
2193.000000	0.002829
2192.000000	0.002866
2191.000000	0.002889
2190.000000	0.002851
2189.000000	0.002765
2188.000000	0.002719
2187.000000	0.002802
2186.000000	0.003002
2185.000000	0.003192
2184.000000	0.003227
2183.000000	0.003074
2182.000000	0.002841
2181.000000	0.002666
2180.000000	0.002598
2179.000000	0.002581
2178.000000	0.002565
2177.000000	0.002573
2176.000000	0.002668
2175.000000	0.002867
2174.000000	0.003109
2173.000000	0.003302
2172.000000	0.003382
2171.000000	0.003343
2170.000000	0.003243
2169.000000	0.003177
2168.000000	0.003212
2167.000000	0.003304
2166.000000	0.003315
2165.000000	0.003140
2164.000000	0.002843
2163.000000	0.002614
2162.000000	0.002574
2161.000000	0.002634
2160.000000	0.002563
2159.000000	0.002223
2158.000000	0.001720
2157.000000	0.001306
2156.000000	0.001162
2155.000000	0.001307
2154.000000	0.001640
2153.000000	0.002012
2152.000000	0.002301
2151.000000	0.002472
2150.000000	0.002554
2149.000000	0.002564
2148.000000	0.002489
2147.000000	0.002341
2146.000000	0.002201
2145.000000	0.002167
2144.000000	0.002267
2143.000000	0.002426
2142.000000	0.002533
2141.000000	0.002534
2140.000000	0.002473
2139.000000	0.002450
2138.000000	0.002518
2137.000000	0.002635
2136.000000	0.002708
2135.000000	0.002686
2134.000000	0.002596
2133.000000	0.002503
2132.000000	0.002457
2131.000000	0.002478
2130.000000	0.002547
2129.000000	0.002623
2128.000000	0.002673
2127.000000	0.002710
2126.000000	0.002768
2125.000000	0.002855
2124.000000	0.002931
2123.000000	0.002961
2122.000000	0.002947
2121.000000	0.002916
2120.000000	0.002884
2119.000000	0.002863
2118.000000	0.002864
2117.000000	0.002891
2116.000000	0.002923
2115.000000	0.002942
2114.000000	0.002959
2113.000000	0.003003
2112.000000	0.003079
2111.000000	0.003157
2110.000000	0.003195
2109.000000	0.003170
2108.000000	0.003088
2107.000000	0.002982
2106.000000	0.002894
2105.000000	0.002855
2104.000000	0.002868
2103.000000	0.002907
2102.000000	0.002936
2101.000000	0.002919
2100.000000	0.002847
2099.000000	0.002759
2098.000000	0.002718
2097.000000	0.002762
2096.000000	0.002870
2095.000000	0.003002
2094.000000	0.003124
2093.000000	0.003206
2092.000000	0.003212
2091.000000	0.003144
2090.000000	0.003064
2089.000000	0.003041
2088.000000	0.003069
2087.000000	0.003088
2086.000000	0.003065
2085.000000	0.003023
2084.000000	0.002997
2083.000000	0.002996
2082.000000	0.003008
2081.000000	0.003021
2080.000000	0.003020
2079.000000	0.002996
2078.000000	0.002959
2077.000000	0.002943
2076.000000	0.002963
2075.000000	0.002999
2074.000000	0.003021
2073.000000	0.003019
2072.000000	0.003004
2071.000000	0.002984
2070.000000	0.002964
2069.000000	0.002932
2068.000000	0.002873
2067.000000	0.002792
2066.000000	0.002735
2065.000000	0.002754
2064.000000	0.002837
2063.000000	0.002917
2062.000000	0.002949
2061.000000	0.002949
2060.000000	0.002955
2059.000000	0.002970
2058.000000	0.002969
2057.000000	0.002928
2056.000000	0.002846
2055.000000	0.002764
2054.000000	0.002752
2053.000000	0.002851
2052.000000	0.002998
2051.000000	0.003058
2050.000000	0.002954
2049.000000	0.002761
2048.000000	0.002633
2047.000000	0.002623
2046.000000	0.002644
2045.000000	0.002593
2044.000000	0.002471
2043.000000	0.002359
2042.000000	0.002325
2041.000000	0.002389
2040.000000	0.002545
2039.000000	0.002781
2038.000000	0.003044
2037.000000	0.003205
2036.000000	0.003127
2035.000000	0.002799
2034.000000	0.002367
2033.000000	0.002022
2032.000000	0.001861
2031.000000	0.001869
2030.000000	0.001986
2029.000000	0.002124
2028.000000	0.002181
2027.000000	0.002138
2026.000000	0.002110
2025.000000	0.002205
2024.000000	0.002358
2023.000000	0.002384
2022.000000	0.002212
2021.000000	0.001974
2020.000000	0.001842
2019.000000	0.001851
2018.000000	0.001927
2017.000000	0.002005
2016.000000	0.002067
2015.000000	0.002124
2014.000000	0.002197
2013.000000	0.002318
2012.000000	0.002493
2011.000000	0.002695
2010.000000	0.002876
2009.000000	0.002987
2008.000000	0.002982
2007.000000	0.002856
2006.000000	0.002683
2005.000000	0.002559
2004.000000	0.002521
2003.000000	0.002538
2002.000000	0.002593
2001.000000	0.002692
2000.000000	0.002804
1999.000000	0.002851
1998.000000	0.002788
1997.000000	0.002642
1996.000000	0.002469
1995.000000	0.002312
1994.000000	0.002213
1993.000000	0.002225
1992.000000	0.002348
1991.000000	0.002500
1990.000000	0.002601
1989.000000	0.002649
1988.000000	0.002688
1987.000000	0.002722
1986.000000	0.002708
1985.000000	0.002616
1984.000000	0.002475
1983.000000	0.002348
1982.000000	0.002290
1981.000000	0.002289
1980.000000	0.002269
1979.000000	0.002158
1978.000000	0.001987
1977.000000	0.001866
1976.000000	0.001862
1975.000000	0.001932
1974.000000	0.002008
1973.000000	0.002071
1972.000000	0.002132
1971.000000	0.002192
1970.000000	0.002240
1969.000000	0.002261
1968.000000	0.002229
1967.000000	0.002148
1966.000000	0.002088
1965.000000	0.002136
1964.000000	0.002288
1963.000000	0.002443
1962.000000	0.002515
1961.000000	0.002502
1960.000000	0.002443
1959.000000	0.002347
1958.000000	0.002212
1957.000000	0.002073
1956.000000	0.001996
1955.000000	0.002022
1954.000000	0.002140
1953.000000	0.002299
1952.000000	0.002430
1951.000000	0.002468
1950.000000	0.002402
1949.000000	0.002297
1948.000000	0.002241
1947.000000	0.002276
1946.000000	0.002364
1945.000000	0.002432
1944.000000	0.002437
1943.000000	0.002403
1942.000000	0.002401
1941.000000	0.002462
1940.000000	0.002526
1939.000000	0.002502
1938.000000	0.002375
1937.000000	0.002227
1936.000000	0.002168
1935.000000	0.002229
1934.000000	0.002360
1933.000000	0.002491
1932.000000	0.002590
1931.000000	0.002662
1930.000000	0.002716
1929.000000	0.002745
1928.000000	0.002735
1927.000000	0.002678
1926.000000	0.002583
1925.000000	0.002469
1924.000000	0.002355
1923.000000	0.002260
1922.000000	0.002203
1921.000000	0.002193
1920.000000	0.002221
1919.000000	0.002269
1918.000000	0.002332
1917.000000	0.002407
1916.000000	0.002480
1915.000000	0.002544
1914.000000	0.002605
1913.000000	0.002664
1912.000000	0.002695
1911.000000	0.002667
1910.000000	0.002583
1909.000000	0.002497
1908.000000	0.002454
1907.000000	0.002451
1906.000000	0.002464
1905.000000	0.002480
1904.000000	0.002500
1903.000000	0.002519
1902.000000	0.002522
1901.000000	0.002504
1900.000000	0.002476
1899.000000	0.002455
1898.000000	0.002451
1897.000000	0.002455
1896.000000	0.002440
1895.000000	0.002393
1894.000000	0.002338
1893.000000	0.002311
1892.000000	0.002324
1891.000000	0.002360
1890.000000	0.002402
1889.000000	0.002441
1888.000000	0.002465
1887.000000	0.002468
1886.000000	0.002466
1885.000000	0.002471
1884.000000	0.002468
1883.000000	0.002435
1882.000000	0.002380
1881.000000	0.002337
1880.000000	0.002317
1879.000000	0.002316
1878.000000	0.002334
1877.000000	0.002381
1876.000000	0.002433
1875.000000	0.002444
1874.000000	0.002397
1873.000000	0.002332
1872.000000	0.002293
1871.000000	0.002292
1870.000000	0.002310
1869.000000	0.002339
1868.000000	0.002361
1867.000000	0.002346
1866.000000	0.002300
1865.000000	0.002268
1864.000000	0.002273
1863.000000	0.002300
1862.000000	0.002323
1861.000000	0.002340
1860.000000	0.002353
1859.000000	0.002352
1858.000000	0.002333
1857.000000	0.002314
1856.000000	0.002317
1855.000000	0.002343
1854.000000	0.002380
1853.000000	0.002420
1852.000000	0.002442
1851.000000	0.002431
1850.000000	0.002395
1849.000000	0.002368
1848.000000	0.002369
1847.000000	0.002381
1846.000000	0.002389
1845.000000	0.002401
1844.000000	0.002425
1843.000000	0.002430
1842.000000	0.002391
1841.000000	0.002335
1840.000000	0.002298
1839.000000	0.002286
1838.000000	0.002287
1837.000000	0.002292
1836.000000	0.002304
1835.000000	0.002313
1834.000000	0.002308
1833.000000	0.002287
1832.000000	0.002263
1831.000000	0.002253
1830.000000	0.002273
1829.000000	0.002311
1828.000000	0.002333
1827.000000	0.002329
1826.000000	0.002314
1825.000000	0.002306
1824.000000	0.002310
1823.000000	0.002304
1822.000000	0.002276
1821.000000	0.002234
1820.000000	0.002192
1819.000000	0.002155
1818.000000	0.002121
1817.000000	0.002107
1816.000000	0.002126
1815.000000	0.002166
1814.000000	0.002199
1813.000000	0.002220
1812.000000	0.002245
1811.000000	0.002275
1810.000000	0.002289
1809.000000	0.002281
1808.000000	0.002266
1807.000000	0.002249
1806.000000	0.002228
1805.000000	0.002202
1804.000000	0.002169
1803.000000	0.002123
1802.000000	0.002075
1801.000000	0.002055
1800.000000	0.002084
1799.000000	0.002133
1798.000000	0.002165
1797.000000	0.002179
1796.000000	0.002189
1795.000000	0.002187
1794.000000	0.002166
1793.000000	0.002143
1792.000000	0.002153
1791.000000	0.002183
1790.000000	0.002188
1789.000000	0.002174
1788.000000	0.002166
1787.000000	0.002172
1786.000000	0.002180
1785.000000	0.002180
1784.000000	0.002165
1783.000000	0.002134
1782.000000	0.002099
1781.000000	0.002078
1780.000000	0.002075
1779.000000	0.002071
1778.000000	0.002052
1777.000000	0.002033
1776.000000	0.002026
1775.000000	0.002026
1774.000000	0.002017
1773.000000	0.002001
1772.000000	0.002004
1771.000000	0.002026
1770.000000	0.002033
1769.000000	0.002031
1768.000000	0.002043
1767.000000	0.002060
1766.000000	0.002053
1765.000000	0.002016
1764.000000	0.001976
1763.000000	0.001968
1762.000000	0.002004
1761.000000	0.002056
1760.000000	0.002089
1759.000000	0.002107
1758.000000	0.002130
1757.000000	0.002172
1756.000000	0.002228
1755.000000	0.002290
1754.000000	0.002347
1753.000000	0.002390
1752.000000	0.002412
1751.000000	0.002433
1750.000000	0.002483
1749.000000	0.002566
1748.000000	0.002658
1747.000000	0.002735
1746.000000	0.002792
1745.000000	0.002834
1744.000000	0.002867
1743.000000	0.002895
1742.000000	0.002913
1741.000000	0.002919
1740.000000	0.002918
1739.000000	0.002903
1738.000000	0.002863
1737.000000	0.002802
1736.000000	0.002728
1735.000000	0.002639
1734.000000	0.002584
1733.000000	0.002584
1732.000000	0.002584
1731.000000	0.002573
1730.000000	0.002570
1729.000000	0.002579
1728.000000	0.002588
1727.000000	0.002577
1726.000000	0.002539
1725.000000	0.002481
1724.000000	0.002427
1723.000000	0.002389
1722.000000	0.002361
1721.000000	0.002334
1720.000000	0.002302
1719.000000	0.002253
1718.000000	0.002197
1717.000000	0.002190
1716.000000	0.002247
1715.000000	0.002314
1714.000000	0.002360
1713.000000	0.002395
1712.000000	0.002435
1711.000000	0.002481
1710.000000	0.002529
1709.000000	0.002575
1708.000000	0.002621
1707.000000	0.002672
1706.000000	0.002730
1705.000000	0.002804
1704.000000	0.002878
1703.000000	0.002937
1702.000000	0.002983
1701.000000	0.003032
1700.000000	0.003122
1699.000000	0.003210
1698.000000	0.003264
1697.000000	0.003365
1696.000000	0.003554
1695.000000	0.003725
1694.000000	0.003796
1693.000000	0.003829
1692.000000	0.003896
1691.000000	0.003994
1690.000000	0.004095
1689.000000	0.004189
1688.000000	0.004284
1687.000000	0.004391
1686.000000	0.004507
1685.000000	0.004644
1684.000000	0.004848
1683.000000	0.005048
1682.000000	0.005174
1681.000000	0.005295
1680.000000	0.005441
1679.000000	0.005590
1678.000000	0.005741
1677.000000	0.005910
1676.000000	0.006092
1675.000000	0.006254
1674.000000	0.006373
1673.000000	0.006471
1672.000000	0.006587
1671.000000	0.006741
1670.000000	0.006944
1669.000000	0.007178
1668.000000	0.007373
1667.000000	0.007501
1666.000000	0.007604
1665.000000	0.007727
1664.000000	0.007879
1663.000000	0.008041
1662.000000	0.008190
1661.000000	0.008319
1660.000000	0.008437
1659.000000	0.008551
1658.000000	0.008671
1657.000000	0.008811
1656.000000	0.008971
1655.000000	0.009123
1654.000000	0.009213
1653.000000	0.009311
1652.000000	0.009402
1651.000000	0.009415
1650.000000	0.009436
1649.000000	0.009488
1648.000000	0.009537
1647.000000	0.009583
1646.000000	0.009631
1645.000000	0.009668
1644.000000	0.009710
1643.000000	0.009776
1642.000000	0.009859
1641.000000	0.009943
1640.000000	0.010012
1639.000000	0.010061
1638.000000	0.010094
1637.000000	0.010102
1636.000000	0.010097
1635.000000	0.010102
1634.000000	0.010105
1633.000000	0.010108
1632.000000	0.010122
1631.000000	0.010133
1630.000000	0.010140
1629.000000	0.010153
1628.000000	0.010162
1627.000000	0.010142
1626.000000	0.010090
1625.000000	0.010024
1624.000000	0.009952
1623.000000	0.009873
1622.000000	0.009791
1621.000000	0.009720
1620.000000	0.009664
1619.000000	0.009610
1618.000000	0.009522
1617.000000	0.009391
1616.000000	0.009246
1615.000000	0.009111
1614.000000	0.009005
1613.000000	0.008923
1612.000000	0.008829
1611.000000	0.008702
1610.000000	0.008558
1609.000000	0.008422
1608.000000	0.008293
1607.000000	0.008166
1606.000000	0.008057
1605.000000	0.007973
1604.000000	0.007893
1603.000000	0.007803
1602.000000	0.007713
1601.000000	0.007633
1600.000000	0.007557
1599.000000	0.007480
1598.000000	0.007402
1597.000000	0.007327
1596.000000	0.007254
1595.000000	0.007194
1594.000000	0.007156
1593.000000	0.007129
1592.000000	0.007087
1591.000000	0.007025
1590.000000	0.006966
1589.000000	0.006929
1588.000000	0.006906
1587.000000	0.006884
1586.000000	0.006868
1585.000000	0.006866
1584.000000	0.006870
1583.000000	0.006871
1582.000000	0.006881
1581.000000	0.006897
1580.000000	0.006910
1579.000000	0.006914
1578.000000	0.006914
1577.000000	0.006895
1576.000000	0.006853
1575.000000	0.006807
1574.000000	0.006791
1573.000000	0.006815
1572.000000	0.006860
1571.000000	0.006894
1570.000000	0.006918
1569.000000	0.006948
1568.000000	0.006963
1567.000000	0.006969
1566.000000	0.006995
1565.000000	0.007043
1564.000000	0.007086
1563.000000	0.007142
1562.000000	0.007225
1561.000000	0.007346
1560.000000	0.007374
1559.000000	0.007352
1558.000000	0.007426
1557.000000	0.007481
1556.000000	0.007506
1555.000000	0.007551
1554.000000	0.007606
1553.000000	0.007663
1552.000000	0.007715
1551.000000	0.007772
1550.000000	0.007837
1549.000000	0.007904
1548.000000	0.007964
1547.000000	0.008010
1546.000000	0.008035
1545.000000	0.008042
1544.000000	0.008048
1543.000000	0.008063
1542.000000	0.008073
1541.000000	0.008075
1540.000000	0.008120
1539.000000	0.008175
1538.000000	0.008167
1537.000000	0.008146
1536.000000	0.008155
1535.000000	0.008161
1534.000000	0.008124
1533.000000	0.008046
1532.000000	0.007960
1531.000000	0.007879
1530.000000	0.007813
1529.000000	0.007763
1528.000000	0.007720
1527.000000	0.007659
1526.000000	0.007569
1525.000000	0.007474
1524.000000	0.007400
1523.000000	0.007333
1522.000000	0.007257
1521.000000	0.007202
1520.000000	0.007180
1519.000000	0.007166
1518.000000	0.007140
1517.000000	0.007100
1516.000000	0.007057
1515.000000	0.007012
1514.000000	0.006955
1513.000000	0.006882
1512.000000	0.006796
1511.000000	0.006712
1510.000000	0.006628
1509.000000	0.006523
1508.000000	0.006360
1507.000000	0.006196
1506.000000	0.006105
1505.000000	0.006032
1504.000000	0.005956
1503.000000	0.005899
1502.000000	0.005853
1501.000000	0.005818
1500.000000	0.005795
1499.000000	0.005767
1498.000000	0.005688
1497.000000	0.005553
1496.000000	0.005424
1495.000000	0.005336
1494.000000	0.005272
1493.000000	0.005216
1492.000000	0.005164
1491.000000	0.005106
1490.000000	0.005045
1489.000000	0.005006
1488.000000	0.005007
1487.000000	0.005021
1486.000000	0.005026
1485.000000	0.005031
1484.000000	0.005047
1483.000000	0.005073
1482.000000	0.005097
1481.000000	0.005117
1480.000000	0.005145
1479.000000	0.005187
1478.000000	0.005239
1477.000000	0.005300
1476.000000	0.005365
1475.000000	0.005419
1474.000000	0.005461
1473.000000	0.005535
1472.000000	0.005667
1471.000000	0.005807
1470.000000	0.005912
1469.000000	0.006000
1468.000000	0.006084
1467.000000	0.006152
1466.000000	0.006199
1465.000000	0.006255
1464.000000	0.006348
1463.000000	0.006455
1462.000000	0.006547
1461.000000	0.006625
1460.000000	0.006692
1459.000000	0.006753
1458.000000	0.006819
1457.000000	0.006918
1456.000000	0.007021
1455.000000	0.007084
1454.000000	0.007135
1453.000000	0.007192
1452.000000	0.007245
1451.000000	0.007286
1450.000000	0.007314
1449.000000	0.007333
1448.000000	0.007348
1447.000000	0.007364
1446.000000	0.007379
1445.000000	0.007394
1444.000000	0.007408
1443.000000	0.007419
1442.000000	0.007428
1441.000000	0.007438
1440.000000	0.007454
1439.000000	0.007481
1438.000000	0.007504
1437.000000	0.007507
1436.000000	0.007496
1435.000000	0.007486
1434.000000	0.007482
1433.000000	0.007482
1432.000000	0.007482
1431.000000	0.007485
1430.000000	0.007494
1429.000000	0.007508
1428.000000	0.007526
1427.000000	0.007545
1426.000000	0.007558
1425.000000	0.007551
1424.000000	0.007532
1423.000000	0.007535
1422.000000	0.007571
1421.000000	0.007610
1420.000000	0.007616
1419.000000	0.007600
1418.000000	0.007594
1417.000000	0.007595
1416.000000	0.007602
1415.000000	0.007617
1414.000000	0.007636
1413.000000	0.007649
1412.000000	0.007644
1411.000000	0.007623
1410.000000	0.007589
1409.000000	0.007547
1408.000000	0.007507
1407.000000	0.007478
1406.000000	0.007457
1405.000000	0.007429
1404.000000	0.007388
1403.000000	0.007347
1402.000000	0.007318
1401.000000	0.007288
1400.000000	0.007245
1399.000000	0.007206
1398.000000	0.007190
1397.000000	0.007184
1396.000000	0.007163
1395.000000	0.007123
1394.000000	0.007085
1393.000000	0.007057
1392.000000	0.007029
1391.000000	0.007002
1390.000000	0.006973
1389.000000	0.006942
1388.000000	0.006903
1387.000000	0.006869
1386.000000	0.006852
1385.000000	0.006846
1384.000000	0.006840
1383.000000	0.006831
1382.000000	0.006832
1381.000000	0.006857
1380.000000	0.006903
1379.000000	0.006946
1378.000000	0.006972
1377.000000	0.006974
1376.000000	0.006946
1375.000000	0.006887
1374.000000	0.006815
1373.000000	0.006752
1372.000000	0.006709
1371.000000	0.006679
1370.000000	0.006647
1369.000000	0.006603
1368.000000	0.006554
1367.000000	0.006519
1366.000000	0.006509
1365.000000	0.006509
1364.000000	0.006492
1363.000000	0.006446
1362.000000	0.006389
1361.000000	0.006342
1360.000000	0.006298
1359.000000	0.006241
1358.000000	0.006166
1357.000000	0.006087
1356.000000	0.006025
1355.000000	0.005994
1354.000000	0.005986
1353.000000	0.005976
1352.000000	0.005945
1351.000000	0.005891
1350.000000	0.005835
1349.000000	0.005798
1348.000000	0.005779
1347.000000	0.005771
1346.000000	0.005773
1345.000000	0.005787
1344.000000	0.005810
1343.000000	0.005833
1342.000000	0.005853
1341.000000	0.005867
1340.000000	0.005874
1339.000000	0.005880
1338.000000	0.005897
1337.000000	0.005923
1336.000000	0.005946
1335.000000	0.005952
1334.000000	0.005940
1333.000000	0.005923
1332.000000	0.005916
1331.000000	0.005920
1330.000000	0.005931
1329.000000	0.005945
1328.000000	0.005964
1327.000000	0.005994
1326.000000	0.006036
1325.000000	0.006076
1324.000000	0.006104
1323.000000	0.006120
1322.000000	0.006136
1321.000000	0.006157
1320.000000	0.006178
1319.000000	0.006188
1318.000000	0.006179
1317.000000	0.006145
1316.000000	0.006084
1315.000000	0.006008
1314.000000	0.005933
1313.000000	0.005863
1312.000000	0.005792
1311.000000	0.005710
1310.000000	0.005622
1309.000000	0.005535
1308.000000	0.005455
1307.000000	0.005381
1306.000000	0.005319
1305.000000	0.005269
1304.000000	0.005227
1303.000000	0.005185
1302.000000	0.005138
1301.000000	0.005084
1300.000000	0.005023
1299.000000	0.004965
1298.000000	0.004916
1297.000000	0.004877
1296.000000	0.004844
1295.000000	0.004814
1294.000000	0.004783
1293.000000	0.004748
1292.000000	0.004711
1291.000000	0.004683
1290.000000	0.004674
1289.000000	0.004680
1288.000000	0.004692
1287.000000	0.004707
1286.000000	0.004724
1285.000000	0.004739
1284.000000	0.004740
1283.000000	0.004725
1282.000000	0.004709
1281.000000	0.004701
1280.000000	0.004698
1279.000000	0.004692
1278.000000	0.004684
1277.000000	0.004682
1276.000000	0.004697
1275.000000	0.004728
1274.000000	0.004766
1273.000000	0.004798
1272.000000	0.004812
1271.000000	0.004813
1270.000000	0.004819
1269.000000	0.004843
1268.000000	0.004882
1267.000000	0.004928
1266.000000	0.004969
1265.000000	0.005000
1264.000000	0.005022
1263.000000	0.005044
1262.000000	0.005074
1261.000000	0.005113
1260.000000	0.005153
1259.000000	0.005189
1258.000000	0.005221
1257.000000	0.005248
1256.000000	0.005268
1255.000000	0.005283
1254.000000	0.005303
1253.000000	0.005336
1252.000000	0.005379
1251.000000	0.005419
1250.000000	0.005448
1249.000000	0.005470
1248.000000	0.005501
1247.000000	0.005548
1246.000000	0.005606
1245.000000	0.005657
1244.000000	0.005694
1243.000000	0.005721
1242.000000	0.005750
1241.000000	0.005780
1240.000000	0.005803
1239.000000	0.005812
1238.000000	0.005811
1237.000000	0.005807
1236.000000	0.005808
1235.000000	0.005817
1234.000000	0.005830
1233.000000	0.005835
1232.000000	0.005825
1231.000000	0.005801
1230.000000	0.005767
1229.000000	0.005725
1228.000000	0.005674
1227.000000	0.005622
1226.000000	0.005573
1225.000000	0.005522
1224.000000	0.005461
1223.000000	0.005391
1222.000000	0.005319
1221.000000	0.005249
1220.000000	0.005180
1219.000000	0.005120
1218.000000	0.005081
1217.000000	0.005064
1216.000000	0.005055
1215.000000	0.005032
1214.000000	0.004991
1213.000000	0.004941
1212.000000	0.004900
1211.000000	0.004878
1210.000000	0.004867
1209.000000	0.004847
1208.000000	0.004807
1207.000000	0.004761
1206.000000	0.004734
1205.000000	0.004730
1204.000000	0.004730
1203.000000	0.004714
1202.000000	0.004683
1201.000000	0.004646
1200.000000	0.004602
1199.000000	0.004547
1198.000000	0.004480
1197.000000	0.004408
1196.000000	0.004336
1195.000000	0.004263
1194.000000	0.004186
1193.000000	0.004105
1192.000000	0.004024
1191.000000	0.003945
1190.000000	0.003865
1189.000000	0.003775
1188.000000	0.003681
1187.000000	0.003603
1186.000000	0.003564
1185.000000	0.003562
1184.000000	0.003572
1183.000000	0.003573
1182.000000	0.003560
1181.000000	0.003543
1180.000000	0.003536
1179.000000	0.003550
1178.000000	0.003585
1177.000000	0.003632
1176.000000	0.003680
1175.000000	0.003723
1174.000000	0.003762
1173.000000	0.003806
1172.000000	0.003863
1171.000000	0.003942
1170.000000	0.004043
1169.000000	0.004162
1168.000000	0.004291
1167.000000	0.004425
1166.000000	0.004564
1165.000000	0.004709
1164.000000	0.004858
1163.000000	0.005004
1162.000000	0.005140
1161.000000	0.005268
1160.000000	0.005402
1159.000000	0.005552
1158.000000	0.005708
1157.000000	0.005848
1156.000000	0.005963
1155.000000	0.006061
1154.000000	0.006153
1153.000000	0.006227
1152.000000	0.006266
1151.000000	0.006270
1150.000000	0.006258
1149.000000	0.006245
1148.000000	0.006227
1147.000000	0.006195
1146.000000	0.006145
1145.000000	0.006082
1144.000000	0.006010
1143.000000	0.005936
1142.000000	0.005866
1141.000000	0.005804
1140.000000	0.005750
1139.000000	0.005706
1138.000000	0.005668
1137.000000	0.005627
1136.000000	0.005579
1135.000000	0.005530
1134.000000	0.005497
1133.000000	0.005485
1132.000000	0.005484
1131.000000	0.005490
1130.000000	0.005507
1129.000000	0.005535
1128.000000	0.005571
1127.000000	0.005613
1126.000000	0.005668
1125.000000	0.005732
1124.000000	0.005792
1123.000000	0.005835
1122.000000	0.005870
1121.000000	0.005914
1120.000000	0.005975
1119.000000	0.006050
1118.000000	0.006136
1117.000000	0.006224
1116.000000	0.006304
1115.000000	0.006370
1114.000000	0.006427
1113.000000	0.006484
1112.000000	0.006538
1111.000000	0.006586
1110.000000	0.006636
1109.000000	0.006698
1108.000000	0.006764
1107.000000	0.006810
1106.000000	0.006825
1105.000000	0.006827
1104.000000	0.006844
1103.000000	0.006880
1102.000000	0.006916
1101.000000	0.006935
1100.000000	0.006946
1099.000000	0.006966
1098.000000	0.007000
1097.000000	0.007037
1096.000000	0.007067
1095.000000	0.007106
1094.000000	0.007167
1093.000000	0.007231
1092.000000	0.007264
1091.000000	0.007252
1090.000000	0.007234
1089.000000	0.007258
1088.000000	0.007338
1087.000000	0.007457
1086.000000	0.007602
1085.000000	0.007768
1084.000000	0.007943
1083.000000	0.008100
1082.000000	0.008216
1081.000000	0.008293
1080.000000	0.008351
1079.000000	0.008412
1078.000000	0.008488
1077.000000	0.008577
1076.000000	0.008654
1075.000000	0.008683
1074.000000	0.008647
1073.000000	0.008562
1072.000000	0.008461
1071.000000	0.008367
1070.000000	0.008284
1069.000000	0.008218
1068.000000	0.008181
1067.000000	0.008176
1066.000000	0.008192
1065.000000	0.008220
1064.000000	0.008264
1063.000000	0.008340
1062.000000	0.008453
1061.000000	0.008587
1060.000000	0.008715
1059.000000	0.008820
1058.000000	0.008910
1057.000000	0.008995
1056.000000	0.009072
1055.000000	0.009130
1054.000000	0.009169
1053.000000	0.009202
1052.000000	0.009241
1051.000000	0.009291
1050.000000	0.009356
1049.000000	0.009442
1048.000000	0.009541
1047.000000	0.009624
1046.000000	0.009675
1045.000000	0.009704
1044.000000	0.009746
1043.000000	0.009818
1042.000000	0.009906
1041.000000	0.009989
1040.000000	0.010066
1039.000000	0.010149
1038.000000	0.010248
1037.000000	0.010361
1036.000000	0.010485
1035.000000	0.010622
1034.000000	0.010769
1033.000000	0.010913
1032.000000	0.011040
1031.000000	0.011143
1030.000000	0.011230
1029.000000	0.011312
1028.000000	0.011390
1027.000000	0.011456
1026.000000	0.011503
1025.000000	0.011530
1024.000000	0.011541
1023.000000	0.011538
1022.000000	0.011518
1021.000000	0.011488
1020.000000	0.011458
1019.000000	0.011435
1018.000000	0.011417
1017.000000	0.011395
1016.000000	0.011362
1015.000000	0.011322
1014.000000	0.011274
1013.000000	0.011211
1012.000000	0.011128
1011.000000	0.011036
1010.000000	0.010962
1009.000000	0.010923
1008.000000	0.010917
1007.000000	0.010915
1006.000000	0.010889
1005.000000	0.010826
1004.000000	0.010745
1003.000000	0.010673
1002.000000	0.010626
1001.000000	0.010594
1000.000000	0.010556
999.000000	0.010498
998.000000	0.010420
997.000000	0.010329
996.000000	0.010227
995.000000	0.010118
994.000000	0.009999
993.000000	0.009861
992.000000	0.009701
991.000000	0.009527
990.000000	0.009361
989.000000	0.009209
988.000000	0.009061
987.000000	0.008900
986.000000	0.008726
985.000000	0.008559
984.000000	0.008422
983.000000	0.008323
982.000000	0.008241
981.000000	0.008144
980.000000	0.008020
979.000000	0.007886
978.000000	0.007771
977.000000	0.007683
976.000000	0.007610
975.000000	0.007535
974.000000	0.007442
973.000000	0.007323
972.000000	0.007178
971.000000	0.007029
970.000000	0.006905
969.000000	0.006810
968.000000	0.006729
967.000000	0.006644
966.000000	0.006555
965.000000	0.006469
964.000000	0.006380
963.000000	0.006277
962.000000	0.006156
961.000000	0.006031
960.000000	0.005923
959.000000	0.005839
958.000000	0.005766
957.000000	0.005685
956.000000	0.005596
955.000000	0.005510
954.000000	0.005436
953.000000	0.005359
952.000000	0.005263
951.000000	0.005157
950.000000	0.005062
949.000000	0.004986
948.000000	0.004912
947.000000	0.004830
946.000000	0.004753
945.000000	0.004695
944.000000	0.004654
943.000000	0.004613
942.000000	0.004560
941.000000	0.004492
940.000000	0.004414
939.000000	0.004334
938.000000	0.004263
937.000000	0.004207
936.000000	0.004162
935.000000	0.004121
934.000000	0.004072
933.000000	0.004009
932.000000	0.003932
931.000000	0.003851
930.000000	0.003773
929.000000	0.003687
928.000000	0.003584
927.000000	0.003485
926.000000	0.003436
925.000000	0.003455
924.000000	0.003509
923.000000	0.003532
922.000000	0.003491
921.000000	0.003406
920.000000	0.003325
919.000000	0.003278
918.000000	0.003258
917.000000	0.003235
916.000000	0.003182
915.000000	0.003097
914.000000	0.003001
913.000000	0.002923
912.000000	0.002880
911.000000	0.002862
910.000000	0.002842
909.000000	0.002799
908.000000	0.002740
907.000000	0.002692
906.000000	0.002669
905.000000	0.002659
904.000000	0.002631
903.000000	0.002571
902.000000	0.002492
901.000000	0.002420
900.000000	0.002372
899.000000	0.002346
898.000000	0.002334
897.000000	0.002329
896.000000	0.002330
895.000000	0.002327
894.000000	0.002309
893.000000	0.002267
892.000000	0.002211
891.000000	0.002160
890.000000	0.002131
889.000000	0.002127
888.000000	0.002143
887.000000	0.002169
886.000000	0.002194
885.000000	0.002213
884.000000	0.002239
883.000000	0.002294
882.000000	0.002381
881.000000	0.002485
880.000000	0.002598
879.000000	0.002740
878.000000	0.002932
877.000000	0.003154
876.000000	0.003351
875.000000	0.003465
874.000000	0.003471
873.000000	0.003374
872.000000	0.003201
871.000000	0.002998
870.000000	0.002820
869.000000	0.002703
868.000000	0.002640
867.000000	0.002590
866.000000	0.002515
865.000000	0.002418
864.000000	0.002333
863.000000	0.002292
862.000000	0.002286
861.000000	0.002283
860.000000	0.002266
859.000000	0.002249
858.000000	0.002245
857.000000	0.002241
856.000000	0.002203
855.000000	0.002125
854.000000	0.002030
853.000000	0.001956
852.000000	0.001926
851.000000	0.001943
850.000000	0.001992
849.000000	0.002046
848.000000	0.002086
847.000000	0.002105
846.000000	0.002108
845.000000	0.002096
844.000000	0.002075
843.000000	0.002055
842.000000	0.002039
841.000000	0.002021
840.000000	0.001999
839.000000	0.001990
838.000000	0.002003
837.000000	0.002027
836.000000	0.002034
835.000000	0.002015
834.000000	0.001989
833.000000	0.001980
832.000000	0.001999
831.000000	0.002048
830.000000	0.002120
829.000000	0.002195
828.000000	0.002241
827.000000	0.002248
826.000000	0.002233
825.000000	0.002219
824.000000	0.002214
823.000000	0.002210
822.000000	0.002200
821.000000	0.002183
820.000000	0.002169
819.000000	0.002178
818.000000	0.002222
817.000000	0.002281
816.000000	0.002313
815.000000	0.002287
814.000000	0.002227
813.000000	0.002181
812.000000	0.002180
811.000000	0.002217
810.000000	0.002261
809.000000	0.002280
808.000000	0.002253
807.000000	0.002186
806.000000	0.002115
805.000000	0.002081
804.000000	0.002096
803.000000	0.002134
802.000000	0.002160
801.000000	0.002161
800.000000	0.002144
799.000000	0.002121
798.000000	0.002096
797.000000	0.002075
796.000000	0.002065
795.000000	0.002065
794.000000	0.002070
793.000000	0.002075
792.000000	0.002080
791.000000	0.002084
790.000000	0.002075
789.000000	0.002045
788.000000	0.002006
787.000000	0.001978
786.000000	0.001971
785.000000	0.001979
784.000000	0.001997
783.000000	0.002031
782.000000	0.002079
781.000000	0.002126
780.000000	0.002155
779.000000	0.002163
778.000000	0.002155
777.000000	0.002131
776.000000	0.002094
775.000000	0.002062
774.000000	0.002063
773.000000	0.002095
772.000000	0.002121
771.000000	0.002107
770.000000	0.002065
769.000000	0.002042
768.000000	0.002069
767.000000	0.002132
766.000000	0.002192
765.000000	0.002229
764.000000	0.002247
763.000000	0.002255
762.000000	0.002251
761.000000	0.002235
760.000000	0.002222
759.000000	0.002225
758.000000	0.002243
757.000000	0.002257
756.000000	0.002257
755.000000	0.002248
754.000000	0.002238
753.000000	0.002228
752.000000	0.002215
751.000000	0.002201
750.000000	0.002188
749.000000	0.002171
748.000000	0.002143
747.000000	0.002110
746.000000	0.002080
745.000000	0.002050
744.000000	0.002015
743.000000	0.001984
742.000000	0.001975
741.000000	0.001993
740.000000	0.002021
739.000000	0.002041
738.000000	0.002048
737.000000	0.002048
736.000000	0.002043
735.000000	0.002044
734.000000	0.002069
733.000000	0.002118
732.000000	0.002151
731.000000	0.002122
730.000000	0.002033
729.000000	0.001941
728.000000	0.001904
727.000000	0.001932
726.000000	0.001995
725.000000	0.002065
724.000000	0.002117
723.000000	0.002130
722.000000	0.002101
721.000000	0.002059
720.000000	0.002049
719.000000	0.002079
718.000000	0.002115
717.000000	0.002144
716.000000	0.002198
715.000000	0.002312
714.000000	0.002460
713.000000	0.002572
712.000000	0.002595
711.000000	0.002538
710.000000	0.002446
709.000000	0.002354
708.000000	0.002286
707.000000	0.002261
706.000000	0.002293
705.000000	0.002363
704.000000	0.002421
703.000000	0.002414
702.000000	0.002331
701.000000	0.002218
700.000000	0.002148
699.000000	0.002160
698.000000	0.002222
697.000000	0.002275
696.000000	0.002298
695.000000	0.002319
694.000000	0.002356
693.000000	0.002376
692.000000	0.002337
691.000000	0.002246
690.000000	0.002151
689.000000	0.002088
688.000000	0.002048
687.000000	0.002013
686.000000	0.001987
685.000000	0.001984
684.000000	0.001995
683.000000	0.002003
682.000000	0.002013
681.000000	0.002045
680.000000	0.002098
679.000000	0.002148
678.000000	0.002171
677.000000	0.002167
676.000000	0.002161
675.000000	0.002181
674.000000	0.002254
673.000000	0.002383
672.000000	0.002529
671.000000	0.002629
670.000000	0.002650
669.000000	0.002597
668.000000	0.002465
667.000000	0.002355
666.000000	0.002407
665.000000	0.002525
664.000000	0.002590
663.000000	0.002588
662.000000	0.002556
661.000000	0.002532
660.000000	0.002513
659.000000	0.002474
658.000000	0.002409
657.000000	0.002335
656.000000	0.002276
655.000000	0.002250
654.000000	0.002262
653.000000	0.002299
652.000000	0.002332
651.000000	0.002336
650.000000	0.002312
649.000000	0.002292
648.000000	0.002306
647.000000	0.002359
646.000000	0.002419
645.000000	0.002437
644.000000	0.002380
643.000000	0.002255
642.000000	0.002120
641.000000	0.002049
640.000000	0.002069
639.000000	0.002129
638.000000	0.002162
637.000000	0.002158
636.000000	0.002170
635.000000	0.002229
634.000000	0.002292
633.000000	0.002298
632.000000	0.002251
631.000000	0.002219
630.000000	0.002258
629.000000	0.002353
628.000000	0.002440
627.000000	0.002466
626.000000	0.002424
625.000000	0.002350
624.000000	0.002304
623.000000	0.002330
622.000000	0.002431
621.000000	0.002568
620.000000	0.002686
619.000000	0.002744
618.000000	0.002727
617.000000	0.002660
616.000000	0.002599
615.000000	0.002602
614.000000	0.002681
613.000000	0.002778
612.000000	0.002826
611.000000	0.002806
610.000000	0.002772
609.000000	0.002786
608.000000	0.002854
607.000000	0.002930
606.000000	0.002973
605.000000	0.002986
604.000000	0.002996
603.000000	0.003021
602.000000	0.003069
601.000000	0.003148
600.000000	0.003258
599.000000	0.003376
598.000000	0.003460
597.000000	0.003492
596.000000	0.003492
595.000000	0.003491
594.000000	0.003493
593.000000	0.003465
592.000000	0.003372
591.000000	0.003231
590.000000	0.003113
589.000000	0.003067
588.000000	0.003079
587.000000	0.003101
586.000000	0.003115
585.000000	0.003142
584.000000	0.003208
583.000000	0.003308
582.000000	0.003424
581.000000	0.003534
580.000000	0.003611
579.000000	0.003632
578.000000	0.003621
577.000000	0.003639
576.000000	0.003718
575.000000	0.003815
574.000000	0.003850
573.000000	0.003785
572.000000	0.003652
571.000000	0.003523
570.000000	0.003478
569.000000	0.003539
568.000000	0.003635
567.000000	0.003655
566.000000	0.003566
565.000000	0.003441
564.000000	0.003360
563.000000	0.003325
562.000000	0.003298
561.000000	0.003277
560.000000	0.003282
559.000000	0.003298
558.000000	0.003289
557.000000	0.003252
556.000000	0.003199
555.000000	0.003113
554.000000	0.002988
553.000000	0.002887
552.000000	0.002880
551.000000	0.002935
550.000000	0.002934
549.000000	0.002831
548.000000	0.002692
547.000000	0.002592
546.000000	0.002546
545.000000	0.002556
544.000000	0.002640
543.000000	0.002748
542.000000	0.002765
541.000000	0.002645
540.000000	0.002496
539.000000	0.002454
538.000000	0.002542
537.000000	0.002697
536.000000	0.002890
535.000000	0.003110
534.000000	0.003274
533.000000	0.003287
532.000000	0.003176
531.000000	0.003070
530.000000	0.003047
529.000000	0.003059
528.000000	0.003026
527.000000	0.002937
526.000000	0.002851
525.000000	0.002833
524.000000	0.002909
523.000000	0.003052
522.000000	0.003179
521.000000	0.003202
520.000000	0.003107
519.000000	0.002963
518.000000	0.002842
517.000000	0.002742
516.000000	0.002644
515.000000	0.002587
514.000000	0.002623
513.000000	0.002723
512.000000	0.002774
511.000000	0.002688
510.000000	0.002494
509.000000	0.002301
508.000000	0.002191
507.000000	0.002158
506.000000	0.002161
505.000000	0.002176
504.000000	0.002196
503.000000	0.002200
502.000000	0.002160
501.000000	0.002088
500.000000	0.002051
499.000000	0.002114
498.000000	0.002280
497.000000	0.002481
496.000000	0.002632
495.000000	0.002698
494.000000	0.002729
493.000000	0.002810
492.000000	0.002965
491.000000	0.003132
490.000000	0.003230
489.000000	0.003219
488.000000	0.003096
487.000000	0.002859
486.000000	0.002539
485.000000	0.002264
484.000000	0.002202
483.000000	0.002401
482.000000	0.002698
481.000000	0.002836
480.000000	0.002689
479.000000	0.002364
478.000000	0.002099
477.000000	0.002039
476.000000	0.002134
475.000000	0.002249
474.000000	0.002312
473.000000	0.002332
472.000000	0.002307
471.000000	0.002222
470.000000	0.002111
469.000000	0.002033
468.000000	0.002002
467.000000	0.002005
466.000000	0.002076
465.000000	0.002286
464.000000	0.002585
463.000000	0.002741
462.000000	0.002538
461.000000	0.002010
460.000000	0.001394
459.000000	0.000923
458.000000	0.000793
457.000000	0.001114
456.000000	0.001745
455.000000	0.002371
454.000000	0.002759
453.000000	0.002886
452.000000	0.002875
451.000000	0.002808
450.000000	0.002671
