PE UV       SUBTECH     SPECTRUM    ASCII       PEDS        4.00        
   -1
RDVeauUK 32.Sample.asc
18/03/05
10:44:09.00
18/03/05
10:44:09.00
Administrator

200.000000
1
Lambda 750
750N8071901
PerkinElmer UV WinLab 6.0.4.0738 / 1.61.00 Lambda 900

0
0
3350/servo 860.8/2
0
0
UV/VIS
1
1
1
CommonBeamDepol,150mm sphere / downward view
0
0
0
0
Program
Program
3350/servo 860.8/2
3350/0.2 860.8/0.2
3350/0.2 860.8/0.2
0
1
 
 
 
0
 
860.8
319.2
860.8
Front
100
on
 
 
0
0
0
 
0
 
 
 
0
 
 
0
0
0
0
0
 
 
 
 
0
0


0
0
#HDR
-1
-1
#GR
nm
%R
1.0
0.0
2350.000000
-1.000000
2151
8
56.283533
9.377276
#DATA
2350.000000	10.303436
2349.000000	10.527442
2348.000000	10.005810
2347.000000	10.873068
2346.000000	10.005809
2345.000000	9.995351
2344.000000	10.390471
2343.000000	10.087321
2342.000000	10.396594
2341.000000	10.745823
2340.000000	10.439096
2339.000000	10.940104
2338.000000	11.311323
2337.000000	11.125187
2336.000000	11.202577
2335.000000	10.874499
2334.000000	11.146047
2333.000000	11.389616
2332.000000	11.508305
2331.000000	11.018708
2330.000000	11.025241
2329.000000	11.209802
2328.000000	11.156925
2327.000000	11.131007
2326.000000	11.159616
2325.000000	11.095005
2324.000000	11.089647
2323.000000	11.103946
2322.000000	11.046014
2321.000000	11.101457
2320.000000	10.933487
2319.000000	11.071285
2318.000000	11.126971
2317.000000	10.749539
2316.000000	11.012764
2315.000000	10.779337
2314.000000	10.873207
2313.000000	10.671628
2312.000000	10.642203
2311.000000	10.711539
2310.000000	10.592169
2309.000000	10.386995
2308.000000	10.531036
2307.000000	10.354328
2306.000000	10.447353
2305.000000	10.472348
2304.000000	10.332773
2303.000000	10.421018
2302.000000	10.379916
2301.000000	10.259981
2300.000000	10.150276
2299.000000	9.957839
2298.000000	10.006379
2297.000000	9.817638
2296.000000	9.786460
2295.000000	9.838192
2294.000000	9.981258
2293.000000	9.914263
2292.000000	9.702985
2291.000000	9.632442
2290.000000	9.706940
2289.000000	9.627280
2288.000000	9.629252
2287.000000	9.610162
2286.000000	9.386154
2285.000000	9.464031
2284.000000	9.457308
2283.000000	9.446709
2282.000000	9.384307
2281.000000	9.451288
2280.000000	9.656284
2279.000000	9.472761
2278.000000	9.595988
2277.000000	9.377276
2276.000000	9.437901
2275.000000	9.583307
2274.000000	9.561508
2273.000000	9.683130
2272.000000	9.788556
2271.000000	9.821452
2270.000000	9.823960
2269.000000	9.605778
2268.000000	9.604251
2267.000000	9.747190
2266.000000	9.805994
2265.000000	9.872990
2264.000000	10.029183
2263.000000	10.139638
2262.000000	10.184613
2261.000000	10.204823
2260.000000	10.264984
2259.000000	10.422920
2258.000000	10.557744
2257.000000	10.702845
2256.000000	10.699438
2255.000000	10.714883
2254.000000	10.909012
2253.000000	11.165723
2252.000000	11.264255
2251.000000	11.373626
2250.000000	11.655031
2249.000000	11.724609
2248.000000	11.685194
2247.000000	11.738949
2246.000000	11.873203
2245.000000	12.087402
2244.000000	12.411479
2243.000000	12.561063
2242.000000	12.476133
2241.000000	12.585806
2240.000000	12.726630
2239.000000	12.846176
2238.000000	12.841358
2237.000000	12.836436
2236.000000	13.083123
2235.000000	13.266149
2234.000000	13.321624
2233.000000	13.182918
2232.000000	13.223582
2231.000000	13.455939
2230.000000	13.336319
2229.000000	13.320964
2228.000000	13.434175
2227.000000	13.452876
2226.000000	13.439070
2225.000000	13.263085
2224.000000	13.351307
2223.000000	13.313222
2222.000000	13.337644
2221.000000	13.445248
2220.000000	13.425548
2219.000000	13.331191
2218.000000	13.217518
2217.000000	13.094414
2216.000000	13.040183
2215.000000	12.950855
2214.000000	13.041008
2213.000000	13.144775
2212.000000	13.182910
2211.000000	12.903317
2210.000000	12.953637
2209.000000	12.968314
2208.000000	12.912469
2207.000000	12.867130
2206.000000	12.795741
2205.000000	12.520321
2204.000000	12.380328
2203.000000	12.437891
2202.000000	12.531921
2201.000000	12.411676
2200.000000	12.471742
2199.000000	12.380879
2198.000000	12.360794
2197.000000	12.424522
2196.000000	12.236756
2195.000000	12.178592
2194.000000	12.146680
2193.000000	12.065736
2192.000000	12.085601
2191.000000	12.084462
2190.000000	12.001550
2189.000000	11.892239
2188.000000	11.872888
2187.000000	11.832741
2186.000000	11.824838
2185.000000	11.824278
2184.000000	11.810156
2183.000000	11.834026
2182.000000	11.834330
2181.000000	11.752371
2180.000000	11.776698
2179.000000	11.744911
2178.000000	11.547377
2177.000000	11.511562
2176.000000	11.566294
2175.000000	11.634661
2174.000000	11.605740
2173.000000	11.715261
2172.000000	11.704945
2171.000000	11.758230
2170.000000	11.873276
2169.000000	11.971504
2168.000000	11.895365
2167.000000	11.921210
2166.000000	12.081110
2165.000000	12.075336
2164.000000	12.160380
2163.000000	12.148830
2162.000000	12.316677
2161.000000	12.218001
2160.000000	12.505639
2159.000000	12.532250
2158.000000	12.464653
2157.000000	12.658159
2156.000000	12.776323
2155.000000	13.095376
2154.000000	13.068376
2153.000000	13.071409
2152.000000	13.112698
2151.000000	13.240814
2150.000000	13.408898
2149.000000	13.300175
2148.000000	13.537542
2147.000000	13.617808
2146.000000	13.807820
2145.000000	13.849924
2144.000000	14.116387
2143.000000	14.011523
2142.000000	14.148675
2141.000000	14.266062
2140.000000	14.416926
2139.000000	14.657430
2138.000000	14.612602
2137.000000	14.697018
2136.000000	14.663548
2135.000000	14.900933
2134.000000	14.982849
2133.000000	14.803967
2132.000000	15.124054
2131.000000	15.099709
2130.000000	15.211339
2129.000000	15.130033
2128.000000	15.172377
2127.000000	15.167702
2126.000000	15.177055
2125.000000	15.245273
2124.000000	15.383722
2123.000000	15.316200
2122.000000	15.473188
2121.000000	15.732922
2120.000000	15.619482
2119.000000	15.629860
2118.000000	15.734325
2117.000000	15.765873
2116.000000	15.855623
2115.000000	15.994310
2114.000000	15.879818
2113.000000	15.838620
2112.000000	15.821800
2111.000000	15.798046
2110.000000	15.836876
2109.000000	15.910794
2108.000000	16.077065
2107.000000	15.970633
2106.000000	15.989163
2105.000000	16.097128
2104.000000	16.068963
2103.000000	16.099514
2102.000000	16.170341
2101.000000	16.136047
2100.000000	16.255991
2099.000000	16.214876
2098.000000	16.026544
2097.000000	16.061176
2096.000000	16.081270
2095.000000	16.078073
2094.000000	16.097786
2093.000000	16.112898
2092.000000	16.137707
2091.000000	16.174865
2090.000000	16.156076
2089.000000	16.090064
2088.000000	16.065243
2087.000000	16.106358
2086.000000	16.024312
2085.000000	15.965686
2084.000000	15.890651
2083.000000	15.913335
2082.000000	15.829937
2081.000000	15.784110
2080.000000	15.678457
2079.000000	15.571139
2078.000000	15.458053
2077.000000	15.506980
2076.000000	15.486850
2075.000000	15.466387
2074.000000	15.322916
2073.000000	15.244034
2072.000000	15.240432
2071.000000	15.051016
2070.000000	14.876727
2069.000000	14.767014
2068.000000	14.703593
2067.000000	14.608666
2066.000000	14.450361
2065.000000	14.353233
2064.000000	14.257130
2063.000000	14.189317
2062.000000	14.124987
2061.000000	13.969025
2060.000000	13.835995
2059.000000	13.821505
2058.000000	13.675957
2057.000000	13.553462
2056.000000	13.458743
2055.000000	13.358645
2054.000000	13.180234
2053.000000	13.060911
2052.000000	12.961229
2051.000000	12.869944
2050.000000	12.817510
2049.000000	12.804683
2048.000000	12.703471
2047.000000	12.650761
2046.000000	12.620040
2045.000000	12.591310
2044.000000	12.551011
2043.000000	12.508771
2042.000000	12.543638
2041.000000	12.594071
2040.000000	12.575721
2039.000000	12.581863
2038.000000	12.617386
2037.000000	12.650044
2036.000000	12.629048
2035.000000	12.702498
2034.000000	12.826861
2033.000000	12.955855
2032.000000	13.050934
2031.000000	13.126114
2030.000000	13.233812
2029.000000	13.364445
2028.000000	13.479814
2027.000000	13.544167
2026.000000	13.602925
2025.000000	13.703651
2024.000000	13.736857
2023.000000	13.795603
2022.000000	13.844015
2021.000000	13.933433
2020.000000	14.013485
2019.000000	14.008786
2018.000000	14.067021
2017.000000	14.099806
2016.000000	14.116327
2015.000000	14.185304
2014.000000	14.226193
2013.000000	14.228885
2012.000000	14.205008
2011.000000	14.160850
2010.000000	14.111495
2009.000000	14.039178
2008.000000	14.017250
2007.000000	13.987463
2006.000000	13.928009
2005.000000	13.858973
2004.000000	13.768919
2003.000000	13.747475
2002.000000	13.715889
2001.000000	13.657330
2000.000000	13.551384
1999.000000	13.545379
1998.000000	13.472347
1997.000000	13.415859
1996.000000	13.358943
1995.000000	13.261565
1994.000000	13.192826
1993.000000	13.132390
1992.000000	13.081534
1991.000000	12.995817
1990.000000	12.928833
1989.000000	12.894822
1988.000000	12.807720
1987.000000	12.697955
1986.000000	12.592845
1985.000000	12.561528
1984.000000	12.549449
1983.000000	12.476448
1982.000000	12.381104
1981.000000	12.355990
1980.000000	12.277194
1979.000000	12.221187
1978.000000	12.170889
1977.000000	12.095648
1976.000000	12.036781
1975.000000	11.983124
1974.000000	11.955575
1973.000000	11.914683
1972.000000	11.849576
1971.000000	11.784667
1970.000000	11.763774
1969.000000	11.699029
1968.000000	11.640768
1967.000000	11.622210
1966.000000	11.519311
1965.000000	11.471626
1964.000000	11.426801
1963.000000	11.388768
1962.000000	11.286168
1961.000000	11.267784
1960.000000	11.243564
1959.000000	11.166865
1958.000000	11.160283
1957.000000	11.148762
1956.000000	11.097954
1955.000000	11.026535
1954.000000	11.025981
1953.000000	10.982197
1952.000000	10.979296
1951.000000	10.956961
1950.000000	10.909859
1949.000000	10.895077
1948.000000	10.994519
1947.000000	10.970668
1946.000000	10.921513
1945.000000	10.912422
1944.000000	10.914602
1943.000000	11.015341
1942.000000	10.996112
1941.000000	11.011251
1940.000000	11.120176
1939.000000	11.157072
1938.000000	11.157559
1937.000000	11.111404
1936.000000	11.381488
1935.000000	11.440964
1934.000000	11.420955
1933.000000	11.527159
1932.000000	11.608534
1931.000000	11.677100
1930.000000	11.923905
1929.000000	12.003759
1928.000000	12.119329
1927.000000	12.393111
1926.000000	12.510887
1925.000000	12.590353
1924.000000	12.734933
1923.000000	12.903373
1922.000000	13.129127
1921.000000	13.426669
1920.000000	13.683879
1919.000000	13.730520
1918.000000	14.010689
1917.000000	14.310221
1916.000000	14.421919
1915.000000	14.863445
1914.000000	15.192731
1913.000000	15.374597
1912.000000	15.678320
1911.000000	16.125639
1910.000000	16.492333
1909.000000	16.811029
1908.000000	17.195678
1907.000000	17.495819
1906.000000	17.881089
1905.000000	18.452400
1904.000000	18.873380
1903.000000	19.263871
1902.000000	19.776635
1901.000000	20.231078
1900.000000	20.723662
1899.000000	21.220814
1898.000000	21.691068
1897.000000	22.192844
1896.000000	22.683949
1895.000000	23.191619
1894.000000	23.712652
1893.000000	24.192264
1892.000000	24.745787
1891.000000	25.253079
1890.000000	25.699504
1889.000000	26.125438
1888.000000	26.660160
1887.000000	27.070050
1886.000000	27.485549
1885.000000	27.973464
1884.000000	28.398760
1883.000000	28.796275
1882.000000	29.205786
1881.000000	29.553835
1880.000000	30.000719
1879.000000	30.392896
1878.000000	30.685879
1877.000000	31.103333
1876.000000	31.319523
1875.000000	31.641489
1874.000000	31.907921
1873.000000	32.203517
1872.000000	32.456349
1871.000000	32.731710
1870.000000	32.925519
1869.000000	33.050547
1868.000000	33.262732
1867.000000	33.430433
1866.000000	33.590112
1865.000000	33.665327
1864.000000	33.787725
1863.000000	33.877892
1862.000000	33.998114
1861.000000	34.078577
1860.000000	34.126942
1859.000000	34.178109
1858.000000	34.256990
1857.000000	34.290140
1856.000000	34.329365
1855.000000	34.353958
1854.000000	34.422301
1853.000000	34.449756
1852.000000	34.460815
1851.000000	34.469714
1850.000000	34.459468
1849.000000	34.467576
1848.000000	34.458520
1847.000000	34.417249
1846.000000	34.412601
1845.000000	34.421427
1844.000000	34.383455
1843.000000	34.358157
1842.000000	34.300217
1841.000000	34.242121
1840.000000	34.150562
1839.000000	34.137777
1838.000000	34.120257
1837.000000	34.029235
1836.000000	33.971098
1835.000000	33.954321
1834.000000	33.902217
1833.000000	33.813101
1832.000000	33.722216
1831.000000	33.674299
1830.000000	33.657098
1829.000000	33.611974
1828.000000	33.535068
1827.000000	33.465052
1826.000000	33.413892
1825.000000	33.387690
1824.000000	33.348037
1823.000000	33.235363
1822.000000	33.168576
1821.000000	33.139214
1820.000000	33.078728
1819.000000	33.018995
1818.000000	33.004187
1817.000000	32.962316
1816.000000	32.904371
1815.000000	32.873802
1814.000000	32.821012
1813.000000	32.764972
1812.000000	32.715261
1811.000000	32.661838
1810.000000	32.617168
1809.000000	32.573432
1808.000000	32.537784
1807.000000	32.491660
1806.000000	32.421967
1805.000000	32.361578
1804.000000	32.332989
1803.000000	32.299710
1802.000000	32.243755
1801.000000	32.196078
1800.000000	32.147995
1799.000000	32.129847
1798.000000	32.104023
1797.000000	32.056832
1796.000000	32.029197
1795.000000	32.024618
1794.000000	31.980220
1793.000000	31.939721
1792.000000	31.913804
1791.000000	31.851535
1790.000000	31.822475
1789.000000	31.815223
1788.000000	31.781093
1787.000000	31.725719
1786.000000	31.676869
1785.000000	31.648036
1784.000000	31.612832
1783.000000	31.586372
1782.000000	31.533780
1781.000000	31.492187
1780.000000	31.451118
1779.000000	31.377880
1778.000000	31.305309
1777.000000	31.227667
1776.000000	31.139288
1775.000000	31.073785
1774.000000	31.006367
1773.000000	30.940743
1772.000000	30.819441
1771.000000	30.774504
1770.000000	30.695080
1769.000000	30.591523
1768.000000	30.501955
1767.000000	30.441114
1766.000000	30.389181
1765.000000	30.294552
1764.000000	30.205737
1763.000000	30.128294
1762.000000	30.001371
1761.000000	29.935390
1760.000000	29.870470
1759.000000	29.769925
1758.000000	29.701152
1757.000000	29.598864
1756.000000	29.542697
1755.000000	29.487428
1754.000000	29.410606
1753.000000	29.362666
1752.000000	29.253643
1751.000000	29.162178
1750.000000	29.081843
1749.000000	29.033817
1748.000000	28.916420
1747.000000	28.805929
1746.000000	28.743420
1745.000000	28.678998
1744.000000	28.573460
1743.000000	28.503657
1742.000000	28.369949
1741.000000	28.330683
1740.000000	28.258324
1739.000000	28.191106
1738.000000	28.148303
1737.000000	28.092796
1736.000000	28.079863
1735.000000	28.037068
1734.000000	28.059635
1733.000000	28.032472
1732.000000	28.032353
1731.000000	28.061358
1730.000000	28.069698
1729.000000	28.113200
1728.000000	28.182311
1727.000000	28.246112
1726.000000	28.304648
1725.000000	28.391845
1724.000000	28.529477
1723.000000	28.625469
1722.000000	28.731652
1721.000000	28.874327
1720.000000	29.008405
1719.000000	29.154071
1718.000000	29.243386
1717.000000	29.345434
1716.000000	29.485121
1715.000000	29.605059
1714.000000	29.684434
1713.000000	29.804748
1712.000000	29.892811
1711.000000	29.970444
1710.000000	30.038506
1709.000000	30.122587
1708.000000	30.218599
1707.000000	30.234827
1706.000000	30.300345
1705.000000	30.350894
1704.000000	30.368816
1703.000000	30.376522
1702.000000	30.382442
1701.000000	30.376992
1700.000000	30.472861
1699.000000	30.443517
1698.000000	30.534731
1697.000000	30.593763
1696.000000	30.644292
1695.000000	30.673969
1694.000000	30.690892
1693.000000	30.774361
1692.000000	30.857195
1691.000000	30.965741
1690.000000	31.111655
1689.000000	31.207792
1688.000000	31.412372
1687.000000	31.570309
1686.000000	31.747690
1685.000000	31.939469
1684.000000	32.156612
1683.000000	32.375190
1682.000000	32.597498
1681.000000	32.831294
1680.000000	33.091845
1679.000000	33.398200
1678.000000	33.636454
1677.000000	33.916214
1676.000000	34.195347
1675.000000	34.491956
1674.000000	34.726855
1673.000000	35.014457
1672.000000	35.272961
1671.000000	35.539000
1670.000000	35.783993
1669.000000	36.023229
1668.000000	36.202080
1667.000000	36.448449
1666.000000	36.585811
1665.000000	36.712929
1664.000000	36.886304
1663.000000	37.024780
1662.000000	37.139987
1661.000000	37.281753
1660.000000	37.386278
1659.000000	37.482158
1658.000000	37.565806
1657.000000	37.641150
1656.000000	37.697582
1655.000000	37.756823
1654.000000	37.789343
1653.000000	37.853957
1652.000000	37.867080
1651.000000	37.853322
1650.000000	37.861824
1649.000000	37.862254
1648.000000	37.836505
1647.000000	37.864866
1646.000000	37.833892
1645.000000	37.793699
1644.000000	37.779647
1643.000000	37.749502
1642.000000	37.718793
1641.000000	37.653617
1640.000000	37.624580
1639.000000	37.554017
1638.000000	37.531146
1637.000000	37.503792
1636.000000	37.442289
1635.000000	37.380354
1634.000000	37.319038
1633.000000	37.255304
1632.000000	37.193659
1631.000000	37.143643
1630.000000	37.064411
1629.000000	36.985124
1628.000000	36.927497
1627.000000	36.854226
1626.000000	36.795631
1625.000000	36.721616
1624.000000	36.668926
1623.000000	36.581847
1622.000000	36.506408
1621.000000	36.407248
1620.000000	36.331512
1619.000000	36.250827
1618.000000	36.168503
1617.000000	36.090916
1616.000000	36.000584
1615.000000	35.915257
1614.000000	35.840189
1613.000000	35.758125
1612.000000	35.670180
1611.000000	35.572941
1610.000000	35.482961
1609.000000	35.389620
1608.000000	35.293193
1607.000000	35.210269
1606.000000	35.108497
1605.000000	35.006671
1604.000000	34.908512
1603.000000	34.798826
1602.000000	34.707613
1601.000000	34.632874
1600.000000	34.540980
1599.000000	34.444000
1598.000000	34.348779
1597.000000	34.257435
1596.000000	34.163335
1595.000000	34.069791
1594.000000	34.005656
1593.000000	33.945745
1592.000000	33.858542
1591.000000	33.768024
1590.000000	33.703240
1589.000000	33.617256
1588.000000	33.538656
1587.000000	33.477887
1586.000000	33.410631
1585.000000	33.335802
1584.000000	33.265160
1583.000000	33.210763
1582.000000	33.152093
1581.000000	33.074916
1580.000000	33.006752
1579.000000	32.936499
1578.000000	32.877294
1577.000000	32.829028
1576.000000	32.751554
1575.000000	32.673253
1574.000000	32.595159
1573.000000	32.538749
1572.000000	32.481071
1571.000000	32.423185
1570.000000	32.365552
1569.000000	32.316400
1568.000000	32.265112
1567.000000	32.202938
1566.000000	32.163901
1565.000000	32.124635
1564.000000	32.076516
1563.000000	32.031947
1562.000000	31.993473
1561.000000	31.964688
1560.000000	31.942927
1559.000000	31.894961
1558.000000	31.869739
1557.000000	31.831735
1556.000000	31.782701
1555.000000	31.785978
1554.000000	31.746333
1553.000000	31.717636
1552.000000	31.678845
1551.000000	31.621807
1550.000000	31.570120
1549.000000	31.517584
1548.000000	31.454885
1547.000000	31.381652
1546.000000	31.314308
1545.000000	31.238096
1544.000000	31.116279
1543.000000	31.052031
1542.000000	30.968720
1541.000000	30.852147
1540.000000	30.749153
1539.000000	30.641378
1538.000000	30.516526
1537.000000	30.402196
1536.000000	30.259445
1535.000000	30.145012
1534.000000	30.032278
1533.000000	29.923801
1532.000000	29.802960
1531.000000	29.689131
1530.000000	29.577513
1529.000000	29.462253
1528.000000	29.343107
1527.000000	29.242525
1526.000000	29.154294
1525.000000	29.070820
1524.000000	28.976703
1523.000000	28.911007
1522.000000	28.819971
1521.000000	28.760707
1520.000000	28.693275
1519.000000	28.653577
1518.000000	28.595788
1517.000000	28.517456
1516.000000	28.480264
1515.000000	28.430009
1514.000000	28.383682
1513.000000	28.347453
1512.000000	28.314306
1511.000000	28.276323
1510.000000	28.254934
1509.000000	28.229543
1508.000000	28.185813
1507.000000	28.177723
1506.000000	28.171755
1505.000000	28.145620
1504.000000	28.132211
1503.000000	28.120987
1502.000000	28.115829
1501.000000	28.136283
1500.000000	28.124255
1499.000000	28.113069
1498.000000	28.150765
1497.000000	28.175107
1496.000000	28.181742
1495.000000	28.227168
1494.000000	28.259443
1493.000000	28.289250
1492.000000	28.349237
1491.000000	28.403316
1490.000000	28.473106
1489.000000	28.530362
1488.000000	28.619087
1487.000000	28.674648
1486.000000	28.750583
1485.000000	28.819730
1484.000000	28.909519
1483.000000	29.016476
1482.000000	29.082450
1481.000000	29.186710
1480.000000	29.318601
1479.000000	29.394654
1478.000000	29.497738
1477.000000	29.581260
1476.000000	29.653553
1475.000000	29.755646
1474.000000	29.831968
1473.000000	29.922118
1472.000000	30.017431
1471.000000	30.109313
1470.000000	30.194454
1469.000000	30.256440
1468.000000	30.344524
1467.000000	30.435268
1466.000000	30.510171
1465.000000	30.594995
1464.000000	30.666303
1463.000000	30.738714
1462.000000	30.797778
1461.000000	30.865532
1460.000000	30.955724
1459.000000	31.041599
1458.000000	31.130716
1457.000000	31.187617
1456.000000	31.262973
1455.000000	31.367964
1454.000000	31.442812
1453.000000	31.533990
1452.000000	31.633712
1451.000000	31.735764
1450.000000	31.849510
1449.000000	31.936276
1448.000000	32.041394
1447.000000	32.140399
1446.000000	32.244680
1445.000000	32.373748
1444.000000	32.489553
1443.000000	32.601634
1442.000000	32.728060
1441.000000	32.847366
1440.000000	33.008177
1439.000000	33.132531
1438.000000	33.257303
1437.000000	33.417746
1436.000000	33.566304
1435.000000	33.725731
1434.000000	33.870688
1433.000000	34.039417
1432.000000	34.202354
1431.000000	34.388954
1430.000000	34.552696
1429.000000	34.751887
1428.000000	34.947569
1427.000000	35.147828
1426.000000	35.359049
1425.000000	35.565788
1424.000000	35.778226
1423.000000	36.026070
1422.000000	36.261766
1421.000000	36.510356
1420.000000	36.742417
1419.000000	36.984061
1418.000000	37.236100
1417.000000	37.508251
1416.000000	37.779479
1415.000000	38.049618
1414.000000	38.326841
1413.000000	38.604566
1412.000000	38.878328
1411.000000	39.162539
1410.000000	39.439430
1409.000000	39.736659
1408.000000	40.018751
1407.000000	40.287064
1406.000000	40.567367
1405.000000	40.855668
1404.000000	41.112367
1403.000000	41.381809
1402.000000	41.642251
1401.000000	41.907612
1400.000000	42.178410
1399.000000	42.423312
1398.000000	42.668403
1397.000000	42.921108
1396.000000	43.165801
1395.000000	43.403325
1394.000000	43.635693
1393.000000	43.866616
1392.000000	44.096334
1391.000000	44.326298
1390.000000	44.546724
1389.000000	44.755368
1388.000000	44.950644
1387.000000	45.135239
1386.000000	45.309830
1385.000000	45.489417
1384.000000	45.674078
1383.000000	45.841867
1382.000000	45.980225
1381.000000	46.121021
1380.000000	46.273599
1379.000000	46.423900
1378.000000	46.545217
1377.000000	46.662364
1376.000000	46.781986
1375.000000	46.882198
1374.000000	46.983075
1373.000000	47.107682
1372.000000	47.212291
1371.000000	47.299500
1370.000000	47.394408
1369.000000	47.496956
1368.000000	47.600902
1367.000000	47.701370
1366.000000	47.799202
1365.000000	47.907478
1364.000000	48.005431
1363.000000	48.112052
1362.000000	48.217319
1361.000000	48.330369
1360.000000	48.446099
1359.000000	48.571229
1358.000000	48.693929
1357.000000	48.786182
1356.000000	48.893611
1355.000000	49.004463
1354.000000	49.141331
1353.000000	49.260788
1352.000000	49.384590
1351.000000	49.507743
1350.000000	49.616776
1349.000000	49.726480
1348.000000	49.852036
1347.000000	49.962513
1346.000000	50.083883
1345.000000	50.207399
1344.000000	50.314224
1343.000000	50.405797
1342.000000	50.490720
1341.000000	50.593874
1340.000000	50.692750
1339.000000	50.804109
1338.000000	50.892483
1337.000000	50.965322
1336.000000	51.052578
1335.000000	51.132092
1334.000000	51.193316
1333.000000	51.270748
1332.000000	51.346554
1331.000000	51.414096
1330.000000	51.469889
1329.000000	51.520872
1328.000000	51.580103
1327.000000	51.674229
1326.000000	51.734971
1325.000000	51.797244
1324.000000	51.853928
1323.000000	51.879978
1322.000000	51.889100
1321.000000	51.919488
1320.000000	51.941712
1319.000000	51.976787
1318.000000	52.006990
1317.000000	52.038145
1316.000000	52.076474
1315.000000	52.123558
1314.000000	52.146787
1313.000000	52.153593
1312.000000	52.192427
1311.000000	52.213382
1310.000000	52.245649
1309.000000	52.278166
1308.000000	52.301004
1307.000000	52.316501
1306.000000	52.336886
1305.000000	52.355386
1304.000000	52.387773
1303.000000	52.382635
1302.000000	52.415281
1301.000000	52.426913
1300.000000	52.429698
1299.000000	52.436161
1298.000000	52.425897
1297.000000	52.434101
1296.000000	52.435906
1295.000000	52.439541
1294.000000	52.440361
1293.000000	52.446937
1292.000000	52.426042
1291.000000	52.425800
1290.000000	52.421170
1289.000000	52.411784
1288.000000	52.401558
1287.000000	52.377705
1286.000000	52.336297
1285.000000	52.324296
1284.000000	52.329830
1283.000000	52.329704
1282.000000	52.326679
1281.000000	52.327000
1280.000000	52.323198
1279.000000	52.316029
1278.000000	52.309202
1277.000000	52.323615
1276.000000	52.336302
1275.000000	52.349337
1274.000000	52.345898
1273.000000	52.342408
1272.000000	52.346950
1271.000000	52.321987
1270.000000	52.349534
1269.000000	52.367230
1268.000000	52.367110
1267.000000	52.405427
1266.000000	52.385837
1265.000000	52.402703
1264.000000	52.452414
1263.000000	52.479883
1262.000000	52.470805
1261.000000	52.489114
1260.000000	52.514944
1259.000000	52.512632
1258.000000	52.556301
1257.000000	52.556623
1256.000000	52.584192
1255.000000	52.581019
1254.000000	52.584328
1253.000000	52.609855
1252.000000	52.602804
1251.000000	52.596733
1250.000000	52.593239
1249.000000	52.573576
1248.000000	52.566696
1247.000000	52.564385
1246.000000	52.533580
1245.000000	52.527768
1244.000000	52.507246
1243.000000	52.468094
1242.000000	52.401280
1241.000000	52.380110
1240.000000	52.348894
1239.000000	52.335595
1238.000000	52.315013
1237.000000	52.241409
1236.000000	52.194677
1235.000000	52.152143
1234.000000	52.085352
1233.000000	52.052264
1232.000000	52.035984
1231.000000	52.005269
1230.000000	51.964092
1229.000000	51.884892
1228.000000	51.842255
1227.000000	51.820406
1226.000000	51.788849
1225.000000	51.748865
1224.000000	51.718387
1223.000000	51.669400
1222.000000	51.636252
1221.000000	51.588297
1220.000000	51.547520
1219.000000	51.498907
1218.000000	51.436211
1217.000000	51.376057
1216.000000	51.328670
1215.000000	51.270571
1214.000000	51.213223
1213.000000	51.176446
1212.000000	51.122969
1211.000000	51.071636
1210.000000	51.004610
1209.000000	50.921601
1208.000000	50.873611
1207.000000	50.808261
1206.000000	50.752221
1205.000000	50.672250
1204.000000	50.604791
1203.000000	50.523773
1202.000000	50.468476
1201.000000	50.418297
1200.000000	50.357109
1199.000000	50.286128
1198.000000	50.206650
1197.000000	50.156600
1196.000000	50.120472
1195.000000	50.071800
1194.000000	50.006096
1193.000000	49.958390
1192.000000	49.919851
1191.000000	49.886607
1190.000000	49.866091
1189.000000	49.817253
1188.000000	49.802403
1187.000000	49.807176
1186.000000	49.807340
1185.000000	49.814657
1184.000000	49.830041
1183.000000	49.858354
1182.000000	49.899260
1181.000000	49.944046
1180.000000	49.997633
1179.000000	50.061284
1178.000000	50.143157
1177.000000	50.219933
1176.000000	50.300904
1175.000000	50.409466
1174.000000	50.517787
1173.000000	50.621357
1172.000000	50.737553
1171.000000	50.850084
1170.000000	50.971646
1169.000000	51.095373
1168.000000	51.222866
1167.000000	51.365556
1166.000000	51.499131
1165.000000	51.640215
1164.000000	51.795364
1163.000000	51.932456
1162.000000	52.055002
1161.000000	52.195542
1160.000000	52.344718
1159.000000	52.474267
1158.000000	52.574816
1157.000000	52.688230
1156.000000	52.837927
1155.000000	52.963407
1154.000000	53.067566
1153.000000	53.196950
1152.000000	53.319638
1151.000000	53.418872
1150.000000	53.523064
1149.000000	53.625470
1148.000000	53.709151
1147.000000	53.808350
1146.000000	53.905800
1145.000000	53.984274
1144.000000	54.063075
1143.000000	54.148298
1142.000000	54.237904
1141.000000	54.330459
1140.000000	54.402098
1139.000000	54.470665
1138.000000	54.544114
1137.000000	54.628121
1136.000000	54.706878
1135.000000	54.773788
1134.000000	54.857835
1133.000000	54.919949
1132.000000	54.980711
1131.000000	55.043063
1130.000000	55.104795
1129.000000	55.159697
1128.000000	55.212917
1127.000000	55.263377
1126.000000	55.291127
1125.000000	55.328092
1124.000000	55.369167
1123.000000	55.395787
1122.000000	55.428091
1121.000000	55.473656
1120.000000	55.508548
1119.000000	55.528468
1118.000000	55.542248
1117.000000	55.561413
1116.000000	55.584997
1115.000000	55.597495
1114.000000	55.608017
1113.000000	55.621947
1112.000000	55.632400
1111.000000	55.636809
1110.000000	55.640218
1109.000000	55.660490
1108.000000	55.688743
1107.000000	55.694390
1106.000000	55.675254
1105.000000	55.674470
1104.000000	55.666951
1103.000000	55.686184
1102.000000	55.693963
1101.000000	55.711607
1100.000000	55.712837
1099.000000	55.718676
1098.000000	55.723452
1097.000000	55.703327
1096.000000	55.713061
1095.000000	55.707651
1094.000000	55.710171
1093.000000	55.713833
1092.000000	55.717340
1091.000000	55.704941
1090.000000	55.700463
1089.000000	55.709149
1088.000000	55.704134
1087.000000	55.713554
1086.000000	55.703308
1085.000000	55.680166
1084.000000	55.689066
1083.000000	55.683629
1082.000000	55.674374
1081.000000	55.682942
1080.000000	55.666836
1079.000000	55.651679
1078.000000	55.648867
1077.000000	55.627656
1076.000000	55.640790
1075.000000	55.631605
1074.000000	55.618285
1073.000000	55.597680
1072.000000	55.593599
1071.000000	55.588998
1070.000000	55.563676
1069.000000	55.552324
1068.000000	55.544295
1067.000000	55.535973
1066.000000	55.523396
1065.000000	55.497679
1064.000000	55.484144
1063.000000	55.474626
1062.000000	55.453773
1061.000000	55.455810
1060.000000	55.432625
1059.000000	55.436512
1058.000000	55.433859
1057.000000	55.422423
1056.000000	55.398536
1055.000000	55.382277
1054.000000	55.382076
1053.000000	55.369462
1052.000000	55.339750
1051.000000	55.328949
1050.000000	55.329013
1049.000000	55.304202
1048.000000	55.294366
1047.000000	55.269522
1046.000000	55.266020
1045.000000	55.241612
1044.000000	55.223639
1043.000000	55.237971
1042.000000	55.243338
1041.000000	55.215174
1040.000000	55.211480
1039.000000	55.193832
1038.000000	55.165531
1037.000000	55.162565
1036.000000	55.158828
1035.000000	55.154243
1034.000000	55.146008
1033.000000	55.133696
1032.000000	55.132247
1031.000000	55.132545
1030.000000	55.117323
1029.000000	55.098361
1028.000000	55.114739
1027.000000	55.101692
1026.000000	55.111412
1025.000000	55.103255
1024.000000	55.095955
1023.000000	55.108184
1022.000000	55.089102
1021.000000	55.092732
1020.000000	55.077898
1019.000000	55.087631
1018.000000	55.100955
1017.000000	55.096942
1016.000000	55.100922
1015.000000	55.102402
1014.000000	55.114032
1013.000000	55.137359
1012.000000	55.153813
1011.000000	55.139976
1010.000000	55.152856
1009.000000	55.179367
1008.000000	55.168827
1007.000000	55.180848
1006.000000	55.192642
1005.000000	55.191432
1004.000000	55.191715
1003.000000	55.209505
1002.000000	55.230519
1001.000000	55.260215
1000.000000	55.248602
999.000000	55.261790
998.000000	55.267911
997.000000	55.264159
996.000000	55.299705
995.000000	55.292591
994.000000	55.311577
993.000000	55.322771
992.000000	55.309711
991.000000	55.335124
990.000000	55.333619
989.000000	55.345769
988.000000	55.345817
987.000000	55.355922
986.000000	55.362064
985.000000	55.387021
984.000000	55.409932
983.000000	55.428688
982.000000	55.427645
981.000000	55.431900
980.000000	55.448097
979.000000	55.460636
978.000000	55.484905
977.000000	55.480414
976.000000	55.489497
975.000000	55.512880
974.000000	55.539466
973.000000	55.543549
972.000000	55.535930
971.000000	55.550734
970.000000	55.580197
969.000000	55.616507
968.000000	55.630722
967.000000	55.620072
966.000000	55.643442
965.000000	55.652807
964.000000	55.662290
963.000000	55.665959
962.000000	55.704226
961.000000	55.724590
960.000000	55.698892
959.000000	55.714302
958.000000	55.728066
957.000000	55.738679
956.000000	55.763594
955.000000	55.771744
954.000000	55.777654
953.000000	55.785766
952.000000	55.802724
951.000000	55.814673
950.000000	55.830525
949.000000	55.861347
948.000000	55.857826
947.000000	55.876557
946.000000	55.910163
945.000000	55.905943
944.000000	55.892882
943.000000	55.901286
942.000000	55.915660
941.000000	55.901478
940.000000	55.921790
939.000000	55.935717
938.000000	55.889949
937.000000	55.885536
936.000000	55.898903
935.000000	55.891027
934.000000	55.903613
933.000000	55.894255
932.000000	55.864849
931.000000	55.870988
930.000000	55.886729
929.000000	55.876837
928.000000	55.861152
927.000000	55.866299
926.000000	55.841543
925.000000	55.841460
924.000000	55.874067
923.000000	55.893056
922.000000	55.887532
921.000000	55.849165
920.000000	55.870335
919.000000	55.900412
918.000000	55.825488
917.000000	55.806577
916.000000	55.817882
915.000000	55.816580
914.000000	55.818090
913.000000	55.807428
912.000000	55.829600
911.000000	55.841129
910.000000	55.835359
909.000000	55.794703
908.000000	55.786188
907.000000	55.786043
906.000000	55.778384
905.000000	55.805085
904.000000	55.822497
903.000000	55.836350
902.000000	55.867705
901.000000	55.894780
900.000000	55.903001
899.000000	55.905824
898.000000	55.878451
897.000000	55.872372
896.000000	55.915637
895.000000	55.928878
894.000000	55.921294
893.000000	55.897074
892.000000	55.919817
891.000000	55.976933
890.000000	55.965424
889.000000	55.953016
888.000000	55.990723
887.000000	56.040901
886.000000	56.049764
885.000000	56.020778
884.000000	56.099504
883.000000	56.047802
882.000000	56.025282
881.000000	56.016479
880.000000	56.066786
879.000000	56.118194
878.000000	56.088590
877.000000	56.115423
876.000000	56.052679
875.000000	56.136029
874.000000	56.215868
873.000000	56.025827
872.000000	56.024202
871.000000	56.080561
870.000000	56.158963
869.000000	56.270329
868.000000	56.231123
867.000000	56.178373
866.000000	55.963632
865.000000	56.057963
864.000000	56.256021
863.000000	56.283533
862.000000	56.129172
861.000000	56.119154
860.000000	56.081369
859.000000	55.932498
858.000000	55.724758
857.000000	55.735577
856.000000	55.670674
855.000000	55.230124
854.000000	55.492545
853.000000	55.546780
852.000000	55.475211
851.000000	55.727406
850.000000	55.620046
849.000000	55.697111
848.000000	55.635133
847.000000	55.562109
846.000000	55.869940
845.000000	55.600689
844.000000	55.820186
843.000000	55.595269
842.000000	55.441410
841.000000	55.436739
840.000000	55.690057
839.000000	55.442453
838.000000	55.780149
837.000000	55.656414
836.000000	55.446314
835.000000	55.564785
834.000000	55.568085
833.000000	55.515984
832.000000	55.659640
831.000000	55.595347
830.000000	55.508828
829.000000	55.411949
828.000000	55.558883
827.000000	55.513393
826.000000	55.510952
825.000000	55.601901
824.000000	55.677350
823.000000	55.660974
822.000000	55.476657
821.000000	55.458960
820.000000	55.405666
819.000000	55.512532
818.000000	55.482020
817.000000	55.331363
816.000000	55.449386
815.000000	55.544438
814.000000	55.405552
813.000000	55.529643
812.000000	55.507702
811.000000	55.574796
810.000000	55.340732
809.000000	55.391106
808.000000	55.473780
807.000000	55.374380
806.000000	55.431353
805.000000	55.398310
804.000000	55.449854
803.000000	55.420273
802.000000	55.531922
801.000000	55.483082
800.000000	55.384980
799.000000	55.441729
798.000000	55.395170
797.000000	55.558972
796.000000	55.569186
795.000000	55.521640
794.000000	55.329945
793.000000	55.406785
792.000000	55.344940
791.000000	55.389383
790.000000	55.248324
789.000000	55.409066
788.000000	55.305643
787.000000	55.274319
786.000000	55.359765
785.000000	55.236818
784.000000	55.271424
783.000000	55.268750
782.000000	55.227640
781.000000	55.325841
780.000000	55.362759
779.000000	55.365484
778.000000	55.305437
777.000000	55.394904
776.000000	55.301360
775.000000	55.233739
774.000000	55.197230
773.000000	55.194783
772.000000	55.218349
771.000000	55.230950
770.000000	55.253395
769.000000	55.157366
768.000000	55.095381
767.000000	55.171303
766.000000	55.015751
765.000000	55.052608
764.000000	55.078849
763.000000	55.055236
762.000000	54.999334
761.000000	54.984340
760.000000	55.053002
759.000000	55.111716
758.000000	55.024238
757.000000	54.954394
756.000000	54.995234
755.000000	54.973751
754.000000	54.948167
753.000000	54.962329
752.000000	54.902741
751.000000	54.860935
750.000000	54.911315
749.000000	54.919442
748.000000	54.839473
747.000000	54.816424
746.000000	54.829278
745.000000	54.786609
744.000000	54.758761
743.000000	54.752041
742.000000	54.740330
741.000000	54.771750
740.000000	54.746781
739.000000	54.679863
738.000000	54.676863
737.000000	54.645596
736.000000	54.607588
735.000000	54.592531
734.000000	54.627098
733.000000	54.580950
732.000000	54.518244
731.000000	54.476416
730.000000	54.528866
729.000000	54.502506
728.000000	54.469896
727.000000	54.498694
726.000000	54.444727
725.000000	54.308803
724.000000	54.270180
723.000000	54.326128
722.000000	54.322205
721.000000	54.293278
720.000000	54.239177
719.000000	54.202305
718.000000	54.165371
717.000000	54.229630
716.000000	54.178496
715.000000	54.068113
714.000000	54.035613
713.000000	54.088944
712.000000	54.085978
711.000000	54.057272
710.000000	54.076618
709.000000	54.011589
708.000000	53.975077
707.000000	53.969750
706.000000	53.967658
705.000000	53.881766
704.000000	53.882142
703.000000	53.890575
702.000000	53.826057
701.000000	53.786182
700.000000	53.767988
699.000000	53.770991
698.000000	53.688822
697.000000	53.692204
696.000000	53.686951
695.000000	53.611214
694.000000	53.607005
693.000000	53.511671
692.000000	53.478299
691.000000	53.499800
690.000000	53.472534
689.000000	53.433276
688.000000	53.371786
687.000000	53.321092
686.000000	53.265431
685.000000	53.242823
684.000000	53.235773
683.000000	53.148665
682.000000	53.090845
681.000000	53.083588
680.000000	53.099122
679.000000	53.081416
678.000000	53.013318
677.000000	53.011697
676.000000	52.981257
675.000000	52.906833
674.000000	52.842466
673.000000	52.862946
672.000000	52.827309
671.000000	52.737936
670.000000	52.687603
669.000000	52.628263
668.000000	52.595908
667.000000	52.621790
666.000000	52.567390
665.000000	52.530871
664.000000	52.473105
663.000000	52.404803
662.000000	52.407856
661.000000	52.347078
660.000000	52.305313
659.000000	52.224470
658.000000	52.173653
657.000000	52.155461
656.000000	52.093162
655.000000	52.052438
654.000000	52.027310
653.000000	51.954449
652.000000	51.896375
651.000000	51.857683
650.000000	51.811861
649.000000	51.761734
648.000000	51.716896
647.000000	51.647551
646.000000	51.555477
645.000000	51.490445
644.000000	51.463937
643.000000	51.406290
642.000000	51.360016
641.000000	51.320373
640.000000	51.256170
639.000000	51.193732
638.000000	51.124225
637.000000	51.118205
636.000000	51.039828
635.000000	50.980023
634.000000	50.923534
633.000000	50.885860
632.000000	50.781895
631.000000	50.807005
630.000000	50.719685
629.000000	50.652404
628.000000	50.566522
627.000000	50.508392
626.000000	50.514860
625.000000	50.401324
624.000000	50.329285
623.000000	50.272045
622.000000	50.236104
621.000000	50.132464
620.000000	50.115466
619.000000	50.094328
618.000000	49.979409
617.000000	49.946330
616.000000	49.860661
615.000000	49.831869
614.000000	49.745732
613.000000	49.763215
612.000000	49.741867
611.000000	49.612666
610.000000	49.594869
609.000000	49.500400
608.000000	49.419871
607.000000	49.392500
606.000000	49.267213
605.000000	49.311380
604.000000	49.274607
603.000000	49.202338
602.000000	49.134163
601.000000	49.102823
600.000000	49.022550
599.000000	48.952669
598.000000	48.914040
597.000000	48.870676
596.000000	48.782466
595.000000	48.687972
594.000000	48.716570
593.000000	48.651121
592.000000	48.521554
591.000000	48.518711
590.000000	48.405249
589.000000	48.410366
588.000000	48.279178
587.000000	48.236738
586.000000	48.228116
585.000000	48.144346
584.000000	48.033908
583.000000	47.990611
582.000000	47.956245
581.000000	47.915687
580.000000	47.832466
579.000000	47.790263
578.000000	47.689320
577.000000	47.634171
576.000000	47.612139
575.000000	47.522641
574.000000	47.384563
573.000000	47.369155
572.000000	47.299229
571.000000	47.264085
570.000000	47.189017
569.000000	47.164436
568.000000	47.052147
567.000000	47.023849
566.000000	46.916706
565.000000	46.894769
564.000000	46.816377
563.000000	46.753766
562.000000	46.747498
561.000000	46.629919
560.000000	46.547727
559.000000	46.496776
558.000000	46.473157
557.000000	46.404094
556.000000	46.370836
555.000000	46.280991
554.000000	46.177117
553.000000	46.127481
552.000000	46.054880
551.000000	45.985217
550.000000	45.933723
549.000000	45.855831
548.000000	45.799850
547.000000	45.672941
546.000000	45.589337
545.000000	45.532988
544.000000	45.494233
543.000000	45.369028
542.000000	45.281349
541.000000	45.220167
540.000000	45.074725
539.000000	45.003916
538.000000	44.967139
537.000000	44.867497
536.000000	44.798302
535.000000	44.719428
534.000000	44.637981
533.000000	44.530641
532.000000	44.444714
531.000000	44.378495
530.000000	44.304008
529.000000	44.229444
528.000000	44.144071
527.000000	44.063621
526.000000	43.936404
525.000000	43.868684
524.000000	43.795780
523.000000	43.726919
522.000000	43.610807
521.000000	43.528628
520.000000	43.456472
519.000000	43.355521
518.000000	43.265969
517.000000	43.206581
516.000000	43.101565
515.000000	42.996520
514.000000	42.897573
513.000000	42.810184
512.000000	42.703481
511.000000	42.606253
510.000000	42.520486
509.000000	42.425481
508.000000	42.288694
507.000000	42.200292
506.000000	42.091432
505.000000	41.989115
504.000000	41.844610
503.000000	41.699686
502.000000	41.574562
501.000000	41.475691
500.000000	41.343859
499.000000	41.259796
498.000000	41.113556
497.000000	40.965225
496.000000	40.835869
495.000000	40.693585
494.000000	40.592522
493.000000	40.451465
492.000000	40.299695
491.000000	40.168119
490.000000	40.008978
489.000000	39.866347
488.000000	39.684439
487.000000	39.517471
486.000000	39.363362
485.000000	39.223244
484.000000	39.102385
483.000000	38.953197
482.000000	38.779553
481.000000	38.636687
480.000000	38.457793
479.000000	38.276024
478.000000	38.108009
477.000000	37.935402
476.000000	37.787726
475.000000	37.594641
474.000000	37.389687
473.000000	37.227565
472.000000	37.039838
471.000000	36.864183
470.000000	36.703618
469.000000	36.506122
468.000000	36.298768
467.000000	36.093011
466.000000	35.874722
465.000000	35.680043
464.000000	35.497326
463.000000	35.316063
462.000000	35.111354
461.000000	34.908219
460.000000	34.686918
459.000000	34.471679
458.000000	34.275917
457.000000	34.029273
456.000000	33.792795
455.000000	33.593973
454.000000	33.381597
453.000000	33.155537
452.000000	32.939332
451.000000	32.708989
450.000000	32.481819
449.000000	32.248836
448.000000	31.994927
447.000000	31.762517
446.000000	31.533765
445.000000	31.290535
444.000000	31.055221
443.000000	30.813946
442.000000	30.546812
441.000000	30.298229
440.000000	30.049124
439.000000	29.815339
438.000000	29.583727
437.000000	29.308805
436.000000	29.057954
435.000000	28.796642
434.000000	28.523558
433.000000	28.304593
432.000000	28.070393
431.000000	27.756621
430.000000	27.498364
429.000000	27.234028
428.000000	26.936488
427.000000	26.636807
426.000000	26.383432
425.000000	26.134760
424.000000	25.881310
423.000000	25.593529
422.000000	25.314967
421.000000	25.056385
420.000000	24.809673
419.000000	24.562999
418.000000	24.285102
417.000000	24.012005
416.000000	23.788429
415.000000	23.595543
414.000000	23.381004
413.000000	23.195090
412.000000	23.010132
411.000000	22.825666
410.000000	22.694397
409.000000	22.557067
408.000000	22.403649
407.000000	22.332873
406.000000	22.225095
405.000000	22.066264
404.000000	21.985708
403.000000	21.935167
402.000000	21.840382
401.000000	21.752478
400.000000	21.677285
399.000000	21.606518
398.000000	21.551053
397.000000	21.518399
396.000000	21.417728
395.000000	21.335439
394.000000	21.286754
393.000000	21.180145
392.000000	21.103833
391.000000	20.982304
390.000000	20.935290
389.000000	20.844845
388.000000	20.711805
387.000000	20.652831
386.000000	20.539410
385.000000	20.450136
384.000000	20.308617
383.000000	20.181465
382.000000	20.077964
381.000000	19.960539
380.000000	19.789033
379.000000	19.591882
378.000000	19.469229
377.000000	19.493230
376.000000	19.303821
375.000000	19.219743
374.000000	19.076649
373.000000	18.882068
372.000000	18.736715
371.000000	18.590661
370.000000	18.520576
369.000000	18.341829
368.000000	18.284690
367.000000	18.043802
366.000000	17.977858
365.000000	17.807406
364.000000	17.692958
363.000000	17.635850
362.000000	17.483273
361.000000	17.339035
360.000000	17.241545
359.000000	17.097430
358.000000	16.987148
357.000000	16.863414
356.000000	16.770589
355.000000	16.633884
354.000000	16.505546
353.000000	16.430699
352.000000	16.341364
351.000000	16.275763
350.000000	16.122617
349.000000	16.019051
348.000000	15.838240
347.000000	15.817424
346.000000	15.697304
345.000000	15.637304
344.000000	15.524985
343.000000	15.429594
342.000000	15.322439
341.000000	15.288100
340.000000	15.115650
339.000000	15.023111
338.000000	14.959843
337.000000	14.858488
336.000000	14.745504
335.000000	14.595259
334.000000	14.571444
333.000000	14.502203
332.000000	14.411666
331.000000	14.363391
330.000000	14.179753
329.000000	14.130195
328.000000	14.062545
327.000000	14.115129
326.000000	13.985915
325.000000	13.967256
324.000000	13.749775
323.000000	13.620219
322.000000	13.630758
321.000000	13.563649
320.000000	13.448492
319.000000	13.487183
318.000000	13.369097
317.000000	13.316263
316.000000	13.219983
315.000000	13.187122
314.000000	13.127569
313.000000	13.108818
312.000000	12.963725
311.000000	12.895254
310.000000	12.829986
309.000000	12.768945
308.000000	12.643418
307.000000	12.573492
306.000000	12.506110
305.000000	12.433786
304.000000	12.307044
303.000000	12.241469
302.000000	12.225611
301.000000	12.049641
300.000000	11.949951
299.000000	11.832092
298.000000	11.655495
297.000000	11.585695
296.000000	11.407260
295.000000	11.224639
294.000000	11.040558
293.000000	10.860382
292.000000	10.678239
291.000000	10.495115
290.000000	10.473359
289.000000	10.299004
288.000000	10.259793
287.000000	10.255804
286.000000	10.293330
285.000000	10.439805
284.000000	10.499830
283.000000	10.566430
282.000000	10.580683
281.000000	10.675213
280.000000	10.824847
279.000000	10.830678
278.000000	10.957274
277.000000	11.036398
276.000000	11.140570
275.000000	11.305804
274.000000	11.357007
273.000000	11.463157
272.000000	11.612914
271.000000	11.680433
270.000000	11.773535
269.000000	11.862827
268.000000	11.939194
267.000000	12.075173
266.000000	12.214788
265.000000	12.334026
264.000000	12.409866
263.000000	12.523652
262.000000	12.660999
261.000000	12.784895
260.000000	12.908729
259.000000	13.035608
258.000000	13.162481
257.000000	13.309072
256.000000	13.447040
255.000000	13.498702
254.000000	13.593469
253.000000	13.681212
252.000000	13.700102
251.000000	13.736839
250.000000	13.736084
249.000000	13.689936
248.000000	13.694396
247.000000	13.588354
246.000000	13.500861
245.000000	13.513155
244.000000	13.518448
243.000000	13.486230
242.000000	13.496459
241.000000	13.589366
240.000000	13.694907
239.000000	13.861562
238.000000	14.058641
237.000000	14.280961
236.000000	14.530765
235.000000	14.686395
234.000000	14.890437
233.000000	15.157840
232.000000	15.353802
231.000000	15.529593
230.000000	15.687016
229.000000	15.750093
228.000000	15.867165
227.000000	16.097309
226.000000	16.200924
225.000000	16.332664
224.000000	16.663781
223.000000	16.845838
222.000000	17.047241
221.000000	17.236913
220.000000	17.458176
219.000000	17.779837
218.000000	18.032155
217.000000	18.209157
216.000000	18.502824
215.000000	18.785388
214.000000	19.125304
213.000000	19.486063
212.000000	19.769724
211.000000	20.133172
210.000000	20.589372
209.000000	20.860370
208.000000	21.169437
207.000000	21.741952
206.000000	22.375998
205.000000	23.060548
204.000000	23.483104
203.000000	23.893349
202.000000	24.563466
201.000000	25.140325
200.000000	25.806597
