PE UV       SUBTECH     SPECTRUM    ASCII       PEDS        4.00        
   -1
TDms499172.Sample.asc
18/03/23
10:58:10.00
18/03/23
10:58:10.00
Administrator

200.000000
1
Lambda 750
750N8071901
PerkinElmer UV WinLab 6.0.4.0738 / 1.61.00 Lambda 900

0
0
3350/servo 860.8/2
0
0
UV/VIS
1
1
1
CommonBeamDepol,150mm sphere / downward view
0
0
0
0
Program
Program
3350/servo 860.8/2
3350/0.2 860.8/0.2
3350/0.2 860.8/0.2
0
1
 
 
 
0
 
860.8
319.2
860.8
Front
100
on
 
 
0
0
0
 
0
 
 
 
0
 
 
0
0
0
0
0
 
 
 
 
0
0


0
0
#HDR
-1
-1
#GR
nm
%T
1.0
0.0
2350.000000
-1.000000
2151
8
11.944284
-0.000533
#DATA
2350.000000	5.350015
2349.000000	5.586423
2348.000000	5.257414
2347.000000	5.852136
2346.000000	5.599601
2345.000000	5.049952
2344.000000	5.297092
2343.000000	5.218210
2342.000000	5.312399
2341.000000	5.440206
2340.000000	5.560135
2339.000000	5.740535
2338.000000	5.753041
2337.000000	5.697698
2336.000000	6.025242
2335.000000	5.958889
2334.000000	6.028874
2333.000000	6.154528
2332.000000	6.344583
2331.000000	6.158617
2330.000000	5.988875
2329.000000	5.801514
2328.000000	5.768268
2327.000000	5.777949
2326.000000	5.859963
2325.000000	5.744488
2324.000000	5.828350
2323.000000	5.725043
2322.000000	6.037674
2321.000000	5.706763
2320.000000	5.724832
2319.000000	5.740662
2318.000000	5.732860
2317.000000	5.729827
2316.000000	5.388190
2315.000000	5.261203
2314.000000	5.334044
2313.000000	5.453030
2312.000000	5.339303
2311.000000	5.462995
2310.000000	5.527839
2309.000000	5.410254
2308.000000	5.425520
2307.000000	5.490952
2306.000000	5.357818
2305.000000	5.383562
2304.000000	5.553198
2303.000000	5.455436
2302.000000	5.375006
2301.000000	5.335475
2300.000000	5.333664
2299.000000	5.331452
2298.000000	5.128800
2297.000000	5.209346
2296.000000	5.214936
2295.000000	5.142850
2294.000000	5.010135
2293.000000	5.091681
2292.000000	5.126600
2291.000000	5.148667
2290.000000	5.211303
2289.000000	5.139914
2288.000000	5.286101
2287.000000	5.107713
2286.000000	5.108368
2285.000000	5.289572
2284.000000	5.344620
2283.000000	5.161737
2282.000000	5.070106
2281.000000	5.115616
2280.000000	5.198012
2279.000000	5.131418
2278.000000	5.105049
2277.000000	5.170181
2276.000000	5.118295
2275.000000	5.099255
2274.000000	5.038068
2273.000000	5.151337
2272.000000	5.258929
2271.000000	5.293113
2270.000000	5.209407
2269.000000	5.172019
2268.000000	5.102450
2267.000000	5.218082
2266.000000	5.282500
2265.000000	5.307540
2264.000000	5.406265
2263.000000	5.575959
2262.000000	5.567910
2261.000000	5.543675
2260.000000	5.572661
2259.000000	5.642543
2258.000000	5.726051
2257.000000	5.797935
2256.000000	5.876526
2255.000000	5.924566
2254.000000	5.864804
2253.000000	5.758924
2252.000000	5.904219
2251.000000	6.162636
2250.000000	6.348365
2249.000000	6.406744
2248.000000	6.402971
2247.000000	6.469593
2246.000000	6.412818
2245.000000	6.480761
2244.000000	6.538588
2243.000000	6.531967
2242.000000	6.595401
2241.000000	6.589732
2240.000000	6.658197
2239.000000	6.701238
2238.000000	6.741792
2237.000000	6.699451
2236.000000	6.721566
2235.000000	6.937720
2234.000000	6.955490
2233.000000	6.886165
2232.000000	6.777722
2231.000000	6.827917
2230.000000	6.930662
2229.000000	7.018425
2228.000000	7.102715
2227.000000	7.029067
2226.000000	6.987592
2225.000000	6.956601
2224.000000	6.946289
2223.000000	6.908105
2222.000000	6.938135
2221.000000	6.901308
2220.000000	6.958679
2219.000000	7.054031
2218.000000	6.995496
2217.000000	6.905627
2216.000000	6.904605
2215.000000	6.887594
2214.000000	6.867078
2213.000000	6.902366
2212.000000	6.908689
2211.000000	6.907820
2210.000000	6.838103
2209.000000	6.774089
2208.000000	6.605038
2207.000000	6.627647
2206.000000	6.670662
2205.000000	6.642500
2204.000000	6.641659
2203.000000	6.607397
2202.000000	6.554258
2201.000000	6.528737
2200.000000	6.509666
2199.000000	6.525115
2198.000000	6.524755
2197.000000	6.507623
2196.000000	6.429559
2195.000000	6.291252
2194.000000	6.416647
2193.000000	6.310060
2192.000000	6.318015
2191.000000	6.235028
2190.000000	6.161591
2189.000000	6.299145
2188.000000	6.301124
2187.000000	6.245537
2186.000000	6.208045
2185.000000	6.108437
2184.000000	6.380820
2183.000000	6.372001
2182.000000	6.234688
2181.000000	6.135338
2180.000000	6.117653
2179.000000	6.097324
2178.000000	6.232857
2177.000000	6.218405
2176.000000	6.093790
2175.000000	6.212608
2174.000000	6.321054
2173.000000	6.168006
2172.000000	6.258183
2171.000000	6.433361
2170.000000	6.308632
2169.000000	6.393110
2168.000000	6.345509
2167.000000	6.533197
2166.000000	6.420876
2165.000000	6.276526
2164.000000	6.301499
2163.000000	6.390305
2162.000000	6.421615
2161.000000	6.357621
2160.000000	6.576880
2159.000000	6.620494
2158.000000	6.677317
2157.000000	6.651216
2156.000000	6.783785
2155.000000	6.702221
2154.000000	6.723469
2153.000000	6.832598
2152.000000	6.889979
2151.000000	6.928132
2150.000000	6.933999
2149.000000	6.982909
2148.000000	6.889829
2147.000000	6.793138
2146.000000	6.859503
2145.000000	7.062017
2144.000000	6.954718
2143.000000	6.852580
2142.000000	6.960505
2141.000000	7.148637
2140.000000	7.079599
2139.000000	7.126168
2138.000000	7.059306
2137.000000	7.371393
2136.000000	7.352304
2135.000000	7.217959
2134.000000	7.436009
2133.000000	7.053215
2132.000000	7.329819
2131.000000	7.422297
2130.000000	7.355688
2129.000000	7.326794
2128.000000	7.353150
2127.000000	7.262238
2126.000000	7.233456
2125.000000	7.100849
2124.000000	7.261809
2123.000000	7.368926
2122.000000	7.397448
2121.000000	7.316785
2120.000000	7.205800
2119.000000	7.106221
2118.000000	7.200623
2117.000000	7.480217
2116.000000	7.502029
2115.000000	7.395568
2114.000000	7.323248
2113.000000	7.418115
2112.000000	7.361251
2111.000000	7.368657
2110.000000	7.283524
2109.000000	7.424808
2108.000000	7.409077
2107.000000	7.411937
2106.000000	7.417098
2105.000000	7.482400
2104.000000	7.322769
2103.000000	7.378690
2102.000000	7.334585
2101.000000	7.365765
2100.000000	7.500235
2099.000000	7.508541
2098.000000	7.412078
2097.000000	7.524994
2096.000000	7.360583
2095.000000	7.357189
2094.000000	7.425755
2093.000000	7.455972
2092.000000	7.403954
2091.000000	7.315861
2090.000000	7.369597
2089.000000	7.337189
2088.000000	7.251122
2087.000000	7.357629
2086.000000	7.350635
2085.000000	7.361022
2084.000000	7.299867
2083.000000	7.300789
2082.000000	7.395453
2081.000000	7.260289
2080.000000	7.172283
2079.000000	7.232779
2078.000000	7.228461
2077.000000	7.158728
2076.000000	7.220649
2075.000000	7.222571
2074.000000	7.095290
2073.000000	7.096368
2072.000000	7.044956
2071.000000	7.026517
2070.000000	7.020018
2069.000000	6.948940
2068.000000	6.868339
2067.000000	6.780278
2066.000000	6.737242
2065.000000	6.729650
2064.000000	6.663116
2063.000000	6.602747
2062.000000	6.626897
2061.000000	6.535399
2060.000000	6.483318
2059.000000	6.496564
2058.000000	6.499218
2057.000000	6.407448
2056.000000	6.342814
2055.000000	6.277382
2054.000000	6.255432
2053.000000	6.272991
2052.000000	6.220896
2051.000000	6.151618
2050.000000	6.102134
2049.000000	6.112304
2048.000000	6.077287
2047.000000	6.103756
2046.000000	6.026397
2045.000000	6.035373
2044.000000	6.055797
2043.000000	6.010288
2042.000000	6.054455
2041.000000	6.104687
2040.000000	6.124346
2039.000000	6.078267
2038.000000	6.092861
2037.000000	6.086377
2036.000000	6.090189
2035.000000	6.147362
2034.000000	6.120554
2033.000000	6.158706
2032.000000	6.237942
2031.000000	6.247061
2030.000000	6.248395
2029.000000	6.302249
2028.000000	6.313237
2027.000000	6.338677
2026.000000	6.401913
2025.000000	6.429763
2024.000000	6.407126
2023.000000	6.436848
2022.000000	6.480313
2021.000000	6.454086
2020.000000	6.430738
2019.000000	6.437854
2018.000000	6.421868
2017.000000	6.430830
2016.000000	6.441744
2015.000000	6.467048
2014.000000	6.463836
2013.000000	6.422422
2012.000000	6.430181
2011.000000	6.451170
2010.000000	6.372477
2009.000000	6.334241
2008.000000	6.339895
2007.000000	6.286677
2006.000000	6.223439
2005.000000	6.187876
2004.000000	6.184044
2003.000000	6.156396
2002.000000	6.136889
2001.000000	6.141848
2000.000000	6.113207
1999.000000	6.062078
1998.000000	6.039940
1997.000000	5.982850
1996.000000	5.975443
1995.000000	5.902686
1994.000000	5.857011
1993.000000	5.832871
1992.000000	5.826796
1991.000000	5.790009
1990.000000	5.752994
1989.000000	5.710132
1988.000000	5.658761
1987.000000	5.611943
1986.000000	5.581456
1985.000000	5.575636
1984.000000	5.552859
1983.000000	5.510628
1982.000000	5.491689
1981.000000	5.493913
1980.000000	5.440261
1979.000000	5.388979
1978.000000	5.331654
1977.000000	5.314287
1976.000000	5.269917
1975.000000	5.255450
1974.000000	5.259440
1973.000000	5.186419
1972.000000	5.125600
1971.000000	5.112463
1970.000000	5.094279
1969.000000	5.069853
1968.000000	5.073761
1967.000000	5.083336
1966.000000	5.050383
1965.000000	5.030536
1964.000000	4.963376
1963.000000	4.987024
1962.000000	4.968201
1961.000000	4.896825
1960.000000	4.848181
1959.000000	4.824554
1958.000000	4.851866
1957.000000	4.826725
1956.000000	4.759240
1955.000000	4.767159
1954.000000	4.777461
1953.000000	4.790431
1952.000000	4.763585
1951.000000	4.751778
1950.000000	4.752840
1949.000000	4.741275
1948.000000	4.764505
1947.000000	4.649692
1946.000000	4.691558
1945.000000	4.695713
1944.000000	4.650799
1943.000000	4.683365
1942.000000	4.709484
1941.000000	4.748454
1940.000000	4.758141
1939.000000	4.725028
1938.000000	4.771820
1937.000000	4.835663
1936.000000	4.906892
1935.000000	4.862911
1934.000000	4.819160
1933.000000	4.868457
1932.000000	4.952716
1931.000000	5.006795
1930.000000	4.997089
1929.000000	4.955009
1928.000000	5.131255
1927.000000	5.204782
1926.000000	5.219293
1925.000000	5.191695
1924.000000	5.371784
1923.000000	5.529447
1922.000000	5.445736
1921.000000	5.540620
1920.000000	5.616292
1919.000000	5.708614
1918.000000	5.820130
1917.000000	5.999135
1916.000000	5.993182
1915.000000	6.059606
1914.000000	6.167203
1913.000000	6.298334
1912.000000	6.380546
1911.000000	6.530160
1910.000000	6.727997
1909.000000	6.752701
1908.000000	6.846638
1907.000000	7.011542
1906.000000	7.042877
1905.000000	7.236640
1904.000000	7.399508
1903.000000	7.603084
1902.000000	7.718148
1901.000000	7.900107
1900.000000	8.015247
1899.000000	8.097297
1898.000000	8.277543
1897.000000	8.398223
1896.000000	8.591320
1895.000000	8.696089
1894.000000	8.843533
1893.000000	8.945400
1892.000000	9.098393
1891.000000	9.250143
1890.000000	9.299447
1889.000000	9.477792
1888.000000	9.591570
1887.000000	9.646083
1886.000000	9.835839
1885.000000	9.972786
1884.000000	10.079664
1883.000000	10.207451
1882.000000	10.285920
1881.000000	10.392776
1880.000000	10.475472
1879.000000	10.561971
1878.000000	10.656695
1877.000000	10.767238
1876.000000	10.818174
1875.000000	10.890125
1874.000000	10.921163
1873.000000	10.990499
1872.000000	11.101622
1871.000000	11.119877
1870.000000	11.133150
1869.000000	11.151730
1868.000000	11.199963
1867.000000	11.265475
1866.000000	11.286597
1865.000000	11.285038
1864.000000	11.251933
1863.000000	11.242083
1862.000000	11.290462
1861.000000	11.293955
1860.000000	11.274099
1859.000000	11.245960
1858.000000	11.285813
1857.000000	11.323104
1856.000000	11.359188
1855.000000	11.365899
1854.000000	11.346215
1853.000000	11.375827
1852.000000	11.372150
1851.000000	11.411010
1850.000000	11.383074
1849.000000	11.347028
1848.000000	11.360841
1847.000000	11.347954
1846.000000	11.339209
1845.000000	11.375745
1844.000000	11.381149
1843.000000	11.354471
1842.000000	11.354325
1841.000000	11.328638
1840.000000	11.307620
1839.000000	11.305769
1838.000000	11.298505
1837.000000	11.241349
1836.000000	11.210036
1835.000000	11.197106
1834.000000	11.193329
1833.000000	11.173954
1832.000000	11.131140
1831.000000	11.132143
1830.000000	11.115918
1829.000000	11.072850
1828.000000	11.057702
1827.000000	11.056819
1826.000000	11.037533
1825.000000	11.027926
1824.000000	11.015434
1823.000000	10.976775
1822.000000	10.959972
1821.000000	10.941311
1820.000000	10.927827
1819.000000	10.949354
1818.000000	10.933773
1817.000000	10.895300
1816.000000	10.880134
1815.000000	10.876144
1814.000000	10.850544
1813.000000	10.817094
1812.000000	10.826572
1811.000000	10.843156
1810.000000	10.831176
1809.000000	10.841076
1808.000000	10.826050
1807.000000	10.777101
1806.000000	10.764003
1805.000000	10.769342
1804.000000	10.756580
1803.000000	10.754222
1802.000000	10.753446
1801.000000	10.748390
1800.000000	10.745086
1799.000000	10.735608
1798.000000	10.734074
1797.000000	10.730983
1796.000000	10.716889
1795.000000	10.699339
1794.000000	10.701860
1793.000000	10.712416
1792.000000	10.719320
1791.000000	10.724023
1790.000000	10.700998
1789.000000	10.679252
1788.000000	10.679714
1787.000000	10.688626
1786.000000	10.701576
1785.000000	10.692785
1784.000000	10.684851
1783.000000	10.694175
1782.000000	10.677916
1781.000000	10.684698
1780.000000	10.689848
1779.000000	10.670213
1778.000000	10.623433
1777.000000	10.623184
1776.000000	10.625238
1775.000000	10.581589
1774.000000	10.571610
1773.000000	10.556454
1772.000000	10.532813
1771.000000	10.537143
1770.000000	10.541861
1769.000000	10.493881
1768.000000	10.463089
1767.000000	10.471257
1766.000000	10.444901
1765.000000	10.416444
1764.000000	10.422212
1763.000000	10.401063
1762.000000	10.391988
1761.000000	10.362429
1760.000000	10.329555
1759.000000	10.291110
1758.000000	10.290770
1757.000000	10.291816
1756.000000	10.283993
1755.000000	10.296887
1754.000000	10.278164
1753.000000	10.262450
1752.000000	10.256097
1751.000000	10.217554
1750.000000	10.200420
1749.000000	10.196282
1748.000000	10.140014
1747.000000	10.135747
1746.000000	10.120294
1745.000000	10.095989
1744.000000	10.076403
1743.000000	10.068837
1742.000000	10.017997
1741.000000	10.025299
1740.000000	10.028506
1739.000000	9.987251
1738.000000	9.984594
1737.000000	9.927782
1736.000000	9.941365
1735.000000	9.928547
1734.000000	9.911730
1733.000000	9.914370
1732.000000	9.911791
1731.000000	9.931916
1730.000000	9.906109
1729.000000	9.937023
1728.000000	9.948939
1727.000000	9.960797
1726.000000	9.960172
1725.000000	9.954634
1724.000000	9.998137
1723.000000	10.023815
1722.000000	10.035351
1721.000000	10.072068
1720.000000	10.100679
1719.000000	10.154051
1718.000000	10.156127
1717.000000	10.191345
1716.000000	10.202608
1715.000000	10.224835
1714.000000	10.241051
1713.000000	10.233792
1712.000000	10.259284
1711.000000	10.295724
1710.000000	10.306663
1709.000000	10.313183
1708.000000	10.360591
1707.000000	10.336628
1706.000000	10.374196
1705.000000	10.403710
1704.000000	10.399804
1703.000000	10.361031
1702.000000	10.394277
1701.000000	10.395522
1700.000000	10.419571
1699.000000	10.387190
1698.000000	10.413797
1697.000000	10.444079
1696.000000	10.454759
1695.000000	10.442623
1694.000000	10.459784
1693.000000	10.487136
1692.000000	10.478998
1691.000000	10.485713
1690.000000	10.528047
1689.000000	10.552702
1688.000000	10.584024
1687.000000	10.579917
1686.000000	10.638410
1685.000000	10.643034
1684.000000	10.676310
1683.000000	10.721271
1682.000000	10.771298
1681.000000	10.802058
1680.000000	10.828759
1679.000000	10.852418
1678.000000	10.917318
1677.000000	10.945478
1676.000000	10.996559
1675.000000	11.016168
1674.000000	11.071724
1673.000000	11.111462
1672.000000	11.131525
1671.000000	11.158173
1670.000000	11.205172
1669.000000	11.217246
1668.000000	11.230160
1667.000000	11.258676
1666.000000	11.281872
1665.000000	11.257753
1664.000000	11.282813
1663.000000	11.309880
1662.000000	11.336938
1661.000000	11.337354
1660.000000	11.351052
1659.000000	11.377850
1658.000000	11.390723
1657.000000	11.415957
1656.000000	11.414414
1655.000000	11.433763
1654.000000	11.433146
1653.000000	11.431341
1652.000000	11.431603
1651.000000	11.422020
1650.000000	11.421238
1649.000000	11.408796
1648.000000	11.403791
1647.000000	11.389504
1646.000000	11.394283
1645.000000	11.391703
1644.000000	11.388892
1643.000000	11.348959
1642.000000	11.350663
1641.000000	11.333495
1640.000000	11.330056
1639.000000	11.320622
1638.000000	11.312780
1637.000000	11.306228
1636.000000	11.269886
1635.000000	11.263805
1634.000000	11.252343
1633.000000	11.234518
1632.000000	11.244380
1631.000000	11.227811
1630.000000	11.206638
1629.000000	11.194376
1628.000000	11.172131
1627.000000	11.174486
1626.000000	11.166954
1625.000000	11.138998
1624.000000	11.127934
1623.000000	11.109574
1622.000000	11.096815
1621.000000	11.078582
1620.000000	11.062512
1619.000000	11.043806
1618.000000	11.025608
1617.000000	11.009905
1616.000000	10.989098
1615.000000	10.970897
1614.000000	10.955964
1613.000000	10.938619
1612.000000	10.916523
1611.000000	10.911894
1610.000000	10.893135
1609.000000	10.876436
1608.000000	10.862850
1607.000000	10.843879
1606.000000	10.827974
1605.000000	10.823640
1604.000000	10.807676
1603.000000	10.774538
1602.000000	10.755912
1601.000000	10.742497
1600.000000	10.731846
1599.000000	10.724510
1598.000000	10.711673
1597.000000	10.694737
1596.000000	10.672434
1595.000000	10.651308
1594.000000	10.631600
1593.000000	10.616103
1592.000000	10.611813
1591.000000	10.612042
1590.000000	10.592910
1589.000000	10.561624
1588.000000	10.543536
1587.000000	10.535419
1586.000000	10.530032
1585.000000	10.518199
1584.000000	10.499848
1583.000000	10.499198
1582.000000	10.485635
1581.000000	10.465596
1580.000000	10.456974
1579.000000	10.443632
1578.000000	10.438138
1577.000000	10.434339
1576.000000	10.407461
1575.000000	10.380675
1574.000000	10.358829
1573.000000	10.355557
1572.000000	10.338627
1571.000000	10.320694
1570.000000	10.331970
1569.000000	10.329936
1568.000000	10.303457
1567.000000	10.291620
1566.000000	10.290923
1565.000000	10.263892
1564.000000	10.245123
1563.000000	10.255975
1562.000000	10.251387
1561.000000	10.250892
1560.000000	10.239881
1559.000000	10.206410
1558.000000	10.194372
1557.000000	10.190191
1556.000000	10.180839
1555.000000	10.168600
1554.000000	10.145471
1553.000000	10.133345
1552.000000	10.139454
1551.000000	10.113810
1550.000000	10.109106
1549.000000	10.088981
1548.000000	10.058275
1547.000000	10.050589
1546.000000	10.044546
1545.000000	10.028024
1544.000000	9.977723
1543.000000	9.949658
1542.000000	9.930937
1541.000000	9.910847
1540.000000	9.893463
1539.000000	9.862088
1538.000000	9.836329
1537.000000	9.814304
1536.000000	9.791074
1535.000000	9.755438
1534.000000	9.736986
1533.000000	9.734822
1532.000000	9.707528
1531.000000	9.687530
1530.000000	9.658968
1529.000000	9.635632
1528.000000	9.603842
1527.000000	9.583035
1526.000000	9.554049
1525.000000	9.543148
1524.000000	9.529877
1523.000000	9.516314
1522.000000	9.496203
1521.000000	9.473099
1520.000000	9.466863
1519.000000	9.459692
1518.000000	9.451001
1517.000000	9.449274
1516.000000	9.430564
1515.000000	9.428518
1514.000000	9.397945
1513.000000	9.401100
1512.000000	9.396048
1511.000000	9.375862
1510.000000	9.381567
1509.000000	9.380039
1508.000000	9.369501
1507.000000	9.357538
1506.000000	9.352779
1505.000000	9.358971
1504.000000	9.352650
1503.000000	9.349644
1502.000000	9.328241
1501.000000	9.337598
1500.000000	9.359895
1499.000000	9.395708
1498.000000	9.405527
1497.000000	9.378138
1496.000000	9.360752
1495.000000	9.353535
1494.000000	9.338099
1493.000000	9.347319
1492.000000	9.333926
1491.000000	9.354058
1490.000000	9.359494
1489.000000	9.338456
1488.000000	9.317053
1487.000000	9.323265
1486.000000	9.335392
1485.000000	9.343340
1484.000000	9.356593
1483.000000	9.365353
1482.000000	9.356990
1481.000000	9.371155
1480.000000	9.365705
1479.000000	9.374088
1478.000000	9.397435
1477.000000	9.383710
1476.000000	9.395256
1475.000000	9.403617
1474.000000	9.409252
1473.000000	9.400249
1472.000000	9.396394
1471.000000	9.405097
1470.000000	9.407671
1469.000000	9.416759
1468.000000	9.432978
1467.000000	9.454606
1466.000000	9.452833
1465.000000	9.446816
1464.000000	9.421314
1463.000000	9.461501
1462.000000	9.493541
1461.000000	9.486617
1460.000000	9.486651
1459.000000	9.507541
1458.000000	9.521404
1457.000000	9.514632
1456.000000	9.515033
1455.000000	9.531579
1454.000000	9.541202
1453.000000	9.577207
1452.000000	9.584923
1451.000000	9.565056
1450.000000	9.562224
1449.000000	9.602441
1448.000000	9.622384
1447.000000	9.618786
1446.000000	9.626992
1445.000000	9.632640
1444.000000	9.641484
1443.000000	9.670334
1442.000000	9.723616
1441.000000	9.728484
1440.000000	9.740553
1439.000000	9.757367
1438.000000	9.769124
1437.000000	9.789593
1436.000000	9.810971
1435.000000	9.843173
1434.000000	9.867257
1433.000000	9.892256
1432.000000	9.917319
1431.000000	9.939784
1430.000000	9.968058
1429.000000	10.015954
1428.000000	10.033833
1427.000000	10.063604
1426.000000	10.102197
1425.000000	10.148263
1424.000000	10.193719
1423.000000	10.234279
1422.000000	10.254678
1421.000000	10.287036
1420.000000	10.330243
1419.000000	10.379511
1418.000000	10.433001
1417.000000	10.479222
1416.000000	10.496282
1415.000000	10.545604
1414.000000	10.584436
1413.000000	10.623673
1412.000000	10.674870
1411.000000	10.743374
1410.000000	10.792731
1409.000000	10.823065
1408.000000	10.861353
1407.000000	10.921567
1406.000000	10.973014
1405.000000	11.015096
1404.000000	11.040221
1403.000000	11.085335
1402.000000	11.123960
1401.000000	11.169999
1400.000000	11.220409
1399.000000	11.266737
1398.000000	11.299669
1397.000000	11.330784
1396.000000	11.364288
1395.000000	11.389194
1394.000000	11.416661
1393.000000	11.455488
1392.000000	11.483733
1391.000000	11.500707
1390.000000	11.521936
1389.000000	11.548089
1388.000000	11.579019
1387.000000	11.593091
1386.000000	11.605211
1385.000000	11.631837
1384.000000	11.664331
1383.000000	11.671158
1382.000000	11.694779
1381.000000	11.739933
1380.000000	11.750815
1379.000000	11.747621
1378.000000	11.764223
1377.000000	11.774730
1376.000000	11.767058
1375.000000	11.755886
1374.000000	11.753937
1373.000000	11.776638
1372.000000	11.805458
1371.000000	11.808123
1370.000000	11.804196
1369.000000	11.794377
1368.000000	11.784792
1367.000000	11.781468
1366.000000	11.795276
1365.000000	11.796689
1364.000000	11.790397
1363.000000	11.802860
1362.000000	11.826508
1361.000000	11.847919
1360.000000	11.856416
1359.000000	11.856021
1358.000000	11.867991
1357.000000	11.876339
1356.000000	11.861324
1355.000000	11.866718
1354.000000	11.892141
1353.000000	11.898282
1352.000000	11.893357
1351.000000	11.878024
1350.000000	11.866096
1349.000000	11.877365
1348.000000	11.885752
1347.000000	11.895837
1346.000000	11.898053
1345.000000	11.891924
1344.000000	11.899661
1343.000000	11.911314
1342.000000	11.905632
1341.000000	11.888702
1340.000000	11.887930
1339.000000	11.921075
1338.000000	11.942208
1337.000000	11.926652
1336.000000	11.909711
1335.000000	11.905508
1334.000000	11.903982
1333.000000	11.912572
1332.000000	11.934679
1331.000000	11.935435
1330.000000	11.926570
1329.000000	11.919925
1328.000000	11.931011
1327.000000	11.942625
1326.000000	11.936240
1325.000000	11.939829
1324.000000	11.934323
1323.000000	11.927632
1322.000000	11.939775
1321.000000	11.932963
1320.000000	11.913576
1319.000000	11.901011
1318.000000	11.914489
1317.000000	11.939537
1316.000000	11.944284
1315.000000	11.922131
1314.000000	11.898609
1313.000000	11.871463
1312.000000	11.880748
1311.000000	11.907050
1310.000000	11.925508
1309.000000	11.895383
1308.000000	11.881265
1307.000000	11.848238
1306.000000	11.835757
1305.000000	11.845946
1304.000000	11.866518
1303.000000	11.860751
1302.000000	11.844788
1301.000000	11.827475
1300.000000	11.825859
1299.000000	11.810526
1298.000000	11.816930
1297.000000	11.799403
1296.000000	11.797950
1295.000000	11.797520
1294.000000	11.794342
1293.000000	11.797684
1292.000000	11.788765
1291.000000	11.785770
1290.000000	11.780197
1289.000000	11.774328
1288.000000	11.778285
1287.000000	11.777633
1286.000000	11.767786
1285.000000	11.784967
1284.000000	11.728793
1283.000000	11.708537
1282.000000	11.724315
1281.000000	11.727207
1280.000000	11.735085
1279.000000	11.722702
1278.000000	11.731285
1277.000000	11.705707
1276.000000	11.716282
1275.000000	11.708667
1274.000000	11.703988
1273.000000	11.702205
1272.000000	11.689170
1271.000000	11.702400
1270.000000	11.677703
1269.000000	11.676435
1268.000000	11.664361
1267.000000	11.667598
1266.000000	11.663057
1265.000000	11.696107
1264.000000	11.699143
1263.000000	11.698719
1262.000000	11.674206
1261.000000	11.671370
1260.000000	11.651485
1259.000000	11.668170
1258.000000	11.671274
1257.000000	11.650960
1256.000000	11.647775
1255.000000	11.623915
1254.000000	11.621199
1253.000000	11.617691
1252.000000	11.621307
1251.000000	11.604734
1250.000000	11.618667
1249.000000	11.598868
1248.000000	11.584531
1247.000000	11.591074
1246.000000	11.580769
1245.000000	11.573834
1244.000000	11.595084
1243.000000	11.583757
1242.000000	11.578736
1241.000000	11.556087
1240.000000	11.525757
1239.000000	11.524266
1238.000000	11.534265
1237.000000	11.526904
1236.000000	11.498532
1235.000000	11.476622
1234.000000	11.495594
1233.000000	11.481878
1232.000000	11.453071
1231.000000	11.446767
1230.000000	11.447521
1229.000000	11.456169
1228.000000	11.450289
1227.000000	11.420585
1226.000000	11.400258
1225.000000	11.392235
1224.000000	11.391924
1223.000000	11.406532
1222.000000	11.399616
1221.000000	11.372903
1220.000000	11.355536
1219.000000	11.349931
1218.000000	11.348742
1217.000000	11.345179
1216.000000	11.332097
1215.000000	11.329328
1214.000000	11.342172
1213.000000	11.335819
1212.000000	11.328884
1211.000000	11.311339
1210.000000	11.319296
1209.000000	11.313842
1208.000000	11.294109
1207.000000	11.284086
1206.000000	11.279107
1205.000000	11.252268
1204.000000	11.233718
1203.000000	11.246427
1202.000000	11.245293
1201.000000	11.237520
1200.000000	11.229380
1199.000000	11.207103
1198.000000	11.190205
1197.000000	11.160436
1196.000000	11.154322
1195.000000	11.151115
1194.000000	11.132176
1193.000000	11.124295
1192.000000	11.124508
1191.000000	11.109966
1190.000000	11.089507
1189.000000	11.055455
1188.000000	11.053221
1187.000000	11.066630
1186.000000	11.045581
1185.000000	11.046939
1184.000000	11.044253
1183.000000	11.043967
1182.000000	11.055797
1181.000000	11.065834
1180.000000	11.081416
1179.000000	11.092178
1178.000000	11.092171
1177.000000	11.103493
1176.000000	11.112199
1175.000000	11.117617
1174.000000	11.125089
1173.000000	11.129644
1172.000000	11.142674
1171.000000	11.145439
1170.000000	11.149966
1169.000000	11.155543
1168.000000	11.154649
1167.000000	11.159741
1166.000000	11.165649
1165.000000	11.170295
1164.000000	11.179143
1163.000000	11.190291
1162.000000	11.198948
1161.000000	11.213157
1160.000000	11.229361
1159.000000	11.229642
1158.000000	11.234624
1157.000000	11.248575
1156.000000	11.250768
1155.000000	11.245153
1154.000000	11.251777
1153.000000	11.250361
1152.000000	11.226405
1151.000000	11.225466
1150.000000	11.240319
1149.000000	11.259639
1148.000000	11.264391
1147.000000	11.268476
1146.000000	11.277777
1145.000000	11.283861
1144.000000	11.299997
1143.000000	11.303442
1142.000000	11.297976
1141.000000	11.290964
1140.000000	11.303512
1139.000000	11.308750
1138.000000	11.307154
1137.000000	11.297498
1136.000000	11.285291
1135.000000	11.289914
1134.000000	11.293985
1133.000000	11.296376
1132.000000	11.296828
1131.000000	11.313737
1130.000000	11.327514
1129.000000	11.329158
1128.000000	11.327902
1127.000000	11.329540
1126.000000	11.333963
1125.000000	11.313026
1124.000000	11.313717
1123.000000	11.297471
1122.000000	11.282097
1121.000000	11.274132
1120.000000	11.282670
1119.000000	11.280911
1118.000000	11.279373
1117.000000	11.286048
1116.000000	11.293732
1115.000000	11.281303
1114.000000	11.272021
1113.000000	11.279382
1112.000000	11.271845
1111.000000	11.265638
1110.000000	11.280039
1109.000000	11.279771
1108.000000	11.262867
1107.000000	11.269577
1106.000000	11.272021
1105.000000	11.260110
1104.000000	11.246708
1103.000000	11.252654
1102.000000	11.222221
1101.000000	11.204854
1100.000000	11.208029
1099.000000	11.215348
1098.000000	11.203938
1097.000000	11.213774
1096.000000	11.202161
1095.000000	11.208178
1094.000000	11.187347
1093.000000	11.168875
1092.000000	11.175150
1091.000000	11.176268
1090.000000	11.183251
1089.000000	11.178251
1088.000000	11.177742
1087.000000	11.161054
1086.000000	11.154875
1085.000000	11.165753
1084.000000	11.163762
1083.000000	11.156709
1082.000000	11.150631
1081.000000	11.148314
1080.000000	11.119638
1079.000000	11.110568
1078.000000	11.132738
1077.000000	11.131882
1076.000000	11.139517
1075.000000	11.133948
1074.000000	11.117281
1073.000000	11.082238
1072.000000	11.075191
1071.000000	11.083324
1070.000000	11.070442
1069.000000	11.099789
1068.000000	11.088097
1067.000000	11.083468
1066.000000	11.058340
1065.000000	11.055768
1064.000000	11.054597
1063.000000	11.075168
1062.000000	11.059749
1061.000000	11.061217
1060.000000	11.067336
1059.000000	11.035824
1058.000000	11.019662
1057.000000	11.016018
1056.000000	11.017490
1055.000000	11.028693
1054.000000	11.001601
1053.000000	10.985869
1052.000000	10.998080
1051.000000	10.995705
1050.000000	11.003672
1049.000000	10.977757
1048.000000	10.944487
1047.000000	10.980475
1046.000000	10.991401
1045.000000	10.984755
1044.000000	10.956785
1043.000000	10.947718
1042.000000	10.963667
1041.000000	10.961820
1040.000000	10.930501
1039.000000	10.927631
1038.000000	10.941822
1037.000000	10.949545
1036.000000	10.911637
1035.000000	10.921702
1034.000000	10.909666
1033.000000	10.907327
1032.000000	10.907797
1031.000000	10.909525
1030.000000	10.908876
1029.000000	10.916983
1028.000000	10.901538
1027.000000	10.884756
1026.000000	10.895087
1025.000000	10.888943
1024.000000	10.883804
1023.000000	10.872635
1022.000000	10.852842
1021.000000	10.854526
1020.000000	10.879631
1019.000000	10.874951
1018.000000	10.865251
1017.000000	10.851416
1016.000000	10.871984
1015.000000	10.854197
1014.000000	10.844635
1013.000000	10.840570
1012.000000	10.833892
1011.000000	10.827779
1010.000000	10.833753
1009.000000	10.817476
1008.000000	10.834229
1007.000000	10.842183
1006.000000	10.859982
1005.000000	10.864973
1004.000000	10.860065
1003.000000	10.851578
1002.000000	10.867016
1001.000000	10.872441
1000.000000	10.872990
999.000000	10.865360
998.000000	10.869911
997.000000	10.866814
996.000000	10.855921
995.000000	10.843674
994.000000	10.852572
993.000000	10.842960
992.000000	10.840444
991.000000	10.836932
990.000000	10.841492
989.000000	10.832339
988.000000	10.824682
987.000000	10.816253
986.000000	10.807501
985.000000	10.821949
984.000000	10.820981
983.000000	10.812849
982.000000	10.802634
981.000000	10.796465
980.000000	10.791269
979.000000	10.772749
978.000000	10.781790
977.000000	10.784397
976.000000	10.776807
975.000000	10.783089
974.000000	10.771222
973.000000	10.755184
972.000000	10.743754
971.000000	10.750170
970.000000	10.738854
969.000000	10.738800
968.000000	10.742704
967.000000	10.737981
966.000000	10.730898
965.000000	10.724153
964.000000	10.720088
963.000000	10.713231
962.000000	10.708908
961.000000	10.692864
960.000000	10.693678
959.000000	10.695079
958.000000	10.698965
957.000000	10.692097
956.000000	10.681085
955.000000	10.689117
954.000000	10.687018
953.000000	10.677238
952.000000	10.666655
951.000000	10.657996
950.000000	10.645242
949.000000	10.638970
948.000000	10.628908
947.000000	10.613239
946.000000	10.622134
945.000000	10.639143
944.000000	10.630877
943.000000	10.610791
942.000000	10.602432
941.000000	10.602821
940.000000	10.598315
939.000000	10.589617
938.000000	10.591067
937.000000	10.592250
936.000000	10.568709
935.000000	10.562156
934.000000	10.549613
933.000000	10.540874
932.000000	10.526887
931.000000	10.511943
930.000000	10.537131
929.000000	10.532591
928.000000	10.491552
927.000000	10.500248
926.000000	10.513338
925.000000	10.492776
924.000000	10.478762
923.000000	10.466900
922.000000	10.477886
921.000000	10.456125
920.000000	10.444306
919.000000	10.444970
918.000000	10.443910
917.000000	10.437682
916.000000	10.447401
915.000000	10.442357
914.000000	10.390977
913.000000	10.369101
912.000000	10.370660
911.000000	10.394892
910.000000	10.422471
909.000000	10.422108
908.000000	10.399819
907.000000	10.380520
906.000000	10.385237
905.000000	10.350720
904.000000	10.338273
903.000000	10.337094
902.000000	10.349200
901.000000	10.356163
900.000000	10.365132
899.000000	10.338422
898.000000	10.320191
897.000000	10.308477
896.000000	10.280411
895.000000	10.268368
894.000000	10.281543
893.000000	10.306056
892.000000	10.358074
891.000000	10.294807
890.000000	10.267268
889.000000	10.229951
888.000000	10.175370
887.000000	10.183092
886.000000	10.265051
885.000000	10.291558
884.000000	10.270390
883.000000	10.265542
882.000000	10.256204
881.000000	10.211915
880.000000	10.249598
879.000000	10.225215
878.000000	10.172845
877.000000	10.133206
876.000000	10.241089
875.000000	10.195280
874.000000	10.160620
873.000000	10.187377
872.000000	10.133881
871.000000	10.062818
870.000000	10.110913
869.000000	10.083174
868.000000	10.070162
867.000000	10.090200
866.000000	10.085076
865.000000	10.114623
864.000000	10.120168
863.000000	10.148198
862.000000	10.106524
861.000000	10.049659
860.000000	10.023984
859.000000	10.214216
858.000000	10.139524
857.000000	10.188337
856.000000	10.203337
855.000000	10.075751
854.000000	10.061003
853.000000	10.102134
852.000000	10.239441
851.000000	10.155274
850.000000	10.151820
849.000000	10.079139
848.000000	10.105659
847.000000	9.998786
846.000000	9.998063
845.000000	10.070392
844.000000	9.957446
843.000000	10.007572
842.000000	9.957082
841.000000	9.951049
840.000000	9.988737
839.000000	9.981927
838.000000	9.896688
837.000000	9.975367
836.000000	9.848032
835.000000	9.888002
834.000000	9.887702
833.000000	9.894489
832.000000	9.943201
831.000000	9.839095
830.000000	9.849941
829.000000	9.807558
828.000000	9.787483
827.000000	9.779753
826.000000	9.757566
825.000000	9.724423
824.000000	9.744901
823.000000	9.736759
822.000000	9.724945
821.000000	9.713487
820.000000	9.638124
819.000000	9.667489
818.000000	9.664348
817.000000	9.640174
816.000000	9.661367
815.000000	9.613712
814.000000	9.591946
813.000000	9.546210
812.000000	9.568754
811.000000	9.525321
810.000000	9.535371
809.000000	9.551398
808.000000	9.530098
807.000000	9.527400
806.000000	9.472963
805.000000	9.520483
804.000000	9.493027
803.000000	9.499255
802.000000	9.447506
801.000000	9.420836
800.000000	9.416092
799.000000	9.410835
798.000000	9.388897
797.000000	9.361073
796.000000	9.380859
795.000000	9.386540
794.000000	9.350965
793.000000	9.310123
792.000000	9.290934
791.000000	9.298645
790.000000	9.277325
789.000000	9.250535
788.000000	9.265157
787.000000	9.216445
786.000000	9.201532
785.000000	9.185795
784.000000	9.152987
783.000000	9.147515
782.000000	9.134680
781.000000	9.131930
780.000000	9.123263
779.000000	9.085891
778.000000	9.064194
777.000000	9.069259
776.000000	9.065374
775.000000	9.036800
774.000000	9.013679
773.000000	9.000698
772.000000	8.986072
771.000000	8.956612
770.000000	8.965358
769.000000	8.947882
768.000000	8.911100
767.000000	8.919126
766.000000	8.879142
765.000000	8.849449
764.000000	8.844258
763.000000	8.828339
762.000000	8.828489
761.000000	8.789492
760.000000	8.793064
759.000000	8.777906
758.000000	8.733669
757.000000	8.738841
756.000000	8.710407
755.000000	8.691422
754.000000	8.671999
753.000000	8.658191
752.000000	8.629294
751.000000	8.604284
750.000000	8.580661
749.000000	8.567308
748.000000	8.555139
747.000000	8.540472
746.000000	8.514229
745.000000	8.497039
744.000000	8.493427
743.000000	8.457552
742.000000	8.418987
741.000000	8.409022
740.000000	8.397759
739.000000	8.384442
738.000000	8.384618
737.000000	8.352078
736.000000	8.331993
735.000000	8.311681
734.000000	8.291431
733.000000	8.266463
732.000000	8.240149
731.000000	8.227669
730.000000	8.209103
729.000000	8.195097
728.000000	8.165049
727.000000	8.151789
726.000000	8.130429
725.000000	8.099203
724.000000	8.080341
723.000000	8.062888
722.000000	8.054163
721.000000	8.040213
720.000000	8.010034
719.000000	7.987893
718.000000	7.968762
717.000000	7.948131
716.000000	7.920223
715.000000	7.894301
714.000000	7.879813
713.000000	7.863645
712.000000	7.849294
711.000000	7.824970
710.000000	7.806909
709.000000	7.788932
708.000000	7.754135
707.000000	7.727226
706.000000	7.708052
705.000000	7.687687
704.000000	7.659573
703.000000	7.638279
702.000000	7.616344
701.000000	7.585896
700.000000	7.565784
699.000000	7.548886
698.000000	7.535748
697.000000	7.507434
696.000000	7.479301
695.000000	7.453458
694.000000	7.425458
693.000000	7.415463
692.000000	7.395202
691.000000	7.363968
690.000000	7.331605
689.000000	7.296776
688.000000	7.257411
687.000000	7.230618
686.000000	7.211697
685.000000	7.197272
684.000000	7.182383
683.000000	7.151892
682.000000	7.128724
681.000000	7.095823
680.000000	7.064538
679.000000	7.057672
678.000000	7.030609
677.000000	7.006318
676.000000	6.974460
675.000000	6.941909
674.000000	6.920168
673.000000	6.898606
672.000000	6.875594
671.000000	6.853178
670.000000	6.820983
669.000000	6.794939
668.000000	6.771333
667.000000	6.757822
666.000000	6.727735
665.000000	6.699625
664.000000	6.683372
663.000000	6.647662
662.000000	6.614860
661.000000	6.598163
660.000000	6.583406
659.000000	6.566107
658.000000	6.530832
657.000000	6.495976
656.000000	6.469688
655.000000	6.452437
654.000000	6.429918
653.000000	6.405713
652.000000	6.376684
651.000000	6.348394
650.000000	6.316866
649.000000	6.291477
648.000000	6.276568
647.000000	6.248051
646.000000	6.216216
645.000000	6.194308
644.000000	6.166202
643.000000	6.138226
642.000000	6.113189
641.000000	6.078075
640.000000	6.051603
639.000000	6.035293
638.000000	6.004513
637.000000	5.983590
636.000000	5.954352
635.000000	5.920137
634.000000	5.894227
633.000000	5.867621
632.000000	5.843409
631.000000	5.817981
630.000000	5.789617
629.000000	5.765041
628.000000	5.740808
627.000000	5.716999
626.000000	5.683639
625.000000	5.661929
624.000000	5.641214
623.000000	5.601935
622.000000	5.567379
621.000000	5.537135
620.000000	5.517557
619.000000	5.492712
618.000000	5.464550
617.000000	5.424625
616.000000	5.408543
615.000000	5.379765
614.000000	5.347777
613.000000	5.321530
612.000000	5.285005
611.000000	5.253626
610.000000	5.233314
609.000000	5.206564
608.000000	5.181243
607.000000	5.159026
606.000000	5.121925
605.000000	5.089170
604.000000	5.063277
603.000000	5.044447
602.000000	5.000698
601.000000	4.978893
600.000000	4.948545
599.000000	4.918766
598.000000	4.888215
597.000000	4.851681
596.000000	4.831828
595.000000	4.796856
594.000000	4.773832
593.000000	4.746700
592.000000	4.706686
591.000000	4.682390
590.000000	4.648238
589.000000	4.622745
588.000000	4.593180
587.000000	4.560975
586.000000	4.535075
585.000000	4.503943
584.000000	4.462589
583.000000	4.439700
582.000000	4.416142
581.000000	4.377258
580.000000	4.353586
579.000000	4.319439
578.000000	4.293703
577.000000	4.264940
576.000000	4.231155
575.000000	4.201275
574.000000	4.163906
573.000000	4.136909
572.000000	4.108183
571.000000	4.080754
570.000000	4.051294
569.000000	4.020727
568.000000	3.986099
567.000000	3.959755
566.000000	3.923924
565.000000	3.897006
564.000000	3.867207
563.000000	3.833347
562.000000	3.804897
561.000000	3.791687
560.000000	3.760245
559.000000	3.729327
558.000000	3.703463
557.000000	3.671755
556.000000	3.640288
555.000000	3.609685
554.000000	3.577247
553.000000	3.548776
552.000000	3.520382
551.000000	3.492483
550.000000	3.466655
549.000000	3.433731
548.000000	3.402393
547.000000	3.369653
546.000000	3.343432
545.000000	3.317669
544.000000	3.284566
543.000000	3.258022
542.000000	3.222732
541.000000	3.195946
540.000000	3.167590
539.000000	3.140457
538.000000	3.106946
537.000000	3.075024
536.000000	3.044952
535.000000	3.017842
534.000000	2.989089
533.000000	2.963358
532.000000	2.936263
531.000000	2.902598
530.000000	2.873411
529.000000	2.843508
528.000000	2.814634
527.000000	2.788985
526.000000	2.760414
525.000000	2.729786
524.000000	2.700411
523.000000	2.672029
522.000000	2.642393
521.000000	2.618638
520.000000	2.588522
519.000000	2.559234
518.000000	2.528614
517.000000	2.501264
516.000000	2.475286
515.000000	2.449441
514.000000	2.421412
513.000000	2.391244
512.000000	2.366144
511.000000	2.338485
510.000000	2.315495
509.000000	2.286297
508.000000	2.258158
507.000000	2.234907
506.000000	2.203807
505.000000	2.177990
504.000000	2.153939
503.000000	2.134299
502.000000	2.107584
501.000000	2.080603
500.000000	2.057048
499.000000	2.033632
498.000000	2.006911
497.000000	1.985336
496.000000	1.958336
495.000000	1.937409
494.000000	1.915153
493.000000	1.892708
492.000000	1.869759
491.000000	1.853677
490.000000	1.834249
489.000000	1.807508
488.000000	1.786833
487.000000	1.769712
486.000000	1.745088
485.000000	1.733742
484.000000	1.713963
483.000000	1.693662
482.000000	1.670797
481.000000	1.646482
480.000000	1.625423
479.000000	1.602048
478.000000	1.577220
477.000000	1.554124
476.000000	1.527423
475.000000	1.506899
474.000000	1.489966
473.000000	1.470595
472.000000	1.447655
471.000000	1.422705
470.000000	1.401370
469.000000	1.383454
468.000000	1.363595
467.000000	1.346965
466.000000	1.322200
465.000000	1.298838
464.000000	1.280373
463.000000	1.260902
462.000000	1.239838
461.000000	1.216210
460.000000	1.195752
459.000000	1.173198
458.000000	1.154703
457.000000	1.140356
456.000000	1.121801
455.000000	1.099911
454.000000	1.076057
453.000000	1.058886
452.000000	1.044837
451.000000	1.024257
450.000000	1.004222
449.000000	0.989828
448.000000	0.971005
447.000000	0.950140
446.000000	0.934719
445.000000	0.918998
444.000000	0.904548
443.000000	0.891838
442.000000	0.873824
441.000000	0.855037
440.000000	0.836999
439.000000	0.825887
438.000000	0.809334
437.000000	0.791394
436.000000	0.776959
435.000000	0.762584
434.000000	0.746748
433.000000	0.735034
432.000000	0.723285
431.000000	0.712906
430.000000	0.693896
429.000000	0.674920
428.000000	0.662550
427.000000	0.654540
426.000000	0.641374
425.000000	0.627734
424.000000	0.608911
423.000000	0.593805
422.000000	0.581610
421.000000	0.569345
420.000000	0.565577
419.000000	0.546052
418.000000	0.529908
417.000000	0.514175
416.000000	0.501070
415.000000	0.492457
414.000000	0.486443
413.000000	0.472518
412.000000	0.455996
411.000000	0.442898
410.000000	0.431598
409.000000	0.421479
408.000000	0.412313
407.000000	0.395696
406.000000	0.383845
405.000000	0.375007
404.000000	0.362295
403.000000	0.353146
402.000000	0.343570
401.000000	0.330167
400.000000	0.320278
399.000000	0.308709
398.000000	0.298877
397.000000	0.289733
396.000000	0.285136
395.000000	0.275871
394.000000	0.262589
393.000000	0.256862
392.000000	0.246044
391.000000	0.239787
390.000000	0.234254
389.000000	0.222140
388.000000	0.216529
387.000000	0.203942
386.000000	0.193338
385.000000	0.186660
384.000000	0.183987
383.000000	0.178063
382.000000	0.174982
381.000000	0.164093
380.000000	0.155866
379.000000	0.155040
378.000000	0.149496
377.000000	0.157583
376.000000	0.149234
375.000000	0.151113
374.000000	0.144010
373.000000	0.130895
372.000000	0.132901
371.000000	0.126094
370.000000	0.121563
369.000000	0.115485
368.000000	0.118755
367.000000	0.104789
366.000000	0.089433
365.000000	0.096164
364.000000	0.090256
363.000000	0.090480
362.000000	0.099444
361.000000	0.087923
360.000000	0.089326
359.000000	0.087062
358.000000	0.079098
357.000000	0.077536
356.000000	0.074391
355.000000	0.068465
354.000000	0.070619
353.000000	0.066156
352.000000	0.070273
351.000000	0.068753
350.000000	0.068383
349.000000	0.073003
348.000000	0.054075
347.000000	0.064399
346.000000	0.055891
345.000000	0.062492
344.000000	0.067520
343.000000	0.070540
342.000000	0.057567
341.000000	0.052796
340.000000	0.062930
339.000000	0.047176
338.000000	0.046610
337.000000	0.039070
336.000000	0.036665
335.000000	0.049219
334.000000	0.032136
333.000000	0.047959
332.000000	0.031154
331.000000	0.041027
330.000000	0.050966
329.000000	0.062427
328.000000	0.024181
327.000000	0.064474
326.000000	0.052354
325.000000	0.042382
324.000000	0.026247
323.000000	0.041246
322.000000	0.073023
321.000000	0.038683
320.000000	0.047787
319.000000	0.078037
318.000000	0.038428
317.000000	0.026818
316.000000	0.040273
315.000000	0.042789
314.000000	0.046800
313.000000	0.038889
312.000000	0.030406
311.000000	0.037007
310.000000	0.032838
309.000000	0.029962
308.000000	0.048765
307.000000	0.032607
306.000000	0.032547
305.000000	0.034987
304.000000	0.032414
303.000000	0.030731
302.000000	0.034285
301.000000	0.030660
300.000000	0.024390
299.000000	0.033199
298.000000	0.028130
297.000000	0.046981
296.000000	0.045063
295.000000	0.031535
294.000000	0.035271
293.000000	0.048597
292.000000	0.044967
291.000000	0.041277
290.000000	0.033061
289.000000	0.040572
288.000000	0.032116
287.000000	0.032310
286.000000	0.028121
285.000000	0.026226
284.000000	0.033239
283.000000	0.041130
282.000000	0.028216
281.000000	0.029259
280.000000	0.032888
279.000000	0.041740
278.000000	0.046016
277.000000	0.037031
276.000000	0.038530
275.000000	0.039721
274.000000	0.047734
273.000000	0.055481
272.000000	0.057285
271.000000	0.050722
270.000000	0.053499
269.000000	0.047654
268.000000	0.055392
267.000000	0.060229
266.000000	0.062724
265.000000	0.051866
264.000000	0.051033
263.000000	0.045086
262.000000	0.046003
261.000000	0.060919
260.000000	0.065764
259.000000	0.061989
258.000000	0.056933
257.000000	0.057961
256.000000	0.055569
255.000000	0.068340
254.000000	0.071186
253.000000	0.066368
252.000000	0.071910
251.000000	0.069038
250.000000	0.065018
249.000000	0.066221
248.000000	0.072978
247.000000	0.064040
246.000000	0.070298
245.000000	0.068713
244.000000	0.073574
243.000000	0.063888
242.000000	0.065505
241.000000	0.059139
240.000000	0.044123
239.000000	0.053815
238.000000	0.044298
237.000000	0.034913
236.000000	0.037509
235.000000	0.048593
234.000000	0.045679
233.000000	0.032003
232.000000	0.040511
231.000000	0.047039
230.000000	0.039128
229.000000	0.035919
228.000000	0.031045
227.000000	0.026918
226.000000	0.019416
225.000000	0.015225
224.000000	0.042603
223.000000	0.022175
222.000000	0.010683
221.000000	0.016657
220.000000	0.008092
219.000000	-0.000533
218.000000	0.010048
217.000000	0.022338
216.000000	0.013240
215.000000	0.009589
214.000000	0.028449
213.000000	0.039006
212.000000	0.047418
211.000000	0.027800
210.000000	0.012144
209.000000	0.008118
208.000000	0.037240
207.000000	0.073525
206.000000	0.059557
205.000000	0.056921
204.000000	0.047994
203.000000	0.045932
202.000000	0.120314
201.000000	0.388346
200.000000	0.595297
