PE UV       SUBTECH     SPECTRUM    ASCII       PEDS        4.00        
   -1
TTms499172.Sample.asc
18/03/23
10:18:29.00
18/03/23
10:18:29.00
Administrator

200.000000
1
Lambda 750
750N8071901
PerkinElmer UV WinLab 6.0.4.0738 / 1.61.00 Lambda 900

0
0
3350/servo 860.8/2
0
0
UV/VIS
1
1
1
CommonBeamDepol,150mm sphere / downward view
0
0
0
0
Program
Program
3350/servo 860.8/2
3350/0.2 860.8/0.2
3350/0.2 860.8/0.2
0
1
 
 
 
0
 
860.8
319.2
860.8
Front
100
on
 
 
0
0
0
 
0
 
 
 
0
 
 
0
0
0
0
0
 
 
 
 
0
0


0
0
#HDR
-1
-1
#GR
nm
%T
1.0
0.0
2350.000000
-1.000000
2151
8
11.944167
-0.004410
#DATA
2350.000000	5.134769
2349.000000	5.252935
2348.000000	5.510799
2347.000000	6.074736
2346.000000	5.454006
2345.000000	5.234856
2344.000000	5.071395
2343.000000	5.109939
2342.000000	5.340153
2341.000000	5.289002
2340.000000	5.461155
2339.000000	5.879688
2338.000000	5.856704
2337.000000	5.772242
2336.000000	5.994309
2335.000000	5.766876
2334.000000	5.973409
2333.000000	5.923837
2332.000000	5.983158
2331.000000	5.897571
2330.000000	5.926560
2329.000000	5.926631
2328.000000	5.743528
2327.000000	5.899313
2326.000000	5.761886
2325.000000	5.690867
2324.000000	5.754115
2323.000000	5.974647
2322.000000	5.674208
2321.000000	5.691972
2320.000000	5.746557
2319.000000	5.708916
2318.000000	5.398045
2317.000000	5.529447
2316.000000	5.904669
2315.000000	5.594436
2314.000000	5.434220
2313.000000	5.399138
2312.000000	5.305478
2311.000000	5.278418
2310.000000	5.413233
2309.000000	5.390648
2308.000000	5.440981
2307.000000	5.400604
2306.000000	5.409014
2305.000000	5.338748
2304.000000	5.261426
2303.000000	5.276997
2302.000000	5.441026
2301.000000	5.527265
2300.000000	5.211696
2299.000000	5.220025
2298.000000	5.243064
2297.000000	5.374240
2296.000000	5.419656
2295.000000	5.251719
2294.000000	5.195982
2293.000000	5.196190
2292.000000	5.076909
2291.000000	5.102417
2290.000000	5.135843
2289.000000	5.041522
2288.000000	5.033768
2287.000000	5.162675
2286.000000	5.119835
2285.000000	4.977919
2284.000000	5.045436
2283.000000	5.175336
2282.000000	5.110193
2281.000000	5.247943
2280.000000	5.291961
2279.000000	5.216037
2278.000000	5.106975
2277.000000	5.173528
2276.000000	5.166250
2275.000000	5.238018
2274.000000	5.242271
2273.000000	5.294343
2272.000000	5.375839
2271.000000	5.379073
2270.000000	5.301982
2269.000000	5.282406
2268.000000	5.289943
2267.000000	5.317938
2266.000000	5.407033
2265.000000	5.410333
2264.000000	5.408092
2263.000000	5.504234
2262.000000	5.544047
2261.000000	5.642486
2260.000000	5.697544
2259.000000	5.783097
2258.000000	5.761458
2257.000000	5.871387
2256.000000	5.925900
2255.000000	5.902817
2254.000000	5.994216
2253.000000	6.034406
2252.000000	5.908994
2251.000000	6.058649
2250.000000	6.261432
2249.000000	6.294489
2248.000000	6.319886
2247.000000	6.345347
2246.000000	6.427117
2245.000000	6.469408
2244.000000	6.592635
2243.000000	6.661939
2242.000000	6.743617
2241.000000	6.744400
2240.000000	6.579449
2239.000000	6.686111
2238.000000	6.755397
2237.000000	6.764526
2236.000000	6.816729
2235.000000	6.806454
2234.000000	6.894378
2233.000000	6.889925
2232.000000	6.899030
2231.000000	6.897772
2230.000000	6.920421
2229.000000	7.088545
2228.000000	7.154285
2227.000000	7.067942
2226.000000	6.976222
2225.000000	6.905359
2224.000000	6.906212
2223.000000	6.949923
2222.000000	6.960357
2221.000000	6.906789
2220.000000	6.988427
2219.000000	6.988255
2218.000000	6.948094
2217.000000	6.925108
2216.000000	6.912819
2215.000000	6.746199
2214.000000	6.718102
2213.000000	6.828266
2212.000000	6.858245
2211.000000	6.922434
2210.000000	6.853234
2209.000000	6.731648
2208.000000	6.731028
2207.000000	6.745213
2206.000000	6.739012
2205.000000	6.656189
2204.000000	6.668148
2203.000000	6.659312
2202.000000	6.632039
2201.000000	6.524375
2200.000000	6.491924
2199.000000	6.609458
2198.000000	6.673036
2197.000000	6.583670
2196.000000	6.530371
2195.000000	6.449671
2194.000000	6.472854
2193.000000	6.389507
2192.000000	6.252147
2191.000000	6.319578
2190.000000	6.336875
2189.000000	6.327144
2188.000000	6.382974
2187.000000	6.329285
2186.000000	6.266061
2185.000000	6.222852
2184.000000	6.327501
2183.000000	6.212324
2182.000000	6.227491
2181.000000	6.317529
2180.000000	6.204541
2179.000000	6.177104
2178.000000	6.163907
2177.000000	6.220935
2176.000000	6.196742
2175.000000	6.195705
2174.000000	6.172886
2173.000000	6.243965
2172.000000	6.204153
2171.000000	6.304714
2170.000000	6.290568
2169.000000	6.320198
2168.000000	6.422311
2167.000000	6.399181
2166.000000	6.362903
2165.000000	6.371244
2164.000000	6.502889
2163.000000	6.453353
2162.000000	6.513962
2161.000000	6.272354
2160.000000	6.359722
2159.000000	6.448080
2158.000000	6.529464
2157.000000	6.729612
2156.000000	6.621874
2155.000000	6.498282
2154.000000	6.576012
2153.000000	6.849178
2152.000000	6.765625
2151.000000	6.925806
2150.000000	6.946110
2149.000000	6.872681
2148.000000	6.799246
2147.000000	6.856259
2146.000000	6.939669
2145.000000	7.016912
2144.000000	7.159070
2143.000000	7.119488
2142.000000	7.196663
2141.000000	7.132796
2140.000000	7.155284
2139.000000	7.098248
2138.000000	7.193986
2137.000000	7.126280
2136.000000	7.063470
2135.000000	7.113312
2134.000000	7.106300
2133.000000	7.165372
2132.000000	7.357939
2131.000000	7.384703
2130.000000	7.291339
2129.000000	7.340822
2128.000000	7.305419
2127.000000	7.463818
2126.000000	7.221740
2125.000000	7.294398
2124.000000	7.400638
2123.000000	7.411602
2122.000000	7.566492
2121.000000	7.449296
2120.000000	7.399489
2119.000000	7.402830
2118.000000	7.428123
2117.000000	7.317204
2116.000000	7.287376
2115.000000	7.360150
2114.000000	7.504151
2113.000000	7.405075
2112.000000	7.402866
2111.000000	7.444004
2110.000000	7.408186
2109.000000	7.491477
2108.000000	7.513802
2107.000000	7.499919
2106.000000	7.390893
2105.000000	7.462357
2104.000000	7.412519
2103.000000	7.354713
2102.000000	7.569320
2101.000000	7.475526
2100.000000	7.461993
2099.000000	7.390646
2098.000000	7.518254
2097.000000	7.474231
2096.000000	7.355215
2095.000000	7.392426
2094.000000	7.390645
2093.000000	7.317866
2092.000000	7.350133
2091.000000	7.441722
2090.000000	7.467615
2089.000000	7.421890
2088.000000	7.360622
2087.000000	7.386262
2086.000000	7.406515
2085.000000	7.398725
2084.000000	7.387833
2083.000000	7.307985
2082.000000	7.259760
2081.000000	7.293126
2080.000000	7.198754
2079.000000	7.146350
2078.000000	7.151714
2077.000000	7.183381
2076.000000	7.219127
2075.000000	7.173269
2074.000000	7.153775
2073.000000	7.140251
2072.000000	7.026213
2071.000000	7.008272
2070.000000	7.019613
2069.000000	6.917312
2068.000000	6.944957
2067.000000	6.863783
2066.000000	6.820335
2065.000000	6.791416
2064.000000	6.779572
2063.000000	6.675775
2062.000000	6.628115
2061.000000	6.638385
2060.000000	6.629679
2059.000000	6.502747
2058.000000	6.494656
2057.000000	6.493778
2056.000000	6.501156
2055.000000	6.456119
2054.000000	6.386245
2053.000000	6.275121
2052.000000	6.258628
2051.000000	6.203744
2050.000000	6.186314
2049.000000	6.111898
2048.000000	6.125485
2047.000000	6.160058
2046.000000	6.062519
2045.000000	6.090060
2044.000000	6.127835
2043.000000	6.145680
2042.000000	6.155637
2041.000000	6.166390
2040.000000	6.141193
2039.000000	6.091350
2038.000000	6.118339
2037.000000	6.156222
2036.000000	6.166907
2035.000000	6.175576
2034.000000	6.179222
2033.000000	6.245645
2032.000000	6.317997
2031.000000	6.295001
2030.000000	6.300980
2029.000000	6.346511
2028.000000	6.356694
2027.000000	6.384796
2026.000000	6.456060
2025.000000	6.456166
2024.000000	6.451308
2023.000000	6.470275
2022.000000	6.458474
2021.000000	6.454797
2020.000000	6.485807
2019.000000	6.490790
2018.000000	6.483029
2017.000000	6.487923
2016.000000	6.472623
2015.000000	6.464915
2014.000000	6.450935
2013.000000	6.421305
2012.000000	6.410981
2011.000000	6.416825
2010.000000	6.410678
2009.000000	6.349687
2008.000000	6.308596
2007.000000	6.295719
2006.000000	6.300366
2005.000000	6.258323
2004.000000	6.203764
2003.000000	6.196148
2002.000000	6.170548
2001.000000	6.146933
2000.000000	6.135576
1999.000000	6.073565
1998.000000	6.033128
1997.000000	5.993729
1996.000000	5.954903
1995.000000	5.909298
1994.000000	5.881013
1993.000000	5.861853
1992.000000	5.806552
1991.000000	5.765994
1990.000000	5.742917
1989.000000	5.692521
1988.000000	5.679724
1987.000000	5.664441
1986.000000	5.635179
1985.000000	5.557426
1984.000000	5.520094
1983.000000	5.531687
1982.000000	5.506444
1981.000000	5.480683
1980.000000	5.458172
1979.000000	5.407800
1978.000000	5.387030
1977.000000	5.344617
1976.000000	5.284977
1975.000000	5.267052
1974.000000	5.239997
1973.000000	5.282026
1972.000000	5.265489
1971.000000	5.184196
1970.000000	5.143736
1969.000000	5.114210
1968.000000	5.080988
1967.000000	5.051887
1966.000000	5.048042
1965.000000	5.031045
1964.000000	4.986768
1963.000000	4.950197
1962.000000	4.942366
1961.000000	4.885636
1960.000000	4.899455
1959.000000	4.857112
1958.000000	4.820223
1957.000000	4.841785
1956.000000	4.798717
1955.000000	4.823086
1954.000000	4.762108
1953.000000	4.765416
1952.000000	4.728409
1951.000000	4.765400
1950.000000	4.725285
1949.000000	4.763851
1948.000000	4.759725
1947.000000	4.655588
1946.000000	4.725828
1945.000000	4.724184
1944.000000	4.704365
1943.000000	4.730134
1942.000000	4.718837
1941.000000	4.778326
1940.000000	4.761392
1939.000000	4.749806
1938.000000	4.757803
1937.000000	4.806718
1936.000000	4.857682
1935.000000	4.890655
1934.000000	4.979561
1933.000000	4.973256
1932.000000	4.967037
1931.000000	4.976933
1930.000000	5.005928
1929.000000	5.008573
1928.000000	5.136638
1927.000000	5.220328
1926.000000	5.215535
1925.000000	5.352929
1924.000000	5.391888
1923.000000	5.475706
1922.000000	5.516842
1921.000000	5.558698
1920.000000	5.671261
1919.000000	5.773976
1918.000000	5.857897
1917.000000	5.987759
1916.000000	5.936193
1915.000000	6.096356
1914.000000	6.277836
1913.000000	6.417895
1912.000000	6.486435
1911.000000	6.552302
1910.000000	6.613892
1909.000000	6.775552
1908.000000	6.888390
1907.000000	7.061415
1906.000000	7.127650
1905.000000	7.328732
1904.000000	7.411905
1903.000000	7.589061
1902.000000	7.715305
1901.000000	7.837329
1900.000000	7.952293
1899.000000	8.126740
1898.000000	8.288513
1897.000000	8.447913
1896.000000	8.586647
1895.000000	8.749427
1894.000000	8.852675
1893.000000	9.052594
1892.000000	9.165472
1891.000000	9.273623
1890.000000	9.390188
1889.000000	9.500249
1888.000000	9.693640
1887.000000	9.771916
1886.000000	9.919504
1885.000000	10.004558
1884.000000	10.111854
1883.000000	10.217706
1882.000000	10.328448
1881.000000	10.423106
1880.000000	10.527534
1879.000000	10.637557
1878.000000	10.706209
1877.000000	10.758516
1876.000000	10.816146
1875.000000	10.906456
1874.000000	10.958578
1873.000000	11.043841
1872.000000	11.117546
1871.000000	11.143199
1870.000000	11.155955
1869.000000	11.202810
1868.000000	11.273481
1867.000000	11.276731
1866.000000	11.325143
1865.000000	11.321239
1864.000000	11.299603
1863.000000	11.341893
1862.000000	11.302835
1861.000000	11.269710
1860.000000	11.320770
1859.000000	11.363680
1858.000000	11.350865
1857.000000	11.352632
1856.000000	11.395616
1855.000000	11.394313
1854.000000	11.411878
1853.000000	11.379580
1852.000000	11.382496
1851.000000	11.402083
1850.000000	11.416042
1849.000000	11.408104
1848.000000	11.387529
1847.000000	11.402639
1846.000000	11.369538
1845.000000	11.359004
1844.000000	11.376380
1843.000000	11.373945
1842.000000	11.333226
1841.000000	11.341825
1840.000000	11.325368
1839.000000	11.335497
1838.000000	11.323772
1837.000000	11.313600
1836.000000	11.279967
1835.000000	11.243701
1834.000000	11.226128
1833.000000	11.198531
1832.000000	11.176331
1831.000000	11.180787
1830.000000	11.151056
1829.000000	11.130547
1828.000000	11.118346
1827.000000	11.109452
1826.000000	11.080108
1825.000000	11.056380
1824.000000	11.074290
1823.000000	11.039991
1822.000000	11.002251
1821.000000	10.982484
1820.000000	10.961581
1819.000000	10.961048
1818.000000	10.955643
1817.000000	10.933957
1816.000000	10.931194
1815.000000	10.924053
1814.000000	10.914437
1813.000000	10.906225
1812.000000	10.896579
1811.000000	10.882029
1810.000000	10.882055
1809.000000	10.890533
1808.000000	10.876118
1807.000000	10.844166
1806.000000	10.830156
1805.000000	10.819323
1804.000000	10.812459
1803.000000	10.804707
1802.000000	10.793245
1801.000000	10.801322
1800.000000	10.808307
1799.000000	10.779285
1798.000000	10.749751
1797.000000	10.742791
1796.000000	10.748140
1795.000000	10.757264
1794.000000	10.767431
1793.000000	10.769955
1792.000000	10.761790
1791.000000	10.760282
1790.000000	10.765365
1789.000000	10.744737
1788.000000	10.731563
1787.000000	10.738948
1786.000000	10.739058
1785.000000	10.741163
1784.000000	10.751673
1783.000000	10.728293
1782.000000	10.734740
1781.000000	10.722175
1780.000000	10.685774
1779.000000	10.695165
1778.000000	10.686872
1777.000000	10.673690
1776.000000	10.652935
1775.000000	10.651949
1774.000000	10.635162
1773.000000	10.600259
1772.000000	10.569891
1771.000000	10.556594
1770.000000	10.546240
1769.000000	10.535026
1768.000000	10.527356
1767.000000	10.491927
1766.000000	10.483700
1765.000000	10.478478
1764.000000	10.471007
1763.000000	10.450364
1762.000000	10.417764
1761.000000	10.414786
1760.000000	10.410213
1759.000000	10.391542
1758.000000	10.372555
1757.000000	10.341095
1756.000000	10.334698
1755.000000	10.297193
1754.000000	10.284477
1753.000000	10.278127
1752.000000	10.276662
1751.000000	10.252777
1750.000000	10.260595
1749.000000	10.239866
1748.000000	10.236641
1747.000000	10.208372
1746.000000	10.163777
1745.000000	10.128471
1744.000000	10.115913
1743.000000	10.120879
1742.000000	10.105688
1741.000000	10.094961
1740.000000	10.054272
1739.000000	10.023094
1738.000000	10.007708
1737.000000	9.994360
1736.000000	9.995623
1735.000000	9.989219
1734.000000	9.982692
1733.000000	9.984133
1732.000000	9.957917
1731.000000	9.953704
1730.000000	9.948051
1729.000000	9.972559
1728.000000	10.009418
1727.000000	9.987272
1726.000000	9.979928
1725.000000	10.010323
1724.000000	10.020632
1723.000000	10.043874
1722.000000	10.087059
1721.000000	10.116150
1720.000000	10.115850
1719.000000	10.161585
1718.000000	10.207942
1717.000000	10.212016
1716.000000	10.238053
1715.000000	10.266673
1714.000000	10.286964
1713.000000	10.315540
1712.000000	10.351718
1711.000000	10.343571
1710.000000	10.373648
1709.000000	10.369165
1708.000000	10.399476
1707.000000	10.419390
1706.000000	10.402701
1705.000000	10.405645
1704.000000	10.444591
1703.000000	10.437279
1702.000000	10.443238
1701.000000	10.447348
1700.000000	10.449199
1699.000000	10.413143
1698.000000	10.467445
1697.000000	10.485924
1696.000000	10.518696
1695.000000	10.497688
1694.000000	10.492662
1693.000000	10.506375
1692.000000	10.519914
1691.000000	10.533350
1690.000000	10.584150
1689.000000	10.582635
1688.000000	10.609165
1687.000000	10.634789
1686.000000	10.670273
1685.000000	10.706652
1684.000000	10.736248
1683.000000	10.773275
1682.000000	10.798370
1681.000000	10.858967
1680.000000	10.879662
1679.000000	10.915528
1678.000000	10.940732
1677.000000	10.976320
1676.000000	11.020679
1675.000000	11.061762
1674.000000	11.092486
1673.000000	11.135785
1672.000000	11.162570
1671.000000	11.220659
1670.000000	11.254735
1669.000000	11.266905
1668.000000	11.264755
1667.000000	11.318198
1666.000000	11.313105
1665.000000	11.314113
1664.000000	11.331946
1663.000000	11.345286
1662.000000	11.370612
1661.000000	11.375813
1660.000000	11.415039
1659.000000	11.437164
1658.000000	11.446071
1657.000000	11.473334
1656.000000	11.467515
1655.000000	11.480765
1654.000000	11.472516
1653.000000	11.466134
1652.000000	11.494472
1651.000000	11.481330
1650.000000	11.476174
1649.000000	11.443082
1648.000000	11.440218
1647.000000	11.442306
1646.000000	11.444643
1645.000000	11.428734
1644.000000	11.408935
1643.000000	11.410618
1642.000000	11.402649
1641.000000	11.390670
1640.000000	11.383065
1639.000000	11.366503
1638.000000	11.354181
1637.000000	11.357095
1636.000000	11.323198
1635.000000	11.305418
1634.000000	11.308098
1633.000000	11.296471
1632.000000	11.282126
1631.000000	11.270942
1630.000000	11.246313
1629.000000	11.239343
1628.000000	11.229511
1627.000000	11.212634
1626.000000	11.189840
1625.000000	11.186103
1624.000000	11.176573
1623.000000	11.147419
1622.000000	11.140145
1621.000000	11.132598
1620.000000	11.118877
1619.000000	11.092843
1618.000000	11.083707
1617.000000	11.066783
1616.000000	11.038134
1615.000000	11.017997
1614.000000	11.003773
1613.000000	10.996708
1612.000000	10.979291
1611.000000	10.951765
1610.000000	10.940939
1609.000000	10.932285
1608.000000	10.924709
1607.000000	10.900750
1606.000000	10.875280
1605.000000	10.856908
1604.000000	10.831889
1603.000000	10.817369
1602.000000	10.804849
1601.000000	10.796622
1600.000000	10.784953
1599.000000	10.764289
1598.000000	10.752979
1597.000000	10.741639
1596.000000	10.720553
1595.000000	10.702271
1594.000000	10.695275
1593.000000	10.678051
1592.000000	10.661051
1591.000000	10.648873
1590.000000	10.632588
1589.000000	10.617680
1588.000000	10.602646
1587.000000	10.599921
1586.000000	10.580395
1585.000000	10.556550
1584.000000	10.543383
1583.000000	10.540091
1582.000000	10.538324
1581.000000	10.519506
1580.000000	10.503770
1579.000000	10.491438
1578.000000	10.472415
1577.000000	10.470039
1576.000000	10.458320
1575.000000	10.437841
1574.000000	10.427179
1573.000000	10.419635
1572.000000	10.400564
1571.000000	10.388942
1570.000000	10.377232
1569.000000	10.349057
1568.000000	10.341191
1567.000000	10.333931
1566.000000	10.314926
1565.000000	10.310983
1564.000000	10.307474
1563.000000	10.297783
1562.000000	10.287189
1561.000000	10.285165
1560.000000	10.267542
1559.000000	10.246175
1558.000000	10.242174
1557.000000	10.233927
1556.000000	10.224267
1555.000000	10.227783
1554.000000	10.206288
1553.000000	10.179722
1552.000000	10.172504
1551.000000	10.175124
1550.000000	10.148352
1549.000000	10.123556
1548.000000	10.120201
1547.000000	10.109261
1546.000000	10.083184
1545.000000	10.069103
1544.000000	10.037406
1543.000000	10.010463
1542.000000	9.991956
1541.000000	9.975726
1540.000000	9.957723
1539.000000	9.912421
1538.000000	9.888280
1537.000000	9.880489
1536.000000	9.846381
1535.000000	9.801904
1534.000000	9.779383
1533.000000	9.788108
1532.000000	9.748512
1531.000000	9.735530
1530.000000	9.763825
1529.000000	9.799275
1528.000000	9.810087
1527.000000	9.802903
1526.000000	9.753180
1525.000000	9.704007
1524.000000	9.656987
1523.000000	9.647996
1522.000000	9.627077
1521.000000	9.608960
1520.000000	9.599308
1519.000000	9.595468
1518.000000	9.563106
1517.000000	9.527994
1516.000000	9.528106
1515.000000	9.517916
1514.000000	9.509725
1513.000000	9.495697
1512.000000	9.467371
1511.000000	9.473725
1510.000000	9.481452
1509.000000	9.463868
1508.000000	9.426262
1507.000000	9.405052
1506.000000	9.386451
1505.000000	9.380440
1504.000000	9.386426
1503.000000	9.362870
1502.000000	9.351234
1501.000000	9.368016
1500.000000	9.393977
1499.000000	9.384315
1498.000000	9.372775
1497.000000	9.354534
1496.000000	9.344680
1495.000000	9.332579
1494.000000	9.336370
1493.000000	9.333789
1492.000000	9.340131
1491.000000	9.348566
1490.000000	9.339458
1489.000000	9.345068
1488.000000	9.341158
1487.000000	9.358560
1486.000000	9.313929
1485.000000	9.324527
1484.000000	9.328215
1483.000000	9.336373
1482.000000	9.340108
1481.000000	9.355191
1480.000000	9.359298
1479.000000	9.378562
1478.000000	9.387366
1477.000000	9.395302
1476.000000	9.395968
1475.000000	9.416934
1474.000000	9.417896
1473.000000	9.404825
1472.000000	9.412760
1471.000000	9.408147
1470.000000	9.405943
1469.000000	9.462613
1468.000000	9.463786
1467.000000	9.461419
1466.000000	9.447242
1465.000000	9.441427
1464.000000	9.433512
1463.000000	9.465670
1462.000000	9.500150
1461.000000	9.491296
1460.000000	9.463575
1459.000000	9.505813
1458.000000	9.522827
1457.000000	9.513005
1456.000000	9.521336
1455.000000	9.521413
1454.000000	9.549232
1453.000000	9.560639
1452.000000	9.551174
1451.000000	9.554788
1450.000000	9.573711
1449.000000	9.566148
1448.000000	9.595443
1447.000000	9.630374
1446.000000	9.627602
1445.000000	9.628269
1444.000000	9.629590
1443.000000	9.664540
1442.000000	9.663950
1441.000000	9.690271
1440.000000	9.737199
1439.000000	9.749642
1438.000000	9.765567
1437.000000	9.789085
1436.000000	9.802333
1435.000000	9.834128
1434.000000	9.849471
1433.000000	9.886665
1432.000000	9.910510
1431.000000	9.938462
1430.000000	9.969989
1429.000000	9.990753
1428.000000	10.018385
1427.000000	10.038707
1426.000000	10.099250
1425.000000	10.137289
1424.000000	10.165372
1423.000000	10.217722
1422.000000	10.265953
1421.000000	10.279622
1420.000000	10.305567
1419.000000	10.357173
1418.000000	10.413306
1417.000000	10.441157
1416.000000	10.485929
1415.000000	10.532309
1414.000000	10.576826
1413.000000	10.612817
1412.000000	10.667362
1411.000000	10.731303
1410.000000	10.768189
1409.000000	10.799436
1408.000000	10.844418
1407.000000	10.904939
1406.000000	10.945845
1405.000000	10.972523
1404.000000	11.015997
1403.000000	11.074491
1402.000000	11.129432
1401.000000	11.173951
1400.000000	11.207439
1399.000000	11.247081
1398.000000	11.284169
1397.000000	11.315386
1396.000000	11.350611
1395.000000	11.378760
1394.000000	11.411900
1393.000000	11.438475
1392.000000	11.465102
1391.000000	11.496251
1390.000000	11.523556
1389.000000	11.536748
1388.000000	11.552487
1387.000000	11.576990
1386.000000	11.598530
1385.000000	11.620194
1384.000000	11.654206
1383.000000	11.676422
1382.000000	11.687895
1381.000000	11.703683
1380.000000	11.728942
1379.000000	11.732734
1378.000000	11.728776
1377.000000	11.754277
1376.000000	11.766350
1375.000000	11.756898
1374.000000	11.764771
1373.000000	11.782612
1372.000000	11.786523
1371.000000	11.777040
1370.000000	11.780704
1369.000000	11.785164
1368.000000	11.778414
1367.000000	11.774281
1366.000000	11.779485
1365.000000	11.792336
1364.000000	11.798090
1363.000000	11.793651
1362.000000	11.806265
1361.000000	11.822303
1360.000000	11.844469
1359.000000	11.858147
1358.000000	11.842368
1357.000000	11.838748
1356.000000	11.859905
1355.000000	11.871075
1354.000000	11.877544
1353.000000	11.854476
1352.000000	11.856551
1351.000000	11.878936
1350.000000	11.890030
1349.000000	11.882235
1348.000000	11.847707
1347.000000	11.845011
1346.000000	11.864673
1345.000000	11.870717
1344.000000	11.887991
1343.000000	11.889092
1342.000000	11.886858
1341.000000	11.881598
1340.000000	11.872811
1339.000000	11.902099
1338.000000	11.929119
1337.000000	11.925130
1336.000000	11.912247
1335.000000	11.908450
1334.000000	11.887747
1333.000000	11.884060
1332.000000	11.913678
1331.000000	11.940812
1330.000000	11.943004
1329.000000	11.922766
1328.000000	11.911331
1327.000000	11.918890
1326.000000	11.935834
1325.000000	11.919438
1324.000000	11.932396
1323.000000	11.944167
1322.000000	11.928918
1321.000000	11.934180
1320.000000	11.924835
1319.000000	11.915822
1318.000000	11.920575
1317.000000	11.916816
1316.000000	11.899640
1315.000000	11.890480
1314.000000	11.903986
1313.000000	11.888608
1312.000000	11.891401
1311.000000	11.904412
1310.000000	11.889778
1309.000000	11.893049
1308.000000	11.893544
1307.000000	11.878785
1306.000000	11.855653
1305.000000	11.826459
1304.000000	11.856469
1303.000000	11.863695
1302.000000	11.858185
1301.000000	11.838839
1300.000000	11.831135
1299.000000	11.803927
1298.000000	11.807692
1297.000000	11.802144
1296.000000	11.801097
1295.000000	11.800159
1294.000000	11.770694
1293.000000	11.778198
1292.000000	11.796886
1291.000000	11.781405
1290.000000	11.791055
1289.000000	11.773719
1288.000000	11.794824
1287.000000	11.776517
1286.000000	11.781484
1285.000000	11.729267
1284.000000	11.723011
1283.000000	11.719292
1282.000000	11.724213
1281.000000	11.719293
1280.000000	11.731838
1279.000000	11.724832
1278.000000	11.724389
1277.000000	11.719701
1276.000000	11.704821
1275.000000	11.704003
1274.000000	11.704495
1273.000000	11.710112
1272.000000	11.703668
1271.000000	11.681318
1270.000000	11.681657
1269.000000	11.682921
1268.000000	11.676421
1267.000000	11.652899
1266.000000	11.662550
1265.000000	11.659522
1264.000000	11.668130
1263.000000	11.690712
1262.000000	11.667011
1261.000000	11.669140
1260.000000	11.652701
1259.000000	11.631480
1258.000000	11.655566
1257.000000	11.668391
1256.000000	11.653450
1255.000000	11.629995
1254.000000	11.633564
1253.000000	11.621441
1252.000000	11.617152
1251.000000	11.599768
1250.000000	11.584915
1249.000000	11.606774
1248.000000	11.597807
1247.000000	11.590568
1246.000000	11.584012
1245.000000	11.580523
1244.000000	11.580998
1243.000000	11.581528
1242.000000	11.567591
1241.000000	11.562267
1240.000000	11.519981
1239.000000	11.524367
1238.000000	11.523526
1237.000000	11.488923
1236.000000	11.477972
1235.000000	11.476115
1234.000000	11.491138
1233.000000	11.483093
1232.000000	11.466536
1231.000000	11.464485
1230.000000	11.460071
1229.000000	11.451210
1228.000000	11.409607
1227.000000	11.389113
1226.000000	11.404102
1225.000000	11.411254
1224.000000	11.409828
1223.000000	11.406431
1222.000000	11.406798
1221.000000	11.406778
1220.000000	11.389307
1219.000000	11.376014
1218.000000	11.363400
1217.000000	11.351750
1216.000000	11.333411
1215.000000	11.320734
1214.000000	11.303361
1213.000000	11.329553
1212.000000	11.342226
1211.000000	11.309722
1210.000000	11.308583
1209.000000	11.308485
1208.000000	11.299972
1207.000000	11.270746
1206.000000	11.269505
1205.000000	11.263792
1204.000000	11.242712
1203.000000	11.243698
1202.000000	11.239532
1201.000000	11.222459
1200.000000	11.204922
1199.000000	11.223476
1198.000000	11.206273
1197.000000	11.188131
1196.000000	11.170396
1195.000000	11.141917
1194.000000	11.136521
1193.000000	11.137233
1192.000000	11.114199
1191.000000	11.105923
1190.000000	11.090315
1189.000000	11.055859
1188.000000	11.059892
1187.000000	11.066529
1186.000000	11.045783
1185.000000	11.048757
1184.000000	11.046980
1183.000000	11.035481
1182.000000	11.044281
1181.000000	11.060783
1180.000000	11.073032
1179.000000	11.084198
1178.000000	11.090555
1177.000000	11.096323
1176.000000	11.100789
1175.000000	11.105906
1174.000000	11.120647
1173.000000	11.133077
1172.000000	11.142270
1171.000000	11.148164
1170.000000	11.143709
1169.000000	11.148377
1168.000000	11.151925
1167.000000	11.163474
1166.000000	11.167162
1165.000000	11.174835
1164.000000	11.181967
1163.000000	11.188475
1162.000000	11.195822
1161.000000	11.197630
1160.000000	11.210911
1159.000000	11.224703
1158.000000	11.229181
1157.000000	11.223479
1156.000000	11.232527
1155.000000	11.250897
1154.000000	11.235859
1153.000000	11.218025
1152.000000	11.221368
1151.000000	11.223955
1150.000000	11.239715
1149.000000	11.257524
1148.000000	11.261974
1147.000000	11.270994
1146.000000	11.270931
1145.000000	11.281042
1144.000000	11.291945
1143.000000	11.290157
1142.000000	11.288417
1141.000000	11.292875
1140.000000	11.305927
1139.000000	11.307442
1138.000000	11.290762
1137.000000	11.271453
1136.000000	11.274634
1135.000000	11.286597
1134.000000	11.295895
1133.000000	11.307333
1132.000000	11.311703
1131.000000	11.308813
1130.000000	11.308119
1129.000000	11.308260
1128.000000	11.302990
1127.000000	11.311160
1126.000000	11.318297
1125.000000	11.319853
1124.000000	11.314922
1123.000000	11.280703
1122.000000	11.260411
1121.000000	11.272526
1120.000000	11.285380
1119.000000	11.290947
1118.000000	11.281080
1117.000000	11.269191
1116.000000	11.263332
1115.000000	11.261237
1114.000000	11.263795
1113.000000	11.265540
1112.000000	11.265827
1111.000000	11.277071
1110.000000	11.260384
1109.000000	11.250595
1108.000000	11.252841
1107.000000	11.261857
1106.000000	11.258090
1105.000000	11.258005
1104.000000	11.261138
1103.000000	11.249648
1102.000000	11.246064
1101.000000	11.207959
1100.000000	11.189000
1099.000000	11.174599
1098.000000	11.200534
1097.000000	11.201562
1096.000000	11.199460
1095.000000	11.211480
1094.000000	11.220358
1093.000000	11.192178
1092.000000	11.166549
1091.000000	11.168168
1090.000000	11.176251
1089.000000	11.175452
1088.000000	11.172445
1087.000000	11.176243
1086.000000	11.141186
1085.000000	11.131589
1084.000000	11.135594
1083.000000	11.138037
1082.000000	11.141744
1081.000000	11.155702
1080.000000	11.142393
1079.000000	11.120346
1078.000000	11.092632
1077.000000	11.099063
1076.000000	11.123059
1075.000000	11.124374
1074.000000	11.121170
1073.000000	11.115829
1072.000000	11.073397
1071.000000	11.069873
1070.000000	11.060280
1069.000000	11.071201
1068.000000	11.065392
1067.000000	11.064653
1066.000000	11.078843
1065.000000	11.087614
1064.000000	11.031514
1063.000000	11.043237
1062.000000	11.030404
1061.000000	11.040933
1060.000000	11.042085
1059.000000	11.033240
1058.000000	11.044106
1057.000000	11.006679
1056.000000	10.990474
1055.000000	11.017770
1054.000000	11.009545
1053.000000	11.023594
1052.000000	11.002546
1051.000000	10.977448
1050.000000	10.991174
1049.000000	10.992234
1048.000000	10.973036
1047.000000	10.971455
1046.000000	10.970789
1045.000000	10.973460
1044.000000	10.983726
1043.000000	10.969103
1042.000000	10.940699
1041.000000	10.932716
1040.000000	10.940495
1039.000000	10.939106
1038.000000	10.892074
1037.000000	10.900791
1036.000000	10.931811
1035.000000	10.944629
1034.000000	10.925769
1033.000000	10.911772
1032.000000	10.913523
1031.000000	10.916928
1030.000000	10.870286
1029.000000	10.867154
1028.000000	10.873425
1027.000000	10.897869
1026.000000	10.894890
1025.000000	10.870907
1024.000000	10.866762
1023.000000	10.842994
1022.000000	10.848706
1021.000000	10.861318
1020.000000	10.868314
1019.000000	10.874360
1018.000000	10.838208
1017.000000	10.851121
1016.000000	10.832768
1015.000000	10.817945
1014.000000	10.824305
1013.000000	10.844497
1012.000000	10.823194
1011.000000	10.821597
1010.000000	10.820805
1009.000000	10.806102
1008.000000	10.813351
1007.000000	10.824348
1006.000000	10.806694
1005.000000	10.820908
1004.000000	10.812684
1003.000000	10.783873
1002.000000	10.785839
1001.000000	10.787771
1000.000000	10.783564
999.000000	10.770887
998.000000	10.767661
997.000000	10.770057
996.000000	10.766539
995.000000	10.760290
994.000000	10.758589
993.000000	10.750753
992.000000	10.747793
991.000000	10.758632
990.000000	10.750282
989.000000	10.717531
988.000000	10.720108
987.000000	10.730982
986.000000	10.745304
985.000000	10.760746
984.000000	10.770194
983.000000	10.781785
982.000000	10.777113
981.000000	10.778037
980.000000	10.777309
979.000000	10.789805
978.000000	10.798742
977.000000	10.797083
976.000000	10.796360
975.000000	10.797021
974.000000	10.799848
973.000000	10.785729
972.000000	10.782207
971.000000	10.781170
970.000000	10.776019
969.000000	10.774404
968.000000	10.760831
967.000000	10.756004
966.000000	10.765004
965.000000	10.774034
964.000000	10.764076
963.000000	10.759891
962.000000	10.758334
961.000000	10.753893
960.000000	10.748325
959.000000	10.746726
958.000000	10.731012
957.000000	10.712522
956.000000	10.716066
955.000000	10.724751
954.000000	10.719668
953.000000	10.702023
952.000000	10.698600
951.000000	10.700816
950.000000	10.690614
949.000000	10.685456
948.000000	10.690058
947.000000	10.678740
946.000000	10.679496
945.000000	10.668476
944.000000	10.650772
943.000000	10.647601
942.000000	10.643025
941.000000	10.643397
940.000000	10.631453
939.000000	10.606883
938.000000	10.610121
937.000000	10.618683
936.000000	10.615665
935.000000	10.616655
934.000000	10.601716
933.000000	10.593511
932.000000	10.595350
931.000000	10.591771
930.000000	10.557123
929.000000	10.522412
928.000000	10.521220
927.000000	10.530927
926.000000	10.527068
925.000000	10.528962
924.000000	10.523741
923.000000	10.502732
922.000000	10.501134
921.000000	10.492938
920.000000	10.488382
919.000000	10.481720
918.000000	10.474192
917.000000	10.479610
916.000000	10.456171
915.000000	10.437695
914.000000	10.434847
913.000000	10.452391
912.000000	10.449249
911.000000	10.433175
910.000000	10.438350
909.000000	10.440757
908.000000	10.423176
907.000000	10.418583
906.000000	10.405508
905.000000	10.401488
904.000000	10.402279
903.000000	10.403453
902.000000	10.372164
901.000000	10.345199
900.000000	10.337794
899.000000	10.353320
898.000000	10.355381
897.000000	10.361172
896.000000	10.368638
895.000000	10.359806
894.000000	10.354869
893.000000	10.280544
892.000000	10.297673
891.000000	10.320192
890.000000	10.334602
889.000000	10.310662
888.000000	10.303779
887.000000	10.268874
886.000000	10.278415
885.000000	10.231530
884.000000	10.226558
883.000000	10.235901
882.000000	10.264083
881.000000	10.241415
880.000000	10.237301
879.000000	10.242198
878.000000	10.174919
877.000000	10.175554
876.000000	10.217037
875.000000	10.250092
874.000000	10.134443
873.000000	10.199417
872.000000	10.165198
871.000000	10.169036
870.000000	10.170358
869.000000	10.105538
868.000000	10.047541
867.000000	10.179444
866.000000	10.122123
865.000000	10.096253
864.000000	10.071990
863.000000	10.037799
862.000000	10.065615
861.000000	10.064861
860.000000	9.970597
859.000000	10.188603
858.000000	10.322689
857.000000	10.203729
856.000000	10.290510
855.000000	10.265575
854.000000	10.244750
853.000000	10.073182
852.000000	10.104164
851.000000	10.155988
850.000000	10.150844
849.000000	10.127038
848.000000	10.127704
847.000000	10.105550
846.000000	10.109054
845.000000	10.078265
844.000000	10.002356
843.000000	10.103469
842.000000	10.059310
841.000000	10.008992
840.000000	10.010768
839.000000	10.031923
838.000000	9.941111
837.000000	9.982714
836.000000	9.919476
835.000000	9.911296
834.000000	9.910978
833.000000	9.979255
832.000000	9.938607
831.000000	9.871125
830.000000	9.871038
829.000000	9.831789
828.000000	9.853429
827.000000	9.808615
826.000000	9.802117
825.000000	9.783148
824.000000	9.813149
823.000000	9.812452
822.000000	9.768454
821.000000	9.765445
820.000000	9.709563
819.000000	9.719191
818.000000	9.680465
817.000000	9.666231
816.000000	9.671497
815.000000	9.685967
814.000000	9.646334
813.000000	9.603127
812.000000	9.590671
811.000000	9.568146
810.000000	9.622622
809.000000	9.610531
808.000000	9.586447
807.000000	9.557034
806.000000	9.555961
805.000000	9.545297
804.000000	9.510844
803.000000	9.503493
802.000000	9.500147
801.000000	9.447919
800.000000	9.471853
799.000000	9.455123
798.000000	9.414454
797.000000	9.427647
796.000000	9.385814
795.000000	9.414216
794.000000	9.396578
793.000000	9.374734
792.000000	9.348906
791.000000	9.320809
790.000000	9.331019
789.000000	9.281665
788.000000	9.272617
787.000000	9.269621
786.000000	9.296326
785.000000	9.270750
784.000000	9.232518
783.000000	9.228667
782.000000	9.205893
781.000000	9.164906
780.000000	9.169241
779.000000	9.167312
778.000000	9.119467
777.000000	9.119819
776.000000	9.090284
775.000000	9.054744
774.000000	9.068171
773.000000	9.054279
772.000000	9.024861
771.000000	9.007845
770.000000	8.987936
769.000000	8.957738
768.000000	8.950791
767.000000	8.954845
766.000000	8.933745
765.000000	8.919633
764.000000	8.895785
763.000000	8.885932
762.000000	8.878940
761.000000	8.841609
760.000000	8.815558
759.000000	8.800874
758.000000	8.796093
757.000000	8.776478
756.000000	8.751296
755.000000	8.738849
754.000000	8.723416
753.000000	8.707206
752.000000	8.689531
751.000000	8.651061
750.000000	8.640434
749.000000	8.624960
748.000000	8.594655
747.000000	8.575572
746.000000	8.591155
745.000000	8.570179
744.000000	8.530003
743.000000	8.508719
742.000000	8.487449
741.000000	8.471121
740.000000	8.446390
739.000000	8.421667
738.000000	8.401601
737.000000	8.385404
736.000000	8.375620
735.000000	8.349228
734.000000	8.321971
733.000000	8.309118
732.000000	8.293674
731.000000	8.280930
730.000000	8.251449
729.000000	8.235178
728.000000	8.222926
727.000000	8.201850
726.000000	8.177840
725.000000	8.153281
724.000000	8.123502
723.000000	8.107972
722.000000	8.085737
721.000000	8.063782
720.000000	8.048339
719.000000	8.028572
718.000000	8.016400
717.000000	7.994413
716.000000	7.973560
715.000000	7.953486
714.000000	7.927660
713.000000	7.909629
712.000000	7.884429
711.000000	7.851851
710.000000	7.833325
709.000000	7.814791
708.000000	7.794300
707.000000	7.768335
706.000000	7.750199
705.000000	7.734808
704.000000	7.709438
703.000000	7.678396
702.000000	7.654093
701.000000	7.628445
700.000000	7.612316
699.000000	7.597632
698.000000	7.575933
697.000000	7.551700
696.000000	7.529316
695.000000	7.507910
694.000000	7.485908
693.000000	7.465601
692.000000	7.430866
691.000000	7.408642
690.000000	7.390855
689.000000	7.345419
688.000000	7.307592
687.000000	7.287562
686.000000	7.267927
685.000000	7.250758
684.000000	7.220281
683.000000	7.190058
682.000000	7.167392
681.000000	7.146227
680.000000	7.120284
679.000000	7.089433
678.000000	7.074202
677.000000	7.042898
676.000000	7.017706
675.000000	6.994135
674.000000	6.977142
673.000000	6.944200
672.000000	6.914817
671.000000	6.895100
670.000000	6.874197
669.000000	6.842545
668.000000	6.822478
667.000000	6.804029
666.000000	6.772193
665.000000	6.750601
664.000000	6.725384
663.000000	6.695328
662.000000	6.681643
661.000000	6.646763
660.000000	6.626277
659.000000	6.608556
658.000000	6.575047
657.000000	6.547430
656.000000	6.520566
655.000000	6.511539
654.000000	6.476037
653.000000	6.447557
652.000000	6.418911
651.000000	6.393693
650.000000	6.362888
649.000000	6.331652
648.000000	6.313147
647.000000	6.295070
646.000000	6.262386
645.000000	6.239593
644.000000	6.209140
643.000000	6.189644
642.000000	6.160873
641.000000	6.131194
640.000000	6.093259
639.000000	6.072783
638.000000	6.045339
637.000000	6.023319
636.000000	5.987920
635.000000	5.976859
634.000000	5.939096
633.000000	5.908412
632.000000	5.889624
631.000000	5.864383
630.000000	5.837713
629.000000	5.811920
628.000000	5.781996
627.000000	5.755973
626.000000	5.733173
625.000000	5.707529
624.000000	5.669811
623.000000	5.644451
622.000000	5.603815
621.000000	5.589700
620.000000	5.557675
619.000000	5.537046
618.000000	5.511062
617.000000	5.476925
616.000000	5.439974
615.000000	5.423104
614.000000	5.390102
613.000000	5.354098
612.000000	5.336775
611.000000	5.313462
610.000000	5.291395
609.000000	5.247528
608.000000	5.217307
607.000000	5.193972
606.000000	5.160245
605.000000	5.135910
604.000000	5.098040
603.000000	5.072029
602.000000	5.043413
601.000000	5.015454
600.000000	4.985597
599.000000	4.952248
598.000000	4.928574
597.000000	4.895866
596.000000	4.862881
595.000000	4.837069
594.000000	4.815419
593.000000	4.779821
592.000000	4.745436
591.000000	4.721826
590.000000	4.680411
589.000000	4.656548
588.000000	4.630558
587.000000	4.599645
586.000000	4.556962
585.000000	4.529955
584.000000	4.510206
583.000000	4.484502
582.000000	4.452501
581.000000	4.407866
580.000000	4.391447
579.000000	4.347736
578.000000	4.333844
577.000000	4.304418
576.000000	4.266112
575.000000	4.226943
574.000000	4.204224
573.000000	4.179312
572.000000	4.141387
571.000000	4.110468
570.000000	4.080917
569.000000	4.048857
568.000000	4.012999
567.000000	3.992311
566.000000	3.962961
565.000000	3.936338
564.000000	3.894016
563.000000	3.872217
562.000000	3.831984
561.000000	3.823215
560.000000	3.790351
559.000000	3.763853
558.000000	3.730101
557.000000	3.698753
556.000000	3.672024
555.000000	3.646192
554.000000	3.611692
553.000000	3.583611
552.000000	3.552293
551.000000	3.524307
550.000000	3.498202
549.000000	3.460476
548.000000	3.438096
547.000000	3.410444
546.000000	3.375273
545.000000	3.346592
544.000000	3.317534
543.000000	3.288834
542.000000	3.258080
541.000000	3.232071
540.000000	3.202932
539.000000	3.167983
538.000000	3.134664
537.000000	3.107729
536.000000	3.080392
535.000000	3.049604
534.000000	3.018598
533.000000	2.992400
532.000000	2.960681
531.000000	2.928713
530.000000	2.902276
529.000000	2.876253
528.000000	2.844430
527.000000	2.819069
526.000000	2.788995
525.000000	2.759128
524.000000	2.732108
523.000000	2.699199
522.000000	2.671167
521.000000	2.645429
520.000000	2.615697
519.000000	2.586400
518.000000	2.556061
517.000000	2.527025
516.000000	2.502266
515.000000	2.476147
514.000000	2.448786
513.000000	2.415976
512.000000	2.389179
511.000000	2.364915
510.000000	2.338148
509.000000	2.311786
508.000000	2.285057
507.000000	2.255020
506.000000	2.227886
505.000000	2.204996
504.000000	2.178292
503.000000	2.157244
502.000000	2.135919
501.000000	2.104868
500.000000	2.077820
499.000000	2.056962
498.000000	2.031841
497.000000	2.008765
496.000000	1.983841
495.000000	1.955641
494.000000	1.936790
493.000000	1.915279
492.000000	1.890723
491.000000	1.869258
490.000000	1.843881
489.000000	1.822813
488.000000	1.801567
487.000000	1.788320
486.000000	1.770019
485.000000	1.753963
484.000000	1.736839
483.000000	1.713327
482.000000	1.689140
481.000000	1.667180
480.000000	1.647173
479.000000	1.623530
478.000000	1.598707
477.000000	1.578189
476.000000	1.548172
475.000000	1.524234
474.000000	1.507213
473.000000	1.485947
472.000000	1.462910
471.000000	1.442991
470.000000	1.423178
469.000000	1.405731
468.000000	1.381893
467.000000	1.361951
466.000000	1.342121
465.000000	1.319714
464.000000	1.303428
463.000000	1.282821
462.000000	1.255025
461.000000	1.229209
460.000000	1.213309
459.000000	1.197682
458.000000	1.176816
457.000000	1.154502
456.000000	1.137935
455.000000	1.121072
454.000000	1.099313
453.000000	1.076173
452.000000	1.058328
451.000000	1.045157
450.000000	1.026644
449.000000	1.008364
448.000000	0.987730
447.000000	0.968580
446.000000	0.956583
445.000000	0.941705
444.000000	0.926698
443.000000	0.909622
442.000000	0.884376
441.000000	0.866637
440.000000	0.852321
439.000000	0.835400
438.000000	0.823219
437.000000	0.812235
436.000000	0.795890
435.000000	0.778190
434.000000	0.762839
433.000000	0.746272
432.000000	0.733853
431.000000	0.725858
430.000000	0.711898
429.000000	0.694353
428.000000	0.678082
427.000000	0.664357
426.000000	0.647664
425.000000	0.636029
424.000000	0.626072
423.000000	0.610299
422.000000	0.594866
421.000000	0.583469
420.000000	0.572066
419.000000	0.560743
418.000000	0.546324
417.000000	0.531464
416.000000	0.517308
415.000000	0.506202
414.000000	0.496186
413.000000	0.483125
412.000000	0.468997
411.000000	0.453507
410.000000	0.441253
409.000000	0.434379
408.000000	0.420345
407.000000	0.406406
406.000000	0.397615
405.000000	0.381222
404.000000	0.369952
403.000000	0.361949
402.000000	0.353624
401.000000	0.344140
400.000000	0.325256
399.000000	0.314552
398.000000	0.307115
397.000000	0.295863
396.000000	0.289928
395.000000	0.277021
394.000000	0.269776
393.000000	0.257820
392.000000	0.253805
391.000000	0.246877
390.000000	0.240966
389.000000	0.231348
388.000000	0.220177
387.000000	0.209122
386.000000	0.204085
385.000000	0.198854
384.000000	0.193494
383.000000	0.185930
382.000000	0.180648
381.000000	0.170526
380.000000	0.160764
379.000000	0.154656
378.000000	0.158881
377.000000	0.170420
376.000000	0.170417
375.000000	0.159354
374.000000	0.152155
373.000000	0.142498
372.000000	0.137117
371.000000	0.137522
370.000000	0.131645
369.000000	0.123069
368.000000	0.121157
367.000000	0.115517
366.000000	0.106112
365.000000	0.104915
364.000000	0.101382
363.000000	0.099134
362.000000	0.095221
361.000000	0.095321
360.000000	0.089134
359.000000	0.083990
358.000000	0.089369
357.000000	0.080507
356.000000	0.082752
355.000000	0.072204
354.000000	0.075033
353.000000	0.074222
352.000000	0.076321
351.000000	0.064240
350.000000	0.067903
349.000000	0.065895
348.000000	0.070211
347.000000	0.061719
346.000000	0.056466
345.000000	0.057212
344.000000	0.067041
343.000000	0.051250
342.000000	0.054976
341.000000	0.052316
340.000000	0.041761
339.000000	0.046601
338.000000	0.053899
337.000000	0.050014
336.000000	0.044535
335.000000	0.039644
334.000000	0.039619
333.000000	0.049107
332.000000	0.054471
331.000000	0.036713
330.000000	0.041099
329.000000	0.035043
328.000000	0.035312
327.000000	0.031901
326.000000	0.043421
325.000000	0.035958
324.000000	0.030749
323.000000	0.022489
322.000000	0.033052
321.000000	0.028028
320.000000	0.037232
319.000000	0.027064
318.000000	0.034528
317.000000	0.041748
316.000000	0.046067
315.000000	0.043169
314.000000	0.048417
313.000000	0.043263
312.000000	0.043560
311.000000	0.038720
310.000000	0.047591
309.000000	0.042652
308.000000	0.045425
307.000000	0.041856
306.000000	0.047583
305.000000	0.034987
304.000000	0.034512
303.000000	0.035121
302.000000	0.036100
301.000000	0.028463
300.000000	0.031564
299.000000	0.032434
298.000000	0.034924
297.000000	0.039326
296.000000	0.040853
295.000000	0.034411
294.000000	0.036900
293.000000	0.034056
292.000000	0.040088
291.000000	0.042710
290.000000	0.043189
289.000000	0.045822
288.000000	0.041770
287.000000	0.028391
286.000000	0.029556
285.000000	0.035511
284.000000	0.036688
283.000000	0.041417
282.000000	0.043284
281.000000	0.047677
280.000000	0.045966
279.000000	0.044921
278.000000	0.053058
277.000000	0.048633
276.000000	0.046082
275.000000	0.050987
274.000000	0.049098
273.000000	0.049403
272.000000	0.056796
271.000000	0.053371
270.000000	0.055662
269.000000	0.056319
268.000000	0.057663
267.000000	0.066172
266.000000	0.067695
265.000000	0.063712
264.000000	0.067611
263.000000	0.065124
262.000000	0.071114
261.000000	0.075093
260.000000	0.071303
259.000000	0.071495
258.000000	0.069010
257.000000	0.067638
256.000000	0.074059
255.000000	0.077766
254.000000	0.072315
253.000000	0.069878
252.000000	0.078843
251.000000	0.073191
250.000000	0.070758
249.000000	0.066640
248.000000	0.069408
247.000000	0.077837
246.000000	0.079058
245.000000	0.071991
244.000000	0.067964
243.000000	0.067071
242.000000	0.066994
241.000000	0.069544
240.000000	0.063380
239.000000	0.058255
238.000000	0.053813
237.000000	0.055271
236.000000	0.059003
235.000000	0.052791
234.000000	0.055212
233.000000	0.053025
232.000000	0.046984
231.000000	0.044327
230.000000	0.033285
229.000000	0.027044
228.000000	0.025401
227.000000	0.021366
226.000000	0.026448
225.000000	0.028665
224.000000	0.020302
223.000000	0.013622
222.000000	0.007193
221.000000	0.005199
220.000000	0.024597
219.000000	0.038376
218.000000	0.032067
217.000000	0.013746
216.000000	0.010656
215.000000	0.005171
214.000000	0.000108
213.000000	0.004020
212.000000	0.020555
211.000000	0.022567
210.000000	0.010722
209.000000	0.006143
208.000000	0.010136
207.000000	0.009840
206.000000	0.006630
205.000000	0.023903
204.000000	0.019848
203.000000	-0.004053
202.000000	-0.004410
201.000000	0.057123
200.000000	0.057675
