PE UV       SUBTECH     SPECTRUM    ASCII       PEDS        4.00        
   -1
SGRAG5_1.Sample.asc
23/09/07
11:38:08.00
23/09/07
11:38:08.00
Administrator

250.000000
1
Lambda 750
750N8071901
PerkinElmer UV WinLab 6.0.4.0738 / 1.61.00 Lambda 900

0
0
3350/servo 860.8/2
0
0
UV/VIS
1
1
1
CommonBeamDepol,150mm sphere / downward view
0
0
0
0
Program
Program
3350/servo 860.8/2
3350/0.2 860.8/0.2
3350/0.2 860.8/0.2
0
1
 
 
 
0
 
860.8
319.2
860.8
Front
100
on
 
 
0
0
0
 
0
 
 
 
0
 
 
0
0
0
0
0
 
 
 
 
0
0


0
0
#HDR
-1
-1
#GR
nm
%R
1.0
0.0
2500.000000
-10.000000
226
8
85.042425
21.967453
#DATA
2500.000000	35.430710
2490.000000	34.025338
2480.000000	37.843692
2470.000000	38.719572
2460.000000	38.548427
2450.000000	40.756165
2440.000000	38.916159
2430.000000	42.003258
2420.000000	41.178657
2410.000000	42.031573
2400.000000	41.102371
2390.000000	42.634698
2380.000000	41.882702
2370.000000	41.340829
2360.000000	41.776887
2350.000000	43.153297
2340.000000	41.952431
2330.000000	41.586686
2320.000000	41.273135
2310.000000	40.284570
2300.000000	40.274481
2290.000000	40.964257
2280.000000	41.186701
2270.000000	43.351146
2260.000000	45.458287
2250.000000	47.043120
2240.000000	47.712618
2230.000000	47.069374
2220.000000	45.782534
2210.000000	45.727190
2200.000000	45.136635
2190.000000	45.603131
2180.000000	45.828659
2170.000000	47.523298
2160.000000	49.034209
2150.000000	49.795412
2140.000000	50.575923
2130.000000	50.607061
2120.000000	50.739346
2110.000000	50.984323
2100.000000	50.131903
2090.000000	49.041512
2080.000000	47.186052
2070.000000	45.842549
2060.000000	44.707172
2050.000000	45.110943
2040.000000	45.608168
2030.000000	45.319058
2020.000000	44.243205
2010.000000	42.981208
2000.000000	41.392534
1990.000000	39.955874
1980.000000	38.453503
1970.000000	37.633594
1960.000000	37.417172
1950.000000	37.866288
1940.000000	40.232921
1930.000000	43.554541
1920.000000	49.075142
1910.000000	55.555175
1900.000000	60.880416
1890.000000	65.109420
1880.000000	67.360476
1870.000000	68.113036
1860.000000	68.305526
1850.000000	68.066292
1840.000000	67.970051
1830.000000	67.577109
1820.000000	67.123960
1810.000000	66.955182
1800.000000	66.662665
1790.000000	66.404672
1780.000000	66.075338
1770.000000	65.705687
1760.000000	65.258638
1750.000000	64.991325
1740.000000	65.491852
1730.000000	66.513608
1720.000000	67.107045
1710.000000	67.498638
1700.000000	68.336494
1690.000000	69.712671
1680.000000	70.927988
1670.000000	71.351654
1660.000000	71.463488
1650.000000	71.122181
1640.000000	70.759421
1630.000000	70.273166
1620.000000	69.550724
1610.000000	68.943940
1600.000000	68.364543
1590.000000	67.922422
1580.000000	67.370276
1570.000000	67.008451
1560.000000	66.583494
1550.000000	65.672502
1540.000000	64.850737
1530.000000	64.352228
1520.000000	63.998209
1510.000000	63.743402
1500.000000	63.696472
1490.000000	63.862674
1480.000000	63.999854
1470.000000	64.459785
1460.000000	65.281952
1450.000000	66.338770
1440.000000	67.910477
1430.000000	69.871512
1420.000000	72.323693
1410.000000	74.777964
1400.000000	76.604763
1390.000000	77.625034
1380.000000	78.249499
1370.000000	78.737622
1360.000000	79.335720
1350.000000	79.884710
1340.000000	80.134925
1330.000000	80.534594
1320.000000	80.968274
1310.000000	81.127662
1300.000000	81.192033
1290.000000	81.130613
1280.000000	81.143720
1270.000000	81.210448
1260.000000	81.177890
1250.000000	81.163326
1240.000000	81.078629
1230.000000	80.887681
1220.000000	80.686983
1210.000000	80.517951
1200.000000	80.650341
1190.000000	80.895419
1180.000000	81.290667
1170.000000	81.903588
1160.000000	82.410009
1150.000000	82.830125
1140.000000	83.023196
1130.000000	83.084604
1120.000000	83.186107
1110.000000	83.298654
1100.000000	83.425340
1090.000000	83.416263
1080.000000	83.364817
1070.000000	83.314169
1060.000000	83.342268
1050.000000	83.304939
1040.000000	83.311428
1030.000000	83.304714
1020.000000	83.381864
1010.000000	83.548716
1000.000000	83.629512
990.000000	83.712373
980.000000	83.819539
970.000000	84.018056
960.000000	84.153603
950.000000	84.172156
940.000000	84.205093
930.000000	84.311130
920.000000	84.348405
910.000000	84.428414
900.000000	84.685715
890.000000	84.550875
880.000000	84.566839
870.000000	85.042425
860.000000	84.651947
850.000000	83.882597
840.000000	85.035361
830.000000	84.824583
820.000000	84.944845
810.000000	84.870743
800.000000	85.022094
790.000000	84.736932
780.000000	84.680020
770.000000	84.614521
760.000000	84.571319
750.000000	84.679367
740.000000	84.670997
730.000000	84.551519
720.000000	84.484320
710.000000	84.365164
700.000000	84.215407
690.000000	84.074782
680.000000	84.088385
670.000000	83.781699
660.000000	83.648143
650.000000	83.450690
640.000000	83.398318
630.000000	82.966329
620.000000	82.674299
610.000000	82.344902
600.000000	82.074403
590.000000	81.647355
580.000000	81.326619
570.000000	80.853808
560.000000	80.332070
550.000000	79.727326
540.000000	79.129938
530.000000	78.486174
520.000000	77.884494
510.000000	77.052333
500.000000	76.226597
490.000000	75.303017
480.000000	74.405209
470.000000	73.447524
460.000000	72.219347
450.000000	70.720924
440.000000	69.104869
430.000000	67.187054
420.000000	65.275048
410.000000	62.746158
400.000000	60.558800
390.000000	58.322243
380.000000	56.239226
370.000000	54.065528
360.000000	51.030785
350.000000	49.292053
340.000000	46.056532
330.000000	43.560897
320.000000	40.365346
310.000000	39.199565
300.000000	34.123108
290.000000	28.330601
280.000000	24.092888
270.000000	22.152494
260.000000	21.967453
250.000000	22.682356
