PE IR       SUBTECH     SPECTRUM    ASCII       PEDS        4.00        
   -1
3S-H10-C033_1.ASC
22/02/18
10:13:19.00
22/02/18
10:28:19.00
uco
Sample 033 By uco Date Friday, February 18 2022
450.000000
#HDR
-1
-1
#GR
cm-1
A
1.0
0.0
4000.000000
-1.000000
3551
8
0.145903
0.003169
#DATA
4000.000000	0.003474
3999.000000	0.003473
3998.000000	0.003471
3997.000000	0.003452
3996.000000	0.003430
3995.000000	0.003422
3994.000000	0.003436
3993.000000	0.003466
3992.000000	0.003497
3991.000000	0.003518
3990.000000	0.003528
3989.000000	0.003533
3988.000000	0.003532
3987.000000	0.003521
3986.000000	0.003498
3985.000000	0.003470
3984.000000	0.003448
3983.000000	0.003445
3982.000000	0.003460
3981.000000	0.003478
3980.000000	0.003487
3979.000000	0.003485
3978.000000	0.003481
3977.000000	0.003486
3976.000000	0.003504
3975.000000	0.003531
3974.000000	0.003559
3973.000000	0.003582
3972.000000	0.003598
3971.000000	0.003609
3970.000000	0.003611
3969.000000	0.003602
3968.000000	0.003583
3967.000000	0.003563
3966.000000	0.003552
3965.000000	0.003554
3964.000000	0.003560
3963.000000	0.003557
3962.000000	0.003543
3961.000000	0.003523
3960.000000	0.003511
3959.000000	0.003512
3958.000000	0.003522
3957.000000	0.003536
3956.000000	0.003550
3955.000000	0.003562
3954.000000	0.003575
3953.000000	0.003588
3952.000000	0.003598
3951.000000	0.003598
3950.000000	0.003588
3949.000000	0.003573
3948.000000	0.003561
3947.000000	0.003558
3946.000000	0.003563
3945.000000	0.003565
3944.000000	0.003555
3943.000000	0.003536
3942.000000	0.003520
3941.000000	0.003520
3940.000000	0.003537
3939.000000	0.003554
3938.000000	0.003560
3937.000000	0.003554
3936.000000	0.003547
3935.000000	0.003551
3934.000000	0.003564
3933.000000	0.003578
3932.000000	0.003582
3931.000000	0.003574
3930.000000	0.003561
3929.000000	0.003553
3928.000000	0.003553
3927.000000	0.003553
3926.000000	0.003541
3925.000000	0.003518
3924.000000	0.003504
3923.000000	0.003516
3922.000000	0.003552
3921.000000	0.003594
3920.000000	0.003630
3919.000000	0.003655
3918.000000	0.003662
3917.000000	0.003651
3916.000000	0.003632
3915.000000	0.003623
3914.000000	0.003626
3913.000000	0.003628
3912.000000	0.003620
3911.000000	0.003608
3910.000000	0.003608
3909.000000	0.003628
3908.000000	0.003659
3907.000000	0.003681
3906.000000	0.003678
3905.000000	0.003651
3904.000000	0.003620
3903.000000	0.003608
3902.000000	0.003613
3901.000000	0.003613
3900.000000	0.003590
3899.000000	0.003557
3898.000000	0.003539
3897.000000	0.003542
3896.000000	0.003553
3895.000000	0.003559
3894.000000	0.003556
3893.000000	0.003541
3892.000000	0.003513
3891.000000	0.003486
3890.000000	0.003493
3889.000000	0.003544
3888.000000	0.003611
3887.000000	0.003655
3886.000000	0.003663
3885.000000	0.003656
3884.000000	0.003665
3883.000000	0.003688
3882.000000	0.003693
3881.000000	0.003662
3880.000000	0.003610
3879.000000	0.003573
3878.000000	0.003569
3877.000000	0.003584
3876.000000	0.003590
3875.000000	0.003583
3874.000000	0.003582
3873.000000	0.003614
3872.000000	0.003671
3871.000000	0.003706
3870.000000	0.003687
3869.000000	0.003649
3868.000000	0.003646
3867.000000	0.003670
3866.000000	0.003677
3865.000000	0.003651
3864.000000	0.003616
3863.000000	0.003595
3862.000000	0.003592
3861.000000	0.003598
3860.000000	0.003614
3859.000000	0.003640
3858.000000	0.003676
3857.000000	0.003718
3856.000000	0.003760
3855.000000	0.003783
3854.000000	0.003761
3853.000000	0.003701
3852.000000	0.003665
3851.000000	0.003664
3850.000000	0.003646
3849.000000	0.003597
3848.000000	0.003554
3847.000000	0.003538
3846.000000	0.003544
3845.000000	0.003555
3844.000000	0.003559
3843.000000	0.003560
3842.000000	0.003571
3841.000000	0.003597
3840.000000	0.003623
3839.000000	0.003634
3838.000000	0.003629
3837.000000	0.003620
3836.000000	0.003615
3835.000000	0.003610
3834.000000	0.003597
3833.000000	0.003574
3832.000000	0.003554
3831.000000	0.003554
3830.000000	0.003582
3829.000000	0.003625
3828.000000	0.003658
3827.000000	0.003668
3826.000000	0.003666
3825.000000	0.003679
3824.000000	0.003712
3823.000000	0.003733
3822.000000	0.003707
3821.000000	0.003637
3820.000000	0.003581
3819.000000	0.003581
3818.000000	0.003597
3817.000000	0.003578
3816.000000	0.003530
3815.000000	0.003504
3814.000000	0.003529
3813.000000	0.003571
3812.000000	0.003589
3811.000000	0.003584
3810.000000	0.003580
3809.000000	0.003583
3808.000000	0.003581
3807.000000	0.003570
3806.000000	0.003576
3805.000000	0.003619
3804.000000	0.003687
3803.000000	0.003687
3802.000000	0.003694
3801.000000	0.003702
3800.000000	0.003692
3799.000000	0.003573
3798.000000	0.003598
3797.000000	0.003574
3796.000000	0.003539
3795.000000	0.003522
3794.000000	0.003531
3793.000000	0.003543
3792.000000	0.003548
3791.000000	0.003552
3790.000000	0.003566
3789.000000	0.003590
3788.000000	0.003616
3787.000000	0.003633
3786.000000	0.003628
3785.000000	0.003601
3784.000000	0.003572
3783.000000	0.003566
3782.000000	0.003586
3781.000000	0.003609
3780.000000	0.003608
3779.000000	0.003580
3778.000000	0.003552
3777.000000	0.003542
3776.000000	0.003544
3775.000000	0.003549
3774.000000	0.003560
3773.000000	0.003581
3772.000000	0.003603
3771.000000	0.003608
3770.000000	0.003594
3769.000000	0.003580
3768.000000	0.003581
3767.000000	0.003581
3766.000000	0.003557
3765.000000	0.003510
3764.000000	0.003466
3763.000000	0.003443
3762.000000	0.003436
3761.000000	0.003433
3760.000000	0.003435
3759.000000	0.003444
3758.000000	0.003459
3757.000000	0.003478
3756.000000	0.003501
3755.000000	0.003527
3754.000000	0.003556
3753.000000	0.003588
3752.000000	0.003623
3751.000000	0.003650
3750.000000	0.003663
3749.000000	0.003675
3748.000000	0.003703
3747.000000	0.003735
3746.000000	0.003743
3745.000000	0.003714
3744.000000	0.003674
3743.000000	0.003674
3742.000000	0.003701
3741.000000	0.003690
3740.000000	0.003641
3739.000000	0.003605
3738.000000	0.003611
3737.000000	0.003638
3736.000000	0.003646
3735.000000	0.003629
3734.000000	0.003605
3733.000000	0.003576
3732.000000	0.003540
3731.000000	0.003510
3730.000000	0.003503
3729.000000	0.003513
3728.000000	0.003519
3727.000000	0.003509
3726.000000	0.003485
3725.000000	0.003459
3724.000000	0.003439
3723.000000	0.003428
3722.000000	0.003434
3721.000000	0.003454
3720.000000	0.003476
3719.000000	0.003481
3718.000000	0.003468
3717.000000	0.003456
3716.000000	0.003466
3715.000000	0.003502
3714.000000	0.003549
3713.000000	0.003585
3712.000000	0.003594
3711.000000	0.003574
3710.000000	0.003545
3709.000000	0.003522
3708.000000	0.003499
3707.000000	0.003472
3706.000000	0.003447
3705.000000	0.003435
3704.000000	0.003443
3703.000000	0.003464
3702.000000	0.003488
3701.000000	0.003511
3700.000000	0.003537
3699.000000	0.003565
3698.000000	0.003585
3697.000000	0.003596
3696.000000	0.003607
3695.000000	0.003624
3694.000000	0.003643
3693.000000	0.003653
3692.000000	0.003655
3691.000000	0.003658
3690.000000	0.003668
3689.000000	0.003685
3688.000000	0.003717
3687.000000	0.003764
3686.000000	0.003810
3685.000000	0.003838
3684.000000	0.003850
3683.000000	0.003861
3682.000000	0.003878
3681.000000	0.003894
3680.000000	0.003906
3679.000000	0.003931
3678.000000	0.003986
3677.000000	0.004054
3676.000000	0.004091
3675.000000	0.004087
3674.000000	0.004094
3673.000000	0.004131
3672.000000	0.004159
3671.000000	0.004161
3670.000000	0.004155
3669.000000	0.004168
3668.000000	0.004209
3667.000000	0.004259
3666.000000	0.004294
3665.000000	0.004316
3664.000000	0.004336
3663.000000	0.004354
3662.000000	0.004371
3661.000000	0.004393
3660.000000	0.004434
3659.000000	0.004500
3658.000000	0.004581
3657.000000	0.004652
3656.000000	0.004700
3655.000000	0.004741
3654.000000	0.004794
3653.000000	0.004849
3652.000000	0.004891
3651.000000	0.004923
3650.000000	0.004962
3649.000000	0.005016
3648.000000	0.005082
3647.000000	0.005142
3646.000000	0.005186
3645.000000	0.005215
3644.000000	0.005232
3643.000000	0.005243
3642.000000	0.005251
3641.000000	0.005260
3640.000000	0.005275
3639.000000	0.005304
3638.000000	0.005352
3637.000000	0.005421
3636.000000	0.005497
3635.000000	0.005563
3634.000000	0.005619
3633.000000	0.005684
3632.000000	0.005772
3631.000000	0.005866
3630.000000	0.005941
3629.000000	0.005989
3628.000000	0.006039
3627.000000	0.006123
3626.000000	0.006209
3625.000000	0.006258
3624.000000	0.006273
3623.000000	0.006284
3622.000000	0.006310
3621.000000	0.006352
3620.000000	0.006402
3619.000000	0.006460
3618.000000	0.006532
3617.000000	0.006616
3616.000000	0.006689
3615.000000	0.006734
3614.000000	0.006758
3613.000000	0.006791
3612.000000	0.006856
3611.000000	0.006954
3610.000000	0.007064
3609.000000	0.007163
3608.000000	0.007236
3607.000000	0.007281
3606.000000	0.007313
3605.000000	0.007351
3604.000000	0.007405
3603.000000	0.007472
3602.000000	0.007533
3601.000000	0.007576
3600.000000	0.007606
3599.000000	0.007646
3598.000000	0.007709
3597.000000	0.007790
3596.000000	0.007874
3595.000000	0.007949
3594.000000	0.008020
3593.000000	0.008098
3592.000000	0.008192
3591.000000	0.008301
3590.000000	0.008418
3589.000000	0.008533
3588.000000	0.008628
3587.000000	0.008696
3586.000000	0.008750
3585.000000	0.008807
3584.000000	0.008871
3583.000000	0.008938
3582.000000	0.009008
3581.000000	0.009081
3580.000000	0.009153
3579.000000	0.009227
3578.000000	0.009310
3577.000000	0.009406
3576.000000	0.009515
3575.000000	0.009629
3574.000000	0.009737
3573.000000	0.009838
3572.000000	0.009938
3571.000000	0.010044
3570.000000	0.010159
3569.000000	0.010278
3568.000000	0.010395
3567.000000	0.010504
3566.000000	0.010607
3565.000000	0.010703
3564.000000	0.010783
3563.000000	0.010844
3562.000000	0.010895
3561.000000	0.010949
3560.000000	0.011013
3559.000000	0.011089
3558.000000	0.011174
3557.000000	0.011269
3556.000000	0.011373
3555.000000	0.011486
3554.000000	0.011606
3553.000000	0.011726
3552.000000	0.011835
3551.000000	0.011925
3550.000000	0.012002
3549.000000	0.012077
3548.000000	0.012155
3547.000000	0.012236
3546.000000	0.012321
3545.000000	0.012415
3544.000000	0.012527
3543.000000	0.012650
3542.000000	0.012770
3541.000000	0.012876
3540.000000	0.012967
3539.000000	0.013049
3538.000000	0.013133
3537.000000	0.013225
3536.000000	0.013324
3535.000000	0.013425
3534.000000	0.013524
3533.000000	0.013620
3532.000000	0.013715
3531.000000	0.013808
3530.000000	0.013893
3529.000000	0.013964
3528.000000	0.014020
3527.000000	0.014072
3526.000000	0.014132
3525.000000	0.014202
3524.000000	0.014280
3523.000000	0.014364
3522.000000	0.014460
3521.000000	0.014568
3520.000000	0.014677
3519.000000	0.014772
3518.000000	0.014851
3517.000000	0.014925
3516.000000	0.015008
3515.000000	0.015103
3514.000000	0.015202
3513.000000	0.015294
3512.000000	0.015372
3511.000000	0.015436
3510.000000	0.015501
3509.000000	0.015583
3508.000000	0.015685
3507.000000	0.015789
3506.000000	0.015876
3505.000000	0.015938
3504.000000	0.015988
3503.000000	0.016045
3502.000000	0.016122
3501.000000	0.016216
3500.000000	0.016317
3499.000000	0.016415
3498.000000	0.016506
3497.000000	0.016598
3496.000000	0.016695
3495.000000	0.016800
3494.000000	0.016905
3493.000000	0.016998
3492.000000	0.017073
3491.000000	0.017131
3490.000000	0.017179
3489.000000	0.017227
3488.000000	0.017287
3487.000000	0.017370
3486.000000	0.017476
3485.000000	0.017596
3484.000000	0.017706
3483.000000	0.017787
3482.000000	0.017837
3481.000000	0.017872
3480.000000	0.017916
3479.000000	0.017984
3478.000000	0.018075
3477.000000	0.018172
3476.000000	0.018256
3475.000000	0.018323
3474.000000	0.018380
3473.000000	0.018437
3472.000000	0.018493
3471.000000	0.018543
3470.000000	0.018587
3469.000000	0.018629
3468.000000	0.018677
3467.000000	0.018737
3466.000000	0.018806
3465.000000	0.018877
3464.000000	0.018939
3463.000000	0.018988
3462.000000	0.019034
3461.000000	0.019088
3460.000000	0.019154
3459.000000	0.019226
3458.000000	0.019291
3457.000000	0.019343
3456.000000	0.019384
3455.000000	0.019420
3454.000000	0.019457
3453.000000	0.019497
3452.000000	0.019540
3451.000000	0.019583
3450.000000	0.019627
3449.000000	0.019668
3448.000000	0.019702
3447.000000	0.019727
3446.000000	0.019753
3445.000000	0.019789
3444.000000	0.019844
3443.000000	0.019917
3442.000000	0.020004
3441.000000	0.020097
3440.000000	0.020180
3439.000000	0.020247
3438.000000	0.020293
3437.000000	0.020323
3436.000000	0.020340
3435.000000	0.020353
3434.000000	0.020372
3433.000000	0.020402
3432.000000	0.020441
3431.000000	0.020481
3430.000000	0.020525
3429.000000	0.020575
3428.000000	0.020635
3427.000000	0.020702
3426.000000	0.020773
3425.000000	0.020837
3424.000000	0.020883
3423.000000	0.020908
3422.000000	0.020919
3421.000000	0.020932
3420.000000	0.020953
3419.000000	0.020986
3418.000000	0.021030
3417.000000	0.021091
3416.000000	0.021166
3415.000000	0.021245
3414.000000	0.021313
3413.000000	0.021355
3412.000000	0.021370
3411.000000	0.021369
3410.000000	0.021377
3409.000000	0.021412
3408.000000	0.021478
3407.000000	0.021559
3406.000000	0.021633
3405.000000	0.021689
3404.000000	0.021728
3403.000000	0.021761
3402.000000	0.021793
3401.000000	0.021824
3400.000000	0.021851
3399.000000	0.021875
3398.000000	0.021899
3397.000000	0.021926
3396.000000	0.021952
3395.000000	0.021974
3394.000000	0.021995
3393.000000	0.022023
3392.000000	0.022068
3391.000000	0.022136
3390.000000	0.022221
3389.000000	0.022303
3388.000000	0.022366
3387.000000	0.022407
3386.000000	0.022444
3385.000000	0.022491
3384.000000	0.022546
3383.000000	0.022602
3382.000000	0.022656
3381.000000	0.022713
3380.000000	0.022773
3379.000000	0.022830
3378.000000	0.022881
3377.000000	0.022931
3376.000000	0.022988
3375.000000	0.023056
3374.000000	0.023135
3373.000000	0.023216
3372.000000	0.023292
3371.000000	0.023359
3370.000000	0.023428
3369.000000	0.023508
3368.000000	0.023602
3367.000000	0.023706
3366.000000	0.023816
3365.000000	0.023931
3364.000000	0.024051
3363.000000	0.024171
3362.000000	0.024285
3361.000000	0.024393
3360.000000	0.024501
3359.000000	0.024617
3358.000000	0.024743
3357.000000	0.024877
3356.000000	0.025007
3355.000000	0.025130
3354.000000	0.025245
3353.000000	0.025354
3352.000000	0.025451
3351.000000	0.025544
3350.000000	0.025647
3349.000000	0.025770
3348.000000	0.025903
3347.000000	0.026026
3346.000000	0.026134
3345.000000	0.026242
3344.000000	0.026366
3343.000000	0.026503
3342.000000	0.026643
3341.000000	0.026775
3340.000000	0.026895
3339.000000	0.027007
3338.000000	0.027120
3337.000000	0.027245
3336.000000	0.027381
3335.000000	0.027517
3334.000000	0.027639
3333.000000	0.027742
3332.000000	0.027828
3331.000000	0.027905
3330.000000	0.027974
3329.000000	0.028036
3328.000000	0.028094
3327.000000	0.028159
3326.000000	0.028243
3325.000000	0.028349
3324.000000	0.028461
3323.000000	0.028555
3322.000000	0.028620
3321.000000	0.028659
3320.000000	0.028687
3319.000000	0.028720
3318.000000	0.028767
3317.000000	0.028826
3316.000000	0.028887
3315.000000	0.028941
3314.000000	0.028985
3313.000000	0.029018
3312.000000	0.029038
3311.000000	0.029050
3310.000000	0.029061
3309.000000	0.029076
3308.000000	0.029097
3307.000000	0.029120
3306.000000	0.029149
3305.000000	0.029188
3304.000000	0.029231
3303.000000	0.029266
3302.000000	0.029282
3301.000000	0.029285
3300.000000	0.029289
3299.000000	0.029304
3298.000000	0.029329
3297.000000	0.029348
3296.000000	0.029348
3295.000000	0.029332
3294.000000	0.029310
3293.000000	0.029289
3292.000000	0.029267
3291.000000	0.029240
3290.000000	0.029219
3289.000000	0.029215
3288.000000	0.029227
3287.000000	0.029241
3286.000000	0.029244
3285.000000	0.029230
3284.000000	0.029201
3283.000000	0.029160
3282.000000	0.029112
3281.000000	0.029065
3280.000000	0.029023
3279.000000	0.028980
3278.000000	0.028931
3277.000000	0.028876
3276.000000	0.028819
3275.000000	0.028763
3274.000000	0.028707
3273.000000	0.028648
3272.000000	0.028580
3271.000000	0.028505
3270.000000	0.028433
3269.000000	0.028375
3268.000000	0.028331
3267.000000	0.028292
3266.000000	0.028246
3265.000000	0.028188
3264.000000	0.028118
3263.000000	0.028042
3262.000000	0.027967
3261.000000	0.027898
3260.000000	0.027827
3259.000000	0.027745
3258.000000	0.027646
3257.000000	0.027543
3256.000000	0.027454
3255.000000	0.027395
3254.000000	0.027363
3253.000000	0.027340
3252.000000	0.027297
3251.000000	0.027219
3250.000000	0.027109
3249.000000	0.026985
3248.000000	0.026873
3247.000000	0.026787
3246.000000	0.026730
3245.000000	0.026695
3244.000000	0.026666
3243.000000	0.026630
3242.000000	0.026575
3241.000000	0.026501
3240.000000	0.026414
3239.000000	0.026322
3238.000000	0.026237
3237.000000	0.026170
3236.000000	0.026121
3235.000000	0.026080
3234.000000	0.026036
3233.000000	0.025982
3232.000000	0.025914
3231.000000	0.025838
3230.000000	0.025764
3229.000000	0.025701
3228.000000	0.025647
3227.000000	0.025593
3226.000000	0.025535
3225.000000	0.025481
3224.000000	0.025440
3223.000000	0.025408
3222.000000	0.025371
3221.000000	0.025318
3220.000000	0.025251
3219.000000	0.025181
3218.000000	0.025123
3217.000000	0.025082
3216.000000	0.025047
3215.000000	0.024999
3214.000000	0.024923
3213.000000	0.024824
3212.000000	0.024723
3211.000000	0.024639
3210.000000	0.024580
3209.000000	0.024531
3208.000000	0.024472
3207.000000	0.024391
3206.000000	0.024301
3205.000000	0.024224
3204.000000	0.024170
3203.000000	0.024132
3202.000000	0.024094
3201.000000	0.024046
3200.000000	0.023985
3199.000000	0.023913
3198.000000	0.023831
3197.000000	0.023740
3196.000000	0.023638
3195.000000	0.023530
3194.000000	0.023422
3193.000000	0.023320
3192.000000	0.023226
3191.000000	0.023139
3190.000000	0.023062
3189.000000	0.023001
3188.000000	0.022949
3187.000000	0.022895
3186.000000	0.022824
3185.000000	0.022730
3184.000000	0.022621
3183.000000	0.022514
3182.000000	0.022425
3181.000000	0.022353
3180.000000	0.022284
3179.000000	0.022202
3178.000000	0.022107
3177.000000	0.022011
3176.000000	0.021925
3175.000000	0.021847
3174.000000	0.021769
3173.000000	0.021683
3172.000000	0.021586
3171.000000	0.021482
3170.000000	0.021377
3169.000000	0.021272
3168.000000	0.021164
3167.000000	0.021053
3166.000000	0.020946
3165.000000	0.020851
3164.000000	0.020766
3163.000000	0.020684
3162.000000	0.020602
3161.000000	0.020519
3160.000000	0.020432
3159.000000	0.020336
3158.000000	0.020234
3157.000000	0.020139
3156.000000	0.020062
3155.000000	0.020001
3154.000000	0.019947
3153.000000	0.019897
3152.000000	0.019845
3151.000000	0.019784
3150.000000	0.019709
3149.000000	0.019620
3148.000000	0.019526
3147.000000	0.019433
3146.000000	0.019347
3145.000000	0.019271
3144.000000	0.019203
3143.000000	0.019135
3142.000000	0.019058
3141.000000	0.018972
3140.000000	0.018891
3139.000000	0.018833
3138.000000	0.018806
3137.000000	0.018796
3136.000000	0.018776
3135.000000	0.018727
3134.000000	0.018653
3133.000000	0.018568
3132.000000	0.018487
3131.000000	0.018415
3130.000000	0.018361
3129.000000	0.018327
3128.000000	0.018308
3127.000000	0.018294
3126.000000	0.018278
3125.000000	0.018256
3124.000000	0.018223
3123.000000	0.018180
3122.000000	0.018138
3121.000000	0.018112
3120.000000	0.018104
3119.000000	0.018099
3118.000000	0.018088
3117.000000	0.018077
3116.000000	0.018080
3115.000000	0.018107
3114.000000	0.018153
3113.000000	0.018202
3112.000000	0.018236
3111.000000	0.018247
3110.000000	0.018247
3109.000000	0.018256
3108.000000	0.018286
3107.000000	0.018331
3106.000000	0.018379
3105.000000	0.018419
3104.000000	0.018450
3103.000000	0.018473
3102.000000	0.018491
3101.000000	0.018512
3100.000000	0.018543
3099.000000	0.018585
3098.000000	0.018638
3097.000000	0.018697
3096.000000	0.018759
3095.000000	0.018818
3094.000000	0.018871
3093.000000	0.018914
3092.000000	0.018941
3091.000000	0.018952
3090.000000	0.018960
3089.000000	0.018983
3088.000000	0.019027
3087.000000	0.019080
3086.000000	0.019130
3085.000000	0.019176
3084.000000	0.019223
3083.000000	0.019267
3082.000000	0.019298
3081.000000	0.019315
3080.000000	0.019325
3079.000000	0.019340
3078.000000	0.019363
3077.000000	0.019388
3076.000000	0.019409
3075.000000	0.019426
3074.000000	0.019443
3073.000000	0.019455
3072.000000	0.019456
3071.000000	0.019442
3070.000000	0.019417
3069.000000	0.019383
3068.000000	0.019341
3067.000000	0.019296
3066.000000	0.019265
3065.000000	0.019254
3064.000000	0.019247
3063.000000	0.019220
3062.000000	0.019162
3061.000000	0.019085
3060.000000	0.019000
3059.000000	0.018914
3058.000000	0.018830
3057.000000	0.018759
3056.000000	0.018703
3055.000000	0.018649
3054.000000	0.018579
3053.000000	0.018490
3052.000000	0.018398
3051.000000	0.018319
3050.000000	0.018254
3049.000000	0.018194
3048.000000	0.018129
3047.000000	0.018057
3046.000000	0.017985
3045.000000	0.017916
3044.000000	0.017851
3043.000000	0.017789
3042.000000	0.017736
3041.000000	0.017699
3040.000000	0.017672
3039.000000	0.017644
3038.000000	0.017606
3037.000000	0.017559
3036.000000	0.017508
3035.000000	0.017460
3034.000000	0.017423
3033.000000	0.017400
3032.000000	0.017383
3031.000000	0.017363
3030.000000	0.017343
3029.000000	0.017335
3028.000000	0.017351
3027.000000	0.017388
3026.000000	0.017440
3025.000000	0.017509
3024.000000	0.017601
3023.000000	0.017720
3022.000000	0.017862
3021.000000	0.018021
3020.000000	0.018196
3019.000000	0.018396
3018.000000	0.018634
3017.000000	0.018919
3016.000000	0.019242
3015.000000	0.019588
3014.000000	0.019951
3013.000000	0.020329
3012.000000	0.020718
3011.000000	0.021106
3010.000000	0.021475
3009.000000	0.021808
3008.000000	0.022093
3007.000000	0.022315
3006.000000	0.022468
3005.000000	0.022552
3004.000000	0.022574
3003.000000	0.022538
3002.000000	0.022446
3001.000000	0.022306
3000.000000	0.022125
2999.000000	0.021917
2998.000000	0.021702
2997.000000	0.021503
2996.000000	0.021336
2995.000000	0.021207
2994.000000	0.021129
2993.000000	0.021121
2992.000000	0.021196
2991.000000	0.021345
2990.000000	0.021546
2989.000000	0.021782
2988.000000	0.022050
2987.000000	0.022355
2986.000000	0.022701
2985.000000	0.023090
2984.000000	0.023522
2983.000000	0.023995
2982.000000	0.024511
2981.000000	0.025076
2980.000000	0.025693
2979.000000	0.026363
2978.000000	0.027084
2977.000000	0.027856
2976.000000	0.028693
2975.000000	0.029610
2974.000000	0.030624
2973.000000	0.031743
2972.000000	0.032964
2971.000000	0.034284
2970.000000	0.035704
2969.000000	0.037228
2968.000000	0.038859
2967.000000	0.040585
2966.000000	0.042389
2965.000000	0.044239
2964.000000	0.046096
2963.000000	0.047914
2962.000000	0.049656
2961.000000	0.051294
2960.000000	0.052810
2959.000000	0.054186
2958.000000	0.055399
2957.000000	0.056426
2956.000000	0.057248
2955.000000	0.057857
2954.000000	0.058268
2953.000000	0.058518
2952.000000	0.058677
2951.000000	0.058835
2950.000000	0.059092
2949.000000	0.059540
2948.000000	0.060248
2947.000000	0.061267
2946.000000	0.062623
2945.000000	0.064331
2944.000000	0.066395
2943.000000	0.068816
2942.000000	0.071582
2941.000000	0.074676
2940.000000	0.078076
2939.000000	0.081769
2938.000000	0.085749
2937.000000	0.089998
2936.000000	0.094482
2935.000000	0.099160
2934.000000	0.103986
2933.000000	0.108910
2932.000000	0.113874
2931.000000	0.118823
2930.000000	0.123703
2929.000000	0.128440
2928.000000	0.132910
2927.000000	0.136957
2926.000000	0.140426
2925.000000	0.143167
2924.000000	0.145037
2923.000000	0.145903
2922.000000	0.145663
2921.000000	0.144276
2920.000000	0.141783
2919.000000	0.138319
2918.000000	0.134076
2917.000000	0.129275
2916.000000	0.124135
2915.000000	0.118851
2914.000000	0.113603
2913.000000	0.108538
2912.000000	0.103769
2911.000000	0.099354
2910.000000	0.095303
2909.000000	0.091608
2908.000000	0.088252
2907.000000	0.085204
2906.000000	0.082414
2905.000000	0.079816
2904.000000	0.077360
2903.000000	0.075023
2902.000000	0.072803
2901.000000	0.070704
2900.000000	0.068722
2899.000000	0.066838
2898.000000	0.065022
2897.000000	0.063248
2896.000000	0.061505
2895.000000	0.059802
2894.000000	0.058150
2893.000000	0.056560
2892.000000	0.055027
2891.000000	0.053541
2890.000000	0.052101
2889.000000	0.050714
2888.000000	0.049403
2887.000000	0.048193
2886.000000	0.047107
2885.000000	0.046159
2884.000000	0.045362
2883.000000	0.044722
2882.000000	0.044249
2881.000000	0.043968
2880.000000	0.043906
2879.000000	0.044091
2878.000000	0.044528
2877.000000	0.045200
2876.000000	0.046059
2875.000000	0.047034
2874.000000	0.048030
2873.000000	0.048952
2872.000000	0.049730
2871.000000	0.050355
2870.000000	0.050890
2869.000000	0.051463
2868.000000	0.052234
2867.000000	0.053356
2866.000000	0.054952
2865.000000	0.057097
2864.000000	0.059822
2863.000000	0.063132
2862.000000	0.067011
2861.000000	0.071417
2860.000000	0.076271
2859.000000	0.081431
2858.000000	0.086677
2857.000000	0.091711
2856.000000	0.096172
2855.000000	0.099679
2854.000000	0.101875
2853.000000	0.102481
2852.000000	0.101367
2851.000000	0.098582
2850.000000	0.094336
2849.000000	0.088954
2848.000000	0.082819
2847.000000	0.076328
2846.000000	0.069843
2845.000000	0.063648
2844.000000	0.057940
2843.000000	0.052834
2842.000000	0.048376
2841.000000	0.044563
2840.000000	0.041347
2839.000000	0.038650
2838.000000	0.036381
2837.000000	0.034447
2836.000000	0.032769
2835.000000	0.031293
2834.000000	0.029988
2833.000000	0.028832
2832.000000	0.027798
2831.000000	0.026861
2830.000000	0.025998
2829.000000	0.025201
2828.000000	0.024463
2827.000000	0.023780
2826.000000	0.023149
2825.000000	0.022569
2824.000000	0.022038
2823.000000	0.021550
2822.000000	0.021098
2821.000000	0.020674
2820.000000	0.020276
2819.000000	0.019904
2818.000000	0.019561
2817.000000	0.019247
2816.000000	0.018955
2815.000000	0.018673
2814.000000	0.018395
2813.000000	0.018127
2812.000000	0.017879
2811.000000	0.017657
2810.000000	0.017460
2809.000000	0.017280
2808.000000	0.017108
2807.000000	0.016935
2806.000000	0.016760
2805.000000	0.016588
2804.000000	0.016420
2803.000000	0.016255
2802.000000	0.016093
2801.000000	0.015939
2800.000000	0.015799
2799.000000	0.015672
2798.000000	0.015556
2797.000000	0.015449
2796.000000	0.015339
2795.000000	0.015215
2794.000000	0.015074
2793.000000	0.014931
2792.000000	0.014805
2791.000000	0.014704
2790.000000	0.014617
2789.000000	0.014528
2788.000000	0.014425
2787.000000	0.014307
2786.000000	0.014182
2785.000000	0.014063
2784.000000	0.013954
2783.000000	0.013854
2782.000000	0.013754
2781.000000	0.013654
2780.000000	0.013555
2779.000000	0.013463
2778.000000	0.013379
2777.000000	0.013304
2776.000000	0.013234
2775.000000	0.013166
2774.000000	0.013097
2773.000000	0.013025
2772.000000	0.012953
2771.000000	0.012882
2770.000000	0.012819
2769.000000	0.012770
2768.000000	0.012732
2767.000000	0.012691
2766.000000	0.012634
2765.000000	0.012563
2764.000000	0.012489
2763.000000	0.012427
2762.000000	0.012383
2761.000000	0.012349
2760.000000	0.012313
2759.000000	0.012268
2758.000000	0.012221
2757.000000	0.012177
2756.000000	0.012137
2755.000000	0.012098
2754.000000	0.012056
2753.000000	0.012009
2752.000000	0.011960
2751.000000	0.011912
2750.000000	0.011874
2749.000000	0.011851
2748.000000	0.011836
2747.000000	0.011819
2746.000000	0.011796
2745.000000	0.011770
2744.000000	0.011743
2743.000000	0.011713
2742.000000	0.011683
2741.000000	0.011663
2740.000000	0.011651
2739.000000	0.011634
2738.000000	0.011606
2737.000000	0.011572
2736.000000	0.011549
2735.000000	0.011540
2734.000000	0.011540
2733.000000	0.011538
2732.000000	0.011528
2731.000000	0.011509
2730.000000	0.011483
2729.000000	0.011450
2728.000000	0.011409
2727.000000	0.011359
2726.000000	0.011304
2725.000000	0.011252
2724.000000	0.011205
2723.000000	0.011159
2722.000000	0.011116
2721.000000	0.011081
2720.000000	0.011056
2719.000000	0.011032
2718.000000	0.010994
2717.000000	0.010941
2716.000000	0.010882
2715.000000	0.010828
2714.000000	0.010782
2713.000000	0.010741
2712.000000	0.010701
2711.000000	0.010660
2710.000000	0.010622
2709.000000	0.010589
2708.000000	0.010564
2707.000000	0.010548
2706.000000	0.010537
2705.000000	0.010526
2704.000000	0.010513
2703.000000	0.010497
2702.000000	0.010488
2701.000000	0.010493
2700.000000	0.010511
2699.000000	0.010529
2698.000000	0.010534
2697.000000	0.010525
2696.000000	0.010516
2695.000000	0.010518
2694.000000	0.010531
2693.000000	0.010548
2692.000000	0.010560
2691.000000	0.010565
2690.000000	0.010568
2689.000000	0.010568
2688.000000	0.010559
2687.000000	0.010542
2686.000000	0.010530
2685.000000	0.010533
2684.000000	0.010548
2683.000000	0.010563
2682.000000	0.010572
2681.000000	0.010579
2680.000000	0.010583
2679.000000	0.010580
2678.000000	0.010567
2677.000000	0.010550
2676.000000	0.010531
2675.000000	0.010508
2674.000000	0.010481
2673.000000	0.010458
2672.000000	0.010446
2671.000000	0.010436
2670.000000	0.010422
2669.000000	0.010400
2668.000000	0.010373
2667.000000	0.010346
2666.000000	0.010322
2665.000000	0.010299
2664.000000	0.010272
2663.000000	0.010237
2662.000000	0.010193
2661.000000	0.010147
2660.000000	0.010105
2659.000000	0.010065
2658.000000	0.010025
2657.000000	0.009985
2656.000000	0.009945
2655.000000	0.009907
2654.000000	0.009874
2653.000000	0.009848
2652.000000	0.009828
2651.000000	0.009803
2650.000000	0.009768
2649.000000	0.009724
2648.000000	0.009673
2647.000000	0.009616
2646.000000	0.009562
2645.000000	0.009519
2644.000000	0.009489
2643.000000	0.009460
2642.000000	0.009421
2641.000000	0.009375
2640.000000	0.009331
2639.000000	0.009292
2638.000000	0.009255
2637.000000	0.009214
2636.000000	0.009164
2635.000000	0.009109
2634.000000	0.009054
2633.000000	0.009005
2632.000000	0.008963
2631.000000	0.008924
2630.000000	0.008885
2629.000000	0.008850
2628.000000	0.008822
2627.000000	0.008797
2626.000000	0.008765
2625.000000	0.008724
2624.000000	0.008682
2623.000000	0.008653
2622.000000	0.008648
2621.000000	0.008658
2620.000000	0.008664
2619.000000	0.008645
2618.000000	0.008596
2617.000000	0.008528
2616.000000	0.008454
2615.000000	0.008386
2614.000000	0.008333
2613.000000	0.008296
2612.000000	0.008268
2611.000000	0.008238
2610.000000	0.008208
2609.000000	0.008186
2608.000000	0.008176
2607.000000	0.008171
2606.000000	0.008162
2605.000000	0.008147
2604.000000	0.008120
2603.000000	0.008079
2602.000000	0.008028
2601.000000	0.007981
2600.000000	0.007949
2599.000000	0.007935
2598.000000	0.007934
2597.000000	0.007948
2596.000000	0.007972
2595.000000	0.007993
2594.000000	0.007998
2593.000000	0.007988
2592.000000	0.007970
2591.000000	0.007948
2590.000000	0.007922
2589.000000	0.007890
2588.000000	0.007846
2587.000000	0.007787
2586.000000	0.007723
2585.000000	0.007679
2584.000000	0.007669
2583.000000	0.007682
2582.000000	0.007688
2581.000000	0.007665
2580.000000	0.007613
2579.000000	0.007557
2578.000000	0.007521
2577.000000	0.007515
2576.000000	0.007528
2575.000000	0.007542
2574.000000	0.007543
2573.000000	0.007526
2572.000000	0.007481
2571.000000	0.007411
2570.000000	0.007336
2569.000000	0.007280
2568.000000	0.007249
2567.000000	0.007232
2566.000000	0.007225
2565.000000	0.007230
2564.000000	0.007244
2563.000000	0.007253
2562.000000	0.007247
2561.000000	0.007237
2560.000000	0.007239
2559.000000	0.007255
2558.000000	0.007273
2557.000000	0.007285
2556.000000	0.007287
2555.000000	0.007277
2554.000000	0.007256
2553.000000	0.007224
2552.000000	0.007184
2551.000000	0.007141
2550.000000	0.007110
2549.000000	0.007102
2548.000000	0.007114
2547.000000	0.007131
2546.000000	0.007139
2545.000000	0.007130
2544.000000	0.007106
2543.000000	0.007077
2542.000000	0.007057
2541.000000	0.007055
2540.000000	0.007061
2539.000000	0.007065
2538.000000	0.007063
2537.000000	0.007055
2536.000000	0.007035
2535.000000	0.007005
2534.000000	0.006986
2533.000000	0.006997
2532.000000	0.007024
2531.000000	0.007035
2530.000000	0.007013
2529.000000	0.006974
2528.000000	0.006951
2527.000000	0.006964
2526.000000	0.007011
2525.000000	0.007067
2524.000000	0.007090
2523.000000	0.007063
2522.000000	0.007011
2521.000000	0.006977
2520.000000	0.006972
2519.000000	0.006969
2518.000000	0.006941
2517.000000	0.006889
2516.000000	0.006823
2515.000000	0.006752
2514.000000	0.006688
2513.000000	0.006649
2512.000000	0.006643
2511.000000	0.006662
2510.000000	0.006703
2509.000000	0.006759
2508.000000	0.006807
2507.000000	0.006817
2506.000000	0.006792
2505.000000	0.006760
2504.000000	0.006742
2503.000000	0.006726
2502.000000	0.006696
2501.000000	0.006661
2500.000000	0.006637
2499.000000	0.006624
2498.000000	0.006605
2497.000000	0.006572
2496.000000	0.006528
2495.000000	0.006484
2494.000000	0.006451
2493.000000	0.006439
2492.000000	0.006441
2491.000000	0.006445
2490.000000	0.006448
2489.000000	0.006465
2488.000000	0.006499
2487.000000	0.006530
2486.000000	0.006537
2485.000000	0.006519
2484.000000	0.006496
2483.000000	0.006483
2482.000000	0.006479
2481.000000	0.006475
2480.000000	0.006454
2479.000000	0.006404
2478.000000	0.006340
2477.000000	0.006297
2476.000000	0.006297
2475.000000	0.006331
2474.000000	0.006365
2473.000000	0.006370
2472.000000	0.006336
2471.000000	0.006275
2470.000000	0.006213
2469.000000	0.006179
2468.000000	0.006184
2467.000000	0.006217
2466.000000	0.006258
2465.000000	0.006292
2464.000000	0.006314
2463.000000	0.006326
2462.000000	0.006338
2461.000000	0.006352
2460.000000	0.006360
2459.000000	0.006352
2458.000000	0.006333
2457.000000	0.006314
2456.000000	0.006301
2455.000000	0.006289
2454.000000	0.006273
2453.000000	0.006251
2452.000000	0.006221
2451.000000	0.006187
2450.000000	0.006167
2449.000000	0.006169
2448.000000	0.006184
2447.000000	0.006188
2446.000000	0.006174
2445.000000	0.006158
2444.000000	0.006151
2443.000000	0.006155
2442.000000	0.006170
2441.000000	0.006195
2440.000000	0.006225
2439.000000	0.006248
2438.000000	0.006271
2437.000000	0.006303
2436.000000	0.006335
2435.000000	0.006342
2434.000000	0.006314
2433.000000	0.006268
2432.000000	0.006233
2431.000000	0.006222
2430.000000	0.006232
2429.000000	0.006251
2428.000000	0.006261
2427.000000	0.006250
2426.000000	0.006229
2425.000000	0.006212
2424.000000	0.006199
2423.000000	0.006176
2422.000000	0.006146
2421.000000	0.006137
2420.000000	0.006165
2419.000000	0.006217
2418.000000	0.006268
2417.000000	0.006296
2416.000000	0.006286
2415.000000	0.006240
2414.000000	0.006181
2413.000000	0.006146
2412.000000	0.006145
2411.000000	0.006153
2410.000000	0.006141
2409.000000	0.006113
2408.000000	0.006095
2407.000000	0.006105
2406.000000	0.006137
2405.000000	0.006170
2404.000000	0.006182
2403.000000	0.006170
2402.000000	0.006157
2401.000000	0.006170
2400.000000	0.006207
2399.000000	0.006236
2398.000000	0.006237
2397.000000	0.006218
2396.000000	0.006207
2395.000000	0.006216
2394.000000	0.006235
2393.000000	0.006250
2392.000000	0.006253
2391.000000	0.006252
2390.000000	0.006258
2389.000000	0.006274
2388.000000	0.006285
2387.000000	0.006277
2386.000000	0.006258
2385.000000	0.006246
2384.000000	0.006246
2383.000000	0.006238
2382.000000	0.006207
2381.000000	0.006160
2380.000000	0.006113
2379.000000	0.006083
2378.000000	0.006080
2377.000000	0.006103
2376.000000	0.006135
2375.000000	0.006148
2374.000000	0.006125
2373.000000	0.006076
2372.000000	0.006018
2371.000000	0.005968
2370.000000	0.005941
2369.000000	0.005946
2368.000000	0.005964
2367.000000	0.005972
2366.000000	0.005964
2365.000000	0.005957
2364.000000	0.005962
2363.000000	0.005975
2362.000000	0.005998
2361.000000	0.006038
2360.000000	0.006089
2359.000000	0.006128
2358.000000	0.006145
2357.000000	0.006142
2356.000000	0.006118
2355.000000	0.006089
2354.000000	0.006080
2353.000000	0.006106
2352.000000	0.006151
2351.000000	0.006189
2350.000000	0.006204
2349.000000	0.006186
2348.000000	0.006138
2347.000000	0.006073
2346.000000	0.006018
2345.000000	0.006007
2344.000000	0.006041
2343.000000	0.006080
2342.000000	0.006084
2341.000000	0.006069
2340.000000	0.006064
2339.000000	0.006075
2338.000000	0.006094
2337.000000	0.006126
2336.000000	0.006177
2335.000000	0.006239
2334.000000	0.006290
2333.000000	0.006308
2332.000000	0.006290
2331.000000	0.006259
2330.000000	0.006245
2329.000000	0.006263
2328.000000	0.006307
2327.000000	0.006365
2326.000000	0.006433
2325.000000	0.006488
2324.000000	0.006497
2323.000000	0.006444
2322.000000	0.006356
2321.000000	0.006279
2320.000000	0.006226
2319.000000	0.006190
2318.000000	0.006170
2317.000000	0.006166
2316.000000	0.006161
2315.000000	0.006127
2314.000000	0.006071
2313.000000	0.006026
2312.000000	0.006016
2311.000000	0.006036
2310.000000	0.006077
2309.000000	0.006127
2308.000000	0.006160
2307.000000	0.006151
2306.000000	0.006106
2305.000000	0.006060
2304.000000	0.006030
2303.000000	0.006006
2302.000000	0.005983
2301.000000	0.005968
2300.000000	0.005960
2299.000000	0.005947
2298.000000	0.005926
2297.000000	0.005911
2296.000000	0.005910
2295.000000	0.005915
2294.000000	0.005927
2293.000000	0.005951
2292.000000	0.005974
2291.000000	0.005973
2290.000000	0.005950
2289.000000	0.005927
2288.000000	0.005911
2287.000000	0.005890
2286.000000	0.005863
2285.000000	0.005847
2284.000000	0.005838
2283.000000	0.005807
2282.000000	0.005741
2281.000000	0.005665
2280.000000	0.005611
2279.000000	0.005584
2278.000000	0.005582
2277.000000	0.005606
2276.000000	0.005638
2275.000000	0.005651
2274.000000	0.005646
2273.000000	0.005649
2272.000000	0.005668
2271.000000	0.005677
2270.000000	0.005665
2269.000000	0.005649
2268.000000	0.005644
2267.000000	0.005639
2266.000000	0.005623
2265.000000	0.005604
2264.000000	0.005587
2263.000000	0.005573
2262.000000	0.005572
2261.000000	0.005588
2260.000000	0.005585
2259.000000	0.005529
2258.000000	0.005458
2257.000000	0.005447
2256.000000	0.005500
2255.000000	0.005537
2254.000000	0.005505
2253.000000	0.005440
2252.000000	0.005400
2251.000000	0.005391
2250.000000	0.005394
2249.000000	0.005387
2248.000000	0.005338
2247.000000	0.005227
2246.000000	0.005092
2245.000000	0.005007
2244.000000	0.004993
2243.000000	0.005008
2242.000000	0.005032
2241.000000	0.005103
2240.000000	0.005216
2239.000000	0.005285
2238.000000	0.005242
2237.000000	0.005129
2236.000000	0.005047
2235.000000	0.005048
2234.000000	0.005114
2233.000000	0.005188
2232.000000	0.005195
2231.000000	0.005100
2230.000000	0.004959
2229.000000	0.004893
2228.000000	0.004951
2227.000000	0.005064
2226.000000	0.005140
2225.000000	0.005153
2224.000000	0.005127
2223.000000	0.005078
2222.000000	0.005024
2221.000000	0.004988
2220.000000	0.004963
2219.000000	0.004920
2218.000000	0.004868
2217.000000	0.004851
2216.000000	0.004883
2215.000000	0.004928
2214.000000	0.004959
2213.000000	0.004969
2212.000000	0.004927
2211.000000	0.004800
2210.000000	0.004635
2209.000000	0.004538
2208.000000	0.004551
2207.000000	0.004613
2206.000000	0.004669
2205.000000	0.004726
2204.000000	0.004793
2203.000000	0.004852
2202.000000	0.004907
2201.000000	0.004975
2200.000000	0.005007
2199.000000	0.004920
2198.000000	0.004734
2197.000000	0.004574
2196.000000	0.004503
2195.000000	0.004467
2194.000000	0.004424
2193.000000	0.004428
2192.000000	0.004506
2191.000000	0.004567
2190.000000	0.004520
2189.000000	0.004398
2188.000000	0.004292
2187.000000	0.004238
2186.000000	0.004236
2185.000000	0.004299
2184.000000	0.004401
2183.000000	0.004453
2182.000000	0.004394
2181.000000	0.004263
2180.000000	0.004139
2179.000000	0.004060
2178.000000	0.004047
2177.000000	0.004133
2176.000000	0.004300
2175.000000	0.004464
2174.000000	0.004556
2173.000000	0.004567
2172.000000	0.004501
2171.000000	0.004365
2170.000000	0.004215
2169.000000	0.004133
2168.000000	0.004130
2167.000000	0.004145
2166.000000	0.004154
2165.000000	0.004197
2164.000000	0.004274
2163.000000	0.004311
2162.000000	0.004250
2161.000000	0.004092
2160.000000	0.003841
2159.000000	0.003554
2158.000000	0.003410
2157.000000	0.003542
2156.000000	0.003829
2155.000000	0.004038
2154.000000	0.004102
2153.000000	0.004115
2152.000000	0.004126
2151.000000	0.004103
2150.000000	0.004060
2149.000000	0.004079
2148.000000	0.004174
2147.000000	0.004276
2146.000000	0.004357
2145.000000	0.004456
2144.000000	0.004573
2143.000000	0.004660
2142.000000	0.004731
2141.000000	0.004857
2140.000000	0.005043
2139.000000	0.005198
2138.000000	0.005270
2137.000000	0.005294
2136.000000	0.005315
2135.000000	0.005339
2134.000000	0.005371
2133.000000	0.005415
2132.000000	0.005438
2131.000000	0.005406
2130.000000	0.005363
2129.000000	0.005384
2128.000000	0.005458
2127.000000	0.005500
2126.000000	0.005484
2125.000000	0.005479
2124.000000	0.005536
2123.000000	0.005615
2122.000000	0.005661
2121.000000	0.005675
2120.000000	0.005691
2119.000000	0.005725
2118.000000	0.005777
2117.000000	0.005833
2116.000000	0.005848
2115.000000	0.005795
2114.000000	0.005725
2113.000000	0.005730
2112.000000	0.005818
2111.000000	0.005904
2110.000000	0.005931
2109.000000	0.005930
2108.000000	0.005936
2107.000000	0.005928
2106.000000	0.005893
2105.000000	0.005871
2104.000000	0.005896
2103.000000	0.005932
2102.000000	0.005927
2101.000000	0.005886
2100.000000	0.005847
2099.000000	0.005825
2098.000000	0.005818
2097.000000	0.005818
2096.000000	0.005815
2095.000000	0.005808
2094.000000	0.005828
2093.000000	0.005902
2092.000000	0.005997
2091.000000	0.006051
2090.000000	0.006053
2089.000000	0.006037
2088.000000	0.006000
2087.000000	0.005905
2086.000000	0.005769
2085.000000	0.005674
2084.000000	0.005666
2083.000000	0.005710
2082.000000	0.005769
2081.000000	0.005844
2080.000000	0.005913
2079.000000	0.005924
2078.000000	0.005868
2077.000000	0.005795
2076.000000	0.005727
2075.000000	0.005643
2074.000000	0.005555
2073.000000	0.005530
2072.000000	0.005581
2071.000000	0.005632
2070.000000	0.005629
2069.000000	0.005597
2068.000000	0.005553
2067.000000	0.005458
2066.000000	0.005314
2065.000000	0.005206
2064.000000	0.005195
2063.000000	0.005232
2062.000000	0.005256
2061.000000	0.005273
2060.000000	0.005308
2059.000000	0.005346
2058.000000	0.005391
2057.000000	0.005470
2056.000000	0.005559
2055.000000	0.005566
2054.000000	0.005462
2053.000000	0.005320
2052.000000	0.005194
2051.000000	0.005027
2050.000000	0.004768
2049.000000	0.004490
2048.000000	0.004313
2047.000000	0.004265
2046.000000	0.004294
2045.000000	0.004356
2044.000000	0.004401
2043.000000	0.004385
2042.000000	0.004335
2041.000000	0.004324
2040.000000	0.004359
2039.000000	0.004387
2038.000000	0.004414
2037.000000	0.004469
2036.000000	0.004448
2035.000000	0.004180
2034.000000	0.003722
2033.000000	0.003370
2032.000000	0.003303
2031.000000	0.003394
2030.000000	0.003463
2029.000000	0.003490
2028.000000	0.003525
2027.000000	0.003590
2026.000000	0.003734
2025.000000	0.003991
2024.000000	0.004228
2023.000000	0.004235
2022.000000	0.004024
2021.000000	0.003830
2020.000000	0.003768
2019.000000	0.003710
2018.000000	0.003555
2017.000000	0.003393
2016.000000	0.003318
2015.000000	0.003285
2014.000000	0.003275
2013.000000	0.003370
2012.000000	0.003567
2011.000000	0.003702
2010.000000	0.003678
2009.000000	0.003587
2008.000000	0.003543
2007.000000	0.003550
2006.000000	0.003616
2005.000000	0.003812
2004.000000	0.004097
2003.000000	0.004296
2002.000000	0.004301
2001.000000	0.004169
2000.000000	0.003992
1999.000000	0.003795
1998.000000	0.003638
1997.000000	0.003626
1996.000000	0.003758
1995.000000	0.003896
1994.000000	0.003955
1993.000000	0.003991
1992.000000	0.004030
1991.000000	0.003981
1990.000000	0.003787
1989.000000	0.003548
1988.000000	0.003405
1987.000000	0.003412
1986.000000	0.003551
1985.000000	0.003760
1984.000000	0.003902
1983.000000	0.003862
1982.000000	0.003730
1981.000000	0.003721
1980.000000	0.003862
1979.000000	0.003913
1978.000000	0.003699
1977.000000	0.003365
1976.000000	0.003169
1975.000000	0.003200
1974.000000	0.003403
1973.000000	0.003669
1972.000000	0.003812
1971.000000	0.003685
1970.000000	0.003392
1969.000000	0.003205
1968.000000	0.003236
1967.000000	0.003349
1966.000000	0.003442
1965.000000	0.003571
1964.000000	0.003758
1963.000000	0.003898
1962.000000	0.003943
1961.000000	0.003974
1960.000000	0.004024
1959.000000	0.004022
1958.000000	0.003940
1957.000000	0.003851
1956.000000	0.003790
1955.000000	0.003721
1954.000000	0.003676
1953.000000	0.003743
1952.000000	0.003897
1951.000000	0.004005
1950.000000	0.004025
1949.000000	0.004045
1948.000000	0.004085
1947.000000	0.004034
1946.000000	0.003859
1945.000000	0.003711
1944.000000	0.003724
1943.000000	0.003838
1942.000000	0.003924
1941.000000	0.003961
1940.000000	0.003987
1939.000000	0.003999
1938.000000	0.003990
1937.000000	0.004002
1936.000000	0.004056
1935.000000	0.004115
1934.000000	0.004148
1933.000000	0.004170
1932.000000	0.004184
1931.000000	0.004158
1930.000000	0.004084
1929.000000	0.004012
1928.000000	0.003968
1927.000000	0.003937
1926.000000	0.003920
1925.000000	0.003935
1924.000000	0.003952
1923.000000	0.003907
1922.000000	0.003817
1921.000000	0.003778
1920.000000	0.003819
1919.000000	0.003870
1918.000000	0.003878
1917.000000	0.003880
1916.000000	0.003924
1915.000000	0.004007
1914.000000	0.004108
1913.000000	0.004217
1912.000000	0.004298
1911.000000	0.004300
1910.000000	0.004225
1909.000000	0.004140
1908.000000	0.004079
1907.000000	0.004027
1906.000000	0.003991
1905.000000	0.004011
1904.000000	0.004083
1903.000000	0.004135
1902.000000	0.004133
1901.000000	0.004114
1900.000000	0.004100
1899.000000	0.004072
1898.000000	0.004032
1897.000000	0.004022
1896.000000	0.004046
1895.000000	0.004060
1894.000000	0.004047
1893.000000	0.004041
1892.000000	0.004043
1891.000000	0.004010
1890.000000	0.003950
1889.000000	0.003930
1888.000000	0.003963
1887.000000	0.003977
1886.000000	0.003939
1885.000000	0.003896
1884.000000	0.003878
1883.000000	0.003854
1882.000000	0.003811
1881.000000	0.003788
1880.000000	0.003805
1879.000000	0.003826
1878.000000	0.003835
1877.000000	0.003857
1876.000000	0.003894
1875.000000	0.003909
1874.000000	0.003893
1873.000000	0.003879
1872.000000	0.003870
1871.000000	0.003833
1870.000000	0.003778
1869.000000	0.003762
1868.000000	0.003778
1867.000000	0.003762
1866.000000	0.003716
1865.000000	0.003710
1864.000000	0.003768
1863.000000	0.003832
1862.000000	0.003850
1861.000000	0.003840
1860.000000	0.003827
1859.000000	0.003802
1858.000000	0.003776
1857.000000	0.003798
1856.000000	0.003876
1855.000000	0.003957
1854.000000	0.004007
1853.000000	0.004047
1852.000000	0.004063
1851.000000	0.003999
1850.000000	0.003860
1849.000000	0.003725
1848.000000	0.003625
1847.000000	0.003509
1846.000000	0.003357
1845.000000	0.003258
1844.000000	0.003266
1843.000000	0.003297
1842.000000	0.003336
1841.000000	0.003476
1840.000000	0.003690
1839.000000	0.003837
1838.000000	0.003854
1837.000000	0.003805
1836.000000	0.003774
1835.000000	0.003747
1834.000000	0.003693
1833.000000	0.003654
1832.000000	0.003690
1831.000000	0.003781
1830.000000	0.003840
1829.000000	0.003800
1828.000000	0.003669
1827.000000	0.003500
1826.000000	0.003369
1825.000000	0.003336
1824.000000	0.003382
1823.000000	0.003436
1822.000000	0.003477
1821.000000	0.003534
1820.000000	0.003586
1819.000000	0.003562
1818.000000	0.003459
1817.000000	0.003380
1816.000000	0.003400
1815.000000	0.003462
1814.000000	0.003486
1813.000000	0.003476
1812.000000	0.003498
1811.000000	0.003525
1810.000000	0.003577
1809.000000	0.003558
1808.000000	0.003751
1807.000000	0.003930
1806.000000	0.003916
1805.000000	0.003960
1804.000000	0.003994
1803.000000	0.004025
1802.000000	0.004047
1801.000000	0.004055
1800.000000	0.004187
1799.000000	0.004072
1798.000000	0.003966
1797.000000	0.003996
1796.000000	0.003893
1795.000000	0.003843
1794.000000	0.003767
1793.000000	0.003756
1792.000000	0.003790
1791.000000	0.003813
1790.000000	0.003843
1789.000000	0.003973
1788.000000	0.004157
1787.000000	0.004246
1786.000000	0.004183
1785.000000	0.004082
1784.000000	0.004089
1783.000000	0.004210
1782.000000	0.004376
1781.000000	0.004559
1780.000000	0.004738
1779.000000	0.004874
1778.000000	0.004973
1777.000000	0.005111
1776.000000	0.005292
1775.000000	0.005413
1774.000000	0.005492
1773.000000	0.005766
1772.000000	0.006324
1771.000000	0.006883
1770.000000	0.007255
1769.000000	0.007618
1768.000000	0.008237
1767.000000	0.009182
1766.000000	0.010361
1765.000000	0.011733
1764.000000	0.013381
1763.000000	0.015449
1762.000000	0.018037
1761.000000	0.021045
1760.000000	0.024330
1759.000000	0.027976
1758.000000	0.032333
1757.000000	0.037682
1756.000000	0.043653
1755.000000	0.049501
1754.000000	0.055056
1753.000000	0.060848
1752.000000	0.067392
1751.000000	0.074486
1750.000000	0.081405
1749.000000	0.087675
1748.000000	0.092998
1747.000000	0.096966
1746.000000	0.099458
1745.000000	0.100647
1744.000000	0.100609
1743.000000	0.099365
1742.000000	0.097039
1741.000000	0.093672
1740.000000	0.089185
1739.000000	0.083968
1738.000000	0.078875
1737.000000	0.074148
1736.000000	0.069082
1735.000000	0.062873
1734.000000	0.056097
1733.000000	0.050459
1732.000000	0.046624
1731.000000	0.043946
1730.000000	0.041602
1729.000000	0.039235
1728.000000	0.036911
1727.000000	0.034742
1726.000000	0.032761
1725.000000	0.030923
1724.000000	0.029160
1723.000000	0.027502
1722.000000	0.026067
1721.000000	0.024869
1720.000000	0.023678
1719.000000	0.022240
1718.000000	0.020599
1717.000000	0.019114
1716.000000	0.018146
1715.000000	0.017771
1714.000000	0.017779
1713.000000	0.017885
1712.000000	0.017927
1711.000000	0.017908
1710.000000	0.017920
1709.000000	0.018026
1708.000000	0.018212
1707.000000	0.018460
1706.000000	0.018785
1705.000000	0.019129
1704.000000	0.019307
1703.000000	0.019251
1702.000000	0.019179
1701.000000	0.019639
1700.000000	0.020554
1699.000000	0.020989
1698.000000	0.020927
1697.000000	0.021039
1696.000000	0.021559
1695.000000	0.022398
1694.000000	0.023413
1693.000000	0.024622
1692.000000	0.025869
1691.000000	0.026861
1690.000000	0.027598
1689.000000	0.028212
1688.000000	0.028636
1687.000000	0.028743
1686.000000	0.028758
1685.000000	0.029402
1684.000000	0.030859
1683.000000	0.032352
1682.000000	0.033599
1681.000000	0.034897
1680.000000	0.036254
1679.000000	0.037528
1678.000000	0.038718
1677.000000	0.039998
1676.000000	0.041554
1675.000000	0.043248
1674.000000	0.044718
1673.000000	0.045975
1672.000000	0.047304
1671.000000	0.048822
1670.000000	0.050506
1669.000000	0.052192
1668.000000	0.053635
1667.000000	0.054814
1666.000000	0.055948
1665.000000	0.057239
1664.000000	0.058767
1663.000000	0.060391
1662.000000	0.061815
1661.000000	0.062975
1660.000000	0.064037
1659.000000	0.065067
1658.000000	0.066003
1657.000000	0.066718
1656.000000	0.067040
1655.000000	0.066967
1654.000000	0.067092
1653.000000	0.067849
1652.000000	0.068507
1651.000000	0.069002
1650.000000	0.070102
1649.000000	0.071462
1648.000000	0.072408
1647.000000	0.072842
1646.000000	0.072915
1645.000000	0.072893
1644.000000	0.073073
1643.000000	0.073524
1642.000000	0.074043
1641.000000	0.074487
1640.000000	0.074866
1639.000000	0.075172
1638.000000	0.075363
1637.000000	0.075559
1636.000000	0.075927
1635.000000	0.076305
1634.000000	0.076436
1633.000000	0.076465
1632.000000	0.076574
1631.000000	0.076630
1630.000000	0.076527
1629.000000	0.076303
1628.000000	0.075932
1627.000000	0.075323
1626.000000	0.074476
1625.000000	0.073474
1624.000000	0.072340
1623.000000	0.071009
1622.000000	0.069503
1621.000000	0.067985
1620.000000	0.066504
1619.000000	0.064867
1618.000000	0.062877
1617.000000	0.060645
1616.000000	0.058541
1615.000000	0.056887
1614.000000	0.055694
1613.000000	0.054630
1612.000000	0.053369
1611.000000	0.051904
1610.000000	0.050401
1609.000000	0.048925
1608.000000	0.047455
1607.000000	0.046039
1606.000000	0.044761
1605.000000	0.043611
1604.000000	0.042511
1603.000000	0.041448
1602.000000	0.040466
1601.000000	0.039580
1600.000000	0.038772
1599.000000	0.038057
1598.000000	0.037460
1597.000000	0.036954
1596.000000	0.036490
1595.000000	0.036084
1594.000000	0.035773
1593.000000	0.035534
1592.000000	0.035330
1591.000000	0.035192
1590.000000	0.035180
1589.000000	0.035276
1588.000000	0.035423
1587.000000	0.035624
1586.000000	0.035915
1585.000000	0.036279
1584.000000	0.036677
1583.000000	0.037133
1582.000000	0.037690
1581.000000	0.038298
1580.000000	0.038824
1579.000000	0.039157
1578.000000	0.039333
1577.000000	0.039588
1576.000000	0.040133
1575.000000	0.040928
1574.000000	0.041914
1573.000000	0.043021
1572.000000	0.044059
1571.000000	0.045063
1570.000000	0.046216
1569.000000	0.047364
1568.000000	0.048249
1567.000000	0.049018
1566.000000	0.049966
1565.000000	0.051093
1564.000000	0.052104
1563.000000	0.052665
1562.000000	0.052725
1561.000000	0.052632
1560.000000	0.053297
1559.000000	0.054948
1558.000000	0.056462
1557.000000	0.057308
1556.000000	0.057967
1555.000000	0.058682
1554.000000	0.059377
1553.000000	0.060038
1552.000000	0.060661
1551.000000	0.061207
1550.000000	0.061667
1549.000000	0.062086
1548.000000	0.062448
1547.000000	0.062666
1546.000000	0.062718
1545.000000	0.062676
1544.000000	0.062615
1543.000000	0.062588
1542.000000	0.062587
1541.000000	0.062521
1540.000000	0.062209
1539.000000	0.061604
1538.000000	0.061033
1537.000000	0.060886
1536.000000	0.061010
1535.000000	0.060890
1534.000000	0.060363
1533.000000	0.059592
1532.000000	0.058771
1531.000000	0.058057
1530.000000	0.057442
1529.000000	0.056904
1528.000000	0.056147
1527.000000	0.055357
1526.000000	0.054232
1525.000000	0.054360
1524.000000	0.054357
1523.000000	0.053441
1522.000000	0.052817
1521.000000	0.051706
1520.000000	0.051334
1519.000000	0.049306
1518.000000	0.048177
1517.000000	0.048225
1516.000000	0.047377
1515.000000	0.046644
1514.000000	0.045772
1513.000000	0.045003
1512.000000	0.044124
1511.000000	0.043144
1510.000000	0.042024
1509.000000	0.040724
1508.000000	0.039247
1507.000000	0.037793
1506.000000	0.036842
1505.000000	0.036429
1504.000000	0.036277
1503.000000	0.036271
1502.000000	0.036113
1501.000000	0.035677
1500.000000	0.035087
1499.000000	0.034350
1498.000000	0.033399
1497.000000	0.032332
1496.000000	0.031398
1495.000000	0.030782
1494.000000	0.030521
1493.000000	0.030449
1492.000000	0.030264
1491.000000	0.029792
1490.000000	0.029153
1489.000000	0.028701
1488.000000	0.028627
1487.000000	0.028776
1486.000000	0.028963
1485.000000	0.029188
1484.000000	0.029466
1483.000000	0.029781
1482.000000	0.030182
1481.000000	0.030753
1480.000000	0.031470
1479.000000	0.032247
1478.000000	0.033128
1477.000000	0.034213
1476.000000	0.035452
1475.000000	0.036818
1474.000000	0.038772
1473.000000	0.042067
1472.000000	0.046683
1471.000000	0.051737
1470.000000	0.056624
1469.000000	0.061166
1468.000000	0.065086
1467.000000	0.068097
1466.000000	0.070198
1465.000000	0.071614
1464.000000	0.072518
1463.000000	0.073069
1462.000000	0.073518
1461.000000	0.074009
1460.000000	0.074434
1459.000000	0.074651
1458.000000	0.074785
1457.000000	0.074968
1456.000000	0.075035
1455.000000	0.075015
1454.000000	0.075079
1453.000000	0.074992
1452.000000	0.074487
1451.000000	0.073699
1450.000000	0.072903
1449.000000	0.072208
1448.000000	0.071573
1447.000000	0.070979
1446.000000	0.070465
1445.000000	0.070023
1444.000000	0.069570
1443.000000	0.069043
1442.000000	0.068447
1441.000000	0.067795
1440.000000	0.067018
1439.000000	0.065987
1438.000000	0.064657
1437.000000	0.063167
1436.000000	0.061794
1435.000000	0.060780
1434.000000	0.060109
1433.000000	0.059495
1432.000000	0.058699
1431.000000	0.057734
1430.000000	0.056738
1429.000000	0.055820
1428.000000	0.055060
1427.000000	0.054485
1426.000000	0.054058
1425.000000	0.053743
1424.000000	0.053554
1423.000000	0.053486
1422.000000	0.053424
1421.000000	0.053258
1420.000000	0.053049
1419.000000	0.052897
1418.000000	0.052822
1417.000000	0.052849
1416.000000	0.052900
1415.000000	0.052781
1414.000000	0.052398
1413.000000	0.051791
1412.000000	0.051058
1411.000000	0.050338
1410.000000	0.049770
1409.000000	0.049412
1408.000000	0.049236
1407.000000	0.049168
1406.000000	0.049153
1405.000000	0.049166
1404.000000	0.049201
1403.000000	0.049233
1402.000000	0.049202
1401.000000	0.049040
1400.000000	0.048719
1399.000000	0.048280
1398.000000	0.047806
1397.000000	0.047357
1396.000000	0.046945
1395.000000	0.046606
1394.000000	0.046418
1393.000000	0.046415
1392.000000	0.046541
1391.000000	0.046682
1390.000000	0.046724
1389.000000	0.046650
1388.000000	0.046591
1387.000000	0.046737
1386.000000	0.047195
1385.000000	0.047916
1384.000000	0.048750
1383.000000	0.049591
1382.000000	0.050425
1381.000000	0.051256
1380.000000	0.052010
1379.000000	0.052530
1378.000000	0.052676
1377.000000	0.052400
1376.000000	0.051718
1375.000000	0.050700
1374.000000	0.049540
1373.000000	0.048509
1372.000000	0.047731
1371.000000	0.047118
1370.000000	0.046515
1369.000000	0.045853
1368.000000	0.045158
1367.000000	0.044467
1366.000000	0.043742
1365.000000	0.042896
1364.000000	0.041893
1363.000000	0.040833
1362.000000	0.039938
1361.000000	0.039368
1360.000000	0.039086
1359.000000	0.038948
1358.000000	0.038845
1357.000000	0.038741
1356.000000	0.038650
1355.000000	0.038608
1354.000000	0.038652
1353.000000	0.038788
1352.000000	0.038988
1351.000000	0.039217
1350.000000	0.039453
1349.000000	0.039693
1348.000000	0.039938
1347.000000	0.040193
1346.000000	0.040464
1345.000000	0.040764
1344.000000	0.041078
1343.000000	0.041341
1342.000000	0.041460
1341.000000	0.041384
1340.000000	0.041168
1339.000000	0.040955
1338.000000	0.040864
1337.000000	0.040884
1336.000000	0.040906
1335.000000	0.040831
1334.000000	0.040620
1333.000000	0.040282
1332.000000	0.039857
1331.000000	0.039399
1330.000000	0.038965
1329.000000	0.038601
1328.000000	0.038330
1327.000000	0.038150
1326.000000	0.038044
1325.000000	0.037998
1324.000000	0.038004
1323.000000	0.038056
1322.000000	0.038134
1321.000000	0.038199
1320.000000	0.038217
1319.000000	0.038177
1318.000000	0.038097
1317.000000	0.038012
1316.000000	0.037934
1315.000000	0.037840
1314.000000	0.037697
1313.000000	0.037504
1312.000000	0.037296
1311.000000	0.037103
1310.000000	0.036928
1309.000000	0.036761
1308.000000	0.036608
1307.000000	0.036480
1306.000000	0.036371
1305.000000	0.036264
1304.000000	0.036149
1303.000000	0.036028
1302.000000	0.035905
1301.000000	0.035774
1300.000000	0.035627
1299.000000	0.035466
1298.000000	0.035314
1297.000000	0.035204
1296.000000	0.035167
1295.000000	0.035210
1294.000000	0.035323
1293.000000	0.035492
1292.000000	0.035712
1291.000000	0.035982
1290.000000	0.036307
1289.000000	0.036697
1288.000000	0.037171
1287.000000	0.037740
1286.000000	0.038385
1285.000000	0.039057
1284.000000	0.039694
1283.000000	0.040245
1282.000000	0.040689
1281.000000	0.041035
1280.000000	0.041301
1279.000000	0.041497
1278.000000	0.041622
1277.000000	0.041676
1276.000000	0.041671
1275.000000	0.041631
1274.000000	0.041597
1273.000000	0.041608
1272.000000	0.041688
1271.000000	0.041841
1270.000000	0.042056
1269.000000	0.042321
1268.000000	0.042619
1267.000000	0.042932
1266.000000	0.043250
1265.000000	0.043579
1264.000000	0.043930
1263.000000	0.044308
1262.000000	0.044719
1261.000000	0.045174
1260.000000	0.045671
1259.000000	0.046194
1258.000000	0.046728
1257.000000	0.047276
1256.000000	0.047842
1255.000000	0.048423
1254.000000	0.049025
1253.000000	0.049668
1252.000000	0.050376
1251.000000	0.051156
1250.000000	0.052007
1249.000000	0.052929
1248.000000	0.053903
1247.000000	0.054887
1246.000000	0.055836
1245.000000	0.056722
1244.000000	0.057535
1243.000000	0.058262
1242.000000	0.058900
1241.000000	0.059455
1240.000000	0.059925
1239.000000	0.060290
1238.000000	0.060533
1237.000000	0.060643
1236.000000	0.060603
1235.000000	0.060403
1234.000000	0.060060
1233.000000	0.059612
1232.000000	0.059082
1231.000000	0.058461
1230.000000	0.057746
1229.000000	0.056947
1228.000000	0.056072
1227.000000	0.055121
1226.000000	0.054107
1225.000000	0.053055
1224.000000	0.051993
1223.000000	0.050938
1222.000000	0.049913
1221.000000	0.048944
1220.000000	0.048052
1219.000000	0.047257
1218.000000	0.046585
1217.000000	0.046058
1216.000000	0.045682
1215.000000	0.045439
1214.000000	0.045305
1213.000000	0.045271
1212.000000	0.045341
1211.000000	0.045511
1210.000000	0.045768
1209.000000	0.046093
1208.000000	0.046464
1207.000000	0.046851
1206.000000	0.047231
1205.000000	0.047590
1204.000000	0.047931
1203.000000	0.048252
1202.000000	0.048546
1201.000000	0.048799
1200.000000	0.049000
1199.000000	0.049160
1198.000000	0.049303
1197.000000	0.049452
1196.000000	0.049607
1195.000000	0.049760
1194.000000	0.049917
1193.000000	0.050100
1192.000000	0.050325
1191.000000	0.050593
1190.000000	0.050906
1189.000000	0.051277
1188.000000	0.051710
1187.000000	0.052200
1186.000000	0.052750
1185.000000	0.053372
1184.000000	0.054083
1183.000000	0.054894
1182.000000	0.055814
1181.000000	0.056851
1180.000000	0.057989
1179.000000	0.059194
1178.000000	0.060433
1177.000000	0.061690
1176.000000	0.062951
1175.000000	0.064210
1174.000000	0.065470
1173.000000	0.066739
1172.000000	0.068002
1171.000000	0.069231
1170.000000	0.070407
1169.000000	0.071530
1168.000000	0.072590
1167.000000	0.073565
1166.000000	0.074456
1165.000000	0.075269
1164.000000	0.075981
1163.000000	0.076540
1162.000000	0.076908
1161.000000	0.077082
1160.000000	0.077055
1159.000000	0.076820
1158.000000	0.076394
1157.000000	0.075810
1156.000000	0.075093
1155.000000	0.074260
1154.000000	0.073356
1153.000000	0.072430
1152.000000	0.071495
1151.000000	0.070538
1150.000000	0.069572
1149.000000	0.068641
1148.000000	0.067769
1147.000000	0.066931
1146.000000	0.066075
1145.000000	0.065138
1144.000000	0.064053
1143.000000	0.062770
1142.000000	0.061264
1141.000000	0.059521
1140.000000	0.057522
1139.000000	0.055286
1138.000000	0.052886
1137.000000	0.050428
1136.000000	0.048006
1135.000000	0.045695
1134.000000	0.043570
1133.000000	0.041702
1132.000000	0.040139
1131.000000	0.038917
1130.000000	0.038076
1129.000000	0.037629
1128.000000	0.037547
1127.000000	0.037770
1126.000000	0.038242
1125.000000	0.038932
1124.000000	0.039808
1123.000000	0.040809
1122.000000	0.041847
1121.000000	0.042822
1120.000000	0.043642
1119.000000	0.044251
1118.000000	0.044633
1117.000000	0.044797
1116.000000	0.044753
1115.000000	0.044513
1114.000000	0.044112
1113.000000	0.043607
1112.000000	0.043052
1111.000000	0.042501
1110.000000	0.042011
1109.000000	0.041635
1108.000000	0.041404
1107.000000	0.041338
1106.000000	0.041445
1105.000000	0.041709
1104.000000	0.042078
1103.000000	0.042492
1102.000000	0.042922
1101.000000	0.043366
1100.000000	0.043797
1099.000000	0.044166
1098.000000	0.044442
1097.000000	0.044630
1096.000000	0.044741
1095.000000	0.044765
1094.000000	0.044695
1093.000000	0.044548
1092.000000	0.044349
1091.000000	0.044117
1090.000000	0.043876
1089.000000	0.043660
1088.000000	0.043494
1087.000000	0.043370
1086.000000	0.043258
1085.000000	0.043128
1084.000000	0.042947
1083.000000	0.042670
1082.000000	0.042246
1081.000000	0.041648
1080.000000	0.040885
1079.000000	0.040004
1078.000000	0.039066
1077.000000	0.038117
1076.000000	0.037184
1075.000000	0.036283
1074.000000	0.035438
1073.000000	0.034670
1072.000000	0.033997
1071.000000	0.033430
1070.000000	0.032978
1069.000000	0.032637
1068.000000	0.032389
1067.000000	0.032222
1066.000000	0.032122
1065.000000	0.032062
1064.000000	0.032002
1063.000000	0.031915
1062.000000	0.031793
1061.000000	0.031632
1060.000000	0.031410
1059.000000	0.031111
1058.000000	0.030749
1057.000000	0.030354
1056.000000	0.029937
1055.000000	0.029488
1054.000000	0.029011
1053.000000	0.028532
1052.000000	0.028077
1051.000000	0.027660
1050.000000	0.027290
1049.000000	0.026970
1048.000000	0.026691
1047.000000	0.026434
1046.000000	0.026194
1045.000000	0.025997
1044.000000	0.025871
1043.000000	0.025825
1042.000000	0.025854
1041.000000	0.025963
1040.000000	0.026164
1039.000000	0.026465
1038.000000	0.026861
1037.000000	0.027335
1036.000000	0.027850
1035.000000	0.028348
1034.000000	0.028771
1033.000000	0.029085
1032.000000	0.029275
1031.000000	0.029333
1030.000000	0.029255
1029.000000	0.029055
1028.000000	0.028762
1027.000000	0.028400
1026.000000	0.027981
1025.000000	0.027521
1024.000000	0.027041
1023.000000	0.026567
1022.000000	0.026122
1021.000000	0.025716
1020.000000	0.025347
1019.000000	0.025004
1018.000000	0.024682
1017.000000	0.024386
1016.000000	0.024117
1015.000000	0.023862
1014.000000	0.023600
1013.000000	0.023313
1012.000000	0.022991
1011.000000	0.022632
1010.000000	0.022237
1009.000000	0.021815
1008.000000	0.021383
1007.000000	0.020955
1006.000000	0.020543
1005.000000	0.020153
1004.000000	0.019783
1003.000000	0.019416
1002.000000	0.019034
1001.000000	0.018648
1000.000000	0.018289
999.000000	0.017978
998.000000	0.017705
997.000000	0.017446
996.000000	0.017187
995.000000	0.016921
994.000000	0.016629
993.000000	0.016310
992.000000	0.015994
991.000000	0.015728
990.000000	0.015533
989.000000	0.015391
988.000000	0.015272
987.000000	0.015167
986.000000	0.015078
985.000000	0.015013
984.000000	0.014984
983.000000	0.014992
982.000000	0.015024
981.000000	0.015068
980.000000	0.015136
979.000000	0.015263
978.000000	0.015462
977.000000	0.015712
976.000000	0.015975
975.000000	0.016220
974.000000	0.016431
973.000000	0.016604
972.000000	0.016752
971.000000	0.016890
970.000000	0.017010
969.000000	0.017072
968.000000	0.017033
967.000000	0.016876
966.000000	0.016610
965.000000	0.016249
964.000000	0.015801
963.000000	0.015285
962.000000	0.014725
961.000000	0.014143
960.000000	0.013564
959.000000	0.013013
958.000000	0.012503
957.000000	0.012029
956.000000	0.011574
955.000000	0.011132
954.000000	0.010721
953.000000	0.010357
952.000000	0.010045
951.000000	0.009774
950.000000	0.009535
949.000000	0.009332
948.000000	0.009177
947.000000	0.009069
946.000000	0.008987
945.000000	0.008907
944.000000	0.008820
943.000000	0.008727
942.000000	0.008621
941.000000	0.008483
940.000000	0.008314
939.000000	0.008142
938.000000	0.007979
937.000000	0.007806
936.000000	0.007594
935.000000	0.007345
934.000000	0.007086
933.000000	0.006837
932.000000	0.006594
931.000000	0.006348
930.000000	0.006101
929.000000	0.005870
928.000000	0.005678
927.000000	0.005547
926.000000	0.005489
925.000000	0.005481
924.000000	0.005482
923.000000	0.005447
922.000000	0.005353
921.000000	0.005208
920.000000	0.005044
919.000000	0.004895
918.000000	0.004766
917.000000	0.004630
916.000000	0.004460
915.000000	0.004268
914.000000	0.004094
913.000000	0.003966
912.000000	0.003880
911.000000	0.003815
910.000000	0.003757
909.000000	0.003698
908.000000	0.003642
907.000000	0.003597
906.000000	0.003576
905.000000	0.003580
904.000000	0.003600
903.000000	0.003617
902.000000	0.003620
901.000000	0.003601
900.000000	0.003564
899.000000	0.003516
898.000000	0.003470
897.000000	0.003431
896.000000	0.003396
895.000000	0.003369
894.000000	0.003357
893.000000	0.003364
892.000000	0.003382
891.000000	0.003402
890.000000	0.003437
889.000000	0.003503
888.000000	0.003606
887.000000	0.003750
886.000000	0.003955
885.000000	0.004267
884.000000	0.004726
883.000000	0.005346
882.000000	0.006143
881.000000	0.007151
880.000000	0.008403
879.000000	0.009866
878.000000	0.011410
877.000000	0.012820
876.000000	0.013850
875.000000	0.014294
874.000000	0.014062
873.000000	0.013217
872.000000	0.011960
871.000000	0.010561
870.000000	0.009270
869.000000	0.008235
868.000000	0.007475
867.000000	0.006909
866.000000	0.006452
865.000000	0.006078
864.000000	0.005809
863.000000	0.005648
862.000000	0.005555
861.000000	0.005488
860.000000	0.005438
859.000000	0.005425
858.000000	0.005456
857.000000	0.005524
856.000000	0.005609
855.000000	0.005690
854.000000	0.005748
853.000000	0.005775
852.000000	0.005783
851.000000	0.005779
850.000000	0.005753
849.000000	0.005680
848.000000	0.005559
847.000000	0.005410
846.000000	0.005254
845.000000	0.005089
844.000000	0.004910
843.000000	0.004724
842.000000	0.004546
841.000000	0.004388
840.000000	0.004252
839.000000	0.004140
838.000000	0.004046
837.000000	0.003958
836.000000	0.003867
835.000000	0.003773
834.000000	0.003680
833.000000	0.003586
832.000000	0.003486
831.000000	0.003396
830.000000	0.003338
829.000000	0.003323
828.000000	0.003339
827.000000	0.003362
826.000000	0.003378
825.000000	0.003389
824.000000	0.003400
823.000000	0.003419
822.000000	0.003443
821.000000	0.003469
820.000000	0.003493
819.000000	0.003525
818.000000	0.003573
817.000000	0.003623
816.000000	0.003653
815.000000	0.003666
814.000000	0.003686
813.000000	0.003723
812.000000	0.003753
811.000000	0.003750
810.000000	0.003731
809.000000	0.003721
808.000000	0.003709
807.000000	0.003653
806.000000	0.003538
805.000000	0.003406
804.000000	0.003316
803.000000	0.003299
802.000000	0.003338
801.000000	0.003393
800.000000	0.003433
799.000000	0.003460
798.000000	0.003509
797.000000	0.003601
796.000000	0.003712
795.000000	0.003801
794.000000	0.003858
793.000000	0.003904
792.000000	0.003950
791.000000	0.003996
790.000000	0.004064
789.000000	0.004192
788.000000	0.004368
787.000000	0.004525
786.000000	0.004618
785.000000	0.004669
784.000000	0.004725
783.000000	0.004795
782.000000	0.004861
781.000000	0.004929
780.000000	0.005027
779.000000	0.005164
778.000000	0.005313
777.000000	0.005438
776.000000	0.005519
775.000000	0.005573
774.000000	0.005648
773.000000	0.005788
772.000000	0.005990
771.000000	0.006205
770.000000	0.006400
769.000000	0.006585
768.000000	0.006776
767.000000	0.006955
766.000000	0.007099
765.000000	0.007210
764.000000	0.007312
763.000000	0.007410
762.000000	0.007499
761.000000	0.007586
760.000000	0.007688
759.000000	0.007808
758.000000	0.007930
757.000000	0.008044
756.000000	0.008152
755.000000	0.008261
754.000000	0.008379
753.000000	0.008504
752.000000	0.008640
751.000000	0.008815
750.000000	0.009076
749.000000	0.009445
748.000000	0.009864
747.000000	0.010238
746.000000	0.010539
745.000000	0.010821
744.000000	0.011145
743.000000	0.011517
742.000000	0.011931
741.000000	0.012404
740.000000	0.012936
739.000000	0.013476
738.000000	0.013981
737.000000	0.014478
736.000000	0.015017
735.000000	0.015616
734.000000	0.016265
733.000000	0.016984
732.000000	0.017799
731.000000	0.018707
730.000000	0.019689
729.000000	0.020757
728.000000	0.021936
727.000000	0.023209
726.000000	0.024525
725.000000	0.025822
724.000000	0.027027
723.000000	0.028021
722.000000	0.028681
721.000000	0.028944
720.000000	0.028832
719.000000	0.028418
718.000000	0.027810
717.000000	0.027154
716.000000	0.026608
715.000000	0.026248
714.000000	0.026011
713.000000	0.025764
712.000000	0.025411
711.000000	0.024953
710.000000	0.024454
709.000000	0.023972
708.000000	0.023525
707.000000	0.023109
706.000000	0.022741
705.000000	0.022466
704.000000	0.022315
703.000000	0.022272
702.000000	0.022290
701.000000	0.022323
700.000000	0.022331
699.000000	0.022287
698.000000	0.022189
697.000000	0.022066
696.000000	0.021951
695.000000	0.021861
694.000000	0.021810
693.000000	0.021803
692.000000	0.021805
691.000000	0.021762
690.000000	0.021675
689.000000	0.021613
688.000000	0.021623
687.000000	0.021658
686.000000	0.021645
685.000000	0.021584
684.000000	0.021527
683.000000	0.021496
682.000000	0.021471
681.000000	0.021452
680.000000	0.021456
679.000000	0.021478
678.000000	0.021482
677.000000	0.021459
676.000000	0.021447
675.000000	0.021492
674.000000	0.021596
673.000000	0.021693
672.000000	0.021694
671.000000	0.021583
670.000000	0.021434
669.000000	0.021365
668.000000	0.021478
667.000000	0.021707
666.000000	0.021799
665.000000	0.021734
664.000000	0.021658
663.000000	0.021613
662.000000	0.021571
661.000000	0.021524
660.000000	0.021497
659.000000	0.021483
658.000000	0.021447
657.000000	0.021382
656.000000	0.021315
655.000000	0.021272
654.000000	0.021273
653.000000	0.021326
652.000000	0.021409
651.000000	0.021473
650.000000	0.021488
649.000000	0.021476
648.000000	0.021464
647.000000	0.021423
646.000000	0.021302
645.000000	0.021111
644.000000	0.020921
643.000000	0.020806
642.000000	0.020792
641.000000	0.020849
640.000000	0.020921
639.000000	0.020955
638.000000	0.020926
637.000000	0.020844
636.000000	0.020730
635.000000	0.020615
634.000000	0.020543
633.000000	0.020539
632.000000	0.020572
631.000000	0.020592
630.000000	0.020597
629.000000	0.020629
628.000000	0.020687
627.000000	0.020713
626.000000	0.020697
625.000000	0.020699
624.000000	0.020748
623.000000	0.020775
622.000000	0.020714
621.000000	0.020610
620.000000	0.020563
619.000000	0.020602
618.000000	0.020678
617.000000	0.020745
616.000000	0.020795
615.000000	0.020833
614.000000	0.020868
613.000000	0.020919
612.000000	0.020977
611.000000	0.020999
610.000000	0.020968
609.000000	0.020921
608.000000	0.020898
607.000000	0.020889
606.000000	0.020888
605.000000	0.020934
604.000000	0.021031
603.000000	0.021099
602.000000	0.021076
601.000000	0.021018
600.000000	0.021027
599.000000	0.021110
598.000000	0.021191
597.000000	0.021228
596.000000	0.021229
595.000000	0.021186
594.000000	0.021080
593.000000	0.020957
592.000000	0.020910
591.000000	0.020979
590.000000	0.021130
589.000000	0.021307
588.000000	0.021448
587.000000	0.021471
586.000000	0.021350
585.000000	0.021191
584.000000	0.021147
583.000000	0.021248
582.000000	0.021397
581.000000	0.021491
580.000000	0.021484
579.000000	0.021348
578.000000	0.021103
577.000000	0.020877
576.000000	0.020822
575.000000	0.020967
574.000000	0.021187
573.000000	0.021341
572.000000	0.021368
571.000000	0.021278
570.000000	0.021138
569.000000	0.021067
568.000000	0.021132
567.000000	0.021284
566.000000	0.021434
565.000000	0.021568
564.000000	0.021729
563.000000	0.021895
562.000000	0.021982
561.000000	0.021946
560.000000	0.021822
559.000000	0.021687
558.000000	0.021609
557.000000	0.021619
556.000000	0.021673
555.000000	0.021685
554.000000	0.021622
553.000000	0.021513
552.000000	0.021345
551.000000	0.021062
550.000000	0.020707
549.000000	0.020435
548.000000	0.020307
547.000000	0.020202
546.000000	0.020001
545.000000	0.019752
544.000000	0.019553
543.000000	0.019398
542.000000	0.019253
541.000000	0.019194
540.000000	0.019310
539.000000	0.019565
538.000000	0.019864
537.000000	0.020177
536.000000	0.020475
535.000000	0.020644
534.000000	0.020613
533.000000	0.020499
532.000000	0.020492
531.000000	0.020630
530.000000	0.020801
529.000000	0.020894
528.000000	0.020845
527.000000	0.020600
526.000000	0.020174
525.000000	0.019719
524.000000	0.019353
523.000000	0.019028
522.000000	0.018667
521.000000	0.018306
520.000000	0.017987
519.000000	0.017653
518.000000	0.017269
517.000000	0.016967
516.000000	0.016850
515.000000	0.016779
514.000000	0.016533
513.000000	0.016094
512.000000	0.015623
511.000000	0.015242
510.000000	0.014957
509.000000	0.014740
508.000000	0.014563
507.000000	0.014374
506.000000	0.014146
505.000000	0.013930
504.000000	0.013751
503.000000	0.013556
502.000000	0.013334
501.000000	0.013170
500.000000	0.013072
499.000000	0.012874
498.000000	0.012470
497.000000	0.012005
496.000000	0.011686
495.000000	0.011504
494.000000	0.011336
493.000000	0.011186
492.000000	0.011152
491.000000	0.011194
490.000000	0.011163
489.000000	0.010992
488.000000	0.010692
487.000000	0.010219
486.000000	0.009543
485.000000	0.008831
484.000000	0.008358
483.000000	0.008228
482.000000	0.008358
481.000000	0.008666
480.000000	0.009065
479.000000	0.009336
478.000000	0.009288
477.000000	0.009018
476.000000	0.008776
475.000000	0.008571
474.000000	0.008184
473.000000	0.007604
472.000000	0.007161
471.000000	0.007096
470.000000	0.007260
469.000000	0.007406
468.000000	0.007450
467.000000	0.007408
466.000000	0.007303
465.000000	0.007151
464.000000	0.006927
463.000000	0.006640
462.000000	0.006338
461.000000	0.006235
460.000000	0.006184
459.000000	0.006953
458.000000	0.006962
457.000000	0.006765
456.000000	0.006612
455.000000	0.006184
454.000000	0.005330
453.000000	0.004301
452.000000	0.003615
451.000000	0.003367
450.000000	0.003230
