PE IR       SUBTECH     SPECTRUM    ASCII       PEDS        4.00        
   -1
3S-H10-C018_1.ASC
22/02/16
16:29:11.00
22/02/16
16:48:54.00
uco
Sample 018 By uco Date Wednesday, February 16 2022
450.000000
#HDR
-1
-1
#GR
cm-1
A
1.0
0.0
4000.000000
-1.000000
3551
8
0.141909
-0.002160
#DATA
4000.000000	-0.001509
3999.000000	-0.001485
3998.000000	-0.001463
3997.000000	-0.001444
3996.000000	-0.001438
3995.000000	-0.001437
3994.000000	-0.001437
3993.000000	-0.001432
3992.000000	-0.001423
3991.000000	-0.001417
3990.000000	-0.001423
3989.000000	-0.001441
3988.000000	-0.001464
3987.000000	-0.001476
3986.000000	-0.001468
3985.000000	-0.001441
3984.000000	-0.001410
3983.000000	-0.001387
3982.000000	-0.001380
3981.000000	-0.001385
3980.000000	-0.001392
3979.000000	-0.001396
3978.000000	-0.001394
3977.000000	-0.001387
3976.000000	-0.001380
3975.000000	-0.001374
3974.000000	-0.001370
3973.000000	-0.001366
3972.000000	-0.001363
3971.000000	-0.001359
3970.000000	-0.001356
3969.000000	-0.001353
3968.000000	-0.001349
3967.000000	-0.001340
3966.000000	-0.001326
3965.000000	-0.001312
3964.000000	-0.001303
3963.000000	-0.001302
3962.000000	-0.001304
3961.000000	-0.001304
3960.000000	-0.001302
3959.000000	-0.001300
3958.000000	-0.001303
3957.000000	-0.001308
3956.000000	-0.001310
3955.000000	-0.001303
3954.000000	-0.001287
3953.000000	-0.001271
3952.000000	-0.001261
3951.000000	-0.001260
3950.000000	-0.001263
3949.000000	-0.001264
3948.000000	-0.001262
3947.000000	-0.001260
3946.000000	-0.001260
3945.000000	-0.001257
3944.000000	-0.001246
3943.000000	-0.001225
3942.000000	-0.001201
3941.000000	-0.001187
3940.000000	-0.001188
3939.000000	-0.001197
3938.000000	-0.001202
3937.000000	-0.001197
3936.000000	-0.001189
3935.000000	-0.001187
3934.000000	-0.001198
3933.000000	-0.001220
3932.000000	-0.001248
3931.000000	-0.001275
3930.000000	-0.001296
3929.000000	-0.001306
3928.000000	-0.001303
3927.000000	-0.001290
3926.000000	-0.001266
3925.000000	-0.001233
3924.000000	-0.001197
3923.000000	-0.001167
3922.000000	-0.001151
3921.000000	-0.001151
3920.000000	-0.001161
3919.000000	-0.001174
3918.000000	-0.001187
3917.000000	-0.001197
3916.000000	-0.001204
3915.000000	-0.001207
3914.000000	-0.001208
3913.000000	-0.001207
3912.000000	-0.001206
3911.000000	-0.001207
3910.000000	-0.001204
3909.000000	-0.001192
3908.000000	-0.001167
3907.000000	-0.001139
3906.000000	-0.001123
3905.000000	-0.001128
3904.000000	-0.001149
3903.000000	-0.001175
3902.000000	-0.001203
3901.000000	-0.001233
3900.000000	-0.001258
3899.000000	-0.001264
3898.000000	-0.001250
3897.000000	-0.001224
3896.000000	-0.001194
3895.000000	-0.001164
3894.000000	-0.001141
3893.000000	-0.001137
3892.000000	-0.001153
3891.000000	-0.001172
3890.000000	-0.001181
3889.000000	-0.001185
3888.000000	-0.001202
3887.000000	-0.001238
3886.000000	-0.001274
3885.000000	-0.001282
3884.000000	-0.001255
3883.000000	-0.001211
3882.000000	-0.001169
3881.000000	-0.001140
3880.000000	-0.001127
3879.000000	-0.001127
3878.000000	-0.001142
3877.000000	-0.001170
3876.000000	-0.001200
3875.000000	-0.001211
3874.000000	-0.001190
3873.000000	-0.001150
3872.000000	-0.001122
3871.000000	-0.001126
3870.000000	-0.001146
3869.000000	-0.001161
3868.000000	-0.001167
3867.000000	-0.001179
3866.000000	-0.001192
3865.000000	-0.001193
3864.000000	-0.001173
3863.000000	-0.001147
3862.000000	-0.001131
3861.000000	-0.001120
3860.000000	-0.001103
3859.000000	-0.001071
3858.000000	-0.001028
3857.000000	-0.000989
3856.000000	-0.000973
3855.000000	-0.001004
3854.000000	-0.001076
3853.000000	-0.001144
3852.000000	-0.001181
3851.000000	-0.001196
3850.000000	-0.001195
3849.000000	-0.001179
3848.000000	-0.001148
3847.000000	-0.001108
3846.000000	-0.001074
3845.000000	-0.001061
3844.000000	-0.001077
3843.000000	-0.001118
3842.000000	-0.001168
3841.000000	-0.001215
3840.000000	-0.001245
3839.000000	-0.001252
3838.000000	-0.001240
3837.000000	-0.001221
3836.000000	-0.001205
3835.000000	-0.001191
3834.000000	-0.001176
3833.000000	-0.001162
3832.000000	-0.001153
3831.000000	-0.001155
3830.000000	-0.001175
3829.000000	-0.001215
3828.000000	-0.001261
3827.000000	-0.001289
3826.000000	-0.001284
3825.000000	-0.001252
3824.000000	-0.001219
3823.000000	-0.001199
3822.000000	-0.001188
3821.000000	-0.001169
3820.000000	-0.001147
3819.000000	-0.001146
3818.000000	-0.001173
3817.000000	-0.001210
3816.000000	-0.001230
3815.000000	-0.001236
3814.000000	-0.001249
3813.000000	-0.001282
3812.000000	-0.001310
3811.000000	-0.001311
3810.000000	-0.001284
3809.000000	-0.001259
3808.000000	-0.001255
3807.000000	-0.001261
3806.000000	-0.001247
3805.000000	-0.001210
3804.000000	-0.001175
3803.000000	-0.001161
3802.000000	-0.001170
3801.000000	-0.001188
3800.000000	-0.001208
3799.000000	-0.001237
3798.000000	-0.001272
3797.000000	-0.001302
3796.000000	-0.001317
3795.000000	-0.001321
3794.000000	-0.001320
3793.000000	-0.001319
3792.000000	-0.001312
3791.000000	-0.001298
3790.000000	-0.001284
3789.000000	-0.001280
3788.000000	-0.001288
3787.000000	-0.001304
3786.000000	-0.001316
3785.000000	-0.001317
3784.000000	-0.001308
3783.000000	-0.001295
3782.000000	-0.001292
3781.000000	-0.001301
3780.000000	-0.001313
3779.000000	-0.001317
3778.000000	-0.001311
3777.000000	-0.001308
3776.000000	-0.001319
3775.000000	-0.001339
3774.000000	-0.001359
3773.000000	-0.001370
3772.000000	-0.001372
3771.000000	-0.001367
3770.000000	-0.001355
3769.000000	-0.001344
3768.000000	-0.001342
3767.000000	-0.001351
3766.000000	-0.001365
3765.000000	-0.001377
3764.000000	-0.001386
3763.000000	-0.001396
3762.000000	-0.001411
3761.000000	-0.001427
3760.000000	-0.001433
3759.000000	-0.001426
3758.000000	-0.001411
3757.000000	-0.001396
3756.000000	-0.001389
3755.000000	-0.001394
3754.000000	-0.001412
3753.000000	-0.001439
3752.000000	-0.001464
3751.000000	-0.001481
3750.000000	-0.001488
3749.000000	-0.001489
3748.000000	-0.001486
3747.000000	-0.001487
3746.000000	-0.001497
3745.000000	-0.001499
3744.000000	-0.001482
3743.000000	-0.001464
3742.000000	-0.001470
3741.000000	-0.001491
3740.000000	-0.001509
3739.000000	-0.001510
3738.000000	-0.001501
3737.000000	-0.001495
3736.000000	-0.001497
3735.000000	-0.001501
3734.000000	-0.001504
3733.000000	-0.001504
3732.000000	-0.001496
3731.000000	-0.001486
3730.000000	-0.001483
3729.000000	-0.001489
3728.000000	-0.001496
3727.000000	-0.001495
3726.000000	-0.001487
3725.000000	-0.001482
3724.000000	-0.001483
3723.000000	-0.001481
3722.000000	-0.001474
3721.000000	-0.001474
3720.000000	-0.001490
3719.000000	-0.001512
3718.000000	-0.001522
3717.000000	-0.001517
3716.000000	-0.001505
3715.000000	-0.001496
3714.000000	-0.001485
3713.000000	-0.001455
3712.000000	-0.001396
3711.000000	-0.001321
3710.000000	-0.001264
3709.000000	-0.001251
3708.000000	-0.001280
3707.000000	-0.001327
3706.000000	-0.001368
3705.000000	-0.001391
3704.000000	-0.001400
3703.000000	-0.001401
3702.000000	-0.001401
3701.000000	-0.001408
3700.000000	-0.001424
3699.000000	-0.001444
3698.000000	-0.001456
3697.000000	-0.001450
3696.000000	-0.001423
3695.000000	-0.001383
3694.000000	-0.001345
3693.000000	-0.001317
3692.000000	-0.001296
3691.000000	-0.001268
3690.000000	-0.001219
3689.000000	-0.001154
3688.000000	-0.001097
3687.000000	-0.001067
3686.000000	-0.001061
3685.000000	-0.001063
3684.000000	-0.001054
3683.000000	-0.001026
3682.000000	-0.000982
3681.000000	-0.000931
3680.000000	-0.000874
3679.000000	-0.000815
3678.000000	-0.000776
3677.000000	-0.000790
3676.000000	-0.000855
3675.000000	-0.000925
3674.000000	-0.000967
3673.000000	-0.000990
3672.000000	-0.000995
3671.000000	-0.000960
3670.000000	-0.000868
3669.000000	-0.000747
3668.000000	-0.000649
3667.000000	-0.000596
3666.000000	-0.000576
3665.000000	-0.000567
3664.000000	-0.000555
3663.000000	-0.000534
3662.000000	-0.000505
3661.000000	-0.000472
3660.000000	-0.000438
3659.000000	-0.000404
3658.000000	-0.000374
3657.000000	-0.000347
3656.000000	-0.000319
3655.000000	-0.000290
3654.000000	-0.000263
3653.000000	-0.000247
3652.000000	-0.000239
3651.000000	-0.000223
3650.000000	-0.000169
3649.000000	-0.000060
3648.000000	0.000084
3647.000000	0.000226
3646.000000	0.000337
3645.000000	0.000402
3644.000000	0.000424
3643.000000	0.000420
3642.000000	0.000416
3641.000000	0.000431
3640.000000	0.000474
3639.000000	0.000540
3638.000000	0.000615
3637.000000	0.000685
3636.000000	0.000739
3635.000000	0.000781
3634.000000	0.000818
3633.000000	0.000853
3632.000000	0.000885
3631.000000	0.000922
3630.000000	0.000982
3629.000000	0.001070
3628.000000	0.001158
3627.000000	0.001215
3626.000000	0.001246
3625.000000	0.001273
3624.000000	0.001308
3623.000000	0.001342
3622.000000	0.001360
3621.000000	0.001361
3620.000000	0.001371
3619.000000	0.001419
3618.000000	0.001508
3617.000000	0.001617
3616.000000	0.001722
3615.000000	0.001820
3614.000000	0.001915
3613.000000	0.002012
3612.000000	0.002100
3611.000000	0.002167
3610.000000	0.002215
3609.000000	0.002260
3608.000000	0.002314
3607.000000	0.002374
3606.000000	0.002431
3605.000000	0.002484
3604.000000	0.002543
3603.000000	0.002617
3602.000000	0.002704
3601.000000	0.002794
3600.000000	0.002874
3599.000000	0.002946
3598.000000	0.003015
3597.000000	0.003085
3596.000000	0.003157
3595.000000	0.003231
3594.000000	0.003308
3593.000000	0.003383
3592.000000	0.003445
3591.000000	0.003488
3590.000000	0.003518
3589.000000	0.003562
3588.000000	0.003653
3587.000000	0.003804
3586.000000	0.003976
3585.000000	0.004118
3584.000000	0.004206
3583.000000	0.004254
3582.000000	0.004297
3581.000000	0.004368
3580.000000	0.004478
3579.000000	0.004611
3578.000000	0.004741
3577.000000	0.004849
3576.000000	0.004936
3575.000000	0.005014
3574.000000	0.005091
3573.000000	0.005172
3572.000000	0.005254
3571.000000	0.005336
3570.000000	0.005418
3569.000000	0.005501
3568.000000	0.005588
3567.000000	0.005682
3566.000000	0.005781
3565.000000	0.005875
3564.000000	0.005966
3563.000000	0.006056
3562.000000	0.006146
3561.000000	0.006234
3560.000000	0.006315
3559.000000	0.006393
3558.000000	0.006472
3557.000000	0.006557
3556.000000	0.006651
3555.000000	0.006760
3554.000000	0.006882
3553.000000	0.007009
3552.000000	0.007123
3551.000000	0.007208
3550.000000	0.007263
3549.000000	0.007299
3548.000000	0.007341
3547.000000	0.007406
3546.000000	0.007496
3545.000000	0.007593
3544.000000	0.007685
3543.000000	0.007776
3542.000000	0.007871
3541.000000	0.007966
3540.000000	0.008053
3539.000000	0.008126
3538.000000	0.008198
3537.000000	0.008286
3536.000000	0.008398
3535.000000	0.008524
3534.000000	0.008642
3533.000000	0.008736
3532.000000	0.008804
3531.000000	0.008854
3530.000000	0.008896
3529.000000	0.008932
3528.000000	0.008972
3527.000000	0.009028
3526.000000	0.009106
3525.000000	0.009198
3524.000000	0.009286
3523.000000	0.009360
3522.000000	0.009421
3521.000000	0.009480
3520.000000	0.009548
3519.000000	0.009634
3518.000000	0.009740
3517.000000	0.009853
3516.000000	0.009953
3515.000000	0.010027
3514.000000	0.010077
3513.000000	0.010124
3512.000000	0.010191
3511.000000	0.010282
3510.000000	0.010381
3509.000000	0.010462
3508.000000	0.010517
3507.000000	0.010551
3506.000000	0.010577
3505.000000	0.010605
3504.000000	0.010646
3503.000000	0.010712
3502.000000	0.010806
3501.000000	0.010921
3500.000000	0.011048
3499.000000	0.011176
3498.000000	0.011293
3497.000000	0.011382
3496.000000	0.011435
3495.000000	0.011466
3494.000000	0.011502
3493.000000	0.011566
3492.000000	0.011658
3491.000000	0.011758
3490.000000	0.011842
3489.000000	0.011899
3488.000000	0.011941
3487.000000	0.011992
3486.000000	0.012066
3485.000000	0.012158
3484.000000	0.012246
3483.000000	0.012311
3482.000000	0.012352
3481.000000	0.012384
3480.000000	0.012427
3479.000000	0.012492
3478.000000	0.012575
3477.000000	0.012660
3476.000000	0.012734
3475.000000	0.012797
3474.000000	0.012849
3473.000000	0.012889
3472.000000	0.012920
3471.000000	0.012951
3470.000000	0.012993
3469.000000	0.013052
3468.000000	0.013121
3467.000000	0.013189
3466.000000	0.013244
3465.000000	0.013283
3464.000000	0.013310
3463.000000	0.013335
3462.000000	0.013367
3461.000000	0.013409
3460.000000	0.013460
3459.000000	0.013517
3458.000000	0.013573
3457.000000	0.013620
3456.000000	0.013656
3455.000000	0.013689
3454.000000	0.013732
3453.000000	0.013790
3452.000000	0.013864
3451.000000	0.013940
3450.000000	0.014006
3449.000000	0.014049
3448.000000	0.014072
3447.000000	0.014086
3446.000000	0.014102
3445.000000	0.014120
3444.000000	0.014137
3443.000000	0.014158
3442.000000	0.014190
3441.000000	0.014235
3440.000000	0.014284
3439.000000	0.014332
3438.000000	0.014378
3437.000000	0.014425
3436.000000	0.014472
3435.000000	0.014513
3434.000000	0.014545
3433.000000	0.014571
3432.000000	0.014597
3431.000000	0.014627
3430.000000	0.014664
3429.000000	0.014702
3428.000000	0.014744
3427.000000	0.014793
3426.000000	0.014851
3425.000000	0.014909
3424.000000	0.014954
3423.000000	0.014981
3422.000000	0.014998
3421.000000	0.015020
3420.000000	0.015052
3419.000000	0.015086
3418.000000	0.015115
3417.000000	0.015136
3416.000000	0.015155
3415.000000	0.015178
3414.000000	0.015211
3413.000000	0.015249
3412.000000	0.015291
3411.000000	0.015331
3410.000000	0.015368
3409.000000	0.015399
3408.000000	0.015429
3407.000000	0.015463
3406.000000	0.015498
3405.000000	0.015527
3404.000000	0.015546
3403.000000	0.015560
3402.000000	0.015576
3401.000000	0.015596
3400.000000	0.015617
3399.000000	0.015635
3398.000000	0.015656
3397.000000	0.015686
3396.000000	0.015729
3395.000000	0.015779
3394.000000	0.015823
3393.000000	0.015852
3392.000000	0.015870
3391.000000	0.015889
3390.000000	0.015917
3389.000000	0.015952
3388.000000	0.015989
3387.000000	0.016025
3386.000000	0.016064
3385.000000	0.016110
3384.000000	0.016164
3383.000000	0.016223
3382.000000	0.016281
3381.000000	0.016336
3380.000000	0.016391
3379.000000	0.016458
3378.000000	0.016536
3377.000000	0.016620
3376.000000	0.016698
3375.000000	0.016766
3374.000000	0.016826
3373.000000	0.016882
3372.000000	0.016937
3371.000000	0.016997
3370.000000	0.017068
3369.000000	0.017147
3368.000000	0.017226
3367.000000	0.017302
3366.000000	0.017374
3365.000000	0.017446
3364.000000	0.017519
3363.000000	0.017594
3362.000000	0.017670
3361.000000	0.017744
3360.000000	0.017817
3359.000000	0.017897
3358.000000	0.017989
3357.000000	0.018096
3356.000000	0.018215
3355.000000	0.018341
3354.000000	0.018461
3353.000000	0.018562
3352.000000	0.018642
3351.000000	0.018713
3350.000000	0.018792
3349.000000	0.018889
3348.000000	0.019000
3347.000000	0.019119
3346.000000	0.019238
3345.000000	0.019347
3344.000000	0.019444
3343.000000	0.019537
3342.000000	0.019628
3341.000000	0.019710
3340.000000	0.019774
3339.000000	0.019825
3338.000000	0.019882
3337.000000	0.019958
3336.000000	0.020048
3335.000000	0.020139
3334.000000	0.020220
3333.000000	0.020294
3332.000000	0.020371
3331.000000	0.020455
3330.000000	0.020541
3329.000000	0.020613
3328.000000	0.020664
3327.000000	0.020698
3326.000000	0.020730
3325.000000	0.020773
3324.000000	0.020830
3323.000000	0.020893
3322.000000	0.020949
3321.000000	0.020987
3320.000000	0.021009
3319.000000	0.021032
3318.000000	0.021067
3317.000000	0.021108
3316.000000	0.021137
3315.000000	0.021148
3314.000000	0.021154
3313.000000	0.021172
3312.000000	0.021207
3311.000000	0.021245
3310.000000	0.021269
3309.000000	0.021269
3308.000000	0.021251
3307.000000	0.021230
3306.000000	0.021222
3305.000000	0.021235
3304.000000	0.021271
3303.000000	0.021323
3302.000000	0.021376
3301.000000	0.021408
3300.000000	0.021407
3299.000000	0.021378
3298.000000	0.021342
3297.000000	0.021321
3296.000000	0.021322
3295.000000	0.021333
3294.000000	0.021335
3293.000000	0.021314
3292.000000	0.021271
3291.000000	0.021223
3290.000000	0.021189
3289.000000	0.021176
3288.000000	0.021176
3287.000000	0.021179
3286.000000	0.021178
3285.000000	0.021166
3284.000000	0.021134
3283.000000	0.021080
3282.000000	0.021009
3281.000000	0.020936
3280.000000	0.020872
3279.000000	0.020818
3278.000000	0.020765
3277.000000	0.020704
3276.000000	0.020632
3275.000000	0.020551
3274.000000	0.020463
3273.000000	0.020372
3272.000000	0.020288
3271.000000	0.020225
3270.000000	0.020187
3269.000000	0.020162
3268.000000	0.020133
3267.000000	0.020084
3266.000000	0.020009
3265.000000	0.019915
3264.000000	0.019816
3263.000000	0.019730
3262.000000	0.019666
3261.000000	0.019617
3260.000000	0.019561
3259.000000	0.019481
3258.000000	0.019375
3257.000000	0.019258
3256.000000	0.019152
3255.000000	0.019068
3254.000000	0.018998
3253.000000	0.018923
3252.000000	0.018833
3251.000000	0.018736
3250.000000	0.018649
3249.000000	0.018575
3248.000000	0.018510
3247.000000	0.018449
3246.000000	0.018389
3245.000000	0.018334
3244.000000	0.018281
3243.000000	0.018226
3242.000000	0.018162
3241.000000	0.018090
3240.000000	0.018017
3239.000000	0.017952
3238.000000	0.017897
3237.000000	0.017843
3236.000000	0.017778
3235.000000	0.017704
3234.000000	0.017630
3233.000000	0.017564
3232.000000	0.017508
3231.000000	0.017456
3230.000000	0.017405
3229.000000	0.017346
3228.000000	0.017272
3227.000000	0.017185
3226.000000	0.017101
3225.000000	0.017039
3224.000000	0.017007
3223.000000	0.016997
3222.000000	0.016987
3221.000000	0.016956
3220.000000	0.016894
3219.000000	0.016809
3218.000000	0.016716
3217.000000	0.016628
3216.000000	0.016551
3215.000000	0.016487
3214.000000	0.016434
3213.000000	0.016385
3212.000000	0.016329
3211.000000	0.016263
3210.000000	0.016187
3209.000000	0.016110
3208.000000	0.016041
3207.000000	0.015985
3206.000000	0.015932
3205.000000	0.015872
3204.000000	0.015799
3203.000000	0.015726
3202.000000	0.015670
3201.000000	0.015636
3200.000000	0.015608
3199.000000	0.015562
3198.000000	0.015487
3197.000000	0.015389
3196.000000	0.015283
3195.000000	0.015181
3194.000000	0.015090
3193.000000	0.015008
3192.000000	0.014931
3191.000000	0.014853
3190.000000	0.014772
3189.000000	0.014687
3188.000000	0.014602
3187.000000	0.014520
3186.000000	0.014443
3185.000000	0.014367
3184.000000	0.014296
3183.000000	0.014234
3182.000000	0.014183
3181.000000	0.014133
3180.000000	0.014072
3179.000000	0.013993
3178.000000	0.013901
3177.000000	0.013802
3176.000000	0.013701
3175.000000	0.013603
3174.000000	0.013512
3173.000000	0.013430
3172.000000	0.013354
3171.000000	0.013281
3170.000000	0.013212
3169.000000	0.013146
3168.000000	0.013080
3167.000000	0.013009
3166.000000	0.012931
3165.000000	0.012850
3164.000000	0.012778
3163.000000	0.012722
3162.000000	0.012675
3161.000000	0.012617
3160.000000	0.012532
3159.000000	0.012420
3158.000000	0.012305
3157.000000	0.012213
3156.000000	0.012153
3155.000000	0.012106
3154.000000	0.012053
3153.000000	0.011983
3152.000000	0.011908
3151.000000	0.011841
3150.000000	0.011791
3149.000000	0.011754
3148.000000	0.011721
3147.000000	0.011686
3146.000000	0.011652
3145.000000	0.011623
3144.000000	0.011598
3143.000000	0.011565
3142.000000	0.011516
3141.000000	0.011449
3140.000000	0.011376
3139.000000	0.011310
3138.000000	0.011255
3137.000000	0.011211
3136.000000	0.011176
3135.000000	0.011149
3134.000000	0.011122
3133.000000	0.011087
3132.000000	0.011039
3131.000000	0.010980
3130.000000	0.010923
3129.000000	0.010885
3128.000000	0.010876
3127.000000	0.010895
3126.000000	0.010923
3125.000000	0.010938
3124.000000	0.010920
3123.000000	0.010868
3122.000000	0.010803
3121.000000	0.010748
3120.000000	0.010717
3119.000000	0.010708
3118.000000	0.010711
3117.000000	0.010724
3116.000000	0.010751
3115.000000	0.010793
3114.000000	0.010847
3113.000000	0.010901
3112.000000	0.010944
3111.000000	0.010971
3110.000000	0.010983
3109.000000	0.010985
3108.000000	0.010983
3107.000000	0.010986
3106.000000	0.011007
3105.000000	0.011050
3104.000000	0.011105
3103.000000	0.011156
3102.000000	0.011194
3101.000000	0.011228
3100.000000	0.011271
3099.000000	0.011326
3098.000000	0.011388
3097.000000	0.011448
3096.000000	0.011500
3095.000000	0.011541
3094.000000	0.011571
3093.000000	0.011596
3092.000000	0.011618
3091.000000	0.011646
3090.000000	0.011684
3089.000000	0.011737
3088.000000	0.011802
3087.000000	0.011868
3086.000000	0.011926
3085.000000	0.011968
3084.000000	0.011992
3083.000000	0.012000
3082.000000	0.011993
3081.000000	0.011978
3080.000000	0.011965
3079.000000	0.011966
3078.000000	0.011991
3077.000000	0.012041
3076.000000	0.012101
3075.000000	0.012154
3074.000000	0.012188
3073.000000	0.012209
3072.000000	0.012227
3071.000000	0.012240
3070.000000	0.012243
3069.000000	0.012233
3068.000000	0.012210
3067.000000	0.012177
3066.000000	0.012137
3065.000000	0.012092
3064.000000	0.012050
3063.000000	0.012009
3062.000000	0.011964
3061.000000	0.011909
3060.000000	0.011843
3059.000000	0.011771
3058.000000	0.011699
3057.000000	0.011635
3056.000000	0.011586
3055.000000	0.011549
3054.000000	0.011511
3053.000000	0.011462
3052.000000	0.011402
3051.000000	0.011339
3050.000000	0.011282
3049.000000	0.011236
3048.000000	0.011199
3047.000000	0.011166
3046.000000	0.011131
3045.000000	0.011090
3044.000000	0.011045
3043.000000	0.010998
3042.000000	0.010953
3041.000000	0.010910
3040.000000	0.010866
3039.000000	0.010824
3038.000000	0.010784
3037.000000	0.010749
3036.000000	0.010724
3035.000000	0.010717
3034.000000	0.010733
3033.000000	0.010766
3032.000000	0.010801
3031.000000	0.010827
3030.000000	0.010846
3029.000000	0.010867
3028.000000	0.010899
3027.000000	0.010945
3026.000000	0.011008
3025.000000	0.011095
3024.000000	0.011206
3023.000000	0.011336
3022.000000	0.011481
3021.000000	0.011649
3020.000000	0.011846
3019.000000	0.012076
3018.000000	0.012340
3017.000000	0.012637
3016.000000	0.012971
3015.000000	0.013339
3014.000000	0.013738
3013.000000	0.014160
3012.000000	0.014593
3011.000000	0.015020
3010.000000	0.015423
3009.000000	0.015783
3008.000000	0.016087
3007.000000	0.016324
3006.000000	0.016488
3005.000000	0.016586
3004.000000	0.016626
3003.000000	0.016615
3002.000000	0.016557
3001.000000	0.016454
3000.000000	0.016306
2999.000000	0.016119
2998.000000	0.015912
2997.000000	0.015714
2996.000000	0.015556
2995.000000	0.015460
2994.000000	0.015434
2993.000000	0.015472
2992.000000	0.015566
2991.000000	0.015711
2990.000000	0.015905
2989.000000	0.016149
2988.000000	0.016442
2987.000000	0.016775
2986.000000	0.017144
2985.000000	0.017551
2984.000000	0.018008
2983.000000	0.018525
2982.000000	0.019101
2981.000000	0.019731
2980.000000	0.020405
2979.000000	0.021118
2978.000000	0.021872
2977.000000	0.022683
2976.000000	0.023566
2975.000000	0.024534
2974.000000	0.025593
2973.000000	0.026751
2972.000000	0.028012
2971.000000	0.029379
2970.000000	0.030853
2969.000000	0.032432
2968.000000	0.034116
2967.000000	0.035896
2966.000000	0.037744
2965.000000	0.039617
2964.000000	0.041474
2963.000000	0.043286
2962.000000	0.045038
2961.000000	0.046711
2960.000000	0.048274
2959.000000	0.049692
2958.000000	0.050937
2957.000000	0.051995
2956.000000	0.052856
2955.000000	0.053511
2954.000000	0.053954
2953.000000	0.054215
2952.000000	0.054372
2951.000000	0.054534
2950.000000	0.054809
2949.000000	0.055272
2948.000000	0.055983
2947.000000	0.056999
2946.000000	0.058373
2945.000000	0.060127
2944.000000	0.062244
2943.000000	0.064693
2942.000000	0.067461
2941.000000	0.070563
2940.000000	0.074011
2939.000000	0.077786
2938.000000	0.081848
2937.000000	0.086159
2936.000000	0.090695
2935.000000	0.095431
2934.000000	0.100320
2933.000000	0.105294
2932.000000	0.110283
2931.000000	0.115228
2930.000000	0.120073
2929.000000	0.124748
2928.000000	0.129156
2927.000000	0.133166
2926.000000	0.136619
2925.000000	0.139336
2924.000000	0.141145
2923.000000	0.141909
2922.000000	0.141542
2921.000000	0.140026
2920.000000	0.137422
2919.000000	0.133875
2918.000000	0.129579
2917.000000	0.124747
2916.000000	0.119594
2915.000000	0.114319
2914.000000	0.109090
2913.000000	0.104037
2912.000000	0.099266
2911.000000	0.094847
2910.000000	0.090808
2909.000000	0.087130
2908.000000	0.083771
2907.000000	0.080683
2906.000000	0.077832
2905.000000	0.075187
2904.000000	0.072719
2903.000000	0.070402
2902.000000	0.068215
2901.000000	0.066140
2900.000000	0.064165
2899.000000	0.062274
2898.000000	0.060448
2897.000000	0.058672
2896.000000	0.056934
2895.000000	0.055228
2894.000000	0.053553
2893.000000	0.051914
2892.000000	0.050326
2891.000000	0.048808
2890.000000	0.047368
2889.000000	0.046001
2888.000000	0.044703
2887.000000	0.043483
2886.000000	0.042367
2885.000000	0.041386
2884.000000	0.040556
2883.000000	0.039889
2882.000000	0.039400
2881.000000	0.039118
2880.000000	0.039073
2879.000000	0.039287
2878.000000	0.039764
2877.000000	0.040487
2876.000000	0.041407
2875.000000	0.042444
2874.000000	0.043492
2873.000000	0.044445
2872.000000	0.045231
2871.000000	0.045854
2870.000000	0.046397
2869.000000	0.046995
2868.000000	0.047797
2867.000000	0.048944
2866.000000	0.050563
2865.000000	0.052750
2864.000000	0.055556
2863.000000	0.058975
2862.000000	0.062970
2861.000000	0.067484
2860.000000	0.072425
2859.000000	0.077644
2858.000000	0.082927
2857.000000	0.087993
2856.000000	0.092494
2855.000000	0.096033
2854.000000	0.098214
2853.000000	0.098742
2852.000000	0.097502
2851.000000	0.094572
2850.000000	0.090191
2849.000000	0.084697
2848.000000	0.078479
2847.000000	0.071927
2846.000000	0.065387
2845.000000	0.059129
2844.000000	0.053350
2843.000000	0.048174
2842.000000	0.043653
2841.000000	0.039775
2840.000000	0.036479
2839.000000	0.033686
2838.000000	0.031318
2837.000000	0.029308
2836.000000	0.027599
2835.000000	0.026133
2834.000000	0.024856
2833.000000	0.023723
2832.000000	0.022694
2831.000000	0.021739
2830.000000	0.020843
2829.000000	0.020009
2828.000000	0.019250
2827.000000	0.018568
2826.000000	0.017949
2825.000000	0.017373
2824.000000	0.016832
2823.000000	0.016327
2822.000000	0.015859
2821.000000	0.015427
2820.000000	0.015027
2819.000000	0.014652
2818.000000	0.014300
2817.000000	0.013970
2816.000000	0.013660
2815.000000	0.013367
2814.000000	0.013087
2813.000000	0.012824
2812.000000	0.012584
2811.000000	0.012368
2810.000000	0.012169
2809.000000	0.011978
2808.000000	0.011791
2807.000000	0.011605
2806.000000	0.011420
2805.000000	0.011237
2804.000000	0.011056
2803.000000	0.010875
2802.000000	0.010699
2801.000000	0.010535
2800.000000	0.010393
2799.000000	0.010271
2798.000000	0.010162
2797.000000	0.010058
2796.000000	0.009949
2795.000000	0.009830
2794.000000	0.009704
2793.000000	0.009578
2792.000000	0.009464
2791.000000	0.009366
2790.000000	0.009282
2789.000000	0.009207
2788.000000	0.009135
2787.000000	0.009055
2786.000000	0.008963
2785.000000	0.008857
2784.000000	0.008740
2783.000000	0.008617
2782.000000	0.008498
2781.000000	0.008394
2780.000000	0.008306
2779.000000	0.008230
2778.000000	0.008162
2777.000000	0.008102
2776.000000	0.008045
2775.000000	0.007980
2774.000000	0.007897
2773.000000	0.007807
2772.000000	0.007725
2771.000000	0.007657
2770.000000	0.007598
2769.000000	0.007542
2768.000000	0.007486
2767.000000	0.007429
2766.000000	0.007366
2765.000000	0.007303
2764.000000	0.007249
2763.000000	0.007208
2762.000000	0.007174
2761.000000	0.007137
2760.000000	0.007100
2759.000000	0.007070
2758.000000	0.007052
2757.000000	0.007039
2756.000000	0.007019
2755.000000	0.006990
2754.000000	0.006957
2753.000000	0.006927
2752.000000	0.006897
2751.000000	0.006865
2750.000000	0.006833
2749.000000	0.006810
2748.000000	0.006796
2747.000000	0.006785
2746.000000	0.006766
2745.000000	0.006742
2744.000000	0.006713
2743.000000	0.006682
2742.000000	0.006654
2741.000000	0.006641
2740.000000	0.006650
2739.000000	0.006672
2738.000000	0.006687
2737.000000	0.006683
2736.000000	0.006662
2735.000000	0.006631
2734.000000	0.006602
2733.000000	0.006582
2732.000000	0.006572
2731.000000	0.006560
2730.000000	0.006537
2729.000000	0.006499
2728.000000	0.006450
2727.000000	0.006397
2726.000000	0.006348
2725.000000	0.006308
2724.000000	0.006277
2723.000000	0.006250
2722.000000	0.006222
2721.000000	0.006192
2720.000000	0.006165
2719.000000	0.006143
2718.000000	0.006122
2717.000000	0.006096
2716.000000	0.006064
2715.000000	0.006028
2714.000000	0.005995
2713.000000	0.005970
2712.000000	0.005953
2711.000000	0.005937
2710.000000	0.005919
2709.000000	0.005902
2708.000000	0.005886
2707.000000	0.005867
2706.000000	0.005839
2705.000000	0.005807
2704.000000	0.005778
2703.000000	0.005758
2702.000000	0.005751
2701.000000	0.005755
2700.000000	0.005767
2699.000000	0.005778
2698.000000	0.005782
2697.000000	0.005781
2696.000000	0.005779
2695.000000	0.005779
2694.000000	0.005780
2693.000000	0.005789
2692.000000	0.005810
2691.000000	0.005840
2690.000000	0.005871
2689.000000	0.005898
2688.000000	0.005915
2687.000000	0.005921
2686.000000	0.005919
2685.000000	0.005917
2684.000000	0.005923
2683.000000	0.005941
2682.000000	0.005968
2681.000000	0.005997
2680.000000	0.006018
2679.000000	0.006017
2678.000000	0.005987
2677.000000	0.005941
2676.000000	0.005900
2675.000000	0.005874
2674.000000	0.005862
2673.000000	0.005858
2672.000000	0.005857
2671.000000	0.005854
2670.000000	0.005844
2669.000000	0.005826
2668.000000	0.005805
2667.000000	0.005784
2666.000000	0.005760
2665.000000	0.005729
2664.000000	0.005692
2663.000000	0.005650
2662.000000	0.005606
2661.000000	0.005558
2660.000000	0.005499
2659.000000	0.005421
2658.000000	0.005326
2657.000000	0.005227
2656.000000	0.005140
2655.000000	0.005070
2654.000000	0.005009
2653.000000	0.004944
2652.000000	0.004868
2651.000000	0.004784
2650.000000	0.004703
2649.000000	0.004633
2648.000000	0.004571
2647.000000	0.004506
2646.000000	0.004435
2645.000000	0.004366
2644.000000	0.004309
2643.000000	0.004262
2642.000000	0.004211
2641.000000	0.004146
2640.000000	0.004063
2639.000000	0.003971
2638.000000	0.003882
2637.000000	0.003809
2636.000000	0.003754
2635.000000	0.003705
2634.000000	0.003656
2633.000000	0.003613
2632.000000	0.003584
2631.000000	0.003559
2630.000000	0.003524
2629.000000	0.003474
2628.000000	0.003413
2627.000000	0.003347
2626.000000	0.003278
2625.000000	0.003208
2624.000000	0.003142
2623.000000	0.003082
2622.000000	0.003027
2621.000000	0.002978
2620.000000	0.002935
2619.000000	0.002892
2618.000000	0.002847
2617.000000	0.002798
2616.000000	0.002748
2615.000000	0.002702
2614.000000	0.002668
2613.000000	0.002646
2612.000000	0.002626
2611.000000	0.002586
2610.000000	0.002524
2609.000000	0.002458
2608.000000	0.002410
2607.000000	0.002389
2606.000000	0.002384
2605.000000	0.002384
2604.000000	0.002378
2603.000000	0.002361
2602.000000	0.002335
2601.000000	0.002309
2600.000000	0.002283
2599.000000	0.002250
2598.000000	0.002207
2597.000000	0.002164
2596.000000	0.002133
2595.000000	0.002107
2594.000000	0.002074
2593.000000	0.002032
2592.000000	0.001992
2591.000000	0.001959
2590.000000	0.001933
2589.000000	0.001910
2588.000000	0.001882
2587.000000	0.001846
2586.000000	0.001811
2585.000000	0.001796
2584.000000	0.001805
2583.000000	0.001818
2582.000000	0.001812
2581.000000	0.001781
2580.000000	0.001737
2579.000000	0.001685
2578.000000	0.001626
2577.000000	0.001572
2576.000000	0.001539
2575.000000	0.001529
2574.000000	0.001523
2573.000000	0.001501
2572.000000	0.001461
2571.000000	0.001424
2570.000000	0.001415
2569.000000	0.001433
2568.000000	0.001449
2567.000000	0.001431
2566.000000	0.001382
2565.000000	0.001341
2564.000000	0.001336
2563.000000	0.001358
2562.000000	0.001378
2561.000000	0.001381
2560.000000	0.001370
2559.000000	0.001355
2558.000000	0.001335
2557.000000	0.001312
2556.000000	0.001284
2555.000000	0.001256
2554.000000	0.001233
2553.000000	0.001218
2552.000000	0.001201
2551.000000	0.001173
2550.000000	0.001142
2549.000000	0.001124
2548.000000	0.001124
2547.000000	0.001128
2546.000000	0.001129
2545.000000	0.001139
2544.000000	0.001173
2543.000000	0.001222
2542.000000	0.001266
2541.000000	0.001289
2540.000000	0.001288
2539.000000	0.001263
2538.000000	0.001225
2537.000000	0.001195
2536.000000	0.001191
2535.000000	0.001211
2534.000000	0.001241
2533.000000	0.001270
2532.000000	0.001289
2531.000000	0.001293
2530.000000	0.001283
2529.000000	0.001273
2528.000000	0.001280
2527.000000	0.001308
2526.000000	0.001349
2525.000000	0.001382
2524.000000	0.001381
2523.000000	0.001342
2522.000000	0.001286
2521.000000	0.001248
2520.000000	0.001235
2519.000000	0.001224
2518.000000	0.001192
2517.000000	0.001147
2516.000000	0.001112
2515.000000	0.001100
2514.000000	0.001115
2513.000000	0.001150
2512.000000	0.001185
2511.000000	0.001196
2510.000000	0.001172
2509.000000	0.001123
2508.000000	0.001065
2507.000000	0.001011
2506.000000	0.000979
2505.000000	0.000977
2504.000000	0.000992
2503.000000	0.000998
2502.000000	0.000993
2501.000000	0.001000
2500.000000	0.001032
2499.000000	0.001068
2498.000000	0.001084
2497.000000	0.001080
2496.000000	0.001073
2495.000000	0.001068
2494.000000	0.001054
2493.000000	0.001024
2492.000000	0.000981
2491.000000	0.000934
2490.000000	0.000897
2489.000000	0.000884
2488.000000	0.000895
2487.000000	0.000909
2486.000000	0.000906
2485.000000	0.000883
2484.000000	0.000843
2483.000000	0.000793
2482.000000	0.000747
2481.000000	0.000723
2480.000000	0.000726
2479.000000	0.000744
2478.000000	0.000764
2477.000000	0.000788
2476.000000	0.000819
2475.000000	0.000849
2474.000000	0.000868
2473.000000	0.000874
2472.000000	0.000869
2471.000000	0.000852
2470.000000	0.000825
2469.000000	0.000794
2468.000000	0.000768
2467.000000	0.000760
2466.000000	0.000782
2465.000000	0.000831
2464.000000	0.000871
2463.000000	0.000867
2462.000000	0.000827
2461.000000	0.000797
2460.000000	0.000809
2459.000000	0.000848
2458.000000	0.000885
2457.000000	0.000905
2456.000000	0.000908
2455.000000	0.000894
2454.000000	0.000869
2453.000000	0.000848
2452.000000	0.000839
2451.000000	0.000834
2450.000000	0.000830
2449.000000	0.000836
2448.000000	0.000854
2447.000000	0.000869
2446.000000	0.000871
2445.000000	0.000867
2444.000000	0.000869
2443.000000	0.000879
2442.000000	0.000892
2441.000000	0.000902
2440.000000	0.000898
2439.000000	0.000867
2438.000000	0.000817
2437.000000	0.000773
2436.000000	0.000748
2435.000000	0.000736
2434.000000	0.000735
2433.000000	0.000753
2432.000000	0.000786
2431.000000	0.000806
2430.000000	0.000802
2429.000000	0.000788
2428.000000	0.000785
2427.000000	0.000788
2426.000000	0.000780
2425.000000	0.000766
2424.000000	0.000765
2423.000000	0.000788
2422.000000	0.000836
2421.000000	0.000901
2420.000000	0.000965
2419.000000	0.001006
2418.000000	0.001014
2417.000000	0.001002
2416.000000	0.000985
2415.000000	0.000973
2414.000000	0.000975
2413.000000	0.000992
2412.000000	0.001013
2411.000000	0.001013
2410.000000	0.000989
2409.000000	0.000961
2408.000000	0.000945
2407.000000	0.000942
2406.000000	0.000951
2405.000000	0.000982
2404.000000	0.001026
2403.000000	0.001062
2402.000000	0.001080
2401.000000	0.001092
2400.000000	0.001112
2399.000000	0.001132
2398.000000	0.001148
2397.000000	0.001171
2396.000000	0.001209
2395.000000	0.001244
2394.000000	0.001255
2393.000000	0.001240
2392.000000	0.001219
2391.000000	0.001213
2390.000000	0.001232
2389.000000	0.001274
2388.000000	0.001321
2387.000000	0.001354
2386.000000	0.001369
2385.000000	0.001379
2384.000000	0.001397
2383.000000	0.001421
2382.000000	0.001445
2381.000000	0.001467
2380.000000	0.001482
2379.000000	0.001491
2378.000000	0.001505
2377.000000	0.001521
2376.000000	0.001516
2375.000000	0.001472
2374.000000	0.001417
2373.000000	0.001399
2372.000000	0.001424
2371.000000	0.001445
2370.000000	0.001438
2369.000000	0.001432
2368.000000	0.001473
2367.000000	0.001564
2366.000000	0.001668
2365.000000	0.001744
2364.000000	0.001767
2363.000000	0.001755
2362.000000	0.001766
2361.000000	0.001823
2360.000000	0.001900
2359.000000	0.001932
2358.000000	0.001889
2357.000000	0.001815
2356.000000	0.001774
2355.000000	0.001822
2354.000000	0.001918
2353.000000	0.001968
2352.000000	0.001933
2351.000000	0.001877
2350.000000	0.001895
2349.000000	0.002011
2348.000000	0.002175
2347.000000	0.002278
2346.000000	0.002251
2345.000000	0.002145
2344.000000	0.002064
2343.000000	0.002062
2342.000000	0.002087
2341.000000	0.002090
2340.000000	0.002077
2339.000000	0.002071
2338.000000	0.002087
2337.000000	0.002121
2336.000000	0.002161
2335.000000	0.002175
2334.000000	0.002152
2333.000000	0.002103
2332.000000	0.002070
2331.000000	0.002055
2330.000000	0.002069
2329.000000	0.002096
2328.000000	0.002158
2327.000000	0.002236
2326.000000	0.002305
2325.000000	0.002328
2324.000000	0.002286
2323.000000	0.002182
2322.000000	0.002056
2321.000000	0.001957
2320.000000	0.001910
2319.000000	0.001885
2318.000000	0.001867
2317.000000	0.001842
2316.000000	0.001813
2315.000000	0.001753
2314.000000	0.001679
2313.000000	0.001622
2312.000000	0.001608
2311.000000	0.001599
2310.000000	0.001573
2309.000000	0.001540
2308.000000	0.001524
2307.000000	0.001508
2306.000000	0.001477
2305.000000	0.001439
2304.000000	0.001420
2303.000000	0.001411
2302.000000	0.001392
2301.000000	0.001359
2300.000000	0.001331
2299.000000	0.001313
2298.000000	0.001318
2297.000000	0.001344
2296.000000	0.001376
2295.000000	0.001369
2294.000000	0.001316
2293.000000	0.001249
2292.000000	0.001202
2291.000000	0.001171
2290.000000	0.001144
2289.000000	0.001127
2288.000000	0.001118
2287.000000	0.001084
2286.000000	0.001007
2285.000000	0.000918
2284.000000	0.000853
2283.000000	0.000810
2282.000000	0.000772
2281.000000	0.000749
2280.000000	0.000752
2279.000000	0.000763
2278.000000	0.000768
2277.000000	0.000780
2276.000000	0.000803
2275.000000	0.000801
2274.000000	0.000753
2273.000000	0.000702
2272.000000	0.000702
2271.000000	0.000742
2270.000000	0.000786
2269.000000	0.000827
2268.000000	0.000872
2267.000000	0.000891
2266.000000	0.000862
2265.000000	0.000815
2264.000000	0.000804
2263.000000	0.000824
2262.000000	0.000830
2261.000000	0.000808
2260.000000	0.000777
2259.000000	0.000747
2258.000000	0.000711
2257.000000	0.000664
2256.000000	0.000594
2255.000000	0.000488
2254.000000	0.000366
2253.000000	0.000294
2252.000000	0.000302
2251.000000	0.000349
2250.000000	0.000381
2249.000000	0.000391
2248.000000	0.000394
2247.000000	0.000383
2246.000000	0.000359
2245.000000	0.000339
2244.000000	0.000318
2243.000000	0.000264
2242.000000	0.000186
2241.000000	0.000153
2240.000000	0.000190
2239.000000	0.000228
2238.000000	0.000208
2237.000000	0.000157
2236.000000	0.000130
2235.000000	0.000119
2234.000000	0.000105
2233.000000	0.000113
2232.000000	0.000165
2231.000000	0.000213
2230.000000	0.000203
2229.000000	0.000144
2228.000000	0.000076
2227.000000	0.000014
2226.000000	-0.000020
2225.000000	0.000027
2224.000000	0.000149
2223.000000	0.000243
2222.000000	0.000230
2221.000000	0.000163
2220.000000	0.000148
2219.000000	0.000211
2218.000000	0.000313
2217.000000	0.000425
2216.000000	0.000516
2215.000000	0.000522
2214.000000	0.000415
2213.000000	0.000265
2212.000000	0.000165
2211.000000	0.000123
2210.000000	0.000090
2209.000000	0.000054
2208.000000	0.000031
2207.000000	0.000020
2206.000000	0.000012
2205.000000	0.000011
2204.000000	0.000008
2203.000000	-0.000022
2202.000000	-0.000054
2201.000000	-0.000029
2200.000000	0.000041
2199.000000	0.000065
2198.000000	0.000014
2197.000000	-0.000027
2196.000000	0.000001
2195.000000	0.000037
2194.000000	0.000016
2193.000000	-0.000040
2192.000000	-0.000089
2191.000000	-0.000160
2190.000000	-0.000272
2189.000000	-0.000375
2188.000000	-0.000437
2187.000000	-0.000485
2186.000000	-0.000503
2185.000000	-0.000406
2184.000000	-0.000198
2183.000000	-0.000047
2182.000000	-0.000090
2181.000000	-0.000266
2180.000000	-0.000431
2179.000000	-0.000519
2178.000000	-0.000496
2177.000000	-0.000319
2176.000000	-0.000059
2175.000000	0.000075
2174.000000	-0.000032
2173.000000	-0.000244
2172.000000	-0.000372
2171.000000	-0.000393
2170.000000	-0.000377
2169.000000	-0.000321
2168.000000	-0.000207
2167.000000	-0.000122
2166.000000	-0.000170
2165.000000	-0.000328
2164.000000	-0.000501
2163.000000	-0.000673
2162.000000	-0.000881
2161.000000	-0.001132
2160.000000	-0.001438
2159.000000	-0.001819
2158.000000	-0.002144
2157.000000	-0.002160
2156.000000	-0.001795
2155.000000	-0.001252
2154.000000	-0.000756
2153.000000	-0.000393
2152.000000	-0.000175
2151.000000	-0.000103
2150.000000	-0.000115
2149.000000	-0.000106
2148.000000	-0.000064
2147.000000	-0.000060
2146.000000	-0.000091
2145.000000	-0.000052
2144.000000	0.000075
2143.000000	0.000164
2142.000000	0.000147
2141.000000	0.000124
2140.000000	0.000198
2139.000000	0.000313
2138.000000	0.000354
2137.000000	0.000291
2136.000000	0.000173
2135.000000	0.000060
2134.000000	0.000030
2133.000000	0.000155
2132.000000	0.000407
2131.000000	0.000666
2130.000000	0.000843
2129.000000	0.000942
2128.000000	0.000978
2127.000000	0.000937
2126.000000	0.000843
2125.000000	0.000786
2124.000000	0.000823
2123.000000	0.000906
2122.000000	0.000962
2121.000000	0.000987
2120.000000	0.001006
2119.000000	0.001021
2118.000000	0.001030
2117.000000	0.001055
2116.000000	0.001103
2115.000000	0.001149
2114.000000	0.001187
2113.000000	0.001239
2112.000000	0.001295
2111.000000	0.001308
2110.000000	0.001284
2109.000000	0.001294
2108.000000	0.001356
2107.000000	0.001384
2106.000000	0.001321
2105.000000	0.001224
2104.000000	0.001182
2103.000000	0.001193
2102.000000	0.001210
2101.000000	0.001219
2100.000000	0.001221
2099.000000	0.001197
2098.000000	0.001143
2097.000000	0.001099
2096.000000	0.001085
2095.000000	0.001063
2094.000000	0.001018
2093.000000	0.001002
2092.000000	0.001055
2091.000000	0.001145
2090.000000	0.001228
2089.000000	0.001297
2088.000000	0.001340
2087.000000	0.001321
2086.000000	0.001249
2085.000000	0.001199
2084.000000	0.001211
2083.000000	0.001235
2082.000000	0.001233
2081.000000	0.001239
2080.000000	0.001278
2079.000000	0.001299
2078.000000	0.001247
2077.000000	0.001139
2076.000000	0.001013
2075.000000	0.000870
2074.000000	0.000725
2073.000000	0.000653
2072.000000	0.000704
2071.000000	0.000834
2070.000000	0.000963
2069.000000	0.001036
2068.000000	0.001001
2067.000000	0.000833
2066.000000	0.000619
2065.000000	0.000528
2064.000000	0.000601
2063.000000	0.000692
2062.000000	0.000670
2061.000000	0.000566
2060.000000	0.000469
2059.000000	0.000387
2058.000000	0.000303
2057.000000	0.000254
2056.000000	0.000261
2055.000000	0.000278
2054.000000	0.000272
2053.000000	0.000272
2052.000000	0.000269
2051.000000	0.000194
2050.000000	0.000067
2049.000000	0.000027
2048.000000	0.000123
2047.000000	0.000202
2046.000000	0.000144
2045.000000	0.000036
2044.000000	-0.000028
2043.000000	-0.000121
2042.000000	-0.000315
2041.000000	-0.000500
2040.000000	-0.000551
2039.000000	-0.000529
2038.000000	-0.000558
2037.000000	-0.000655
2036.000000	-0.000786
2035.000000	-0.000948
2034.000000	-0.001043
2033.000000	-0.000900
2032.000000	-0.000580
2031.000000	-0.000405
2030.000000	-0.000547
2029.000000	-0.000794
2028.000000	-0.000893
2027.000000	-0.000869
2026.000000	-0.000844
2025.000000	-0.000774
2024.000000	-0.000600
2023.000000	-0.000433
2022.000000	-0.000416
2021.000000	-0.000541
2020.000000	-0.000751
2019.000000	-0.001033
2018.000000	-0.001311
2017.000000	-0.001440
2016.000000	-0.001436
2015.000000	-0.001505
2014.000000	-0.001702
2013.000000	-0.001817
2012.000000	-0.001701
2011.000000	-0.001480
2010.000000	-0.001316
2009.000000	-0.001189
2008.000000	-0.001060
2007.000000	-0.001007
2006.000000	-0.001043
2005.000000	-0.001024
2004.000000	-0.000885
2003.000000	-0.000734
2002.000000	-0.000625
2001.000000	-0.000474
2000.000000	-0.000298
1999.000000	-0.000280
1998.000000	-0.000477
1997.000000	-0.000693
1996.000000	-0.000769
1995.000000	-0.000800
1994.000000	-0.000914
1993.000000	-0.001044
1992.000000	-0.001078
1991.000000	-0.001080
1990.000000	-0.001151
1989.000000	-0.001239
1988.000000	-0.001266
1987.000000	-0.001270
1986.000000	-0.001273
1985.000000	-0.001185
1984.000000	-0.000980
1983.000000	-0.000800
1982.000000	-0.000742
1981.000000	-0.000709
1980.000000	-0.000629
1979.000000	-0.000646
1978.000000	-0.000884
1977.000000	-0.001206
1976.000000	-0.001424
1975.000000	-0.001558
1974.000000	-0.001660
1973.000000	-0.001645
1972.000000	-0.001511
1971.000000	-0.001453
1970.000000	-0.001566
1969.000000	-0.001660
1968.000000	-0.001531
1967.000000	-0.001247
1966.000000	-0.000999
1965.000000	-0.000842
1964.000000	-0.000756
1963.000000	-0.000763
1962.000000	-0.000833
1961.000000	-0.000839
1960.000000	-0.000740
1959.000000	-0.000655
1958.000000	-0.000657
1957.000000	-0.000677
1956.000000	-0.000684
1955.000000	-0.000764
1954.000000	-0.000944
1953.000000	-0.001108
1952.000000	-0.001183
1951.000000	-0.001237
1950.000000	-0.001318
1949.000000	-0.001334
1948.000000	-0.001232
1947.000000	-0.001124
1946.000000	-0.001123
1945.000000	-0.001190
1944.000000	-0.001240
1943.000000	-0.001265
1942.000000	-0.001255
1941.000000	-0.001145
1940.000000	-0.000954
1939.000000	-0.000822
1938.000000	-0.000847
1937.000000	-0.000970
1936.000000	-0.001081
1935.000000	-0.001136
1934.000000	-0.001122
1933.000000	-0.001015
1932.000000	-0.000851
1931.000000	-0.000746
1930.000000	-0.000752
1929.000000	-0.000796
1928.000000	-0.000824
1927.000000	-0.000876
1926.000000	-0.000975
1925.000000	-0.001049
1924.000000	-0.001042
1923.000000	-0.001019
1922.000000	-0.001058
1921.000000	-0.001132
1920.000000	-0.001180
1919.000000	-0.001189
1918.000000	-0.001160
1917.000000	-0.001068
1916.000000	-0.000929
1915.000000	-0.000827
1914.000000	-0.000810
1913.000000	-0.000846
1912.000000	-0.000898
1911.000000	-0.000972
1910.000000	-0.001049
1909.000000	-0.001060
1908.000000	-0.001000
1907.000000	-0.000947
1906.000000	-0.000947
1905.000000	-0.000943
1904.000000	-0.000890
1903.000000	-0.000831
1902.000000	-0.000799
1901.000000	-0.000753
1900.000000	-0.000690
1899.000000	-0.000683
1898.000000	-0.000766
1897.000000	-0.000858
1896.000000	-0.000878
1895.000000	-0.000865
1894.000000	-0.000895
1893.000000	-0.000967
1892.000000	-0.001036
1891.000000	-0.001080
1890.000000	-0.001081
1889.000000	-0.001012
1888.000000	-0.000910
1887.000000	-0.000854
1886.000000	-0.000856
1885.000000	-0.000857
1884.000000	-0.000844
1883.000000	-0.000875
1882.000000	-0.000967
1881.000000	-0.001037
1880.000000	-0.001030
1879.000000	-0.000973
1878.000000	-0.000907
1877.000000	-0.000838
1876.000000	-0.000788
1875.000000	-0.000811
1874.000000	-0.000923
1873.000000	-0.001065
1872.000000	-0.001191
1871.000000	-0.001311
1870.000000	-0.001412
1869.000000	-0.001425
1868.000000	-0.001332
1867.000000	-0.001221
1866.000000	-0.001148
1865.000000	-0.001085
1864.000000	-0.001018
1863.000000	-0.000984
1862.000000	-0.000977
1861.000000	-0.000934
1860.000000	-0.000850
1859.000000	-0.000806
1858.000000	-0.000835
1857.000000	-0.000864
1856.000000	-0.000848
1855.000000	-0.000832
1854.000000	-0.000858
1853.000000	-0.000889
1852.000000	-0.000923
1851.000000	-0.001000
1850.000000	-0.001119
1849.000000	-0.001237
1848.000000	-0.001364
1847.000000	-0.001553
1846.000000	-0.001748
1845.000000	-0.001784
1844.000000	-0.001644
1843.000000	-0.001520
1842.000000	-0.001467
1841.000000	-0.001366
1840.000000	-0.001195
1839.000000	-0.001059
1838.000000	-0.001028
1837.000000	-0.001033
1836.000000	-0.001000
1835.000000	-0.000989
1834.000000	-0.001075
1833.000000	-0.001197
1832.000000	-0.001243
1831.000000	-0.001179
1830.000000	-0.001082
1829.000000	-0.001046
1828.000000	-0.001096
1827.000000	-0.001199
1826.000000	-0.001284
1825.000000	-0.001281
1824.000000	-0.001197
1823.000000	-0.001111
1822.000000	-0.001058
1821.000000	-0.001003
1820.000000	-0.000941
1819.000000	-0.000915
1818.000000	-0.000930
1817.000000	-0.000915
1816.000000	-0.000838
1815.000000	-0.000783
1814.000000	-0.000804
1813.000000	-0.000844
1812.000000	-0.000833
1811.000000	-0.000796
1810.000000	-0.000796
1809.000000	-0.000801
1808.000000	-0.000760
1807.000000	-0.000703
1806.000000	-0.000685
1805.000000	-0.000703
1804.000000	-0.000738
1803.000000	-0.000793
1802.000000	-0.000811
1801.000000	-0.000693
1800.000000	-0.000440
1799.000000	-0.000214
1798.000000	-0.000141
1797.000000	-0.000172
1796.000000	-0.000223
1795.000000	-0.000289
1794.000000	-0.000355
1793.000000	-0.000342
1792.000000	-0.000238
1791.000000	-0.000146
1790.000000	-0.000095
1789.000000	-0.000011
1788.000000	0.000106
1787.000000	0.000174
1786.000000	0.000165
1785.000000	0.000169
1784.000000	0.000261
1783.000000	0.000390
1782.000000	0.000527
1781.000000	0.000696
1780.000000	0.000895
1779.000000	0.001056
1778.000000	0.001157
1777.000000	0.001270
1776.000000	0.001382
1775.000000	0.001417
1774.000000	0.001467
1773.000000	0.001786
1772.000000	0.002399
1771.000000	0.003000
1770.000000	0.003457
1769.000000	0.004007
1768.000000	0.004884
1767.000000	0.006009
1766.000000	0.007181
1765.000000	0.008424
1764.000000	0.009979
1763.000000	0.012073
1762.000000	0.014750
1761.000000	0.017824
1760.000000	0.021140
1759.000000	0.024821
1758.000000	0.029265
1757.000000	0.034754
1756.000000	0.040815
1755.000000	0.046624
1754.000000	0.052066
1753.000000	0.057794
1752.000000	0.064376
1751.000000	0.071511
1750.000000	0.078339
1749.000000	0.084392
1748.000000	0.089430
1747.000000	0.093100
1746.000000	0.095337
1745.000000	0.096329
1744.000000	0.096134
1743.000000	0.094746
1742.000000	0.092287
1741.000000	0.088801
1740.000000	0.084199
1739.000000	0.078858
1738.000000	0.073677
1737.000000	0.068967
1736.000000	0.064103
1735.000000	0.058310
1734.000000	0.051951
1733.000000	0.046684
1732.000000	0.043183
1731.000000	0.040708
1730.000000	0.038442
1729.000000	0.036155
1728.000000	0.033930
1727.000000	0.031845
1726.000000	0.029922
1725.000000	0.028132
1724.000000	0.026439
1723.000000	0.024854
1722.000000	0.023433
1721.000000	0.022165
1720.000000	0.020878
1719.000000	0.019425
1718.000000	0.017903
1717.000000	0.016698
1716.000000	0.016091
1715.000000	0.015957
1714.000000	0.015998
1713.000000	0.016018
1712.000000	0.015969
1711.000000	0.015875
1710.000000	0.015803
1709.000000	0.015824
1708.000000	0.015956
1707.000000	0.016200
1706.000000	0.016533
1705.000000	0.016841
1704.000000	0.016924
1703.000000	0.016768
1702.000000	0.016741
1701.000000	0.017373
1700.000000	0.018266
1699.000000	0.018531
1698.000000	0.018471
1697.000000	0.018800
1696.000000	0.019724
1695.000000	0.020887
1694.000000	0.021959
1693.000000	0.023028
1692.000000	0.024034
1691.000000	0.024828
1690.000000	0.025457
1689.000000	0.025990
1688.000000	0.026306
1687.000000	0.026325
1686.000000	0.026389
1685.000000	0.027166
1684.000000	0.028655
1683.000000	0.030085
1682.000000	0.031270
1681.000000	0.032482
1680.000000	0.033719
1679.000000	0.034833
1678.000000	0.035834
1677.000000	0.036940
1676.000000	0.038344
1675.000000	0.039830
1674.000000	0.041063
1673.000000	0.042135
1672.000000	0.043309
1671.000000	0.044639
1670.000000	0.046082
1669.000000	0.047542
1668.000000	0.048866
1667.000000	0.050025
1666.000000	0.051141
1665.000000	0.052364
1664.000000	0.053767
1663.000000	0.055187
1662.000000	0.056406
1661.000000	0.057456
1660.000000	0.058472
1659.000000	0.059448
1658.000000	0.060293
1657.000000	0.060893
1656.000000	0.061132
1655.000000	0.061124
1654.000000	0.061301
1653.000000	0.061810
1652.000000	0.062282
1651.000000	0.062974
1650.000000	0.064179
1649.000000	0.065303
1648.000000	0.065931
1647.000000	0.066132
1646.000000	0.066168
1645.000000	0.066329
1644.000000	0.066781
1643.000000	0.067395
1642.000000	0.067933
1641.000000	0.068339
1640.000000	0.068663
1639.000000	0.068887
1638.000000	0.068973
1637.000000	0.069034
1636.000000	0.069160
1635.000000	0.069245
1634.000000	0.069228
1633.000000	0.069286
1632.000000	0.069433
1631.000000	0.069456
1630.000000	0.069272
1629.000000	0.068902
1628.000000	0.068340
1627.000000	0.067572
1626.000000	0.066664
1625.000000	0.065656
1624.000000	0.064466
1623.000000	0.063001
1622.000000	0.061430
1621.000000	0.060003
1620.000000	0.058685
1619.000000	0.057205
1618.000000	0.055358
1617.000000	0.053224
1616.000000	0.051179
1615.000000	0.049621
1614.000000	0.048538
1613.000000	0.047552
1612.000000	0.046351
1611.000000	0.044932
1610.000000	0.043472
1609.000000	0.042076
1608.000000	0.040732
1607.000000	0.039445
1606.000000	0.038274
1605.000000	0.037215
1604.000000	0.036205
1603.000000	0.035241
1602.000000	0.034382
1601.000000	0.033640
1600.000000	0.032968
1599.000000	0.032350
1598.000000	0.031815
1597.000000	0.031355
1596.000000	0.030943
1595.000000	0.030594
1594.000000	0.030358
1593.000000	0.030221
1592.000000	0.030125
1591.000000	0.030064
1590.000000	0.030091
1589.000000	0.030217
1588.000000	0.030397
1587.000000	0.030616
1586.000000	0.030904
1585.000000	0.031269
1584.000000	0.031670
1583.000000	0.032110
1582.000000	0.032630
1581.000000	0.033185
1580.000000	0.033619
1579.000000	0.033826
1578.000000	0.033914
1577.000000	0.034172
1576.000000	0.034759
1575.000000	0.035572
1574.000000	0.036537
1573.000000	0.037541
1572.000000	0.038428
1571.000000	0.039269
1570.000000	0.040191
1569.000000	0.041095
1568.000000	0.041835
1567.000000	0.042547
1566.000000	0.043419
1565.000000	0.044403
1564.000000	0.045209
1563.000000	0.045578
1562.000000	0.045546
1561.000000	0.045561
1560.000000	0.046249
1559.000000	0.047515
1558.000000	0.048719
1557.000000	0.049597
1556.000000	0.050442
1555.000000	0.051306
1554.000000	0.052105
1553.000000	0.052833
1552.000000	0.053484
1551.000000	0.054053
1550.000000	0.054542
1549.000000	0.054996
1548.000000	0.055376
1547.000000	0.055612
1546.000000	0.055701
1545.000000	0.055692
1544.000000	0.055643
1543.000000	0.055583
1542.000000	0.055470
1541.000000	0.055247
1540.000000	0.054902
1539.000000	0.054523
1538.000000	0.054347
1537.000000	0.054551
1536.000000	0.054843
1535.000000	0.054789
1534.000000	0.054276
1533.000000	0.053479
1532.000000	0.052707
1531.000000	0.052104
1530.000000	0.051607
1529.000000	0.051089
1528.000000	0.050430
1527.000000	0.049614
1526.000000	0.048808
1525.000000	0.048157
1524.000000	0.047560
1523.000000	0.046757
1522.000000	0.045656
1521.000000	0.044568
1520.000000	0.043911
1519.000000	0.043693
1518.000000	0.043538
1517.000000	0.043110
1516.000000	0.042437
1515.000000	0.041716
1514.000000	0.041040
1513.000000	0.040344
1512.000000	0.039535
1511.000000	0.038567
1510.000000	0.037435
1509.000000	0.036143
1508.000000	0.034725
1507.000000	0.033355
1506.000000	0.032436
1505.000000	0.032002
1504.000000	0.031917
1503.000000	0.031954
1502.000000	0.031765
1501.000000	0.031324
1500.000000	0.030744
1499.000000	0.030006
1498.000000	0.029063
1497.000000	0.028071
1496.000000	0.027283
1495.000000	0.026788
1494.000000	0.026541
1493.000000	0.026401
1492.000000	0.026173
1491.000000	0.025725
1490.000000	0.025161
1489.000000	0.024828
1488.000000	0.024882
1487.000000	0.025111
1486.000000	0.025352
1485.000000	0.025662
1484.000000	0.026061
1483.000000	0.026515
1482.000000	0.027047
1481.000000	0.027725
1480.000000	0.028516
1479.000000	0.029336
1478.000000	0.030238
1477.000000	0.031335
1476.000000	0.032610
1475.000000	0.034059
1474.000000	0.036178
1473.000000	0.039708
1472.000000	0.044570
1471.000000	0.049787
1470.000000	0.054746
1469.000000	0.059318
1468.000000	0.063272
1467.000000	0.066331
1466.000000	0.068478
1465.000000	0.069918
1464.000000	0.070819
1463.000000	0.071358
1462.000000	0.071778
1461.000000	0.072202
1460.000000	0.072519
1459.000000	0.072649
1458.000000	0.072778
1457.000000	0.073084
1456.000000	0.073351
1455.000000	0.073493
1454.000000	0.073577
1453.000000	0.073391
1452.000000	0.072804
1451.000000	0.072003
1450.000000	0.071241
1449.000000	0.070598
1448.000000	0.070025
1447.000000	0.069498
1446.000000	0.069079
1445.000000	0.068756
1444.000000	0.068421
1443.000000	0.067988
1442.000000	0.067467
1441.000000	0.066893
1440.000000	0.066211
1439.000000	0.065317
1438.000000	0.064160
1437.000000	0.062808
1436.000000	0.061502
1435.000000	0.060535
1434.000000	0.059901
1433.000000	0.059313
1432.000000	0.058543
1431.000000	0.057587
1430.000000	0.056566
1429.000000	0.055613
1428.000000	0.054828
1427.000000	0.054226
1426.000000	0.053775
1425.000000	0.053431
1424.000000	0.053192
1423.000000	0.053063
1422.000000	0.052968
1421.000000	0.052846
1420.000000	0.052719
1419.000000	0.052608
1418.000000	0.052561
1417.000000	0.052620
1416.000000	0.052652
1415.000000	0.052440
1414.000000	0.051903
1413.000000	0.051107
1412.000000	0.050191
1411.000000	0.049316
1410.000000	0.048591
1409.000000	0.048034
1408.000000	0.047614
1407.000000	0.047297
1406.000000	0.047073
1405.000000	0.046934
1404.000000	0.046847
1403.000000	0.046758
1402.000000	0.046607
1401.000000	0.046338
1400.000000	0.045909
1399.000000	0.045352
1398.000000	0.044780
1397.000000	0.044281
1396.000000	0.043860
1395.000000	0.043508
1394.000000	0.043268
1393.000000	0.043163
1392.000000	0.043158
1391.000000	0.043159
1390.000000	0.043077
1389.000000	0.042935
1388.000000	0.042873
1387.000000	0.043042
1386.000000	0.043496
1385.000000	0.044158
1384.000000	0.044903
1383.000000	0.045653
1382.000000	0.046395
1381.000000	0.047145
1380.000000	0.047854
1379.000000	0.048366
1378.000000	0.048508
1377.000000	0.048195
1376.000000	0.047446
1375.000000	0.046361
1374.000000	0.045173
1373.000000	0.044147
1372.000000	0.043369
1371.000000	0.042728
1370.000000	0.042097
1369.000000	0.041435
1368.000000	0.040763
1367.000000	0.040089
1366.000000	0.039366
1365.000000	0.038532
1364.000000	0.037576
1363.000000	0.036599
1362.000000	0.035791
1361.000000	0.035267
1360.000000	0.034966
1359.000000	0.034758
1358.000000	0.034566
1357.000000	0.034395
1356.000000	0.034276
1355.000000	0.034229
1354.000000	0.034250
1353.000000	0.034337
1352.000000	0.034477
1351.000000	0.034638
1350.000000	0.034798
1349.000000	0.034957
1348.000000	0.035128
1347.000000	0.035316
1346.000000	0.035524
1345.000000	0.035756
1344.000000	0.035990
1343.000000	0.036157
1342.000000	0.036181
1341.000000	0.036052
1340.000000	0.035851
1339.000000	0.035701
1338.000000	0.035660
1337.000000	0.035683
1336.000000	0.035676
1335.000000	0.035566
1334.000000	0.035333
1333.000000	0.035005
1332.000000	0.034620
1331.000000	0.034212
1330.000000	0.033819
1329.000000	0.033488
1328.000000	0.033257
1327.000000	0.033129
1326.000000	0.033080
1325.000000	0.033087
1324.000000	0.033134
1323.000000	0.033207
1322.000000	0.033287
1321.000000	0.033358
1320.000000	0.033411
1319.000000	0.033437
1318.000000	0.033430
1317.000000	0.033395
1316.000000	0.033329
1315.000000	0.033219
1314.000000	0.033059
1313.000000	0.032875
1312.000000	0.032696
1311.000000	0.032532
1310.000000	0.032376
1309.000000	0.032221
1308.000000	0.032072
1307.000000	0.031935
1306.000000	0.031816
1305.000000	0.031723
1304.000000	0.031645
1303.000000	0.031555
1302.000000	0.031432
1301.000000	0.031282
1300.000000	0.031123
1299.000000	0.030966
1298.000000	0.030820
1297.000000	0.030711
1296.000000	0.030666
1295.000000	0.030696
1294.000000	0.030799
1293.000000	0.030971
1292.000000	0.031200
1291.000000	0.031469
1290.000000	0.031777
1289.000000	0.032152
1288.000000	0.032614
1287.000000	0.033158
1286.000000	0.033760
1285.000000	0.034396
1284.000000	0.035026
1283.000000	0.035590
1282.000000	0.036048
1281.000000	0.036405
1280.000000	0.036684
1279.000000	0.036882
1278.000000	0.036999
1277.000000	0.037055
1276.000000	0.037073
1275.000000	0.037061
1274.000000	0.037031
1273.000000	0.037026
1272.000000	0.037097
1271.000000	0.037267
1270.000000	0.037530
1269.000000	0.037868
1268.000000	0.038247
1267.000000	0.038619
1266.000000	0.038961
1265.000000	0.039292
1264.000000	0.039648
1263.000000	0.040038
1262.000000	0.040460
1261.000000	0.040917
1260.000000	0.041408
1259.000000	0.041916
1258.000000	0.042433
1257.000000	0.042966
1256.000000	0.043513
1255.000000	0.044059
1254.000000	0.044621
1253.000000	0.045254
1252.000000	0.045994
1251.000000	0.046822
1250.000000	0.047701
1249.000000	0.048614
1248.000000	0.049546
1247.000000	0.050474
1246.000000	0.051385
1245.000000	0.052280
1244.000000	0.053128
1243.000000	0.053874
1242.000000	0.054502
1241.000000	0.055044
1240.000000	0.055512
1239.000000	0.055863
1238.000000	0.056068
1237.000000	0.056141
1236.000000	0.056101
1235.000000	0.055937
1234.000000	0.055649
1233.000000	0.055267
1232.000000	0.054804
1231.000000	0.054238
1230.000000	0.053568
1229.000000	0.052830
1228.000000	0.052045
1227.000000	0.051195
1226.000000	0.050274
1225.000000	0.049321
1224.000000	0.048375
1223.000000	0.047435
1222.000000	0.046497
1221.000000	0.045587
1220.000000	0.044737
1219.000000	0.043961
1218.000000	0.043272
1217.000000	0.042704
1216.000000	0.042278
1215.000000	0.041986
1214.000000	0.041811
1213.000000	0.041754
1212.000000	0.041810
1211.000000	0.041952
1210.000000	0.042154
1209.000000	0.042411
1208.000000	0.042717
1207.000000	0.043046
1206.000000	0.043380
1205.000000	0.043731
1204.000000	0.044103
1203.000000	0.044476
1202.000000	0.044833
1201.000000	0.045174
1200.000000	0.045498
1199.000000	0.045783
1198.000000	0.046021
1197.000000	0.046235
1196.000000	0.046442
1195.000000	0.046644
1194.000000	0.046859
1193.000000	0.047128
1192.000000	0.047458
1191.000000	0.047820
1190.000000	0.048197
1189.000000	0.048623
1188.000000	0.049129
1187.000000	0.049706
1186.000000	0.050350
1185.000000	0.051087
1184.000000	0.051931
1183.000000	0.052861
1182.000000	0.053862
1181.000000	0.054952
1180.000000	0.056146
1179.000000	0.057414
1178.000000	0.058720
1177.000000	0.060058
1176.000000	0.061414
1175.000000	0.062754
1174.000000	0.064063
1173.000000	0.065363
1172.000000	0.066656
1171.000000	0.067891
1170.000000	0.069037
1169.000000	0.070118
1168.000000	0.071154
1167.000000	0.072116
1166.000000	0.072972
1165.000000	0.073721
1164.000000	0.074355
1163.000000	0.074834
1162.000000	0.075126
1161.000000	0.075231
1160.000000	0.075133
1159.000000	0.074806
1158.000000	0.074270
1157.000000	0.073595
1156.000000	0.072818
1155.000000	0.071932
1154.000000	0.070956
1153.000000	0.069957
1152.000000	0.068983
1151.000000	0.068028
1150.000000	0.067088
1149.000000	0.066186
1148.000000	0.065308
1147.000000	0.064401
1146.000000	0.063427
1145.000000	0.062381
1144.000000	0.061228
1143.000000	0.059886
1142.000000	0.058303
1141.000000	0.056491
1140.000000	0.054465
1139.000000	0.052227
1138.000000	0.049821
1137.000000	0.047357
1136.000000	0.044948
1135.000000	0.042663
1134.000000	0.040558
1133.000000	0.038713
1132.000000	0.037190
1131.000000	0.036013
1130.000000	0.035194
1129.000000	0.034755
1128.000000	0.034696
1127.000000	0.034972
1126.000000	0.035515
1125.000000	0.036278
1124.000000	0.037207
1123.000000	0.038226
1122.000000	0.039260
1121.000000	0.040252
1120.000000	0.041136
1119.000000	0.041837
1118.000000	0.042313
1117.000000	0.042569
1116.000000	0.042619
1115.000000	0.042461
1114.000000	0.042126
1113.000000	0.041688
1112.000000	0.041204
1111.000000	0.040698
1110.000000	0.040209
1109.000000	0.039812
1108.000000	0.039555
1107.000000	0.039434
1106.000000	0.039454
1105.000000	0.039647
1104.000000	0.040009
1103.000000	0.040460
1102.000000	0.040917
1101.000000	0.041358
1100.000000	0.041781
1099.000000	0.042154
1098.000000	0.042430
1097.000000	0.042595
1096.000000	0.042646
1095.000000	0.042578
1094.000000	0.042416
1093.000000	0.042208
1092.000000	0.041974
1091.000000	0.041703
1090.000000	0.041411
1089.000000	0.041156
1088.000000	0.040959
1087.000000	0.040785
1086.000000	0.040604
1085.000000	0.040418
1084.000000	0.040205
1083.000000	0.039888
1082.000000	0.039417
1081.000000	0.038814
1080.000000	0.038114
1079.000000	0.037314
1078.000000	0.036428
1077.000000	0.035509
1076.000000	0.034606
1075.000000	0.033724
1074.000000	0.032878
1073.000000	0.032124
1072.000000	0.031509
1071.000000	0.031028
1070.000000	0.030664
1069.000000	0.030419
1068.000000	0.030282
1067.000000	0.030210
1066.000000	0.030174
1065.000000	0.030183
1064.000000	0.030224
1063.000000	0.030242
1062.000000	0.030191
1061.000000	0.030071
1060.000000	0.029884
1059.000000	0.029611
1058.000000	0.029264
1057.000000	0.028900
1056.000000	0.028556
1055.000000	0.028208
1054.000000	0.027829
1053.000000	0.027440
1052.000000	0.027073
1051.000000	0.026732
1050.000000	0.026425
1049.000000	0.026180
1048.000000	0.025989
1047.000000	0.025793
1046.000000	0.025560
1045.000000	0.025336
1044.000000	0.025180
1043.000000	0.025099
1042.000000	0.025084
1041.000000	0.025149
1040.000000	0.025299
1039.000000	0.025508
1038.000000	0.025768
1037.000000	0.026110
1036.000000	0.026530
1035.000000	0.026956
1034.000000	0.027321
1033.000000	0.027613
1032.000000	0.027827
1031.000000	0.027916
1030.000000	0.027850
1029.000000	0.027658
1028.000000	0.027379
1027.000000	0.027014
1026.000000	0.026576
1025.000000	0.026126
1024.000000	0.025720
1023.000000	0.025348
1022.000000	0.024984
1021.000000	0.024637
1020.000000	0.024332
1019.000000	0.024061
1018.000000	0.023810
1017.000000	0.023582
1016.000000	0.023347
1015.000000	0.023029
1014.000000	0.022585
1013.000000	0.022064
1012.000000	0.021531
1011.000000	0.020992
1010.000000	0.020431
1009.000000	0.019871
1008.000000	0.019345
1007.000000	0.018844
1006.000000	0.018343
1005.000000	0.017849
1004.000000	0.017385
1003.000000	0.016948
1002.000000	0.016525
1001.000000	0.016114
1000.000000	0.015715
999.000000	0.015317
998.000000	0.014921
997.000000	0.014553
996.000000	0.014217
995.000000	0.013881
994.000000	0.013535
993.000000	0.013210
992.000000	0.012933
991.000000	0.012689
990.000000	0.012469
989.000000	0.012292
988.000000	0.012159
987.000000	0.012029
986.000000	0.011890
985.000000	0.011781
984.000000	0.011729
983.000000	0.011700
982.000000	0.011664
981.000000	0.011653
980.000000	0.011710
979.000000	0.011826
978.000000	0.011979
977.000000	0.012179
976.000000	0.012435
975.000000	0.012704
974.000000	0.012937
973.000000	0.013127
972.000000	0.013293
971.000000	0.013431
970.000000	0.013525
969.000000	0.013572
968.000000	0.013544
967.000000	0.013384
966.000000	0.013077
965.000000	0.012679
964.000000	0.012240
963.000000	0.011746
962.000000	0.011177
961.000000	0.010565
960.000000	0.009962
959.000000	0.009371
958.000000	0.008778
957.000000	0.008197
956.000000	0.007664
955.000000	0.007187
954.000000	0.006770
953.000000	0.006423
952.000000	0.006130
951.000000	0.005841
950.000000	0.005535
949.000000	0.005256
948.000000	0.005038
947.000000	0.004854
946.000000	0.004669
945.000000	0.004497
944.000000	0.004355
943.000000	0.004217
942.000000	0.004049
941.000000	0.003865
940.000000	0.003687
939.000000	0.003494
938.000000	0.003259
937.000000	0.003001
936.000000	0.002741
935.000000	0.002471
934.000000	0.002188
933.000000	0.001929
932.000000	0.001716
931.000000	0.001522
930.000000	0.001325
929.000000	0.001150
928.000000	0.001016
927.000000	0.000884
926.000000	0.000723
925.000000	0.000570
924.000000	0.000478
923.000000	0.000431
922.000000	0.000376
921.000000	0.000290
920.000000	0.000175
919.000000	0.000023
918.000000	-0.000162
917.000000	-0.000339
916.000000	-0.000477
915.000000	-0.000599
914.000000	-0.000736
913.000000	-0.000875
912.000000	-0.000994
911.000000	-0.001110
910.000000	-0.001229
909.000000	-0.001313
908.000000	-0.001332
907.000000	-0.001323
906.000000	-0.001330
905.000000	-0.001341
904.000000	-0.001329
903.000000	-0.001313
902.000000	-0.001323
901.000000	-0.001347
900.000000	-0.001363
899.000000	-0.001392
898.000000	-0.001453
897.000000	-0.001516
896.000000	-0.001549
895.000000	-0.001574
894.000000	-0.001615
893.000000	-0.001635
892.000000	-0.001598
891.000000	-0.001529
890.000000	-0.001474
889.000000	-0.001416
888.000000	-0.001309
887.000000	-0.001139
886.000000	-0.000904
885.000000	-0.000554
884.000000	-0.000036
883.000000	0.000658
882.000000	0.001548
881.000000	0.002719
880.000000	0.004249
879.000000	0.006077
878.000000	0.007998
877.000000	0.009737
876.000000	0.011002
875.000000	0.011525
874.000000	0.011180
873.000000	0.010062
872.000000	0.008437
871.000000	0.006625
870.000000	0.004933
869.000000	0.003579
868.000000	0.002614
867.000000	0.001941
866.000000	0.001450
865.000000	0.001101
864.000000	0.000865
863.000000	0.000678
862.000000	0.000510
861.000000	0.000401
860.000000	0.000371
859.000000	0.000360
858.000000	0.000310
857.000000	0.000255
856.000000	0.000254
855.000000	0.000303
854.000000	0.000361
853.000000	0.000417
852.000000	0.000467
851.000000	0.000477
850.000000	0.000437
849.000000	0.000380
848.000000	0.000317
847.000000	0.000209
846.000000	0.000044
845.000000	-0.000125
844.000000	-0.000278
843.000000	-0.000465
842.000000	-0.000709
841.000000	-0.000934
840.000000	-0.001070
839.000000	-0.001139
838.000000	-0.001189
837.000000	-0.001219
836.000000	-0.001234
835.000000	-0.001283
834.000000	-0.001383
833.000000	-0.001466
832.000000	-0.001494
831.000000	-0.001519
830.000000	-0.001587
829.000000	-0.001640
828.000000	-0.001618
827.000000	-0.001570
826.000000	-0.001564
825.000000	-0.001571
824.000000	-0.001540
823.000000	-0.001504
822.000000	-0.001515
821.000000	-0.001542
820.000000	-0.001522
819.000000	-0.001465
818.000000	-0.001403
817.000000	-0.001328
816.000000	-0.001242
815.000000	-0.001204
814.000000	-0.001251
813.000000	-0.001327
812.000000	-0.001372
811.000000	-0.001403
810.000000	-0.001448
809.000000	-0.001478
808.000000	-0.001472
807.000000	-0.001475
806.000000	-0.001514
805.000000	-0.001543
804.000000	-0.001540
803.000000	-0.001558
802.000000	-0.001617
801.000000	-0.001636
800.000000	-0.001560
799.000000	-0.001470
798.000000	-0.001461
797.000000	-0.001497
796.000000	-0.001497
795.000000	-0.001462
794.000000	-0.001431
793.000000	-0.001375
792.000000	-0.001250
791.000000	-0.001096
790.000000	-0.000974
789.000000	-0.000880
788.000000	-0.000789
787.000000	-0.000729
786.000000	-0.000710
785.000000	-0.000663
784.000000	-0.000530
783.000000	-0.000359
782.000000	-0.000235
781.000000	-0.000166
780.000000	-0.000125
779.000000	-0.000109
778.000000	-0.000096
777.000000	-0.000015
776.000000	0.000160
775.000000	0.000352
774.000000	0.000484
773.000000	0.000583
772.000000	0.000701
771.000000	0.000824
770.000000	0.000929
769.000000	0.001052
768.000000	0.001212
767.000000	0.001358
766.000000	0.001459
765.000000	0.001570
764.000000	0.001735
763.000000	0.001892
762.000000	0.001966
761.000000	0.001979
760.000000	0.001993
759.000000	0.002025
758.000000	0.002094
757.000000	0.002249
756.000000	0.002478
755.000000	0.002670
754.000000	0.002761
753.000000	0.002828
752.000000	0.002967
751.000000	0.003166
750.000000	0.003381
749.000000	0.003643
748.000000	0.003983
747.000000	0.004347
746.000000	0.004681
745.000000	0.005025
744.000000	0.005426
743.000000	0.005841
742.000000	0.006227
741.000000	0.006635
740.000000	0.007121
739.000000	0.007638
738.000000	0.008133
737.000000	0.008649
736.000000	0.009253
735.000000	0.009912
734.000000	0.010567
733.000000	0.011248
732.000000	0.012022
731.000000	0.012899
730.000000	0.013863
729.000000	0.014946
728.000000	0.016161
727.000000	0.017437
726.000000	0.018700
725.000000	0.019948
724.000000	0.021137
723.000000	0.022110
722.000000	0.022714
721.000000	0.022921
720.000000	0.022763
719.000000	0.022271
718.000000	0.021549
717.000000	0.020823
716.000000	0.020276
715.000000	0.019912
714.000000	0.019626
713.000000	0.019346
712.000000	0.019017
711.000000	0.018565
710.000000	0.017991
709.000000	0.017440
708.000000	0.017043
707.000000	0.016769
706.000000	0.016536
705.000000	0.016363
704.000000	0.016282
703.000000	0.016228
702.000000	0.016114
701.000000	0.015968
700.000000	0.015859
699.000000	0.015771
698.000000	0.015658
697.000000	0.015549
696.000000	0.015483
695.000000	0.015418
694.000000	0.015307
693.000000	0.015183
692.000000	0.015088
691.000000	0.014976
690.000000	0.014824
689.000000	0.014716
688.000000	0.014720
687.000000	0.014758
686.000000	0.014725
685.000000	0.014643
684.000000	0.014589
683.000000	0.014553
682.000000	0.014483
681.000000	0.014404
680.000000	0.014372
679.000000	0.014360
678.000000	0.014326
677.000000	0.014335
676.000000	0.014441
675.000000	0.014571
674.000000	0.014631
673.000000	0.014641
672.000000	0.014626
671.000000	0.014477
670.000000	0.014067
669.000000	0.013469
668.000000	0.013135
667.000000	0.013449
666.000000	0.013925
665.000000	0.014299
664.000000	0.014586
663.000000	0.014718
662.000000	0.014650
661.000000	0.014491
660.000000	0.014371
659.000000	0.014283
658.000000	0.014191
657.000000	0.014180
656.000000	0.014290
655.000000	0.014397
654.000000	0.014397
653.000000	0.014356
652.000000	0.014335
651.000000	0.014283
650.000000	0.014185
649.000000	0.014141
648.000000	0.014147
647.000000	0.014045
646.000000	0.013803
645.000000	0.013624
644.000000	0.013627
643.000000	0.013676
642.000000	0.013628
641.000000	0.013562
640.000000	0.013588
639.000000	0.013635
638.000000	0.013607
637.000000	0.013556
636.000000	0.013525
635.000000	0.013424
634.000000	0.013224
633.000000	0.013086
632.000000	0.013130
631.000000	0.013248
630.000000	0.013313
629.000000	0.013386
628.000000	0.013544
627.000000	0.013691
626.000000	0.013723
625.000000	0.013709
624.000000	0.013733
623.000000	0.013726
622.000000	0.013619
621.000000	0.013505
620.000000	0.013468
619.000000	0.013438
618.000000	0.013351
617.000000	0.013310
616.000000	0.013401
615.000000	0.013521
614.000000	0.013573
613.000000	0.013629
612.000000	0.013751
611.000000	0.013828
610.000000	0.013773
609.000000	0.013708
608.000000	0.013756
607.000000	0.013838
606.000000	0.013838
605.000000	0.013802
604.000000	0.013790
603.000000	0.013749
602.000000	0.013679
601.000000	0.013734
600.000000	0.013969
599.000000	0.014194
598.000000	0.014247
597.000000	0.014223
596.000000	0.014229
595.000000	0.014167
594.000000	0.013954
593.000000	0.013750
592.000000	0.013748
591.000000	0.013907
590.000000	0.014104
589.000000	0.014334
588.000000	0.014570
587.000000	0.014646
586.000000	0.014511
585.000000	0.014385
584.000000	0.014421
583.000000	0.014444
582.000000	0.014284
581.000000	0.014097
580.000000	0.014110
579.000000	0.014242
578.000000	0.014291
577.000000	0.014279
576.000000	0.014331
575.000000	0.014412
574.000000	0.014445
573.000000	0.014507
572.000000	0.014652
571.000000	0.014735
570.000000	0.014662
569.000000	0.014610
568.000000	0.014742
567.000000	0.014910
566.000000	0.014917
565.000000	0.014850
564.000000	0.014882
563.000000	0.014982
562.000000	0.015067
561.000000	0.015209
560.000000	0.015440
559.000000	0.015566
558.000000	0.015448
557.000000	0.015250
556.000000	0.015158
555.000000	0.015105
554.000000	0.014987
553.000000	0.014892
552.000000	0.014866
551.000000	0.014741
550.000000	0.014439
549.000000	0.014183
548.000000	0.014136
547.000000	0.014130
546.000000	0.014005
545.000000	0.013897
544.000000	0.013899
543.000000	0.013791
542.000000	0.013427
541.000000	0.013066
540.000000	0.012977
539.000000	0.013049
538.000000	0.013105
537.000000	0.013277
536.000000	0.013724
535.000000	0.014230
534.000000	0.014514
533.000000	0.014650
532.000000	0.014829
531.000000	0.014961
530.000000	0.014861
529.000000	0.014602
528.000000	0.014342
527.000000	0.014052
526.000000	0.013731
525.000000	0.013621
524.000000	0.013791
523.000000	0.013873
522.000000	0.013529
521.000000	0.012892
520.000000	0.012251
519.000000	0.011618
518.000000	0.010935
517.000000	0.010420
516.000000	0.010268
515.000000	0.010275
514.000000	0.010168
513.000000	0.009998
512.000000	0.009888
511.000000	0.009695
510.000000	0.009272
509.000000	0.008814
508.000000	0.008561
507.000000	0.008393
506.000000	0.008056
505.000000	0.007571
504.000000	0.007085
503.000000	0.006585
502.000000	0.006073
501.000000	0.005744
500.000000	0.005662
499.000000	0.005552
498.000000	0.005242
497.000000	0.004979
496.000000	0.005026
495.000000	0.005244
494.000000	0.005361
493.000000	0.005378
492.000000	0.005384
491.000000	0.005262
490.000000	0.004916
489.000000	0.004516
488.000000	0.004173
487.000000	0.003711
486.000000	0.003075
485.000000	0.002631
484.000000	0.002687
483.000000	0.002982
482.000000	0.003104
481.000000	0.003056
480.000000	0.003010
479.000000	0.002879
478.000000	0.002578
477.000000	0.002349
476.000000	0.002384
475.000000	0.002428
474.000000	0.002189
473.000000	0.001870
472.000000	0.001837
471.000000	0.001985
470.000000	0.002022
469.000000	0.002031
468.000000	0.002200
467.000000	0.002396
466.000000	0.002416
465.000000	0.002353
464.000000	0.002277
463.000000	0.001974
462.000000	0.001383
461.000000	0.000879
460.000000	0.000683
459.000000	0.000465
458.000000	-0.000036
457.000000	-0.000424
456.000000	-0.000382
455.000000	-0.000351
454.000000	-0.000735
453.000000	-0.001216
452.000000	-0.001334
451.000000	-0.001258
450.000000	-0.001417
